Wavelength	mm23-200003.asd
350	 5.91622650721896E-02 
351	 6.12157779861104E-02 
352	 5.82192849785293E-02 
353	 5.21513529654001E-02 
354	 5.70624789243361E-02 
355	 5.72705570368282E-02 
356	 5.58217329704368E-02 
357	 0.057869468674861 
358	 5.70064841787691E-02 
359	 5.52494180827239E-02 
360	 5.45610330934208E-02 
361	 5.60002401310105E-02 
362	 5.28316624126287E-02 
363	 5.02940170694972E-02 
364	 0.051007316642199 
365	 5.14653350935132E-02 
366	 5.00038835632272E-02 
367	 4.86879532040027E-02 
368	 4.96610593054347E-02 
369	 5.10577263551887E-02 
370	 5.14381545029071E-02 
371	 5.24004801329513E-02 
372	 5.66894566645522E-02 
373	 5.56965700837231E-02 
374	 5.30212360658773E-02 
375	 5.25733054106686E-02 
376	 5.63142528349962E-02 
377	 5.62128806730278E-02 
378	 5.72560122653128E-02 
379	 6.41536876358199E-02 
380	 6.31991336703184E-02 
381	 6.18091833326719E-02 
382	 6.22852684343748E-02 
383	 6.26455738521666E-02 
384	 6.53716662030613E-02 
385	 6.71046287526789E-02 
386	 6.66899588780649E-02 
387	 6.86179758860655E-02 
388	 7.17461014735151E-02 
389	 0.072738997738261 
390	 0.069989080663905 
391	 7.35750204939622E-02 
392	 7.60268805935361E-02 
393	 7.67319607417971E-02 
394	 8.10267754480696E-02 
395	 8.34560208024418E-02 
396	 8.63132593267947E-02 
397	 9.07682293275737E-02 
398	 9.29499003208092E-02 
399	 9.49404403772946E-02 
400	 9.75586123611186E-02 
401	 0.100724340569199 
402	 0.102096623238392 
403	 0.102818532141864 
404	 0.10369551395858 
405	 0.104955258324375 
406	 0.107477178765597 
407	 0.10995704641765 
408	 0.110964769114811 
409	 0.109395611873869 
410	 0.109621844807384 
411	 0.110931208090319 
412	 0.110677475407534 
413	 0.111497220337256 
414	 0.112081426008548 
415	 0.111477392908471 
416	 0.109574011630148 
417	 0.108583968248833 
418	 0.107700570381596 
419	 0.106104434525325 
420	 0.105808621955174 
421	 0.104762965200217 
422	 0.102848544723843 
423	 0.101227030158818 
424	 0.10006761104342 
425	 9.85384685527237E-02 
426	 0.096478449215397 
427	 9.51311032137377E-02 
428	 0.09403943128162 
429	 9.28367125500387E-02 
430	 9.14777735842515E-02 
431	 9.14345292278872E-02 
432	 9.14212734345626E-02 
433	 0.09149033491102 
434	 9.30114160388738E-02 
435	 9.45935306317863E-02 
436	 9.62478751294214E-02 
437	 9.81620948470062E-02 
438	 0.100185634178775 
439	 0.102464233798909 
440	 0.10510817940771 
441	 0.108115391040281 
442	 0.110826419138538 
443	 0.113808959642154 
444	 0.117195087819517 
445	 0.120283896006278 
446	 0.123483042850874 
447	 0.126696978374322 
448	 0.129803901015068 
449	 0.133165215807818 
450	 0.136662747743339 
451	 0.140056471113302 
452	 0.143074205478779 
453	 0.146244885070385 
454	 0.149291141640229 
455	 0.152135329684228 
456	 0.155561761184592 
457	 0.158904874648694 
458	 0.161942431257963 
459	 0.164764303175059 
460	 0.168211467622068 
461	 0.171381085388879 
462	 0.174064540407719 
463	 0.1772266440363 
464	 0.180241642713985 
465	 0.183230539776357 
466	 0.186386142312586 
467	 0.18937454144909 
468	 0.192334885208053 
469	 0.195269620902528 
470	 0.198068566409653 
471	 0.200783428351744 
472	 0.203479846871753 
473	 0.206197641232087 
474	 0.208893918701676 
475	 0.21163694344796 
476	 0.214352530479852 
477	 0.216917608898381 
478	 0.219339681122135 
479	 0.221723122020685 
480	 0.224116501926035 
481	 0.226492818726761 
482	 0.22869853079673 
483	 0.230878543163393 
484	 0.233143432228505 
485	 0.235131331067897 
486	 0.237014261285208 
487	 0.238812508484891 
488	 0.240424822240202 
489	 0.242002775761593 
490	 0.243571814050742 
491	 0.245129945734806 
492	 0.246711480042545 
493	 0.247906754127554 
494	 0.248913196519719 
495	 0.250175535309639 
496	 0.251580830765113 
497	 0.252658434895799 
498	 0.253371785785099 
499	 0.254369839689037 
500	 0.255219379556585 
501	 0.255941330233592 
502	 0.256650082605537 
503	 0.257279688124877 
504	 0.257878358563274 
505	 0.258487161721553 
506	 0.259129677824971 
507	 0.259651086910636 
508	 0.260073360212813 
509	 0.260471276004162 
510	 0.260980309934054 
511	 0.261274128078383 
512	 0.261516323699466 
513	 0.262055921964892 
514	 0.262349023310476 
515	 0.262555588729927 
516	 0.262835170575688 
517	 0.263228584822492 
518	 0.263401242885285 
519	 0.263508658213895 
520	 0.263787167486026 
521	 0.263945221052615 
522	 0.264179919526387 
523	 0.264508444108695 
524	 0.264737396962356 
525	 0.264864465197951 
526	 0.264954316940942 
527	 0.265076852781181 
528	 0.26523884030816 
529	 0.26555543425118 
530	 0.265904339977385 
531	 0.266042579426509 
532	 0.266282851234859 
533	 0.266536235697926 
534	 0.266752499485595 
535	 0.267103121016825 
536	 0.267331674077779 
537	 0.267493319871544 
538	 0.267746352265312 
539	 0.268024905487156 
540	 0.268291144638857 
541	 0.268562854059737 
542	 0.26892998265113 
543	 0.269219820375913 
544	 0.269507987765864 
545	 0.26989555568839 
546	 0.270307475253169 
547	 0.270652548246155 
548	 0.270971865748541 
549	 0.271407709199296 
550	 0.271798101321207 
551	 0.272187704460146 
552	 0.272630662177888 
553	 0.273113506876625 
554	 0.273553531231657 
555	 0.274021248378519 
556	 0.274637178653015 
557	 0.275174929965396 
558	 0.275685238896039 
559	 0.276243204451399 
560	 0.276923103550809 
561	 0.277473087409058 
562	 0.277994549587852 
563	 0.278670614338003 
564	 0.279381496234938 
565	 0.280103690967338 
566	 0.280843229163208 
567	 0.281633325317796 
568	 0.282508098141132 
569	 0.283346279624714 
570	 0.284075759648072 
571	 0.284909677988154 
572	 0.285778234501176 
573	 0.286668872372011 
574	 0.287601668599149 
575	 0.288482469177872 
576	 0.28929144014216 
577	 0.290074828248563 
578	 0.290994880390648 
579	 0.29194104543972 
580	 0.292912001976233 
581	 0.293963753936501 
582	 0.295222830284679 
583	 0.296464969692826 
584	 0.297580597937397 
585	 0.298671766492776 
586	 0.29966038174329 
587	 0.300626997856065 
588	 0.301664198349161 
589	 0.302715530344949 
590	 0.303740405990139 
591	 0.30475960425274 
592	 0.305848836162778 
593	 0.30696255231676 
594	 0.308054743183794 
595	 0.309103313391229 
596	 0.310138151515608 
597	 0.311260551907122 
598	 0.312465437068963 
599	 0.313677316573733 
600	 0.314755816986288 
601	 0.315788492249999 
602	 0.316828682646087 
603	 0.31782236576172 
604	 0.318790954074493 
605	 0.31973521188337 
606	 0.320665925759294 
607	 0.321686831467712 
608	 0.322633556276772 
609	 0.323501415480108 
610	 0.32448264267957 
611	 0.325492200012219 
612	 0.326469805626189 
613	 0.327351029698477 
614	 0.328045129793229 
615	 0.328742078570471 
616	 0.329477786733499 
617	 0.330178409973457 
618	 0.330928136016413 
619	 0.331637821140436 
620	 0.332255923914992 
621	 0.332855006627571 
622	 0.333448293985854 
623	 0.334044499312609 
624	 0.33464382153374 
625	 0.335230027751493 
626	 0.335750452724019 
627	 0.336237629064916 
628	 0.336837005215229 
629	 0.337369340416746 
630	 0.33786368309714 
631	 0.338385048886665 
632	 0.338899950648994 
633	 0.339379171333419 
634	 0.339835225587106 
635	 0.340312343100776 
636	 0.340772497469135 
637	 0.341237691117835 
638	 0.341710249917039 
639	 0.342108816371314 
640	 0.342602599785577 
641	 0.343111748076562 
642	 0.343478126814997 
643	 0.343922760200242 
644	 0.344388039152931 
645	 0.344830805779075 
646	 0.345268677667737 
647	 0.345641423014124 
648	 0.346016587957266 
649	 0.346466850369326 
650	 0.346923976966067 
651	 0.347338822072823 
652	 0.347732481525947 
653	 0.348183858450072 
654	 0.348677098273864 
655	 0.349079495129269 
656	 0.34937438914253 
657	 0.349895306727352 
658	 0.350341588829238 
659	 0.350709237249334 
660	 0.351122352548327 
661	 0.351520570158569 
662	 0.351967154169345 
663	 0.352448842721513 
664	 0.352825246514983 
665	 0.353273372683153 
666	 0.353716235239067 
667	 0.354057906653818 
668	 0.354425215389951 
669	 0.354891886972806 
670	 0.355413807488322 
671	 0.35585185463769 
672	 0.356180625178522 
673	 0.356541652201132 
674	 0.357009309206065 
675	 0.357428374406614 
676	 0.357875773583689 
677	 0.358316236597658 
678	 0.358684668394941 
679	 0.359037347959866 
680	 0.359465868322044 
681	 0.359954451024313 
682	 0.360346606354174 
683	 0.360837424190249 
684	 0.361262473008172 
685	 0.361505397185211 
686	 0.361963524341493 
687	 0.36241916717639 
688	 0.362816413481825 
689	 0.363220196647998 
690	 0.363625842062759 
691	 0.364015117504842 
692	 0.364398015217815 
693	 0.36485393947542 
694	 0.365257577222146 
695	 0.36566159398337 
696	 0.36612904733451 
697	 0.366389002081164 
698	 0.366700097154565 
699	 0.367135324498239 
700	 0.367540726333548 
701	 0.367900967883339 
702	 0.368241116548395 
703	 0.368589288824552 
704	 0.368945047789383 
705	 0.369309745342067 
706	 0.369645550315238 
707	 0.36991535708794 
708	 0.370262502652595 
709	 0.370622444864287 
710	 0.370934379104409 
711	 0.371176103047855 
712	 0.371428872944789 
713	 0.371654813937123 
714	 0.371834580342911 
715	 0.372157953016332 
716	 0.372449927161926 
717	 0.372650588966293 
718	 0.372801584270056 
719	 0.37301340062419 
720	 0.37319297206091 
721	 0.373285716747123 
722	 0.373363587150408 
723	 0.373505757421573 
724	 0.373655071197017 
725	 0.373720672102637 
726	 0.373725758608325 
727	 0.373695233551881 
728	 0.373665473880903 
729	 0.373674801790755 
730	 0.373618109472948 
731	 0.373535447190954 
732	 0.373446548867281 
733	 0.373242222040936 
734	 0.373105494395937 
735	 0.372996227807503 
736	 0.372795476208896 
737	 0.372530534689441 
738	 0.372278650104732 
739	 0.372032364229536 
740	 0.371692010573479 
741	 0.371374153133061 
742	 0.37098972790397 
743	 0.370508949375283 
744	 0.370190791393056 
745	 0.369795178538346 
746	 0.369309839752729 
747	 0.368825384888424 
748	 0.368315784979401 
749	 0.367781173708959 
750	 0.367250184355818 
751	 0.366779514600475 
752	 0.366191976382936 
753	 0.365514493903583 
754	 0.364833498453417 
755	 0.364260023555719 
756	 0.363653637457722 
757	 0.362976715299627 
758	 0.362256592151407 
759	 0.361550454205497 
760	 0.360813478929928 
761	 0.360051729820713 
762	 0.359345081200655 
763	 0.358655062343022 
764	 0.357899053695708 
765	 0.357058006281957 
766	 0.356321499705773 
767	 0.355592203488079 
768	 0.354799250988707 
769	 0.353914873577027 
770	 0.353104289703561 
771	 0.352333005034337 
772	 0.351545376702645 
773	 0.350689272969667 
774	 0.349910415105262 
775	 0.349110882468213 
776	 0.348224952747398 
777	 0.347427404588234 
778	 0.346651164994102 
779	 0.345865152806538 
780	 0.345055497411065 
781	 0.344224954210415 
782	 0.343388032075699 
783	 0.342562967534467 
784	 0.341771620511645 
785	 0.341008295648891 
786	 0.340235178069511 
787	 0.339436619713749 
788	 0.338657505185537 
789	 0.337942376185861 
790	 0.33720515126502 
791	 0.336362159705188 
792	 0.335620381052966 
793	 0.334877765598649 
794	 0.334127925247589 
795	 0.33344481728743 
796	 0.332632601889684 
797	 0.331853233842494 
798	 0.331207228726964 
799	 0.330584389242834 
800	 0.329953277696003 
801	 0.329250989269747 
802	 0.32847312856635 
803	 0.327839795873406 
804	 0.32726263868959 
805	 0.326649334582558 
806	 0.325937997465881 
807	 0.325282762636636 
808	 0.324705849319031 
809	 0.324167917381809 
810	 0.323573515051218 
811	 0.322964296796127 
812	 0.322336839577643 
813	 0.321714949752479 
814	 0.321220888399784 
815	 0.320751713427036 
816	 0.320254262234548 
817	 0.319711344783614 
818	 0.319163154118785 
819	 0.318682137718991 
820	 0.318227992457771 
821	 0.317685901422059 
822	 0.317281939934424 
823	 0.31677532917517 
824	 0.316145465083535 
825	 0.315836559949971 
826	 0.315505014962227 
827	 0.315107437249034 
828	 0.314679180872486 
829	 0.314226745008225 
830	 0.313795761218708 
831	 0.313419812281987 
832	 0.313113319714236 
833	 0.312855517178665 
834	 0.312535111652261 
835	 0.31214845639111 
836	 0.311797239620561 
837	 0.311483395465274 
838	 0.311242860706861 
839	 0.31103517249047 
840	 0.310690020936469 
841	 0.310335004237881 
842	 0.310050801943893 
843	 0.309866370128429 
844	 0.309711091704713 
845	 0.309493283226014 
846	 0.309210584377268 
847	 0.308938553658335 
848	 0.30888269106911 
849	 0.308809671762851 
850	 0.308644217255098 
851	 0.308469799989588 
852	 0.308239503899703 
853	 0.308102986965192 
854	 0.308061790243671 
855	 0.307876581106685 
856	 0.307813445244997 
857	 0.30774871121877 
858	 0.307597209648993 
859	 0.307604460736126 
860	 0.307698461666413 
861	 0.307694404627192 
862	 0.30748044263734 
863	 0.30742324541306 
864	 0.307483448294396 
865	 0.30753993530314 
866	 0.307470797310559 
867	 0.307482609607903 
868	 0.307536308875167 
869	 0.307595079286648 
870	 0.307652211704121 
871	 0.307759108022854 
872	 0.307890447515283 
873	 0.308029990614429 
874	 0.308198067048755 
875	 0.308257741149445 
876	 0.308310816232165 
877	 0.308464649290598 
878	 0.308675188970006 
879	 0.308939124187569 
880	 0.309165576918606 
881	 0.309303904108081 
882	 0.309587214014329 
883	 0.309797215646298 
884	 0.309963536699136 
885	 0.310232955928973 
886	 0.310510282267744 
887	 0.310810764956444 
888	 0.311076093816384 
889	 0.311223320334945 
890	 0.311587527728011 
891	 0.311975955503694 
892	 0.312316017122622 
893	 0.31276127169664 
894	 0.313116313097087 
895	 0.313420656339581 
896	 0.313756216086879 
897	 0.31418940278834 
898	 0.314670335477107 
899	 0.315128827079033 
900	 0.315535567686608 
901	 0.315978632216519 
902	 0.316427784102725 
903	 0.316910285656718 
904	 0.317444470742145 
905	 0.317954120021806 
906	 0.318484889323685 
907	 0.319014202628278 
908	 0.319524160168401 
909	 0.320198748349938 
910	 0.320815902105583 
911	 0.321350771999189 
912	 0.321918611345732 
913	 0.322507530461952 
914	 0.323159367511959 
915	 0.323847062882061 
916	 0.324489629918882 
917	 0.325102659017506 
918	 0.325769329962231 
919	 0.326484839837978 
920	 0.327145833506397 
921	 0.327916039102939 
922	 0.328674573562987 
923	 0.329373262600594 
924	 0.330138027561897 
925	 0.330901112991295 
926	 0.331675918205253 
927	 0.332448520336703 
928	 0.33312661152933 
929	 0.334003831817374 
930	 0.334967500297374 
931	 0.335866095485642 
932	 0.336732570661255 
933	 0.337489028395231 
934	 0.338270973422262 
935	 0.339201357919605 
936	 0.340197784030016 
937	 0.341039635032077 
938	 0.341871613405536 
939	 0.342888906477021 
940	 0.343995845715447 
941	 0.344979524204231 
942	 0.345908386616374 
943	 0.346928609734721 
944	 0.347978762241698 
945	 0.34894960306358 
946	 0.349895708431896 
947	 0.350923812203008 
948	 0.352005692525383 
949	 0.353033189068716 
950	 0.35402715555923 
951	 0.355090229143846 
952	 0.356349633134833 
953	 0.357438877547044 
954	 0.358442156976848 
955	 0.359635248329832 
956	 0.360750788995356 
957	 0.361850272458952 
958	 0.36298860055512 
959	 0.364185560463415 
960	 0.36536049029725 
961	 0.366509021656757 
962	 0.367692467619751 
963	 0.368961680791187 
964	 0.370101441771534 
965	 0.371262050934702 
966	 0.372506539358546 
967	 0.373786161402746 
968	 0.374884664860825 
969	 0.376121366748391 
970	 0.377436184708136 
971	 0.378564873746264 
972	 0.379861088822646 
973	 0.381163421936477 
974	 0.382369369072502 
975	 0.383514521995807 
976	 0.385008942159285 
977	 0.386432319013568 
978	 0.38771053724119 
979	 0.389036530909453 
980	 0.390481713749701 
981	 0.391708011499291 
982	 0.39290571247702 
983	 0.394441673675434 
984	 0.395686414267376 
985	 0.397043343892263 
986	 0.398440179751923 
987	 0.399662919164869 
988	 0.401414606516557 
989	 0.402771652735623 
990	 0.403843790562117 
991	 0.405201072016156 
992	 0.406596300142534 
993	 0.408082716676426 
994	 0.409611505594341 
995	 0.411081627294816 
996	 0.412422752608828 
997	 0.413599557833546 
998	 0.414880161950506 
999	 0.416449389322663 
1000	 0.417791133148011 
1001	 0.419383483349874 
1002	 0.420655093625034 
1003	 0.421907628602183 
1004	 0.423167086963263 
1005	 0.424550719419478 
1006	 0.425832633115619 
1007	 0.427010058932557 
1008	 0.428235663023255 
1009	 0.429560443433157 
1010	 0.430847701157965 
1011	 0.43213761949386 
1012	 0.433375973768357 
1013	 0.434596135791202 
1014	 0.435832895092611 
1015	 0.437060192454755 
1016	 0.438306761734915 
1017	 0.439515427666509 
1018	 0.44069567572574 
1019	 0.44181993061275 
1020	 0.442979400682925 
1021	 0.444136209876157 
1022	 0.445288191444499 
1023	 0.446421387709901 
1024	 0.447499656602385 
1025	 0.448619710868293 
1026	 0.449730954203365 
1027	 0.450760618047203 
1028	 0.451827298427125 
1029	 0.452900038589864 
1030	 0.453913926185486 
1031	 0.454937845543881 
1032	 0.455992449028947 
1033	 0.457018452021616 
1034	 0.457969468408215 
1035	 0.458961352056432 
1036	 0.459961470091686 
1037	 0.460929005815984 
1038	 0.461917017288027 
1039	 0.462886455574906 
1040	 0.463814109931782 
1041	 0.464740317422781 
1042	 0.46568736126054 
1043	 0.466580719685575 
1044	 0.467497826616352 
1045	 0.468421901249554 
1046	 0.469388455251794 
1047	 0.470275966403804 
1048	 0.471203502063097 
1049	 0.472139133102712 
1050	 0.472984166520342 
1051	 0.473849762907295 
1052	 0.474740791338248 
1053	 0.475565767487036 
1054	 0.476377302976282 
1055	 0.477281926411217 
1056	 0.478212327322932 
1057	 0.479102682977065 
1058	 0.48005362337597 
1059	 0.48091308328294 
1060	 0.481696584486791 
1061	 0.482439473065796 
1062	 0.483273004934589 
1063	 0.484149362060138 
1064	 0.485069939729957 
1065	 0.486010404750644 
1066	 0.486828034484739 
1067	 0.487595729060041 
1068	 0.488382626189836 
1069	 0.4891583148368 
1070	 0.489993506700524 
1071	 0.490925271480965 
1072	 0.491781505397066 
1073	 0.492651490230071 
1074	 0.493466002307281 
1075	 0.494233358852609 
1076	 0.494947122254178 
1077	 0.495676099864473 
1078	 0.496379537635252 
1079	 0.497109609618147 
1080	 0.497845442629843 
1081	 0.498541298613966 
1082	 0.499290805389773 
1083	 0.500017526752291 
1084	 0.500708710355775 
1085	 0.501429163289436 
1086	 0.502200391911716 
1087	 0.50288185765608 
1088	 0.503502213963015 
1089	 0.504193892087808 
1090	 0.504843831758702 
1091	 0.505444576651365 
1092	 0.506095921833586 
1093	 0.506711754301634 
1094	 0.507299962718978 
1095	 0.507920382685928 
1096	 0.508503488952042 
1097	 0.50909682844158 
1098	 0.509695401607672 
1099	 0.510288024043131 
1100	 0.510870214067563 
1101	 0.511475307174504 
1102	 0.512040284424728 
1103	 0.512573279769931 
1104	 0.513104927839342 
1105	 0.513647191622272 
1106	 0.514191944325691 
1107	 0.514702682183358 
1108	 0.515230797331815 
1109	 0.515767042283056 
1110	 0.516291980167601 
1111	 0.516802022272955 
1112	 0.517331522976334 
1113	 0.517818682857789 
1114	 0.518245806765825 
1115	 0.518716139936041 
1116	 0.519196223076305 
1117	 0.519678220715674 
1118	 0.520172213475344 
1119	 0.520660088013035 
1120	 0.521170802609406 
1121	 0.521655901063672 
1122	 0.522109052949755 
1123	 0.522587616863912 
1124	 0.523057618322664 
1125	 0.523509962511972 
1126	 0.523955391104311 
1127	 0.524426636755962 
1128	 0.524850912995518 
1129	 0.525223798718588 
1130	 0.525634427297162 
1131	 0.526063852547288 
1132	 0.526446419348211 
1133	 0.526810468645373 
1134	 0.527184054492865 
1135	 0.527524685596517 
1136	 0.527879917940529 
1137	 0.52825835959158 
1138	 0.528625602906971 
1139	 0.528980745852052 
1140	 0.529349488215163 
1141	 0.529640900537107 
1142	 0.529903042763281 
1143	 0.530144837174606 
1144	 0.530306686534909 
1145	 0.530506645665213 
1146	 0.530736457873593 
1147	 0.530922704809915 
1148	 0.531080736897403 
1149	 0.531249075334405 
1150	 0.53141021125985 
1151	 0.531550120498041 
1152	 0.531691853265061 
1153	 0.53184199705467 
1154	 0.531984119711652 
1155	 0.532096583448513 
1156	 0.532254118244684 
1157	 0.532437327634331 
1158	 0.53260975651257 
1159	 0.532804173459474 
1160	 0.532983478996798 
1161	 0.53313843306922 
1162	 0.533318467937165 
1163	 0.533516560698269 
1164	 0.533700519516932 
1165	 0.533874422239869 
1166	 0.534085995521432 
1167	 0.534255237215775 
1168	 0.534430217155392 
1169	 0.5346328229316 
1170	 0.534849556111577 
1171	 0.535068067309234 
1172	 0.535317796198251 
1173	 0.535539844344791 
1174	 0.535735875306745 
1175	 0.535965541983988 
1176	 0.536197922005529 
1177	 0.536443015913765 
1178	 0.536711530122531 
1179	 0.536983261398627 
1180	 0.537279800194196 
1181	 0.537550487737333 
1182	 0.537807015086361 
1183	 0.538070942827817 
1184	 0.538352227241038 
1185	 0.538627213092767 
1186	 0.538904795591935 
1187	 0.539226524019133 
1188	 0.539488820155426 
1189	 0.539711347148001 
1190	 0.539943611179551 
1191	 0.540153518452039 
1192	 0.540378577371967 
1193	 0.540597834401756 
1194	 0.540833249000292 
1195	 0.541089279635499 
1196	 0.541331181023508 
1197	 0.541586691919803 
1198	 0.541824773644785 
1199	 0.542051640569699 
1200	 0.542255838313113 
1201	 0.542483521625619 
1202	 0.542713281455068 
1203	 0.542938496007228 
1204	 0.543173059021555 
1205	 0.543399411503811 
1206	 0.54361363761478 
1207	 0.543834680575319 
1208	 0.54407957198297 
1209	 0.54428557599341 
1210	 0.544474466603614 
1211	 0.544655636464771 
1212	 0.544794137759503 
1213	 0.544959251874462 
1214	 0.545132904933464 
1215	 0.54530870180784 
1216	 0.545490309769232 
1217	 0.545694293298675 
1218	 0.545860739171701 
1219	 0.546015003504676 
1220	 0.546167655872143 
1221	 0.54628028695102 
1222	 0.546448208326945 
1223	 0.546658060597554 
1224	 0.54683154503743 
1225	 0.547030324059897 
1226	 0.547190570571602 
1227	 0.547289978489504 
1228	 0.547428161882785 
1229	 0.547582633985132 
1230	 0.547723394818417 
1231	 0.547879515218563 
1232	 0.548020326841986 
1233	 0.548149537823294 
1234	 0.548244079703417 
1235	 0.548388313698465 
1236	 0.54854874680731 
1237	 0.548702825230927 
1238	 0.548894391560815 
1239	 0.549038266374065 
1240	 0.549149741209796 
1241	 0.549274204018195 
1242	 0.54938211027089 
1243	 0.549501925150985 
1244	 0.549625834262665 
1245	 0.549756205454495 
1246	 0.549893092676698 
1247	 0.550027506818108 
1248	 0.550165139842994 
1249	 0.55031214217455 
1250	 0.550445908680097 
1251	 0.550569993725629 
1252	 0.550680025869083 
1253	 0.550771896026646 
1254	 0.550876677671183 
1255	 0.550977968119973 
1256	 0.551073857080698 
1257	 0.551177088905704 
1258	 0.551266683617359 
1259	 0.551337939257368 
1260	 0.551413906622174 
1261	 0.551482001229813 
1262	 0.551563004527928 
1263	 0.551667573706948 
1264	 0.55174126295865 
1265	 0.551797807483954 
1266	 0.551864368934552 
1267	 0.551927106503389 
1268	 0.551957902767788 
1269	 0.552018491616382 
1270	 0.552099446031345 
1271	 0.552177373291937 
1272	 0.552262588134067 
1273	 0.552329975911698 
1274	 0.55239027946213 
1275	 0.552469277832872 
1276	 0.552528834984543 
1277	 0.552622114324963 
1278	 0.552754108948025 
1279	 0.552869442458005 
1280	 0.552983415911998 
1281	 0.55311239920824 
1282	 0.553260037377533 
1283	 0.553394216403483 
1284	 0.553537487704189 
1285	 0.553664254431875 
1286	 0.553786940911981 
1287	 0.553905798123749 
1288	 0.554027122346524 
1289	 0.554157400425074 
1290	 0.554267122884009 
1291	 0.554358979689578 
1292	 0.554468125311474 
1293	 0.554576736647321 
1294	 0.554686676975908 
1295	 0.55481277644961 
1296	 0.554920154466537 
1297	 0.555019592282028 
1298	 0.555107630846524 
1299	 0.555192968947742 
1300	 0.555261593653345 
1301	 0.555312355214415 
1302	 0.555358662640371 
1303	 0.555393137260907 
1304	 0.555421829914644 
1305	 0.555446819219084 
1306	 0.55544576015259 
1307	 0.555431000315433 
1308	 0.555387185824489 
1309	 0.555348681753242 
1310	 0.555300149800816 
1311	 0.555239197789316 
1312	 0.555174950977393 
1313	 0.555094657501533 
1314	 0.555001836416043 
1315	 0.55488740312399 
1316	 0.554770014964819 
1317	 0.554626051308961 
1318	 0.554435170993534 
1319	 0.554261141921167 
1320	 0.55408398589234 
1321	 0.553895793816146 
1322	 0.553698856759656 
1323	 0.553524377724672 
1324	 0.553312705806034 
1325	 0.55306744070068 
1326	 0.552816450309065 
1327	 0.552539716166745 
1328	 0.552232201986245 
1329	 0.551920999993497 
1330	 0.5515887642213 
1331	 0.551228928145403 
1332	 0.550867714406245 
1333	 0.550506863912414 
1334	 0.550115561885535 
1335	 0.549678690612795 
1336	 0.549286822013421 
1337	 0.548901653933403 
1338	 0.548510356915373 
1339	 0.548151525535553 
1340	 0.547767123948553 
1341	 0.547360727261258 
1342	 0.546949965732565 
1343	 0.546515035025016 
1344	 0.546107432495139 
1345	 0.545731482370928 
1346	 0.545348779331537 
1347	 0.544984142172075 
1348	 0.54461872295215 
1349	 0.544206644436225 
1350	 0.543790651705431 
1351	 0.543410576346843 
1352	 0.543052831836883 
1353	 0.54268525271838 
1354	 0.542330677495934 
1355	 0.541973689391699 
1356	 0.541604051462649 
1357	 0.541252990743345 
1358	 0.540914419458858 
1359	 0.540585581295483 
1360	 0.540263029089951 
1361	 0.539946034855033 
1362	 0.5396533945265 
1363	 0.539344127911895 
1364	 0.53902583394441 
1365	 0.53871823360299 
1366	 0.538411602727546 
1367	 0.538098035957099 
1368	 0.53782153328548 
1369	 0.537533491382398 
1370	 0.537188254133696 
1371	 0.53682506036186 
1372	 0.536400964523783 
1373	 0.535928125776406 
1374	 0.535444051982181 
1375	 0.534952683646406 
1376	 0.534380768008281 
1377	 0.533792420979002 
1378	 0.533094995960318 
1379	 0.532294861913512 
1380	 0.531485908446607 
1381	 0.530614416510108 
1382	 0.529700663110122 
1383	 0.528779326331553 
1384	 0.527773478351935 
1385	 0.52673940313983 
1386	 0.525586549359296 
1387	 0.524363239503993 
1388	 0.523043126554117 
1389	 0.521642441204337 
1390	 0.520104311148145 
1391	 0.518493002346699 
1392	 0.516782124720112 
1393	 0.51489454525223 
1394	 0.512932837756933 
1395	 0.510832558480205 
1396	 0.508624260333779 
1397	 0.506368519021868 
1398	 0.504047543773255 
1399	 0.501593585304941 
1400	 0.499058582907333 
1401	 0.496420794875967 
1402	 0.493637268896014 
1403	 0.490850695700679 
1404	 0.487963292584534 
1405	 0.485114988940122 
1406	 0.482240228221451 
1407	 0.479344213221304 
1408	 0.47640922115355 
1409	 0.473534027058099 
1410	 0.470594935012105 
1411	 0.46780206979451 
1412	 0.4650780868013 
1413	 0.462456774841172 
1414	 0.459964272661504 
1415	 0.45750843769414 
1416	 0.455137019132262 
1417	 0.452839325534512 
1418	 0.450597733391451 
1419	 0.448448114774181 
1420	 0.44637098405401 
1421	 0.444388525266306 
1422	 0.442464069197057 
1423	 0.440577431388581 
1424	 0.438738871026949 
1425	 0.436956225656415 
1426	 0.435209358438686 
1427	 0.433496472357497 
1428	 0.431846890605203 
1429	 0.430257973728916 
1430	 0.428700586038209 
1431	 0.427223174647322 
1432	 0.425705453819385 
1433	 0.424196040637636 
1434	 0.422697929728133 
1435	 0.42119569887767 
1436	 0.419704880654967 
1437	 0.418240221054613 
1438	 0.416767801137679 
1439	 0.415298682244034 
1440	 0.413810892311283 
1441	 0.412315252986008 
1442	 0.410824667671509 
1443	 0.40934742575742 
1444	 0.407921419428893 
1445	 0.40657579021542 
1446	 0.405366990739138 
1447	 0.404283328072484 
1448	 0.403316951100194 
1449	 0.402512723101372 
1450	 0.401898239565456 
1451	 0.401508047692012 
1452	 0.401294022298394 
1453	 0.401336611568161 
1454	 0.401655680709125 
1455	 0.402062097939797 
1456	 0.402725722254749 
1457	 0.40338065999788 
1458	 0.40418801090335 
1459	 0.404947085522474 
1460	 0.40578292627002 
1461	 0.406547051959043 
1462	 0.407332544633371 
1463	 0.40801639207625 
1464	 0.408675040888024 
1465	 0.40922550086033 
1466	 0.409675082820036 
1467	 0.410062770856448 
1468	 0.410313918321595 
1469	 0.410600539880732 
1470	 0.410853090094558 
1471	 0.411089557552457 
1472	 0.411335269488874 
1473	 0.411580145963159 
1474	 0.411760229811063 
1475	 0.411918812015223 
1476	 0.412074385332431 
1477	 0.412216650469138 
1478	 0.412373704429402 
1479	 0.412539520141394 
1480	 0.412726849389348 
1481	 0.412915823312012 
1482	 0.413105049421439 
1483	 0.413313601539496 
1484	 0.413498715695272 
1485	 0.413663357316031 
1486	 0.413851917490551 
1487	 0.414028068315314 
1488	 0.414241541457277 
1489	 0.414492695783139 
1490	 0.414721692124385 
1491	 0.414975245709269 
1492	 0.415195866540476 
1493	 0.415398214541633 
1494	 0.415592495793175 
1495	 0.415766341921409 
1496	 0.415940993992681 
1497	 0.416107564508024 
1498	 0.416268772885444 
1499	 0.416444790805126 
1500	 0.416581951444668 
1501	 0.416681643596661 
1502	 0.416793468164287 
1503	 0.416885376214056 
1504	 0.416977989867744 
1505	 0.417095174111382 
1506	 0.417212315701535 
1507	 0.41732113607652 
1508	 0.41741431464112 
1509	 0.417479437224981 
1510	 0.417540086495964 
1511	 0.417596840409441 
1512	 0.417643802926564 
1513	 0.417706204637736 
1514	 0.417795101098994 
1515	 0.417875719245196 
1516	 0.417957797836715 
1517	 0.418047683206911 
1518	 0.418148828899321 
1519	 0.418230842844846 
1520	 0.418314641742053 
1521	 0.418391826782976 
1522	 0.418449227142212 
1523	 0.418521921854028 
1524	 0.418602034725843 
1525	 0.418678381734139 
1526	 0.418757366716111 
1527	 0.418833407164403 
1528	 0.418911965233561 
1529	 0.418977187547684 
1530	 0.419037396242638 
1531	 0.41909406782035 
1532	 0.419139701857456 
1533	 0.419183152277925 
1534	 0.419229243513012 
1535	 0.419264677709011 
1536	 0.419287112597494 
1537	 0.419315865754144 
1538	 0.419328762304071 
1539	 0.419361415679327 
1540	 0.419407143908989 
1541	 0.419453078490281 
1542	 0.419508404804944 
1543	 0.419565890771636 
1544	 0.419635190508918 
1545	 0.419692700587779 
1546	 0.419746778360599 
1547	 0.419808908618528 
1548	 0.419841493162096 
1549	 0.419856278517754 
1550	 0.419894791705948 
1551	 0.419934278885769 
1552	 0.420001437745625 
1553	 0.42008608753393 
1554	 0.420142733076232 
1555	 0.420187171296885 
1556	 0.420185479963209 
1557	 0.420154751534372 
1558	 0.420139967750588 
1559	 0.420109788513435 
1560	 0.420090541859452 
1561	 0.420084984663754 
1562	 0.42007263140787 
1563	 0.420042330834933 
1564	 0.420052042725235 
1565	 0.420092005508119 
1566	 0.420099095998104 
1567	 0.420126089775828 
1568	 0.420112725529596 
1569	 0.420047783934653 
1570	 0.420028822889708 
1571	 0.420014035352898 
1572	 0.420003601505879 
1573	 0.420014882022374 
1574	 0.420016595243769 
1575	 0.420021533339353 
1576	 0.420005846553135 
1577	 0.419990583127311 
1578	 0.419959612658581 
1579	 0.419888301720902 
1580	 0.419850948470188 
1581	 0.419811353165199 
1582	 0.419797437576267 
1583	 0.419834900833541 
1584	 0.419823865551448 
1585	 0.419830253876543 
1586	 0.419778941758094 
1587	 0.419655841102479 
1588	 0.419562222348518 
1589	 0.41944582018743 
1590	 0.419343613550035 
1591	 0.419266308071707 
1592	 0.419164825323742 
1593	 0.419059116272284 
1594	 0.418938540077292 
1595	 0.4187971563991 
1596	 0.418655673666982 
1597	 0.418499845539115 
1598	 0.418348823803772 
1599	 0.418223890656524 
1600	 0.418055702517857 
1601	 0.417844550686494 
1602	 0.417658588609647 
1603	 0.417447997323149 
1604	 0.417252733240691 
1605	 0.417095282929054 
1606	 0.416922430008663 
1607	 0.416744732448371 
1608	 0.416560475524601 
1609	 0.416375194905923 
1610	 0.416164630670092 
1611	 0.415912856766345 
1612	 0.415636731036087 
1613	 0.41532786222952 
1614	 0.415031296497095 
1615	 0.414761603613948 
1616	 0.41448057570892 
1617	 0.414188789438421 
1618	 0.413903841951768 
1619	 0.413609232350767 
1620	 0.413301868954155 
1621	 0.413004633163459 
1622	 0.412722653421158 
1623	 0.412417046015701 
1624	 0.412098790329232 
1625	 0.411783078349786 
1626	 0.411462227125191 
1627	 0.411134820875725 
1628	 0.410794393002445 
1629	 0.410481406144008 
1630	 0.410174794981749 
1631	 0.409864349702654 
1632	 0.409582058348828 
1633	 0.409257192252711 
1634	 0.408910079568224 
1635	 0.408552893827931 
1636	 0.408176726213631 
1637	 0.407799334321502 
1638	 0.407401855404229 
1639	 0.407023411967519 
1640	 0.406637251690934 
1641	 0.406280955228409 
1642	 0.405947196807304 
1643	 0.405607341714725 
1644	 0.405283593928647 
1645	 0.404952699005447 
1646	 0.404614483155678 
1647	 0.404286615420353 
1648	 0.403977453617509 
1649	 0.403639184192629 
1650	 0.403295533501816 
1651	 0.402938012043417 
1652	 0.402551122753569 
1653	 0.402184963077981 
1654	 0.401827913893249 
1655	 0.40145285723704 
1656	 0.40107704226349 
1657	 0.40069117198451 
1658	 0.400277344547773 
1659	 0.399891704129262 
1660	 0.399517919651303 
1661	 0.399139631143605 
1662	 0.398765284675928 
1663	 0.398399710312247 
1664	 0.398020902862186 
1665	 0.397681198272307 
1666	 0.397376119576043 
1667	 0.397059103123822 
1668	 0.396774446433887 
1669	 0.396449276584432 
1670	 0.396104160988683 
1671	 0.395756321940599 
1672	 0.395387206724259 
1673	 0.395026772945618 
1674	 0.394655297997797 
1675	 0.394309510517188 
1676	 0.393974105230019 
1677	 0.393644013465508 
1678	 0.393344816696308 
1679	 0.393014696374687 
1680	 0.392662460462282 
1681	 0.392331806142652 
1682	 0.391993820730732 
1683	 0.391672681874716 
1684	 0.391370102992383 
1685	 0.391069786378135 
1686	 0.390790269042825 
1687	 0.390481274890436 
1688	 0.390152604745957 
1689	 0.389851595621186 
1690	 0.389538290194902 
1691	 0.38924584591242 
1692	 0.388992027354699 
1693	 0.388723381652835 
1694	 0.388453047837577 
1695	 0.388176391316352 
1696	 0.387902517135549 
1697	 0.387624760548661 
1698	 0.387335775592669 
1699	 0.387053353687389 
1700	 0.386782460079632 
1701	 0.386492802084827 
1702	 0.386177902930963 
1703	 0.385895737152662 
1704	 0.385637008780627 
1705	 0.385343392095537 
1706	 0.385051013126131 
1707	 0.384759079264451 
1708	 0.384438948447411 
1709	 0.384126496895949 
1710	 0.383819395711818 
1711	 0.383532348451266 
1712	 0.383240467157918 
1713	 0.382962554946103 
1714	 0.382719454219246 
1715	 0.382460757352091 
1716	 0.382193299565572 
1717	 0.381927126375471 
1718	 0.381675927700979 
1719	 0.381400690850437 
1720	 0.381092416486005 
1721	 0.380824301395147 
1722	 0.380548708837867 
1723	 0.380320606026146 
1724	 0.380158265572783 
1725	 0.379938149813378 
1726	 0.379721991095228 
1727	 0.379481937523694 
1728	 0.379191707836423 
1729	 0.378943410552582 
1730	 0.378720935653883 
1731	 0.378475323319119 
1732	 0.378220666454852 
1733	 0.377981743921707 
1734	 0.377728931541987 
1735	 0.377502362383827 
1736	 0.377305219637712 
1737	 0.377103253342349 
1738	 0.376908613281531 
1739	 0.376708302483249 
1740	 0.376511043447604 
1741	 0.376314301225505 
1742	 0.376122631554862 
1743	 0.37591461959315 
1744	 0.375702838717035 
1745	 0.375481974047698 
1746	 0.375249558076521 
1747	 0.374997705309262 
1748	 0.374747566732322 
1749	 0.374513568443298 
1750	 0.374286521905331 
1751	 0.374073620390211 
1752	 0.373870524212695 
1753	 0.373671777604287 
1754	 0.373458433694391 
1755	 0.373259075390728 
1756	 0.373094092440297 
1757	 0.372913436229262 
1758	 0.37270928648009 
1759	 0.372520916502093 
1760	 0.37237382100781 
1761	 0.37223436237028 
1762	 0.372104161695827 
1763	 0.371964835529183 
1764	 0.371794350289408 
1765	 0.371654225301326 
1766	 0.371509288706578 
1767	 0.371349783322111 
1768	 0.371219062694143 
1769	 0.371072026579302 
1770	 0.370943510206617 
1771	 0.370882998789619 
1772	 0.370794010671662 
1773	 0.370680000312964 
1774	 0.37059487474466 
1775	 0.370476458390065 
1776	 0.370353616032174 
1777	 0.370250658293462 
1778	 0.370125308214759 
1779	 0.370016096328569 
1780	 0.369929925009346 
1781	 0.369865306717423 
1782	 0.36980294744952 
1783	 0.369683447417523 
1784	 0.369602813016618 
1785	 0.369505854072037 
1786	 0.369434293088585 
1787	 0.369417092979694 
1788	 0.369373137093569 
1789	 0.369334969249898 
1790	 0.369281672365428 
1791	 0.369211529747033 
1792	 0.369156127764384 
1793	 0.369082829544682 
1794	 0.369028303265983 
1795	 0.368991773448135 
1796	 0.368955986634933 
1797	 0.368918487225845 
1798	 0.368911875040139 
1799	 0.36893847071786 
1800	 0.368951809777646 
1801	 0.361680065639639 
1802	 0.361968161457637 
1803	 0.362256550842862 
1804	 0.362602673048012 
1805	 0.362986444532694 
1806	 0.363358181087504 
1807	 0.363727263800281 
1808	 0.364070134770201 
1809	 0.364438633668365 
1810	 0.364725885821758 
1811	 0.364968222548746 
1812	 0.365186249806814 
1813	 0.365382054418554 
1814	 0.365506014152481 
1815	 0.365604663804759 
1816	 0.365701012826769 
1817	 0.365774503552344 
1818	 0.365793772014475 
1819	 0.365847353930351 
1820	 0.365902149967516 
1821	 0.365957721942529 
1822	 0.366043037417333 
1823	 0.366116112033314 
1824	 0.366204773022316 
1825	 0.366289382134892 
1826	 0.366334122667778 
1827	 0.366368071203409 
1828	 0.366385425240258 
1829	 0.366381029268369 
1830	 0.366356509596612 
1831	 0.36631048128342 
1832	 0.366270897192841 
1833	 0.366187067755908 
1834	 0.366142611283796 
1835	 0.366100113499313 
1836	 0.366016710394902 
1837	 0.365985895141789 
1838	 0.365959288389179 
1839	 0.365940269871518 
1840	 0.365939141959552 
1841	 0.365954900030339 
1842	 0.365938615596133 
1843	 0.365925959633547 
1844	 0.365890897517855 
1845	 0.365825449788976 
1846	 0.365742152909962 
1847	 0.365639083069235 
1848	 0.365550529817803 
1849	 0.365473138880803 
1850	 0.365363509550125 
1851	 0.36525615086193 
1852	 0.365112321267969 
1853	 0.364952349402544 
1854	 0.364764712316576 
1855	 0.364556344880745 
1856	 0.364329619239561 
1857	 0.36404221159012 
1858	 0.363740210065477 
1859	 0.363420148964865 
1860	 0.363036735947199 
1861	 0.362616702380941 
1862	 0.362153252926355 
1863	 0.361634420482842 
1864	 0.361072014536762 
1865	 0.360460772028883 
1866	 0.359795484613262 
1867	 0.359073834380498 
1868	 0.358271299180379 
1869	 0.357420015668365 
1870	 0.356504840185228 
1871	 0.355529609073131 
1872	 0.354485796927455 
1873	 0.353408496233023 
1874	 0.35227372385272 
1875	 0.351077479138886 
1876	 0.349836173990355 
1877	 0.348515383205319 
1878	 0.347042701284656 
1879	 0.345455976168249 
1880	 0.343732384783643 
1881	 0.341851972748398 
1882	 0.339857435866911 
1883	 0.337752691301993 
1884	 0.335487469672407 
1885	 0.333104378837228 
1886	 0.330596368647593 
1887	 0.327924470614515 
1888	 0.325141727955814 
1889	 0.322205736572224 
1890	 0.319145088005765 
1891	 0.316000827490065 
1892	 0.312723037004799 
1893	 0.309366436297484 
1894	 0.305922949579314 
1895	 0.302383335943355 
1896	 0.298703492125095 
1897	 0.294999613647662 
1898	 0.291232916527473 
1899	 0.287422002475558 
1900	 0.283662625374102 
1901	 0.279912109158876 
1902	 0.276276698751242 
1903	 0.272720744826826 
1904	 0.269256424119057 
1905	 0.265855180796691 
1906	 0.262609351163181 
1907	 0.259452183221406 
1908	 0.256383922186112 
1909	 0.253481921859786 
1910	 0.250648848812115 
1911	 0.247931110907727 
1912	 0.245335682040461 
1913	 0.242825883646966 
1914	 0.24040231627582 
1915	 0.23809945718699 
1916	 0.235894728507478 
1917	 0.233788551750169 
1918	 0.231839637301679 
1919	 0.230005186858451 
1920	 0.228267015675257 
1921	 0.226634962869021 
1922	 0.225089645013776 
1923	 0.223651310725087 
1924	 0.222292278922889 
1925	 0.221051495171617 
1926	 0.21986812460118 
1927	 0.218778209089586 
1928	 0.217710667680206 
1929	 0.216709228938162 
1930	 0.215780398874632 
1931	 0.214885493058346 
1932	 0.214057853710964 
1933	 0.213312059914138 
1934	 0.212616971342218 
1935	 0.212008610148097 
1936	 0.211463063776303 
1937	 0.211006283845153 
1938	 0.210619999259656 
1939	 0.21034152800621 
1940	 0.210139077797195 
1941	 0.210043760844787 
1942	 0.210077685177117 
1943	 0.210202282183278 
1944	 0.210424248047621 
1945	 0.210770978385321 
1946	 0.211179183944474 
1947	 0.211677760503483 
1948	 0.212243140438906 
1949	 0.212924897544885 
1950	 0.213605270304663 
1951	 0.214353848123575 
1952	 0.215128921811965 
1953	 0.21587123129456 
1954	 0.216631723509802 
1955	 0.217382097794603 
1956	 0.218097912426732 
1957	 0.218800274068952 
1958	 0.21950880893096 
1959	 0.220156069106575 
1960	 0.220780439396231 
1961	 0.221355014118591 
1962	 0.221880469056613 
1963	 0.222375485714869 
1964	 0.222824083701867 
1965	 0.223237700362726 
1966	 0.223635417892765 
1967	 0.224040878317885 
1968	 0.22444712698285 
1969	 0.224845424442375 
1970	 0.22525941338114 
1971	 0.22568681041253 
1972	 0.226097050262607 
1973	 0.22650334783455 
1974	 0.226917952201699 
1975	 0.227316269789245 
1976	 0.227732420734745 
1977	 0.228182172053261 
1978	 0.228641483821107 
1979	 0.229103728759491 
1980	 0.229600288074107 
1981	 0.230078769678736 
1982	 0.230546603681648 
1983	 0.231037693537416 
1984	 0.231525833278092 
1985	 0.23204085923148 
1986	 0.232596123495228 
1987	 0.233131744587687 
1988	 0.233681973088428 
1989	 0.234228118806419 
1990	 0.234724546723013 
1991	 0.235233563028053 
1992	 0.235726089215024 
1993	 0.236193163314955 
1994	 0.236670432360184 
1995	 0.237151143618672 
1996	 0.237620324772194 
1997	 0.238078620211384 
1998	 0.238545060300254 
1999	 0.239007983727044 
2000	 0.239470569007334 
2001	 0.239936384367788 
2002	 0.240406003987448 
2003	 0.240865582551852 
2004	 0.24132251059107 
2005	 0.241781375347262 
2006	 0.242235852034048 
2007	 0.242701050535217 
2008	 0.243172286123207 
2009	 0.243641280735242 
2010	 0.244131409489057 
2011	 0.244593648264456 
2012	 0.245024977570416 
2013	 0.245477082507884 
2014	 0.245919230060151 
2015	 0.246370577580607 
2016	 0.24684196813167 
2017	 0.247345331504474 
2018	 0.247855532074666 
2019	 0.248384772685459 
2020	 0.248915647729038 
2021	 0.249471911590529 
2022	 0.250010954409477 
2023	 0.250541992868475 
2024	 0.251085818170494 
2025	 0.251630618863849 
2026	 0.252177460350236 
2027	 0.252737162621076 
2028	 0.253294224360609 
2029	 0.253845747564326 
2030	 0.254393880302777 
2031	 0.254936473394186 
2032	 0.25547441674477 
2033	 0.256012602995441 
2034	 0.256543904234054 
2035	 0.257078788021736 
2036	 0.257628712632465 
2037	 0.258154271848442 
2038	 0.258669241283299 
2039	 0.259175924404552 
2040	 0.259655755007243 
2041	 0.260145667990282 
2042	 0.260643359508464 
2043	 0.261138099909758 
2044	 0.261646839517409 
2045	 0.262162390390373 
2046	 0.262690129004151 
2047	 0.263250165789851 
2048	 0.263770218164297 
2049	 0.264304929970661 
2050	 0.26479467107105 
2051	 0.265212996253311 
2052	 0.265675644846093 
2053	 0.266141849193972 
2054	 0.266601738889639 
2055	 0.267081081502082 
2056	 0.267552768151077 
2057	 0.268011401689449 
2058	 0.268445870647223 
2059	 0.268900471439997 
2060	 0.269369365624884 
2061	 0.269813541543321 
2062	 0.270247853637583 
2063	 0.270683185848205 
2064	 0.271101405183094 
2065	 0.271527282194252 
2066	 0.271976598252005 
2067	 0.27239728304557 
2068	 0.272807099627159 
2069	 0.273197838542071 
2070	 0.273587465958275 
2071	 0.273946561184233 
2072	 0.274344951723364 
2073	 0.274759056670583 
2074	 0.275166682075544 
2075	 0.275600589561568 
2076	 0.276003136979087 
2077	 0.276393719425332 
2078	 0.2767699352931 
2079	 0.277122307585473 
2080	 0.277483045823408 
2081	 0.277828304689633 
2082	 0.278184531435361 
2083	 0.278554721980508 
2084	 0.278911572668577 
2085	 0.279278124621023 
2086	 0.279655352839126 
2087	 0.280012880478252 
2088	 0.280358112115727 
2089	 0.280720206980068 
2090	 0.281087681869675 
2091	 0.281435974483426 
2092	 0.281794188462712 
2093	 0.282134654009289 
2094	 0.282444503026553 
2095	 0.282762058909758 
2096	 0.283077950113637 
2097	 0.283395868956783 
2098	 0.283699331893446 
2099	 0.284013266398134 
2100	 0.284354070496034 
2101	 0.284721205787796 
2102	 0.285065358671808 
2103	 0.285425084074019 
2104	 0.285770818230688 
2105	 0.286087582311496 
2106	 0.286429810241632 
2107	 0.286786911901851 
2108	 0.287141543015944 
2109	 0.287495192846198 
2110	 0.287860656113907 
2111	 0.288253956777608 
2112	 0.28861787193968 
2113	 0.288955339702384 
2114	 0.28932548882267 
2115	 0.289683486386745 
2116	 0.290007470724229 
2117	 0.290389479895736 
2118	 0.290806313477267 
2119	 0.291219342124562 
2120	 0.291689971560456 
2121	 0.292078491486341 
2122	 0.29243111596165 
2123	 0.292787605655076 
2124	 0.293098734825399 
2125	 0.293421271889178 
2126	 0.293770543605197 
2127	 0.294085932145785 
2128	 0.294360983451178 
2129	 0.294647991785668 
2130	 0.294917599092245 
2131	 0.295204734493466 
2132	 0.295483245103195 
2133	 0.295778044106841 
2134	 0.296034088498395 
2135	 0.296279545850169 
2136	 0.296498989624183 
2137	 0.296693043490331 
2138	 0.29687125276823 
2139	 0.297020779192557 
2140	 0.297174393804264 
2141	 0.297308843668886 
2142	 0.297444670215248 
2143	 0.297594113668166 
2144	 0.297715304525445 
2145	 0.297837989077908 
2146	 0.297920019581442 
2147	 0.297967961722178 
2148	 0.297992457726204 
2149	 0.298008678804731 
2150	 0.297982546766446 
2151	 0.297986888701547 
2152	 0.298001030494684 
2153	 0.29799778439266 
2154	 0.297992787967681 
2155	 0.297983407582067 
2156	 0.297977890301576 
2157	 0.29793945198997 
2158	 0.297882619779618 
2159	 0.297822480013754 
2160	 0.29771865857196 
2161	 0.297641843756722 
2162	 0.297565250022334 
2163	 0.297513351673776 
2164	 0.297487223057185 
2165	 0.29746380968382 
2166	 0.297425258100045 
2167	 0.29741435903047 
2168	 0.297343273829498 
2169	 0.297228301979626 
2170	 0.297126871964707 
2171	 0.297012731817347 
2172	 0.296883289596642 
2173	 0.296733343286111 
2174	 0.296602904887451 
2175	 0.296458535209504 
2176	 0.296324764893575 
2177	 0.29624021749141 
2178	 0.296099520924828 
2179	 0.29592781878701 
2180	 0.295749439610981 
2181	 0.295540573646463 
2182	 0.295328159578048 
2183	 0.295089677231093 
2184	 0.294869114974275 
2185	 0.294667911680041 
2186	 0.294468933731953 
2187	 0.294275232150874 
2188	 0.294112526365466 
2189	 0.293931329761213 
2190	 0.293735055439766 
2191	 0.293547665206743 
2192	 0.293374848845666 
2193	 0.293186777133621 
2194	 0.292980451615357 
2195	 0.29279139553155 
2196	 0.292602468138959 
2197	 0.292418088033563 
2198	 0.29224222431555 
2199	 0.292074608339322 
2200	 0.291916463833547 
2201	 0.291755078210315 
2202	 0.291606448420585 
2203	 0.291438883832382 
2204	 0.291295983218358 
2205	 0.291143015535399 
2206	 0.291037087525979 
2207	 0.290956091781204 
2208	 0.290898630904239 
2209	 0.290872943200475 
2210	 0.290857472208652 
2211	 0.2908601663665 
2212	 0.290886474878323 
2213	 0.290930399509454 
2214	 0.290999463114366 
2215	 0.291134147973377 
2216	 0.29121310812826 
2217	 0.291285718064959 
2218	 0.291349238613299 
2219	 0.291369861289482 
2220	 0.291408679915798 
2221	 0.291448614749781 
2222	 0.291520440779096 
2223	 0.291551954706936 
2224	 0.29155415871032 
2225	 0.291557531526612 
2226	 0.291540113109456 
2227	 0.291516574323839 
2228	 0.291481986924323 
2229	 0.291461800275147 
2230	 0.291426555972869 
2231	 0.291409391896218 
2232	 0.291423708597442 
2233	 0.291409448093273 
2234	 0.291399224678355 
2235	 0.291355066254671 
2236	 0.291282005671134 
2237	 0.291211465956465 
2238	 0.291108106717311 
2239	 0.291024935543827 
2240	 0.290970958511038 
2241	 0.290880726145435 
2242	 0.290784842188717 
2243	 0.290668746637296 
2244	 0.290532673151395 
2245	 0.290365158205134 
2246	 0.290198804538538 
2247	 0.290016956952084 
2248	 0.289836354468303 
2249	 0.289660287042134 
2250	 0.28944312803944 
2251	 0.289204068674815 
2252	 0.288963599036692 
2253	 0.288673624172579 
2254	 0.288437931647969 
2255	 0.288233368814166 
2256	 0.288006801503248 
2257	 0.2877805246544 
2258	 0.28757100991771 
2259	 0.28734673501892 
2260	 0.287159787991227 
2261	 0.28702945706588 
2262	 0.286859383944057 
2263	 0.286705185812902 
2264	 0.286508921915268 
2265	 0.286236114282011 
2266	 0.286032190455246 
2267	 0.285840557745208 
2268	 0.285655076293997 
2269	 0.285523746418728 
2270	 0.285387609792063 
2271	 0.285197060471633 
2272	 0.284981604647792 
2273	 0.28475399663494 
2274	 0.28451483825053 
2275	 0.284252971032255 
2276	 0.283952058256175 
2277	 0.283706222598591 
2278	 0.283451641833225 
2279	 0.28322558145695 
2280	 0.283054786025258 
2281	 0.282854792792227 
2282	 0.282657620910805 
2283	 0.282446685314279 
2284	 0.282237364212732 
2285	 0.282006171942339 
2286	 0.281755663207918 
2287	 0.281495191091134 
2288	 0.281216841286444 
2289	 0.280937082691114 
2290	 0.28066340772551 
2291	 0.280355256717797 
2292	 0.280029626443353 
2293	 0.279684159681652 
2294	 0.279293649746521 
2295	 0.2789123738448 
2296	 0.278515997923465 
2297	 0.278131569803861 
2298	 0.277757786494598 
2299	 0.277365966994333 
2300	 0.27697420315759 
2301	 0.276613512640196 
2302	 0.276220808194036 
2303	 0.275825053715367 
2304	 0.275442718045516 
2305	 0.275024465734511 
2306	 0.274595133801837 
2307	 0.274161262051297 
2308	 0.27369792276677 
2309	 0.273196604554322 
2310	 0.272721068497621 
2311	 0.272237056949107 
2312	 0.27174796446478 
2313	 0.271294685578613 
2314	 0.27076494780488 
2315	 0.270188511554884 
2316	 0.269616489300449 
2317	 0.26898986345617 
2318	 0.268376737175196 
2319	 0.267759363738811 
2320	 0.26715676492385 
2321	 0.266544927117072 
2322	 0.265957688911275 
2323	 0.265379270743361 
2324	 0.264841726654492 
2325	 0.264373687156042 
2326	 0.263842775487607 
2327	 0.263307723415968 
2328	 0.262770338094623 
2329	 0.262169172896469 
2330	 0.261584901334051 
2331	 0.261071453873808 
2332	 0.260481487277868 
2333	 0.259859203742484 
2334	 0.259255375585927 
2335	 0.258621562371711 
2336	 0.257981847900755 
2337	 0.257362197161995 
2338	 0.256750488572976 
2339	 0.256106881050208 
2340	 0.255444882340732 
2341	 0.254733203777335 
2342	 0.254010409634512 
2343	 0.253328905268875 
2344	 0.252637406797723 
2345	 0.251960086760205 
2346	 0.251388776500973 
2347	 0.25061777003408 
2348	 0.249724427648637 
2349	 0.248900266323427 
2350	 0.247973750040238 
2351	 0.247128828992882 
2352	 0.246389185819228 
2353	 0.245562722794227 
2354	 0.244683630443077 
2355	 0.24384306920992 
2356	 0.243004018939642 
2357	 0.242156016579844 
2358	 0.241310394497482 
2359	 0.240475415688362 
2360	 0.239643180862483 
2361	 0.238794979403807 
2362	 0.237976916961559 
2363	 0.23712888551782 
2364	 0.236228346717125 
2365	 0.235337214002647 
2366	 0.23443620326099 
2367	 0.233533843305633 
2368	 0.232627504445075 
2369	 0.231734142215813 
2370	 0.230852344763462 
2371	 0.229967567915201 
2372	 0.229058930880946 
2373	 0.228178544544622 
2374	 0.227268832264537 
2375	 0.226389530924863 
2376	 0.225507162661724 
2377	 0.224568923183521 
2378	 0.223737615661416 
2379	 0.222877531310592 
2380	 0.221975311384423 
2381	 0.22119345590051 
2382	 0.220368706611025 
2383	 0.219433981114175 
2384	 0.218587753405271 
2385	 0.217752737650192 
2386	 0.216845640013919 
2387	 0.216047098451943 
2388	 0.215263270502784 
2389	 0.214473655281868 
2390	 0.213749975980878 
2391	 0.212954714686874 
2392	 0.212116185508449 
2393	 0.211306425181222 
2394	 0.210546004700864 
2395	 0.209870151501214 
2396	 0.209213220139163 
2397	 0.208523685319763 
2398	 0.207807385848685 
2399	 0.207090176250481 
2400	 0.206464875569601 
2401	 0.205873388147646 
2402	 0.205285937789719 
2403	 0.204762120545096 
2404	 0.204181589089278 
2405	 0.203594994780685 
2406	 0.203037334638419 
2407	 0.20242857412582 
2408	 0.201864630924946 
2409	 0.201341197484108 
2410	 0.200812130413646 
2411	 0.200333705024632 
2412	 0.199858320472127 
2413	 0.199389259307848 
2414	 0.199012235830213 
2415	 0.198583093978518 
2416	 0.19808455576652 
2417	 0.197499925194606 
2418	 0.197012738639594 
2419	 0.196479033593432 
2420	 0.196048450006055 
2421	 0.195796356179009 
2422	 0.195419866341063 
2423	 0.194993303620809 
2424	 0.194579463783143 
2425	 0.194122588976348 
2426	 0.193673378550321 
2427	 0.193216124031932 
2428	 0.192761945620813 
2429	 0.192373860474672 
2430	 0.191869454644579 
2431	 0.191310585696644 
2432	 0.1908078028785 
2433	 0.190172588561556 
2434	 0.189663002850461 
2435	 0.189262976273098 
2436	 0.188872694755054 
2437	 0.188597239320319 
2438	 0.188185843643559 
2439	 0.187740618679554 
2440	 0.187259293964212 
2441	 0.186652983786371 
2442	 0.186135581984352 
2443	 0.185706298586362 
2444	 0.185132900388063 
2445	 0.184457783389374 
2446	 0.183913356586076 
2447	 0.18337937232421 
2448	 0.182831560727801 
2449	 0.18234085893339 
2450	 0.181812512370888 
2451	 0.181210725088652 
2452	 0.180612829096524 
2453	 0.180084548525841 
2454	 0.179543362615439 
2455	 0.178924535875498 
2456	 0.178409318319778 
2457	 0.177923682965126 
2458	 0.177488604652964 
2459	 0.177137771697756 
2460	 0.176732663671628 
2461	 0.176407731060287 
2462	 0.176088964398962 
2463	 0.17562482111854 
2464	 0.175302379199095 
2465	 0.175131315334544 
2466	 0.174839444254151 
2467	 0.174630024251156 
2468	 0.174363410215156 
2469	 0.173912339432646 
2470	 0.173598382203053 
2471	 0.173389842314114 
2472	 0.173100437333103 
2473	 0.172862553929845 
2474	 0.172591940486325 
2475	 0.172236893728913 
2476	 0.172106844939506 
2477	 0.172024472900254 
2478	 0.171833202970086 
2479	 0.171739122039805 
2480	 0.171420820197416 
2481	 0.170853023061008 
2482	 0.170494133983915 
2483	 0.170137372414676 
2484	 0.169848266482838 
2485	 0.169841674583043 
2486	 0.169655481121708 
2487	 0.169330012391702 
2488	 0.168965508997543 
2489	 0.168478958207728 
2490	 0.168171793917608 
2491	 0.167893237752586 
2492	 0.167396188163746 
2493	 0.16696289612801 
2494	 0.16642644657795 
2495	 0.165885138578707 
2496	 0.1657366629405 
2497	 0.165583677607128 
2498	 0.165502664719048 
2499	 0.165330289117111 
2500	 0.164843179842867 
