Wavelength	mm23-200006.asd
350	 6.60646238025498E-02 
351	 6.22863082502394E-02 
352	 5.14209052854963E-02 
353	 0.043500723398662 
354	 4.79820412062058E-02 
355	 5.12888802975667E-02 
356	 5.28755089853559E-02 
357	 5.48106625314121E-02 
358	 5.44640237970849E-02 
359	 4.92473031936256E-02 
360	 4.42995987049688E-02 
361	 4.80218752221548E-02 
362	 4.81924739856841E-02 
363	 4.80005114639975E-02 
364	 4.97641630771899E-02 
365	 5.17546593307703E-02 
366	 0.049439008731293 
367	 4.77269217196574E-02 
368	 5.11157937710296E-02 
369	 5.21777862854317E-02 
370	 5.13426106261278E-02 
371	 5.15653037854797E-02 
372	 5.63156612428174E-02 
373	 5.65790630766479E-02 
374	 5.43917450416342E-02 
375	 0.052921382495933 
376	 5.47006072934865E-02 
377	 0.056357566277552 
378	 0.0573246189933 
379	 5.77672365795634E-02 
380	 5.69172022679458E-02 
381	 0.057570086244782 
382	 6.01530524862373E-02 
383	 6.30507368134022E-02 
384	 0.064040592923521 
385	 0.063490379166383 
386	 6.31736460216853E-02 
387	 6.69188227921023E-02 
388	 6.90078689513543E-02 
389	 6.92167958543919E-02 
390	 6.94376125036167E-02 
391	 7.21618472030705E-02 
392	 7.53272507384206E-02 
393	 7.86417323187317E-02 
394	 8.31511411418332E-02 
395	 8.36813312711283E-02 
396	 8.39027198562801E-02 
397	 8.66639193789948E-02 
398	 0.090084721305288 
399	 9.37336413307086E-02 
400	 0.096860410765661 
401	 9.88400623216289E-02 
402	 9.96082259487369E-02 
403	 0.101514621811488 
404	 0.104597230037127 
405	 0.106576596048993 
406	 0.107446514145617 
407	 0.108845452448584 
408	 0.111066991361658 
409	 0.109945676864697 
410	 0.109348381119705 
411	 0.110151737784843 
412	 0.111587425429687 
413	 0.112704727224357 
414	 0.111802120545746 
415	 0.109499512031144 
416	 0.109283006553826 
417	 0.108796312087665 
418	 0.107724007311767 
419	 0.10631315830527 
420	 0.104964125403142 
421	 0.10336596356489 
422	 0.101865468858959 
423	 0.10107438928812 
424	 0.099474205343398 
425	 0.097613865856459 
426	 9.61022508960142E-02 
427	 0.095228489857666 
428	 9.39122944837456E-02 
429	 9.25495793966023E-02 
430	 9.18737292748535E-02 
431	 9.16451032891139E-02 
432	 9.17826109824101E-02 
433	 9.23047690621132E-02 
434	 9.33086780456565E-02 
435	 9.44992400131691E-02 
436	 0.095994803922416 
437	 9.79220445157319E-02 
438	 0.100194890049183 
439	 0.10278101872563 
440	 0.105580966977948 
441	 0.108453835034785 
442	 0.111234082681526 
443	 0.11438824120396 
444	 0.117897793851884 
445	 0.12093580591552 
446	 0.124009960550435 
447	 0.127217924072377 
448	 0.130500328959737 
449	 0.133647954783656 
450	 0.136789387522963 
451	 0.140090401717929 
452	 0.143703766166107 
453	 0.14692583217 
454	 0.149799309395462 
455	 0.152686636780473 
456	 0.156462496508296 
457	 0.159601023058579 
458	 0.162315251632678 
459	 0.165519173680607 
460	 0.168891861802838 
461	 0.171760525153355 
462	 0.17425459163204 
463	 0.177644166987863 
464	 0.180912750764304 
465	 0.183954085136264 
466	 0.186933082214377 
467	 0.190057620801813 
468	 0.193012882224168 
469	 0.195805569365453 
470	 0.198710087447067 
471	 0.201862091107432 
472	 0.20467765750716 
473	 0.20696983815488 
474	 0.209729172447021 
475	 0.212551302357503 
476	 0.215229337152528 
477	 0.217679885278124 
478	 0.220177397504764 
479	 0.222645364871442 
480	 0.225015326557062 
481	 0.227278275992155 
482	 0.229704516686314 
483	 0.232053142599827 
484	 0.234058556597451 
485	 0.235985813773579 
486	 0.237793293576767 
487	 0.239543110835111 
488	 0.241370563999527 
489	 0.243012771737287 
490	 0.244540974171399 
491	 0.246063243560958 
492	 0.247652693508777 
493	 0.248979314066674 
494	 0.250121083920352 
495	 0.251333459962587 
496	 0.252569879410221 
497	 0.253598926844618 
498	 0.254446402697264 
499	 0.255557002261381 
500	 0.256313304946821 
501	 0.256901579220012 
502	 0.257640384976564 
503	 0.258306891030133 
504	 0.25897367448784 
505	 0.259610434718694 
506	 0.260097491119784 
507	 0.260612837791254 
508	 0.261135645211351 
509	 0.261618075496126 
510	 0.2620598398735 
511	 0.262387550195209 
512	 0.262663421776856 
513	 0.263000553488084 
514	 0.26323074063956 
515	 0.263532027865045 
516	 0.263933310294466 
517	 0.264145956572194 
518	 0.264375156650491 
519	 0.264643232169289 
520	 0.264917074923945 
521	 0.265198572110519 
522	 0.265454381097338 
523	 0.265683142083221 
524	 0.26591729401396 
525	 0.266112191474423 
526	 0.266221493281091 
527	 0.266276528433668 
528	 0.266553680900505 
529	 0.266792458987575 
530	 0.267001736757377 
531	 0.267341879329159 
532	 0.267499566954833 
533	 0.267660442830627 
534	 0.267950091710527 
535	 0.268228989586835 
536	 0.268494642921049 
537	 0.268744192641062 
538	 0.268989390251208 
539	 0.269305484201443 
540	 0.269564458675086 
541	 0.269765702229239 
542	 0.270096025876809 
543	 0.270378181178836 
544	 0.270691139281926 
545	 0.27110958498662 
546	 0.271401625048973 
547	 0.271753105639046 
548	 0.272198925407751 
549	 0.272636994144937 
550	 0.273058174100302 
551	 0.273448849182196 
552	 0.273830593256978 
553	 0.274316978264556 
554	 0.274769189140619 
555	 0.275234436195356 
556	 0.27582968217694 
557	 0.27634573614794 
558	 0.276899443484783 
559	 0.277538273188881 
560	 0.278130138785008 
561	 0.278645093139767 
562	 0.279196947041413 
563	 0.279911884499154 
564	 0.280674755772286 
565	 0.281363359993065 
566	 0.282024629055316 
567	 0.282887245608331 
568	 0.283735844140372 
569	 0.284531088457979 
570	 0.285296659792425 
571	 0.286112874647734 
572	 0.286954963469495 
573	 0.287847106707278 
574	 0.288830256527869 
575	 0.28970437079354 
576	 0.290545879811403 
577	 0.291423225280179 
578	 0.29228154722487 
579	 0.293153815341184 
580	 0.294094029737917 
581	 0.29516411519665 
582	 0.296403270929709 
583	 0.297670420198631 
584	 0.298850066608065 
585	 0.299888928061798 
586	 0.300914000989151 
587	 0.301903658792551 
588	 0.302838476630781 
589	 0.3039087640869 
590	 0.305014969087235 
591	 0.306074469661927 
592	 0.30704541193659 
593	 0.308147793710857 
594	 0.309238198472902 
595	 0.310229517508919 
596	 0.311392389807747 
597	 0.31255240515114 
598	 0.313686940666857 
599	 0.314850787605372 
600	 0.315991960339062 
601	 0.317064532547664 
602	 0.3180620683777 
603	 0.319048609838021 
604	 0.320026950587942 
605	 0.320962807979416 
606	 0.321847127052587 
607	 0.322894697811429 
608	 0.323908088232831 
609	 0.324825722404907 
610	 0.325769415581495 
611	 0.326754660807542 
612	 0.327716369079698 
613	 0.328581080828722 
614	 0.329330030708603 
615	 0.330077513735366 
616	 0.330820612476034 
617	 0.331482119384347 
618	 0.33222362457851 
619	 0.332936736287456 
620	 0.333555354486866 
621	 0.334194701967243 
622	 0.334722210095309 
623	 0.335252851035836 
624	 0.335944222466208 
625	 0.336515004607536 
626	 0.337057066956753 
627	 0.337624797624638 
628	 0.338182693184346 
629	 0.338681434604117 
630	 0.339166046801706 
631	 0.339690157874864 
632	 0.340227535694284 
633	 0.340722799431545 
634	 0.341190140623278 
635	 0.341697171621628 
636	 0.342187364198492 
637	 0.342667033598418 
638	 0.343129310298601 
639	 0.343490499880807 
640	 0.343983001873371 
641	 0.344509259800586 
642	 0.344860610963082 
643	 0.345283198865374 
644	 0.345758711885033 
645	 0.346239735769274 
646	 0.34667514739756 
647	 0.34705606645714 
648	 0.34743031756749 
649	 0.34785371250701 
650	 0.348347529918161 
651	 0.348730649158491 
652	 0.349051733262452 
653	 0.349548164373286 
654	 0.350043790231303 
655	 0.350468429114772 
656	 0.350842792601557 
657	 0.351381959306457 
658	 0.351766193106666 
659	 0.352073347794591 
660	 0.352532176685844 
661	 0.352922001196843 
662	 0.353372170709479 
663	 0.353885362447983 
664	 0.354232787488657 
665	 0.354665734259978 
666	 0.355118908105954 
667	 0.355491751307417 
668	 0.355929106273506 
669	 0.356406889941907 
670	 0.356857966383884 
671	 0.357197102836319 
672	 0.357595300028834 
673	 0.358036155756933 
674	 0.358478218201834 
675	 0.358903606446037 
676	 0.359338239451815 
677	 0.359756088424716 
678	 0.360123761687671 
679	 0.360510397299508 
680	 0.360953686013951 
681	 0.361426732048705 
682	 0.361825137931279 
683	 0.362244836864433 
684	 0.362629383595022 
685	 0.362954181136158 
686	 0.363461286929366 
687	 0.363903801890163 
688	 0.36427369845966 
689	 0.364724741017892 
690	 0.365124771067713 
691	 0.36550574373383 
692	 0.365903915014752 
693	 0.3663212584341 
694	 0.366707142496171 
695	 0.367116966572218 
696	 0.367595472696813 
697	 0.3678979867609 
698	 0.368221995892051 
699	 0.368629628606312 
700	 0.369012879064998 
701	 0.369333958465705 
702	 0.369678205540581 
703	 0.37009694877937 
704	 0.370470795788332 
705	 0.370823467244384 
706	 0.371130643302919 
707	 0.371373238260875 
708	 0.371769048142381 
709	 0.372127668600989 
710	 0.372382793196493 
711	 0.372711681045843 
712	 0.372962985103786 
713	 0.373144835051456 
714	 0.373329330328355 
715	 0.37365305152271 
716	 0.373961560336073 
717	 0.374171280504869 
718	 0.374277637814538 
719	 0.374483735175089 
720	 0.374670572762751 
721	 0.374758042428146 
722	 0.374828209859857 
723	 0.374961489200486 
724	 0.375103301067311 
725	 0.375167222645959 
726	 0.37519455912318 
727	 0.375143955921842 
728	 0.375079232986879 
729	 0.375145447692312 
730	 0.375083546984051 
731	 0.37499012916359 
732	 0.37493286573908 
733	 0.374738272819366 
734	 0.374594524400331 
735	 0.374469639124546 
736	 0.374256918461442 
737	 0.37399875033438 
738	 0.373738570669047 
739	 0.373468170220868 
740	 0.37312619225029 
741	 0.372824787924021 
742	 0.372456263751664 
743	 0.371975376229535 
744	 0.37164134121166 
745	 0.371242142840529 
746	 0.370763942964297 
747	 0.370284179500928 
748	 0.369805550001153 
749	 0.369245278992394 
750	 0.368650926797424 
751	 0.368226858186385 
752	 0.367635399969688 
753	 0.366948842667813 
754	 0.366297736172741 
755	 0.365685197967182 
756	 0.365068507009801 
757	 0.364415405312938 
758	 0.363709718787691 
759	 0.362990959009853 
760	 0.362266714267256 
761	 0.361528035873811 
762	 0.360751142491929 
763	 0.360091698375698 
764	 0.359383410507097 
765	 0.358511798803135 
766	 0.357732825137704 
767	 0.357008051083999 
768	 0.356235493204886 
769	 0.355323330506724 
770	 0.354514012513959 
771	 0.353748632914891 
772	 0.35294955343888 
773	 0.352058180833415 
774	 0.351285159339505 
775	 0.350509621602049 
776	 0.349633359655174 
777	 0.348832141260288 
778	 0.34804765565313 
779	 0.347253024052341 
780	 0.346438050034479 
781	 0.345620292110932 
782	 0.34480163677291 
783	 0.343982373725839 
784	 0.343165535810062 
785	 0.342367950896608 
786	 0.341582647012046 
787	 0.340802699009486 
788	 0.340029518034471 
789	 0.33931191688181 
790	 0.338579521351368 
791	 0.337757099596993 
792	 0.336990688779942 
793	 0.336239372907102 
794	 0.335500171190746 
795	 0.334799076643256 
796	 0.333972719903851 
797	 0.333217858267298 
798	 0.332617188159124 
799	 0.331946647032588 
800	 0.331280878331535 
801	 0.330582297961035 
802	 0.329833144512469 
803	 0.329198266849265 
804	 0.328615784330661 
805	 0.328008038941098 
806	 0.327311907250738 
807	 0.326626261924197 
808	 0.326010031164129 
809	 0.325457950410907 
810	 0.324888940094152 
811	 0.324307816438813 
812	 0.323696904969985 
813	 0.323074393956738 
814	 0.322558749660997 
815	 0.322090266980696 
816	 0.321609167770625 
817	 0.321069337359539 
818	 0.3204914311678 
819	 0.320005489468184 
820	 0.319558687943696 
821	 0.318970915466786 
822	 0.318567440557046 
823	 0.318079991028938 
824	 0.317463425786149 
825	 0.317176001685823 
826	 0.316816146549265 
827	 0.316406774872328 
828	 0.316027240738518 
829	 0.315540765918905 
830	 0.31511212139829 
831	 0.314755054888609 
832	 0.314412780814602 
833	 0.314128763538716 
834	 0.313816298071215 
835	 0.313463252575396 
836	 0.313134355458508 
837	 0.312821891956007 
838	 0.312554045831342 
839	 0.312303500584196 
840	 0.311943760349223 
841	 0.311590459906916 
842	 0.311323369077067 
843	 0.311163586684532 
844	 0.311004885220718 
845	 0.310793057322602 
846	 0.310521685472016 
847	 0.310245714702148 
848	 0.310179203111261 
849	 0.310089453641442 
850	 0.309895882507499 
851	 0.309679736435143 
852	 0.309477612306641 
853	 0.309376099299747 
854	 0.309335497967994 
855	 0.309139595598981 
856	 0.309086119361363 
857	 0.309052452038391 
858	 0.308935223483745 
859	 0.308939826832315 
860	 0.308989039319554 
861	 0.308954241506077 
862	 0.308773257513724 
863	 0.308735818224827 
864	 0.308779051279826 
865	 0.308812059867969 
866	 0.308761066548787 
867	 0.308753222979165 
868	 0.308801866738156 
869	 0.308881401023819 
870	 0.308943370959429 
871	 0.30902917391637 
872	 0.309159543744809 
873	 0.309328815671196 
874	 0.309496864660414 
875	 0.309595046372192 
876	 0.309661514790531 
877	 0.309769435063801 
878	 0.310007243621026 
879	 0.310232241010294 
880	 0.310441031363075 
881	 0.310673252947732 
882	 0.310925737846062 
883	 0.311118925131434 
884	 0.311273569123944 
885	 0.311473716242735 
886	 0.311794120090027 
887	 0.312126737867015 
888	 0.312405508770017 
889	 0.312630907857845 
890	 0.312919171110493 
891	 0.313244065293024 
892	 0.313605585933011 
893	 0.314051193515009 
894	 0.314410857627781 
895	 0.314746875725659 
896	 0.315123508413853 
897	 0.315518756298155 
898	 0.315996335612016 
899	 0.316458825535677 
900	 0.316834868520487 
901	 0.317223145750271 
902	 0.317732636567028 
903	 0.318313211415572 
904	 0.318856650072977 
905	 0.319292346389498 
906	 0.319778882094128 
907	 0.320308543830968 
908	 0.320824611703928 
909	 0.321497082325755 
910	 0.322083174057225 
911	 0.322592809807567 
912	 0.323192021645892 
913	 0.323768687716712 
914	 0.324418496308056 
915	 0.325132462991607 
916	 0.325802932111952 
917	 0.326433547348628 
918	 0.327107554444542 
919	 0.327822027230444 
920	 0.328476027855474 
921	 0.329258833027887 
922	 0.329976090097572 
923	 0.330591375988143 
924	 0.331380366055508 
925	 0.332228840496917 
926	 0.333055541493917 
927	 0.333809140301599 
928	 0.334484254745658 
929	 0.335337811513762 
930	 0.336309091523419 
931	 0.337257748427078 
932	 0.338089126808166 
933	 0.338850697991192 
934	 0.339659482141113 
935	 0.340604142845069 
936	 0.341661635278966 
937	 0.342451542886959 
938	 0.343195527024412 
939	 0.344203451162583 
940	 0.345322197767181 
941	 0.346296401376972 
942	 0.347243568223823 
943	 0.348335855977551 
944	 0.349293506764584 
945	 0.350226173889665 
946	 0.351222269660982 
947	 0.352303002353466 
948	 0.353267439520507 
949	 0.354352814635157 
950	 0.355473670811644 
951	 0.35645736545841 
952	 0.357612672528704 
953	 0.35866541567463 
954	 0.359717070306325 
955	 0.360994890838668 
956	 0.362130755664903 
957	 0.363189889064064 
958	 0.364280911384272 
959	 0.365486948760043 
960	 0.366681341812802 
961	 0.367911691863007 
962	 0.369158744807158 
963	 0.370353148825029 
964	 0.371450261223361 
965	 0.37264106831623 
966	 0.37393678603007 
967	 0.375209389596447 
968	 0.376370166763162 
969	 0.377607825152475 
970	 0.378900904816174 
971	 0.38009025400488 
972	 0.381226986222447 
973	 0.382438948178906 
974	 0.383744637478779 
975	 0.385096991882494 
976	 0.386619646278829 
977	 0.387940335281143 
978	 0.389128211735204 
979	 0.390496308161966 
980	 0.391839520579082 
981	 0.393188286136963 
982	 0.39454325171349 
983	 0.395888108765903 
984	 0.397251822984413 
985	 0.398599263061365 
986	 0.399901205413666 
987	 0.401180293568424 
988	 0.402682819299262 
989	 0.404007026231002 
990	 0.405311875707049 
991	 0.406912377293229 
992	 0.408357467525455 
993	 0.409680637965998 
994	 0.411052410959865 
995	 0.412568697989047 
996	 0.413811413210028 
997	 0.415178147114792 
998	 0.41660806618219 
999	 0.417937940969143 
1000	 0.419361727546165 
1001	 0.420769741887934 
1002	 0.422125946060014 
1003	 0.423472796686946 
1004	 0.424754802915867 
1005	 0.426108671240477 
1006	 0.427416567730577 
1007	 0.428649888697685 
1008	 0.429780390956638 
1009	 0.431036461088429 
1010	 0.432251345004944 
1011	 0.433455292913246 
1012	 0.434712765461889 
1013	 0.435990507753008 
1014	 0.437275196188392 
1015	 0.43851359877046 
1016	 0.439739245396648 
1017	 0.440935166529229 
1018	 0.442099733956226 
1019	 0.443185557809765 
1020	 0.444350197641663 
1021	 0.445556264313255 
1022	 0.446695679429631 
1023	 0.447899872017063 
1024	 0.449062436487922 
1025	 0.450127929724243 
1026	 0.451214534131745 
1027	 0.452276199084612 
1028	 0.453332376585631 
1029	 0.454414658161856 
1030	 0.45546573630197 
1031	 0.456498340453333 
1032	 0.457517053135906 
1033	 0.458549445307234 
1034	 0.459562882138149 
1035	 0.46056724505109 
1036	 0.461612306885919 
1037	 0.462613585020191 
1038	 0.46361537001568 
1039	 0.464625714913259 
1040	 0.465508960620731 
1041	 0.466382259734408 
1042	 0.467319505678795 
1043	 0.468214971064407 
1044	 0.469112702708495 
1045	 0.470055815237466 
1046	 0.471032234086251 
1047	 0.471871757487562 
1048	 0.472713335584481 
1049	 0.473622988529717 
1050	 0.474462132977124 
1051	 0.475340221983301 
1052	 0.476236492059151 
1053	 0.477106897516119 
1054	 0.478068823704701 
1055	 0.479060829684374 
1056	 0.479992980133617 
1057	 0.480894353689449 
1058	 0.481782023144841 
1059	 0.482643120973867 
1060	 0.483431155686942 
1061	 0.484257854983713 
1062	 0.485145408327737 
1063	 0.485980852813247 
1064	 0.486841561118179 
1065	 0.487720404394521 
1066	 0.488559459959684 
1067	 0.489424460187862 
1068	 0.490228499656009 
1069	 0.491020190146669 
1070	 0.491852835263604 
1071	 0.492705762107717 
1072	 0.493513836986968 
1073	 0.494330316923643 
1074	 0.495141658334146 
1075	 0.495946063504428 
1076	 0.496675323348124 
1077	 0.497379432864642 
1078	 0.498089881306523 
1079	 0.498763916090986 
1080	 0.499481305732174 
1081	 0.500218628483584 
1082	 0.50098748139783 
1083	 0.501728629034492 
1084	 0.502411688486709 
1085	 0.503126900311797 
1086	 0.503891331947559 
1087	 0.504602966603339 
1088	 0.505272700149625 
1089	 0.505994407032646 
1090	 0.506687098550911 
1091	 0.507312991999966 
1092	 0.507917501538412 
1093	 0.508512813725103 
1094	 0.509098296742837 
1095	 0.50964418371219 
1096	 0.510233927038721 
1097	 0.510833272558248 
1098	 0.511433886339738 
1099	 0.512063842579835 
1100	 0.512664609653523 
1101	 0.513251709424004 
1102	 0.513835477020744 
1103	 0.514427922042912 
1104	 0.514970706641355 
1105	 0.515484718635628 
1106	 0.516023810378347 
1107	 0.51652747876514 
1108	 0.517044914328891 
1109	 0.517592341076084 
1110	 0.518077515347098 
1111	 0.51857285963341 
1112	 0.519057062145284 
1113	 0.5195356646297 
1114	 0.51999572772012 
1115	 0.520480887338996 
1116	 0.520971657294353 
1117	 0.521465807081574 
1118	 0.52196676685995 
1119	 0.522475917927887 
1120	 0.523001280525987 
1121	 0.52347678837526 
1122	 0.523944236102348 
1123	 0.52443426741919 
1124	 0.524905018659826 
1125	 0.525372327645352 
1126	 0.525802057603897 
1127	 0.526196324404325 
1128	 0.526627113751017 
1129	 0.527054095035581 
1130	 0.527474814147865 
1131	 0.527933641568806 
1132	 0.528348389669517 
1133	 0.52871075728664 
1134	 0.529091356457963 
1135	 0.529468858733891 
1136	 0.529862637283907 
1137	 0.530211628539694 
1138	 0.530551534741922 
1139	 0.530900652929883 
1140	 0.531246739470164 
1141	 0.531555144881756 
1142	 0.531876273216254 
1143	 0.532149780111253 
1144	 0.532370855639496 
1145	 0.532592286971148 
1146	 0.532800157648398 
1147	 0.532994307202194 
1148	 0.533170419042592 
1149	 0.533333027795579 
1150	 0.53346908484749 
1151	 0.533627234929028 
1152	 0.533746572950423 
1153	 0.533867197446602 
1154	 0.534012473828809 
1155	 0.534159329055646 
1156	 0.534317965724935 
1157	 0.534497252073583 
1158	 0.534678206072001 
1159	 0.534871275089125 
1160	 0.53505675756916 
1161	 0.535251616372976 
1162	 0.535434662701297 
1163	 0.535604753933748 
1164	 0.535778034576039 
1165	 0.535917681720537 
1166	 0.536120952393184 
1167	 0.536336061593678 
1168	 0.536545993825866 
1169	 0.536778564385802 
1170	 0.537056792659682 
1171	 0.537287911976161 
1172	 0.537506703789438 
1173	 0.53772722301265 
1174	 0.537916887364126 
1175	 0.538145210721656 
1176	 0.538396341822739 
1177	 0.538640533388598 
1178	 0.538888535998945 
1179	 0.539154146615487 
1180	 0.539429092208619 
1181	 0.539703403633282 
1182	 0.539997586003276 
1183	 0.540291461575328 
1184	 0.540572009166113 
1185	 0.540845907480599 
1186	 0.541107308012762 
1187	 0.541355343640938 
1188	 0.54161497454716 
1189	 0.541868851275733 
1190	 0.542122218746345 
1191	 0.54240267990253 
1192	 0.54264008485443 
1193	 0.542830967917533 
1194	 0.543056568678451 
1195	 0.543276216139692 
1196	 0.54350103823483 
1197	 0.543759762717531 
1198	 0.543998611007751 
1199	 0.544228604822764 
1200	 0.544439223776048 
1201	 0.54466958817331 
1202	 0.544905955333086 
1203	 0.545130165153912 
1204	 0.54535983179127 
1205	 0.545577679468696 
1206	 0.545767482210555 
1207	 0.545989321317408 
1208	 0.546239404681576 
1209	 0.546458684563656 
1210	 0.546698638174339 
1211	 0.546896357180938 
1212	 0.547031811248955 
1213	 0.547200277099135 
1214	 0.547368227609882 
1215	 0.547533865773057 
1216	 0.547703776404427 
1217	 0.547892853986026 
1218	 0.548063925496566 
1219	 0.548210984736065 
1220	 0.548393780553821 
1221	 0.548605986608153 
1222	 0.548783121546738 
1223	 0.548963951873566 
1224	 0.549134268769523 
1225	 0.549277587704553 
1226	 0.549427739896002 
1227	 0.549590845364549 
1228	 0.549736591730419 
1229	 0.549854428958691 
1230	 0.549990354809755 
1231	 0.550125554091723 
1232	 0.550267548948479 
1233	 0.550416922448008 
1234	 0.550582918604297 
1235	 0.550736726169068 
1236	 0.550895239485681 
1237	 0.551041674264115 
1238	 0.55118025275359 
1239	 0.551318665550048 
1240	 0.551445770345359 
1241	 0.551581577834931 
1242	 0.551725268989001 
1243	 0.551861356601062 
1244	 0.552000597631596 
1245	 0.552132553148068 
1246	 0.552254585492636 
1247	 0.552377415051027 
1248	 0.552492012074603 
1249	 0.552614126799072 
1250	 0.552735817304047 
1251	 0.552874198921033 
1252	 0.553010097691581 
1253	 0.55316863818059 
1254	 0.553283920855628 
1255	 0.553386903493859 
1256	 0.553478116012325 
1257	 0.553532070132576 
1258	 0.553608354187544 
1259	 0.553682395739717 
1260	 0.553768752777248 
1261	 0.553871679197155 
1262	 0.553959646564597 
1263	 0.554064635325612 
1264	 0.554139853715747 
1265	 0.554176014482919 
1266	 0.554232041485812 
1267	 0.554284288527635 
1268	 0.554333867788093 
1269	 0.554393539679764 
1270	 0.554463481922139 
1271	 0.554537960551446 
1272	 0.55461752688212 
1273	 0.554693923594926 
1274	 0.554783245658782 
1275	 0.554860657918323 
1276	 0.5549082560904 
1277	 0.555000476596073 
1278	 0.555110480670333 
1279	 0.555226992811278 
1280	 0.555379845818712 
1281	 0.555515865660573 
1282	 0.555650001943167 
1283	 0.555778725113833 
1284	 0.55590319507333 
1285	 0.556034594463188 
1286	 0.556139303106593 
1287	 0.556243488261547 
1288	 0.556351123752623 
1289	 0.556444258867021 
1290	 0.556564970485344 
1291	 0.556704947360904 
1292	 0.55683178530141 
1293	 0.556976834627773 
1294	 0.557092267677199 
1295	 0.557187414273289 
1296	 0.557285841248637 
1297	 0.557386339073818 
1298	 0.557460764568673 
1299	 0.557519769084246 
1300	 0.557576457755585 
1301	 0.557611228490702 
1302	 0.557642536325643 
1303	 0.557671566120245 
1304	 0.557697276136782 
1305	 0.557722780117858 
1306	 0.557731153508506 
1307	 0.557719991701726 
1308	 0.557709856015578 
1309	 0.557675473049324 
1310	 0.557619588464113 
1311	 0.557539483839703 
1312	 0.557435301813808 
1313	 0.557342619609025 
1314	 0.557231838851153 
1315	 0.557115794964878 
1316	 0.557013244015409 
1317	 0.556884888045313 
1318	 0.556728640706255 
1319	 0.556571832985273 
1320	 0.556429104120089 
1321	 0.556245873060218 
1322	 0.556029441518266 
1323	 0.555816670389659 
1324	 0.555582476695771 
1325	 0.555320485280688 
1326	 0.555071271376006 
1327	 0.554812100255744 
1328	 0.554518931218032 
1329	 0.554225411693474 
1330	 0.553899672128987 
1331	 0.553538160103308 
1332	 0.553184140972828 
1333	 0.552820876454441 
1334	 0.552442437382437 
1335	 0.552038715073086 
1336	 0.551667077087834 
1337	 0.551310100943428 
1338	 0.550929560082248 
1339	 0.550568670133457 
1340	 0.550177850570943 
1341	 0.549737276285167 
1342	 0.549320749437399 
1343	 0.548902104607713 
1344	 0.548496369519596 
1345	 0.548106121317851 
1346	 0.547721565718142 
1347	 0.54733129494315 
1348	 0.546959708377667 
1349	 0.54656588492125 
1350	 0.546161430935319 
1351	 0.545793268614363 
1352	 0.545442996426625 
1353	 0.545089190366466 
1354	 0.544757110111887 
1355	 0.544419465692844 
1356	 0.544075442081437 
1357	 0.54373180837664 
1358	 0.543381585194493 
1359	 0.543055018789691 
1360	 0.542732134592328 
1361	 0.542419461891897 
1362	 0.542151272579894 
1363	 0.54185261607828 
1364	 0.541530007920108 
1365	 0.541223750868558 
1366	 0.540918794260715 
1367	 0.540603198393236 
1368	 0.540327309498462 
1369	 0.540049319267146 
1370	 0.539716649530485 
1371	 0.539350495509102 
1372	 0.538923483739229 
1373	 0.53847182344715 
1374	 0.537995642448515 
1375	 0.537517846301043 
1376	 0.536948790699399 
1377	 0.536343570805649 
1378	 0.535645254913443 
1379	 0.534852842399112 
1380	 0.534042253166257 
1381	 0.533167843436033 
1382	 0.532263775670776 
1383	 0.531357463170376 
1384	 0.530349973231018 
1385	 0.529317045735908 
1386	 0.528166279979391 
1387	 0.526931742173308 
1388	 0.525602522257127 
1389	 0.524185509546659 
1390	 0.522660386169531 
1391	 0.521069648064418 
1392	 0.519340193086003 
1393	 0.517470102380018 
1394	 0.515514828562022 
1395	 0.513382592455327 
1396	 0.511177595713863 
1397	 0.50891939047523 
1398	 0.506599879956484 
1399	 0.50414034444495 
1400	 0.501599812126904 
1401	 0.498952867543238 
1402	 0.496151238040087 
1403	 0.493344639503277 
1404	 0.490440271608307 
1405	 0.487582285622453 
1406	 0.484685221250344 
1407	 0.481786483097979 
1408	 0.478874365287553 
1409	 0.475998557834011 
1410	 0.47305882124915 
1411	 0.470263488178426 
1412	 0.467522952813242 
1413	 0.464886442461999 
1414	 0.462401953446291 
1415	 0.459955938520078 
1416	 0.457616008393243 
1417	 0.455347929650019 
1418	 0.453088099798605 
1419	 0.450923688961328 
1420	 0.448826539846357 
1421	 0.446802244324588 
1422	 0.44488281938683 
1423	 0.44300573043659 
1424	 0.441146894755444 
1425	 0.439325650795505 
1426	 0.437556721551662 
1427	 0.435795692482451 
1428	 0.43413604978258 
1429	 0.432572239618314 
1430	 0.431019244816224 
1431	 0.429563291868971 
1432	 0.428040379812938 
1433	 0.426503969920004 
1434	 0.424985388653409 
1435	 0.423440427481978 
1436	 0.421932965724997 
1437	 0.420470294859614 
1438	 0.418994566946219 
1439	 0.417538717230458 
1440	 0.416046027874477 
1441	 0.414539257894546 
1442	 0.413045047909592 
1443	 0.411557092490431 
1444	 0.410127706514192 
1445	 0.408768874806356 
1446	 0.407531635605512 
1447	 0.406424242929193 
1448	 0.405463874860488 
1449	 0.404681760543425 
1450	 0.404066033794038 
1451	 0.403681967018552 
1452	 0.403472451016385 
1453	 0.403518741702411 
1454	 0.403841032912943 
1455	 0.404262464867469 
1456	 0.404953651037946 
1457	 0.405620454293612 
1458	 0.406435460175998 
1459	 0.407201443034962 
1460	 0.408036648082114 
1461	 0.408796764184626 
1462	 0.409575199667287 
1463	 0.410258311462885 
1464	 0.410909664300275 
1465	 0.411458852319093 
1466	 0.411916880978581 
1467	 0.412319496164577 
1468	 0.412592890050857 
1469	 0.412895003443722 
1470	 0.413181915958386 
1471	 0.413414496383547 
1472	 0.4136470159782 
1473	 0.413883995727342 
1474	 0.414061067229945 
1475	 0.414224495223074 
1476	 0.414369748308293 
1477	 0.414505963339504 
1478	 0.414665542305111 
1479	 0.414817825051572 
1480	 0.414999151197671 
1481	 0.415191141293969 
1482	 0.415368734506155 
1483	 0.415536686801189 
1484	 0.415723137480643 
1485	 0.415910705826215 
1486	 0.416104432150098 
1487	 0.41630224597764 
1488	 0.416519392720694 
1489	 0.416751737999081 
1490	 0.416979946079608 
1491	 0.417239500571349 
1492	 0.417461572963403 
1493	 0.417658075563317 
1494	 0.417860156533611 
1495	 0.418051496706366 
1496	 0.418238344086152 
1497	 0.418436803531856 
1498	 0.41860857513652 
1499	 0.418766505405145 
1500	 0.418904941252675 
1501	 0.419012148312901 
1502	 0.41912403276629 
1503	 0.419217093529883 
1504	 0.419323540027017 
1505	 0.419430915745405 
1506	 0.419519088648147 
1507	 0.419604000287548 
1508	 0.419685191994699 
1509	 0.419761153985805 
1510	 0.419842009485279 
1511	 0.41991266061312 
1512	 0.419976599818937 
1513	 0.420060187820234 
1514	 0.420159644933219 
1515	 0.420260345683092 
1516	 0.420352409590929 
1517	 0.420440518603589 
1518	 0.420518964326357 
1519	 0.420594729210635 
1520	 0.420674764730651 
1521	 0.420741494386506 
1522	 0.420785304663666 
1523	 0.420845162169735 
1524	 0.420906458345083 
1525	 0.420964990204688 
1526	 0.421023489549193 
1527	 0.421095559665149 
1528	 0.42118490492592 
1529	 0.421250095097025 
1530	 0.421321003720266 
1531	 0.421372915608639 
1532	 0.421379601702186 
1533	 0.42141558133815 
1534	 0.421471621485719 
1535	 0.421514205381255 
1536	 0.421550241461247 
1537	 0.421601758089065 
1538	 0.421665967760124 
1539	 0.421705013595759 
1540	 0.421730658150701 
1541	 0.421780888354415 
1542	 0.421818169005044 
1543	 0.421867172763804 
1544	 0.421965427740739 
1545	 0.422028297445521 
1546	 0.42206632378136 
1547	 0.422109512876476 
1548	 0.422134361619511 
1549	 0.422162684216485 
1550	 0.42221873743968 
1551	 0.422274929646212 
1552	 0.422353446989902 
1553	 0.422436389023256 
1554	 0.422506526347447 
1555	 0.422556644743275 
1556	 0.422536504699306 
1557	 0.422503885624397 
1558	 0.422479516137721 
1559	 0.422433807240126 
1560	 0.422416815421703 
1561	 0.422440469043491 
1562	 0.422427839634056 
1563	 0.422394269147308 
1564	 0.422386470543314 
1565	 0.422388902447872 
1566	 0.422378214691507 
1567	 0.422372746561188 
1568	 0.422360520845731 
1569	 0.422321240943551 
1570	 0.42231945293406 
1571	 0.422349271908356 
1572	 0.422354701955723 
1573	 0.422367172385088 
1574	 0.422372278480282 
1575	 0.422363483826801 
1576	 0.422350008910348 
1577	 0.422338585192011 
1578	 0.422318578728942 
1579	 0.422278239215734 
1580	 0.42225095375628 
1581	 0.422223976360109 
1582	 0.422207491216336 
1583	 0.42221747669509 
1584	 0.422189843405766 
1585	 0.422165315455804 
1586	 0.422106254209659 
1587	 0.42199488411895 
1588	 0.42190383108824 
1589	 0.421807551953108 
1590	 0.421705760311874 
1591	 0.421609638436796 
1592	 0.421499631222872 
1593	 0.42137440699218 
1594	 0.421247954585286 
1595	 0.421129669877607 
1596	 0.420981397492567 
1597	 0.420801193419026 
1598	 0.420636764139581 
1599	 0.420462001265375 
1600	 0.420287194403302 
1601	 0.420129404851109 
1602	 0.419954542866728 
1603	 0.419759897553312 
1604	 0.419565357701221 
1605	 0.419366849365257 
1606	 0.41916827598504 
1607	 0.418964238905009 
1608	 0.418763190660372 
1609	 0.418569630477183 
1610	 0.418362846060723 
1611	 0.418145000079487 
1612	 0.417910812674559 
1613	 0.417637401968459 
1614	 0.417350868932518 
1615	 0.417066860139662 
1616	 0.416775650656612 
1617	 0.41646948497123 
1618	 0.416166662801143 
1619	 0.415862586746717 
1620	 0.415542745363028 
1621	 0.415248039291331 
1622	 0.414981661880143 
1623	 0.414676083494147 
1624	 0.414359277510092 
1625	 0.414048783767287 
1626	 0.413725540111486 
1627	 0.413398276281788 
1628	 0.413070802141843 
1629	 0.412754845637669 
1630	 0.412428272966103 
1631	 0.412115025270799 
1632	 0.411833847223135 
1633	 0.411512937195387 
1634	 0.411180074223709 
1635	 0.410822558780872 
1636	 0.410447806511736 
1637	 0.410053029696229 
1638	 0.409611341960862 
1639	 0.409224355264722 
1640	 0.408831831899073 
1641	 0.408481170038414 
1642	 0.408181945915619 
1643	 0.407858283117655 
1644	 0.407546286693519 
1645	 0.407224493185039 
1646	 0.40689551763607 
1647	 0.406573220590248 
1648	 0.406265547296029 
1649	 0.40592256800771 
1650	 0.405564729408504 
1651	 0.405207554953048 
1652	 0.404827559364202 
1653	 0.404453559350952 
1654	 0.40408887613853 
1655	 0.403708473744221 
1656	 0.403309547653856 
1657	 0.402919957048061 
1658	 0.402525388174506 
1659	 0.402142505701521 
1660	 0.401765104203056 
1661	 0.401387501129651 
1662	 0.401011615086099 
1663	 0.400647186021214 
1664	 0.400285048014197 
1665	 0.399931453112767 
1666	 0.399593892046089 
1667	 0.399252774556633 
1668	 0.398913928239985 
1669	 0.398575785527965 
1670	 0.398256005339227 
1671	 0.397902411095488 
1672	 0.397526427980695 
1673	 0.397165271083268 
1674	 0.396770853784243 
1675	 0.396431382026015 
1676	 0.396134764076886 
1677	 0.395823151130187 
1678	 0.395536347928654 
1679	 0.395232039471138 
1680	 0.394927092338725 
1681	 0.394599686030002 
1682	 0.394246898018576 
1683	 0.39391941078582 
1684	 0.393572762377551 
1685	 0.393260596623671 
1686	 0.393007930882637 
1687	 0.392694774616603 
1688	 0.392347239227631 
1689	 0.392035061762147 
1690	 0.391701057928657 
1691	 0.391403997007667 
1692	 0.391165362606415 
1693	 0.390888607726874 
1694	 0.390593049926101 
1695	 0.390318431916226 
1696	 0.390045099006098 
1697	 0.389776886963842 
1698	 0.389539700663495 
1699	 0.389262063011519 
1700	 0.388961472310783 
1701	 0.388666815153277 
1702	 0.388343936396973 
1703	 0.388053286757999 
1704	 0.387785370148114 
1705	 0.387505365267187 
1706	 0.38724783715715 
1707	 0.38695060149148 
1708	 0.386620622939865 
1709	 0.386313810406521 
1710	 0.385982538839611 
1711	 0.385689764053547 
1712	 0.385431069537854 
1713	 0.385158538932623 
1714	 0.384898699411777 
1715	 0.384630856172097 
1716	 0.384355319274444 
1717	 0.384087723211321 
1718	 0.383832755793423 
1719	 0.38355490934903 
1720	 0.38326201444446 
1721	 0.382986777408799 
1722	 0.382688550483079 
1723	 0.382438493359817 
1724	 0.382240956533666 
1725	 0.381998675994668 
1726	 0.381757630266591 
1727	 0.381509850981685 
1728	 0.38121931715734 
1729	 0.380988207315118 
1730	 0.380801889786738 
1731	 0.380583864992362 
1732	 0.380384467423857 
1733	 0.380156566262099 
1734	 0.379886738099751 
1735	 0.379654720802825 
1736	 0.37943590086255 
1737	 0.379217234688155 
1738	 0.379007746133524 
1739	 0.378805019788223 
1740	 0.378607562578193 
1741	 0.378402508863345 
1742	 0.378205259065958 
1743	 0.378003078199115 
1744	 0.377800066871294 
1745	 0.377576237750723 
1746	 0.377344674138208 
1747	 0.377091509596927 
1748	 0.376846710191794 
1749	 0.376647223025765 
1750	 0.376455704903639 
1751	 0.376260481070024 
1752	 0.376045521287623 
1753	 0.375816634657556 
1754	 0.375624063882854 
1755	 0.375459804692364 
1756	 0.375286860929236 
1757	 0.375082696445221 
1758	 0.374861771620681 
1759	 0.374664970100251 
1760	 0.374507982787144 
1761	 0.374384505325289 
1762	 0.374271858112779 
1763	 0.374127705591314 
1764	 0.373960122211776 
1765	 0.37379185562724 
1766	 0.373632436620453 
1767	 0.373479769450908 
1768	 0.373332038623797 
1769	 0.373205704024011 
1770	 0.373086303617194 
1771	 0.372988137207199 
1772	 0.372890168889514 
1773	 0.372785700530359 
1774	 0.372689814976834 
1775	 0.372593838910909 
1776	 0.372497165999254 
1777	 0.372380727235794 
1778	 0.372269287266083 
1779	 0.372166197541406 
1780	 0.372060865169238 
1781	 0.371962525037556 
1782	 0.37189360420403 
1783	 0.371866220174894 
1784	 0.371811795198159 
1785	 0.371803191602933 
1786	 0.37174381547184 
1787	 0.371617084940403 
1788	 0.371531392686447 
1789	 0.371441490387596 
1790	 0.371363042063426 
1791	 0.371299167961086 
1792	 0.371233461780518 
1793	 0.371172685218999 
1794	 0.371131156950054 
1795	 0.371091425052072 
1796	 0.371077748726289 
1797	 0.371088927068967 
1798	 0.37110380678536 
1799	 0.371150671200383 
1800	 0.371176992127735 
1801	 0.363475843772312 
1802	 0.363778445511041 
1803	 0.364062076131409 
1804	 0.36441352186927 
1805	 0.364809229939418 
1806	 0.365178098685149 
1807	 0.365543798980366 
1808	 0.365865715226677 
1809	 0.366169672010484 
1810	 0.36643905983702 
1811	 0.366664192704698 
1812	 0.366903971189693 
1813	 0.367103186546345 
1814	 0.367236514463192 
1815	 0.367322488880205 
1816	 0.367395501878498 
1817	 0.367474937145005 
1818	 0.367529418969506 
1819	 0.367610132926318 
1820	 0.367708308337557 
1821	 0.367783777598179 
1822	 0.367880069575482 
1823	 0.367986956759672 
1824	 0.36809010536222 
1825	 0.36817011370357 
1826	 0.368224065886492 
1827	 0.368275622880872 
1828	 0.368296030745174 
1829	 0.368281670797812 
1830	 0.368273978452402 
1831	 0.368258365880416 
1832	 0.368222086690468 
1833	 0.368173099754456 
1834	 0.368111536107845 
1835	 0.368014881797617 
1836	 0.367891531529643 
1837	 0.367805845601207 
1838	 0.367774151937271 
1839	 0.367748650971524 
1840	 0.367762844632513 
1841	 0.367774833434817 
1842	 0.36776839317061 
1843	 0.367752259436309 
1844	 0.367725640239056 
1845	 0.367698446009183 
1846	 0.367651528230263 
1847	 0.367572730412153 
1848	 0.367497286416452 
1849	 0.367397639655174 
1850	 0.36729192294646 
1851	 0.36718644133251 
1852	 0.367077324488455 
1853	 0.366925810508226 
1854	 0.36678483089251 
1855	 0.366621826065753 
1856	 0.366368169425146 
1857	 0.36605722192668 
1858	 0.365711229129447 
1859	 0.365316413064915 
1860	 0.364890995819963 
1861	 0.364439777693922 
1862	 0.363973573421284 
1863	 0.363451325141549 
1864	 0.362875481330072 
1865	 0.362261320067548 
1866	 0.361593860635919 
1867	 0.360862646007668 
1868	 0.360051689707549 
1869	 0.35919252321161 
1870	 0.358289330751635 
1871	 0.357324157995517 
1872	 0.356302169000573 
1873	 0.35524959280534 
1874	 0.354132611548202 
1875	 0.352939027484779 
1876	 0.351674284707174 
1877	 0.350311844532671 
1878	 0.348821247269039 
1879	 0.34723184703056 
1880	 0.345504556934745 
1881	 0.343643797503577 
1882	 0.341664639355435 
1883	 0.339581622342779 
1884	 0.33730096790315 
1885	 0.334939819582163 
1886	 0.33245453082465 
1887	 0.329769642304696 
1888	 0.326985236463947 
1889	 0.324026981823402 
1890	 0.320947492365779 
1891	 0.317790167216833 
1892	 0.314522129275404 
1893	 0.311144887121919 
1894	 0.307669690398303 
1895	 0.304087472659729 
1896	 0.300361505304671 
1897	 0.296631551096221 
1898	 0.292833405669338 
1899	 0.289002132741119 
1900	 0.285245495485827 
1901	 0.28146088596735 
1902	 0.277805006329292 
1903	 0.274251026211382 
1904	 0.270763921594467 
1905	 0.267310810595997 
1906	 0.26405341598027 
1907	 0.260861262648654 
1908	 0.257752826460891 
1909	 0.25484184502916 
1910	 0.252009571475768 
1911	 0.249295155948263 
1912	 0.246699447850885 
1913	 0.244189752353054 
1914	 0.241757699296982 
1915	 0.239444418396698 
1916	 0.237224394333445 
1917	 0.235125481656652 
1918	 0.233168319292101 
1919	 0.231304500221146 
1920	 0.229572853600029 
1921	 0.227947958197805 
1922	 0.226394074034152 
1923	 0.22495577514214 
1924	 0.22357913737391 
1925	 0.222295779037259 
1926	 0.221075460922426 
1927	 0.219927563929563 
1928	 0.218830792807212 
1929	 0.217842907820282 
1930	 0.216928582096685 
1931	 0.216067401254309 
1932	 0.215288419533695 
1933	 0.214542131201613 
1934	 0.213829364290294 
1935	 0.213212167848753 
1936	 0.212644449417752 
1937	 0.212175543115758 
1938	 0.211777498354339 
1939	 0.211500290351935 
1940	 0.211304921558174 
1941	 0.211236087443812 
1942	 0.211289614189288 
1943	 0.211420575365474 
1944	 0.211637406070977 
1945	 0.211970289897336 
1946	 0.212372876067161 
1947	 0.212869725043806 
1948	 0.213430391133619 
1949	 0.214108593967094 
1950	 0.214784137393161 
1951	 0.21551673451817 
1952	 0.216285957560005 
1953	 0.217051810456606 
1954	 0.217833254411562 
1955	 0.218625066863954 
1956	 0.219384589881638 
1957	 0.220098672115762 
1958	 0.2207887736167 
1959	 0.221438887284338 
1960	 0.222055938850095 
1961	 0.22262102313337 
1962	 0.223140185691597 
1963	 0.223638937965617 
1964	 0.22408067160422 
1965	 0.224507204785941 
1966	 0.224941748093082 
1967	 0.2253525911945 
1968	 0.225754343797825 
1969	 0.226126733454761 
1970	 0.226526313633965 
1971	 0.226922551022541 
1972	 0.227329109879939 
1973	 0.227758146884558 
1974	 0.228175103056571 
1975	 0.2285877413495 
1976	 0.228992729289594 
1977	 0.229411707976047 
1978	 0.229843888065757 
1979	 0.230306288031563 
1980	 0.230799827663812 
1981	 0.231287492629572 
1982	 0.23179533513479 
1983	 0.232300422959874 
1984	 0.232802939053775 
1985	 0.233317736570404 
1986	 0.233844063813381 
1987	 0.234375227224747 
1988	 0.234925363110678 
1989	 0.235461322134534 
1990	 0.2359805320665 
1991	 0.236511847579598 
1992	 0.237026415142182 
1993	 0.237526833914541 
1994	 0.238016633636379 
1995	 0.238505640584312 
1996	 0.238974312419553 
1997	 0.239408898765451 
1998	 0.239863675356158 
1999	 0.240312621304015 
2000	 0.240769845871179 
2001	 0.241241554743744 
2002	 0.241705487743281 
2003	 0.242162228954247 
2004	 0.242621680391006 
2005	 0.243082743389419 
2006	 0.243540206497119 
2007	 0.244002834246952 
2008	 0.244471066357067 
2009	 0.244938172405537 
2010	 0.245405681265727 
2011	 0.245873776254862 
2012	 0.246343453350676 
2013	 0.246814601096988 
2014	 0.247285295466391 
2015	 0.247754020376554 
2016	 0.248234429015762 
2017	 0.248723049626954 
2018	 0.24922093701145 
2019	 0.249716824854867 
2020	 0.250249082270815 
2021	 0.250813074746172 
2022	 0.251366075114371 
2023	 0.251955353908211 
2024	 0.252517417341869 
2025	 0.253063846454713 
2026	 0.25360370560194 
2027	 0.254125693669902 
2028	 0.254653349073482 
2029	 0.25520280115906 
2030	 0.255754997641909 
2031	 0.256315398995496 
2032	 0.256910769911181 
2033	 0.257469237371561 
2034	 0.258013392071784 
2035	 0.258556084020964 
2036	 0.259090496330017 
2037	 0.259620047737038 
2038	 0.260147658219307 
2039	 0.260659708194092 
2040	 0.26115321838766 
2041	 0.261654071899109 
2042	 0.262126587619776 
2043	 0.262613101289828 
2044	 0.26310496373634 
2045	 0.26358239886726 
2046	 0.264100756266502 
2047	 0.264659801166458 
2048	 0.265191413547597 
2049	 0.265762363077428 
2050	 0.266277107574079 
2051	 0.266737101843789 
2052	 0.267218362011183 
2053	 0.267674590272647 
2054	 0.268146657691194 
2055	 0.268633698771112 
2056	 0.269127224537838 
2057	 0.26960532248246 
2058	 0.27008771733387 
2059	 0.270546216559895 
2060	 0.270990417278909 
2061	 0.271426119449031 
2062	 0.271838163528949 
2063	 0.272261038367211 
2064	 0.272680335688719 
2065	 0.273099796030516 
2066	 0.273527042541295 
2067	 0.273943213711803 
2068	 0.274361606840939 
2069	 0.274752937261939 
2070	 0.27516014929198 
2071	 0.275560977358966 
2072	 0.275973503925606 
2073	 0.276406399973291 
2074	 0.276806687071824 
2075	 0.277200482886818 
2076	 0.277583093216919 
2077	 0.277935723132005 
2078	 0.278305164422258 
2079	 0.278677280603369 
2080	 0.279047714507445 
2081	 0.279416987574485 
2082	 0.279788402503971 
2083	 0.280152830445777 
2084	 0.280533554499507 
2085	 0.280912969187777 
2086	 0.281309071372347 
2087	 0.281670792681948 
2088	 0.282014061493586 
2089	 0.28237585452746 
2090	 0.282728546793208 
2091	 0.283078759329495 
2092	 0.283444979426315 
2093	 0.283798859121727 
2094	 0.284132934029088 
2095	 0.284470831149537 
2096	 0.284811105853264 
2097	 0.285154407210757 
2098	 0.285493507496136 
2099	 0.285834711216284 
2100	 0.286170144615031 
2101	 0.286510678539723 
2102	 0.286844742191406 
2103	 0.287167283265238 
2104	 0.287496097035219 
2105	 0.287827416367773 
2106	 0.288159094007926 
2107	 0.288483350989873 
2108	 0.288821837625157 
2109	 0.289164379136391 
2110	 0.289517457351058 
2111	 0.289881457704061 
2112	 0.290250736298871 
2113	 0.290622309700655 
2114	 0.291012687238867 
2115	 0.291404582952225 
2116	 0.291811850487611 
2117	 0.292198276946744 
2118	 0.292580692609021 
2119	 0.292970043332834 
2120	 0.293362759081708 
2121	 0.293734013793545 
2122	 0.294112358657542 
2123	 0.294466144233345 
2124	 0.294787867272369 
2125	 0.295110592795109 
2126	 0.295419825256783 
2127	 0.295734329009243 
2128	 0.296047080565331 
2129	 0.296349211756443 
2130	 0.296645892219139 
2131	 0.296952699508096 
2132	 0.297230364598665 
2133	 0.297489682382163 
2134	 0.29774335732432 
2135	 0.29799228893833 
2136	 0.29821274146199 
2137	 0.29840789323389 
2138	 0.298604404362711 
2139	 0.298795670251327 
2140	 0.298955361785081 
2141	 0.299094033060846 
2142	 0.299233772409034 
2143	 0.299360247653432 
2144	 0.29945879286327 
2145	 0.299555489085937 
2146	 0.299628542575495 
2147	 0.299655658783135 
2148	 0.299678342251697 
2149	 0.299698749669629 
2150	 0.299713119157504 
2151	 0.299724263742275 
2152	 0.299726249926333 
2153	 0.299727695955283 
2154	 0.29972894901854 
2155	 0.299721211375996 
2156	 0.299721862907094 
2157	 0.299689447710863 
2158	 0.299620435109948 
2159	 0.29957511970293 
2160	 0.29951008284253 
2161	 0.299462425092763 
2162	 0.299443553149068 
2163	 0.299417207723034 
2164	 0.299401747873123 
2165	 0.299364181114725 
2166	 0.299326021563272 
2167	 0.29929508804874 
2168	 0.299231030776665 
2169	 0.299142192973729 
2170	 0.299057552759238 
2171	 0.298962059343162 
2172	 0.298853699486401 
2173	 0.298741510074672 
2174	 0.298616801589231 
2175	 0.298474503192362 
2176	 0.298323994909536 
2177	 0.298174846509544 
2178	 0.297999221235736 
2179	 0.29780276101071 
2180	 0.297593959968872 
2181	 0.297340604763636 
2182	 0.2971148924264 
2183	 0.296888692968503 
2184	 0.296668284372406 
2185	 0.296464121329342 
2186	 0.296283256216175 
2187	 0.296097412331532 
2188	 0.295921740208535 
2189	 0.295733643750149 
2190	 0.295548664209243 
2191	 0.295355670152333 
2192	 0.295139092301654 
2193	 0.294951176464666 
2194	 0.294784522235864 
2195	 0.294599335615341 
2196	 0.294411748513955 
2197	 0.294236053116911 
2198	 0.294059906793247 
2199	 0.293879742230978 
2200	 0.293708642863546 
2201	 0.293538356755701 
2202	 0.293364899217488 
2203	 0.293166880274134 
2204	 0.293018985643598 
2205	 0.292892161497437 
2206	 0.292784122500907 
2207	 0.292702877474712 
2208	 0.292629920638533 
2209	 0.292568613708182 
2210	 0.292531807455 
2211	 0.292499059685148 
2212	 0.292519277289705 
2213	 0.292588206410293 
2214	 0.29265438656335 
2215	 0.292783456152021 
2216	 0.292863318799423 
2217	 0.292922695137778 
2218	 0.292983039348511 
2219	 0.29302922782255 
2220	 0.293071709277068 
2221	 0.2931125074659 
2222	 0.293151817477346 
2223	 0.293171727110766 
2224	 0.293177672788797 
2225	 0.293185241703867 
2226	 0.293183131753091 
2227	 0.293185349531767 
2228	 0.293189096066972 
2229	 0.293179948096638 
2230	 0.293171771344712 
2231	 0.293141772289753 
2232	 0.293071240420547 
2233	 0.293058294046303 
2234	 0.29306619422445 
2235	 0.293059377713423 
2236	 0.293125613250744 
2237	 0.293091622895592 
2238	 0.292981941682533 
2239	 0.292882630409556 
2240	 0.292735461720131 
2241	 0.292596785834307 
2242	 0.29246061255996 
2243	 0.292317514669722 
2244	 0.292162355980511 
2245	 0.292005067137082 
2246	 0.291844737286092 
2247	 0.291691480392733 
2248	 0.29150424921093 
2249	 0.29130094158906 
2250	 0.291086395021307 
2251	 0.290841530392989 
2252	 0.290609654524172 
2253	 0.2903702441211 
2254	 0.290142648519566 
2255	 0.289918644438204 
2256	 0.289697557746404 
2257	 0.289482208190314 
2258	 0.289272087063049 
2259	 0.289060380493881 
2260	 0.288855227338408 
2261	 0.288663735547273 
2262	 0.288466936403003 
2263	 0.288277557264491 
2264	 0.288075588046201 
2265	 0.287845247905232 
2266	 0.287651280645756 
2267	 0.287474111295478 
2268	 0.287292934862677 
2269	 0.287127496603197 
2270	 0.286982009637958 
2271	 0.286818047890147 
2272	 0.286643041146144 
2273	 0.286445382029391 
2274	 0.286211507697524 
2275	 0.285960953805802 
2276	 0.285640372790819 
2277	 0.285404136535766 
2278	 0.285188264142082 
2279	 0.284977037981512 
2280	 0.284822953167327 
2281	 0.284613210554325 
2282	 0.284360622771212 
2283	 0.284156404746239 
2284	 0.283958767659186 
2285	 0.283759099280126 
2286	 0.283616873187363 
2287	 0.283392439509129 
2288	 0.283126585440306 
2289	 0.28284896092512 
2290	 0.282546143003136 
2291	 0.282207030019996 
2292	 0.281804539938477 
2293	 0.28143769975271 
2294	 0.281054308134909 
2295	 0.280666658173453 
2296	 0.280295534460595 
2297	 0.279940861674038 
2298	 0.279534919045673 
2299	 0.279122006990877 
2300	 0.278751495980278 
2301	 0.27839401737879 
2302	 0.27799453093099 
2303	 0.277584319475739 
2304	 0.2771554428854 
2305	 0.276649530540899 
2306	 0.276165856480376 
2307	 0.275666895037171 
2308	 0.275203501386431 
2309	 0.274750907938278 
2310	 0.27428886007102 
2311	 0.273849101401264 
2312	 0.273380576084878 
2313	 0.272878560291698 
2314	 0.272392904383468 
2315	 0.271972309204613 
2316	 0.271426057781424 
2317	 0.270800575105548 
2318	 0.270181536791399 
2319	 0.269432593526665 
2320	 0.268800018949547 
2321	 0.268257799661642 
2322	 0.26767429892363 
2323	 0.267113489067135 
2324	 0.266557523033503 
2325	 0.265957999244622 
2326	 0.26540190216559 
2327	 0.264923963293712 
2328	 0.264373395246485 
2329	 0.263780076425535 
2330	 0.263224922248998 
2331	 0.262601717406888 
2332	 0.261976462370047 
2333	 0.261408535697076 
2334	 0.260843607810367 
2335	 0.260305681484929 
2336	 0.259761414860585 
2337	 0.259178013902925 
2338	 0.258568147867912 
2339	 0.25788457175391 
2340	 0.257181125422703 
2341	 0.256497784992199 
2342	 0.255802202450968 
2343	 0.255113487053875 
2344	 0.254454284972612 
2345	 0.25375696391647 
2346	 0.253056476492435 
2347	 0.252271718363702 
2348	 0.251433409326457 
2349	 0.250595168707222 
2350	 0.249684397570554 
2351	 0.248830468343446 
2352	 0.248001874874543 
2353	 0.24715427403512 
2354	 0.246312115019983 
2355	 0.245444724778159 
2356	 0.244582741456046 
2357	 0.243683519488443 
2358	 0.242715847724002 
2359	 0.241816972621443 
2360	 0.240928566846101 
2361	 0.240040203478046 
2362	 0.239198946537923 
2363	 0.238339182489028 
2364	 0.237453421221243 
2365	 0.236583980319869 
2366	 0.235734030921848 
2367	 0.234879189923399 
2368	 0.234029440425581 
2369	 0.233159665813913 
2370	 0.232290519095989 
2371	 0.231410307514117 
2372	 0.230494389065093 
2373	 0.229568030903102 
2374	 0.228676026551064 
2375	 0.227786002893966 
2376	 0.226918743456706 
2377	 0.226087735894449 
2378	 0.225223400918149 
2379	 0.224297083119687 
2380	 0.223354149581029 
2381	 0.222428295986577 
2382	 0.221499963603256 
2383	 0.220648913596388 
2384	 0.219870558072078 
2385	 0.219059062861561 
2386	 0.218235291128613 
2387	 0.217444033607724 
2388	 0.216627978243279 
2389	 0.21583878583425 
2390	 0.215088410003536 
2391	 0.214293059714711 
2392	 0.21348509663386 
2393	 0.212626569552384 
2394	 0.211818312089951 
2395	 0.211107066281632 
2396	 0.210375088123844 
2397	 0.209734002701532 
2398	 0.209126413111913 
2399	 0.208439965874134 
2400	 0.207826081909161 
2401	 0.207195127759631 
2402	 0.206520417503262 
2403	 0.205948919669169 
2404	 0.205384781741082 
2405	 0.204835595391562 
2406	 0.204226882568622 
2407	 0.203564960480871 
2408	 0.203005891696228 
2409	 0.202404576050255 
2410	 0.201877828098223 
2411	 0.201461997546815 
2412	 0.200909882088852 
2413	 0.200429162305553 
2414	 0.200019500075624 
2415	 0.199525633377638 
2416	 0.199141452363925 
2417	 0.1988842692702 
2418	 0.198524905606116 
2419	 0.198230943107711 
2420	 0.197802575690576 
2421	 0.197230508365565 
2422	 0.196696784132009 
2423	 0.196088453178115 
2424	 0.195550665960972 
2425	 0.195025491543148 
2426	 0.194548866681954 
2427	 0.194114838059432 
2428	 0.193695716840945 
2429	 0.19336754745609 
2430	 0.192953959326958 
2431	 0.192511119744239 
2432	 0.192109814236737 
2433	 0.19168092184398 
2434	 0.191217862951897 
2435	 0.190790683367375 
2436	 0.190284359524997 
2437	 0.189684320339376 
2438	 0.189196570414551 
2439	 0.188737882726428 
2440	 0.188233819474414 
2441	 0.1877412145525 
2442	 0.187180341002968 
2443	 0.186623752581165 
2444	 0.186004387229284 
2445	 0.185283454920779 
2446	 0.184720155688265 
2447	 0.184118893176699 
2448	 0.183580029164889 
2449	 0.183191894160422 
2450	 0.182700217071397 
2451	 0.182246117631058 
2452	 0.181702270697571 
2453	 0.180988817374539 
2454	 0.180476158210516 
2455	 0.180072431436893 
2456	 0.179510376742222 
2457	 0.179015796347345 
2458	 0.178544613733152 
2459	 0.177896655184437 
2460	 0.177419801664752 
2461	 0.177034561955468 
2462	 0.176695389545879 
2463	 0.176459126274658 
2464	 0.176143761954519 
2465	 0.17583676429818 
2466	 0.175654988843265 
2467	 0.175553880430267 
2468	 0.175273759787944 
2469	 0.175070397884978 
2470	 0.174741304585695 
2471	 0.174276234423289 
2472	 0.17402331554287 
2473	 0.173847233368713 
2474	 0.173571481094123 
2475	 0.173241112208561 
2476	 0.172916349642122 
2477	 0.172579200613758 
2478	 0.172227468570966 
2479	 0.172081928770729 
2480	 0.171961531397496 
2481	 0.171558526268767 
2482	 0.171408892473089 
2483	 0.171223446954907 
2484	 0.170802967727743 
2485	 0.170665313817761 
2486	 0.170436021622697 
2487	 0.170109963579723 
2488	 0.169865490561207 
2489	 0.169516138191152 
2490	 0.16908815186269 
2491	 0.168696050635667 
2492	 0.168346133159068 
2493	 0.168051402928702 
2494	 0.167839540395053 
2495	 0.167400136174394 
2496	 0.166892059741978 
2497	 0.166451681856677 
2498	 0.165918383735641 
2499	 0.165549557058109 
2500	 0.165191803098038 
