Wavelength	mm23-200008.asd
350	 5.18748373130145E-02 
351	 5.37532959598307E-02 
352	 5.66144837399784E-02 
353	 5.25797539915135E-02 
354	 5.07955360767163E-02 
355	 5.11208137964913E-02 
356	 5.25365967709362E-02 
357	 5.37532361235039E-02 
358	 5.48847321426427E-02 
359	 4.97568730310297E-02 
360	 4.38154276619387E-02 
361	 4.82819940604971E-02 
362	 0.051920630218689 
363	 5.25115530045479E-02 
364	 5.08981834589817E-02 
365	 5.06230170619308E-02 
366	 4.89051167908839E-02 
367	 4.90189754027207E-02 
368	 5.29948405571359E-02 
369	 0.052389187394498 
370	 4.98900504370611E-02 
371	 4.92074258870904E-02 
372	 5.34128890803265E-02 
373	 5.27973450685447E-02 
374	 5.34203941828799E-02 
375	 5.73895485271361E-02 
376	 0.05648168672515 
377	 5.50338581434339E-02 
378	 5.59377982311361E-02 
379	 5.98155176363179E-02 
380	 5.98556280122715E-02 
381	 5.88417568253782E-02 
382	 5.96366554306433E-02 
383	 6.40730900551611E-02 
384	 6.42117384386658E-02 
385	 6.34098739190341E-02 
386	 6.45323062506106E-02 
387	 6.62794561386734E-02 
388	 6.83469653389357E-02 
389	 6.97475364416733E-02 
390	 7.00892020848702E-02 
391	 7.24875725237783E-02 
392	 7.47531044200272E-02 
393	 7.72350293810666E-02 
394	 8.21924424172711E-02 
395	 8.43653483646696E-02 
396	 0.085460097738001 
397	 8.78427033955736E-02 
398	 9.33957220803417E-02 
399	 9.49800753224224E-02 
400	 9.49736663595244E-02 
401	 9.80942402276239E-02 
402	 0.100202258811237 
403	 0.102345360547796 
404	 0.104509532100724 
405	 0.105435428850844 
406	 0.107008519174351 
407	 0.109105952312829 
408	 0.110881942820482 
409	 0.110630259671876 
410	 0.110341420362862 
411	 0.110854021672136 
412	 0.112110284550447 
413	 0.11230509223877 
414	 0.111682226098247 
415	 0.110601023039894 
416	 0.109262511256276 
417	 0.10804028001489 
418	 0.107001307651657 
419	 0.106082809303469 
420	 0.105185878001121 
421	 0.104134543859694 
422	 0.103008596702023 
423	 0.101988651535995 
424	 0.100343456826403 
425	 9.83064316155378E-02 
426	 9.63771893766158E-02 
427	 9.53618981190947E-02 
428	 9.39733260835113E-02 
429	 9.25558350333295E-02 
430	 9.18325754537597E-02 
431	 9.15608446066075E-02 
432	 9.15851334232896E-02 
433	 9.19839191237326E-02 
434	 9.30366024615773E-02 
435	 9.44814578210046E-02 
436	 9.63355958935738E-02 
437	 9.84695751340162E-02 
438	 0.100098278366735 
439	 0.102541887718641 
440	 0.105657692828315 
441	 0.108572722781196 
442	 0.111054001523045 
443	 0.114248460131595 
444	 0.118146711547987 
445	 0.120813685346167 
446	 0.123827949845115 
447	 0.127211114530644 
448	 0.1305771849361 
449	 0.133814404609897 
450	 0.13710809904757 
451	 0.140481469066235 
452	 0.143823320185981 
453	 0.147089627511261 
454	 0.150096894920568 
455	 0.152905685930528 
456	 0.156215023394397 
457	 0.159477047152793 
458	 0.162590069485168 
459	 0.16567089952653 
460	 0.168925254712639 
461	 0.172018490921181 
462	 0.174917178934918 
463	 0.178062102170097 
464	 0.181230156327281 
465	 0.184288766965572 
466	 0.187178040975518 
467	 0.189978188402207 
468	 0.193109768509927 
469	 0.196340080451809 
470	 0.198972767139493 
471	 0.201811656811471 
472	 0.204571072321721 
473	 0.207050083299068 
474	 0.209624575003006 
475	 0.212511148248216 
476	 0.215425114150441 
477	 0.217902209909628 
478	 0.220019975924601 
479	 0.222344310839906 
480	 0.225008897808213 
481	 0.227520332704995 
482	 0.22991178329965 
483	 0.232156026741228 
484	 0.234257973851171 
485	 0.236410010007727 
486	 0.238074165483371 
487	 0.239515802239098 
488	 0.241602502927526 
489	 0.243421354922671 
490	 0.244967543580803 
491	 0.246402337852332 
492	 0.247884563770489 
493	 0.24921641912282 
494	 0.250427224678397 
495	 0.251641315972121 
496	 0.252828939312681 
497	 0.253804966452283 
498	 0.254602795635303 
499	 0.255604041426406 
500	 0.256421727401687 
501	 0.257113048752215 
502	 0.257832789930849 
503	 0.258572756757193 
504	 0.259148280484082 
505	 0.259656979073299 
506	 0.260425152675638 
507	 0.260863819171219 
508	 0.261281492657704 
509	 0.261914827312279 
510	 0.26236670382785 
511	 0.262504097026518 
512	 0.262593228925773 
513	 0.263044408481715 
514	 0.263371750628409 
515	 0.26377873103185 
516	 0.264298551911149 
517	 0.264542166377556 
518	 0.264780766266186 
519	 0.264984232862781 
520	 0.265083482283466 
521	 0.265305820916003 
522	 0.265571573939217 
523	 0.265802361652474 
524	 0.265944584132703 
525	 0.266215455426572 
526	 0.266486193455734 
527	 0.266650804410817 
528	 0.266949771528275 
529	 0.26712184956389 
530	 0.267245273055698 
531	 0.267583407918943 
532	 0.267739363819401 
533	 0.267923963704112 
534	 0.268248029910845 
535	 0.268435447036929 
536	 0.268592203802728 
537	 0.268847127975779 
538	 0.269271558745092 
539	 0.269452153242997 
540	 0.269670288246604 
541	 0.270041818739006 
542	 0.270394201664788 
543	 0.270637564944705 
544	 0.270905057890419 
545	 0.271316772772468 
546	 0.271664299467515 
547	 0.272025471827573 
548	 0.272417981456285 
549	 0.272805142108539 
550	 0.273237911717459 
551	 0.273673502081765 
552	 0.274081910618163 
553	 0.274507943083957 
554	 0.274941576712522 
555	 0.275432797635499 
556	 0.276038258450955 
557	 0.276594470152789 
558	 0.27709785987363 
559	 0.277615187719965 
560	 0.27831529612796 
561	 0.278876776591104 
562	 0.279420533142876 
563	 0.280149071674108 
564	 0.280792636259589 
565	 0.281471221803862 
566	 0.282223145503212 
567	 0.282972524964838 
568	 0.28380308485882 
569	 0.284677909208026 
570	 0.285530490126644 
571	 0.286287545947496 
572	 0.287089621260338 
573	 0.287999352483601 
574	 0.288999506583112 
575	 0.289856028844846 
576	 0.2906640542842 
577	 0.291501339224671 
578	 0.29225679369217 
579	 0.293202967930237 
580	 0.294272730381344 
581	 0.295291403800592 
582	 0.296481811927905 
583	 0.297723515298553 
584	 0.298903848641631 
585	 0.299970309570113 
586	 0.300946747092205 
587	 0.301909791018787 
588	 0.302932492771996 
589	 0.304010298209341 
590	 0.305014118484286 
591	 0.305960533269844 
592	 0.307003147321147 
593	 0.308172726807178 
594	 0.309272506487797 
595	 0.310204599225529 
596	 0.311240692140416 
597	 0.312394776482566 
598	 0.313617007671106 
599	 0.314817001159891 
600	 0.315929456709415 
601	 0.316972458083806 
602	 0.317978923103366 
603	 0.318997067483976 
604	 0.319917803030553 
605	 0.320818710197191 
606	 0.321814451968635 
607	 0.322831432860346 
608	 0.323782414088214 
609	 0.324687414888094 
610	 0.325687210069728 
611	 0.326668069656366 
612	 0.327611854376398 
613	 0.328497162439548 
614	 0.329212489446421 
615	 0.32994689500775 
616	 0.33071350149517 
617	 0.331403719018049 
618	 0.33211436891402 
619	 0.332781586328608 
620	 0.333388770813218 
621	 0.334080639767611 
622	 0.334656024184949 
623	 0.335180239306869 
624	 0.335798287265717 
625	 0.336395258516505 
626	 0.336934428995435 
627	 0.337443790902051 
628	 0.338026442162667 
629	 0.338548957428944 
630	 0.339052418313369 
631	 0.339594681861456 
632	 0.340098290931397 
633	 0.340588592536437 
634	 0.341074211542596 
635	 0.341550262683554 
636	 0.342038802835405 
637	 0.342511456951889 
638	 0.342949255571953 
639	 0.343371732742636 
640	 0.343842036311009 
641	 0.344318696374829 
642	 0.344726760885624 
643	 0.345163390389725 
644	 0.345608701611709 
645	 0.346054086266271 
646	 0.346525560104818 
647	 0.346910998738737 
648	 0.347281007780528 
649	 0.347728405113392 
650	 0.34819930412486 
651	 0.348617699553499 
652	 0.348991558898691 
653	 0.349402370881448 
654	 0.349863183787942 
655	 0.350288276155342 
656	 0.350657298985036 
657	 0.351173805697353 
658	 0.351582036798671 
659	 0.351919343633599 
660	 0.352344236525301 
661	 0.352763641056507 
662	 0.353228817643557 
663	 0.353708125270202 
664	 0.35402844591055 
665	 0.354465071195694 
666	 0.354938824293883 
667	 0.355320161915358 
668	 0.355714135202872 
669	 0.356213075441201 
670	 0.356740906350334 
671	 0.357097221654689 
672	 0.357438038410085 
673	 0.357818090822481 
674	 0.358245223422134 
675	 0.358656613933146 
676	 0.359129832652426 
677	 0.359598910340222 
678	 0.359962123091496 
679	 0.360332040294471 
680	 0.360734895027679 
681	 0.361164745462658 
682	 0.361584338617381 
683	 0.362043890453553 
684	 0.362444253070636 
685	 0.362741853427713 
686	 0.363233662445256 
687	 0.36370589024528 
688	 0.364103030856756 
689	 0.364490887894431 
690	 0.364893550005882 
691	 0.365306193867598 
692	 0.365720735890475 
693	 0.366138404467187 
694	 0.366520599784218 
695	 0.366924674016584 
696	 0.367392151302634 
697	 0.367668832238733 
698	 0.367961338366983 
699	 0.36835749756359 
700	 0.368787501678653 
701	 0.369153752392286 
702	 0.369475045517149 
703	 0.369793168633991 
704	 0.370129012815969 
705	 0.370458898113427 
706	 0.370792862613543 
707	 0.371151628389215 
708	 0.371497420413916 
709	 0.371828528339802 
710	 0.372136436874014 
711	 0.372397187058653 
712	 0.372659097330868 
713	 0.372881552090193 
714	 0.373049684854478 
715	 0.373339243536922 
716	 0.373651255059105 
717	 0.373890763702927 
718	 0.373994726770025 
719	 0.374177694097011 
720	 0.37434841890882 
721	 0.37444612783622 
722	 0.374555515734056 
723	 0.374695196632713 
724	 0.374816896848675 
725	 0.37486300268809 
726	 0.374870767565189 
727	 0.374836873470823 
728	 0.374808544965442 
729	 0.374866293797342 
730	 0.37479355706105 
731	 0.374676070544876 
732	 0.374585598933344 
733	 0.374412929076778 
734	 0.374285580713999 
735	 0.374164320324323 
736	 0.373952733792988 
737	 0.373661364457748 
738	 0.373402075333846 
739	 0.373172843009493 
740	 0.372844000689675 
741	 0.372514563454865 
742	 0.372139670794373 
743	 0.371696594040899 
744	 0.371301484479977 
745	 0.370904415405005 
746	 0.370474916518943 
747	 0.369996874752248 
748	 0.369500390374651 
749	 0.36895325982103 
750	 0.368393807020953 
751	 0.367944608583307 
752	 0.367340325440928 
753	 0.366649030372879 
754	 0.365992168482304 
755	 0.365406175131691 
756	 0.364797757918047 
757	 0.364142955066978 
758	 0.363456791092487 
759	 0.36273115136073 
760	 0.362002639516062 
761	 0.361277338686497 
762	 0.360519611882378 
763	 0.359819641983133 
764	 0.359091476903401 
765	 0.358276598886235 
766	 0.357514043722684 
767	 0.356780496623532 
768	 0.356003688580951 
769	 0.355119839275831 
770	 0.354316941456973 
771	 0.353551157317967 
772	 0.352755092922287 
773	 0.351866639144291 
774	 0.351081504329495 
775	 0.350300540331812 
776	 0.349438241013904 
777	 0.348638425528705 
778	 0.347827070964516 
779	 0.347016177842358 
780	 0.346238512680053 
781	 0.345403470153781 
782	 0.344583621786653 
783	 0.343789681761652 
784	 0.342961247992969 
785	 0.34219057155492 
786	 0.341435963920777 
787	 0.340660352861199 
788	 0.339898579281068 
789	 0.339181227657835 
790	 0.338422368274558 
791	 0.337551527655837 
792	 0.336814292612292 
793	 0.336083564990138 
794	 0.335338835932657 
795	 0.33465493769457 
796	 0.333861542400287 
797	 0.333104728052903 
798	 0.33246180770415 
799	 0.331796913353723 
800	 0.331140791173458 
801	 0.33044771504916 
802	 0.329703863799733 
803	 0.329087435363282 
804	 0.32850989372766 
805	 0.327886852030318 
806	 0.327168568997992 
807	 0.326510800389792 
808	 0.325905281996072 
809	 0.325328377177987 
810	 0.324760849680169 
811	 0.324175805709403 
812	 0.323567687211595 
813	 0.322965977812345 
814	 0.322479514461731 
815	 0.321992542457902 
816	 0.321483426967629 
817	 0.320965637922394 
818	 0.320393457150917 
819	 0.319933183534431 
820	 0.319516690234205 
821	 0.318907208930329 
822	 0.31847251926376 
823	 0.317989218735522 
824	 0.317400045683568 
825	 0.317058605403199 
826	 0.316724383444357 
827	 0.3163326158993 
828	 0.315889779783178 
829	 0.315467722848373 
830	 0.315027847403352 
831	 0.314623102135008 
832	 0.314325347394143 
833	 0.314057190451084 
834	 0.313737101335448 
835	 0.31336989433717 
836	 0.313040078940796 
837	 0.312752215644522 
838	 0.312491315038439 
839	 0.31222435301261 
840	 0.311898330476528 
841	 0.311537946020393 
842	 0.311258411202272 
843	 0.311118851522625 
844	 0.310946296415383 
845	 0.310699356248305 
846	 0.310407705621606 
847	 0.310160559870895 
848	 0.310132422762335 
849	 0.310055869164957 
850	 0.309862760002939 
851	 0.30967627658234 
852	 0.309432044633953 
853	 0.309304312008205 
854	 0.309288892529811 
855	 0.309091969643505 
856	 0.309012197112629 
857	 0.308994994957747 
858	 0.308942638578529 
859	 0.30885966428374 
860	 0.308855718155894 
861	 0.308848795520774 
862	 0.308734114804024 
863	 0.308617202367494 
864	 0.308664140248462 
865	 0.308759990145385 
866	 0.308671920278542 
867	 0.308670199890219 
868	 0.308733461643237 
869	 0.308817878098593 
870	 0.308888662386485 
871	 0.308984686215346 
872	 0.309118306533736 
873	 0.309274804091769 
874	 0.309406143288464 
875	 0.309481795390644 
876	 0.309534451914426 
877	 0.309624886298899 
878	 0.309835297531678 
879	 0.310123913445159 
880	 0.310374918172654 
881	 0.310519365039786 
882	 0.310789380290434 
883	 0.311000095731627 
884	 0.311160396742829 
885	 0.311386201294966 
886	 0.311691313176299 
887	 0.311994962165461 
888	 0.312247111206051 
889	 0.312452406057903 
890	 0.312771974436591 
891	 0.313137646877666 
892	 0.313520667963945 
893	 0.313973426688813 
894	 0.314348461941584 
895	 0.314689455678366 
896	 0.315051143744582 
897	 0.315433352869814 
898	 0.315867324109648 
899	 0.316308958533072 
900	 0.316724677973358 
901	 0.317158471174287 
902	 0.317664742122514 
903	 0.318168525527428 
904	 0.318608760236585 
905	 0.319165427476422 
906	 0.319674235451286 
907	 0.320178363660672 
908	 0.320789535389363 
909	 0.321414780140663 
910	 0.322002404567963 
911	 0.322546564418298 
912	 0.323078616083626 
913	 0.323633648873699 
914	 0.324286963401714 
915	 0.324991739748232 
916	 0.325617536743865 
917	 0.326317674553858 
918	 0.327016632944639 
919	 0.327667149745261 
920	 0.328294743242172 
921	 0.329030473477395 
922	 0.329760553915079 
923	 0.330461952172957 
924	 0.331298933351922 
925	 0.332116337318006 
926	 0.33288707138858 
927	 0.333605807024326 
928	 0.334251207752638 
929	 0.335139488436323 
930	 0.336138756287675 
931	 0.337049182916439 
932	 0.337817667564661 
933	 0.338618213737396 
934	 0.33944011174865 
935	 0.340283523636055 
936	 0.34137179866372 
937	 0.34224996217383 
938	 0.343041389269106 
939	 0.344004773408305 
940	 0.345123400160716 
941	 0.346145071538925 
942	 0.347110866876285 
943	 0.348137162511214 
944	 0.349105600829984 
945	 0.349987416701269 
946	 0.350899427172746 
947	 0.351971521976006 
948	 0.353097892684292 
949	 0.354189322740176 
950	 0.355210669203737 
951	 0.35620359908492 
952	 0.357392379556618 
953	 0.358411960531607 
954	 0.35943472754948 
955	 0.360803130449246 
956	 0.361977409034151 
957	 0.363064425537259 
958	 0.364163287430968 
959	 0.365319888212256 
960	 0.366422041676226 
961	 0.367613874044401 
962	 0.368830054617474 
963	 0.369910529582608 
964	 0.371048919337255 
965	 0.372303988199201 
966	 0.373603048625177 
967	 0.374815169779271 
968	 0.375981003608192 
969	 0.377222117195844 
970	 0.378499415791825 
971	 0.37967869140067 
972	 0.380808817033627 
973	 0.382022498475225 
974	 0.383321941854584 
975	 0.384631586946382 
976	 0.386044608136156 
977	 0.387394938737222 
978	 0.388667446191685 
979	 0.389978757024725 
980	 0.391522011917778 
981	 0.392803090398974 
982	 0.393962414969657 
983	 0.395426244588584 
984	 0.396725923992191 
985	 0.398096652845054 
986	 0.399471211489491 
987	 0.400703169070339 
988	 0.402270376274862 
989	 0.403594707741138 
990	 0.404778298916634 
991	 0.406199173475026 
992	 0.407594503270406 
993	 0.409084744569016 
994	 0.410557997345465 
995	 0.411874386584688 
996	 0.413232767283278 
997	 0.414714766017325 
998	 0.416120288427427 
999	 0.417304686167408 
1000	 0.418688305745944 
1001	 0.420472222284004 
1002	 0.42181890082583 
1003	 0.423063675208674 
1004	 0.424309631513169 
1005	 0.42556254616172 
1006	 0.426827830379824 
1007	 0.428056474188479 
1008	 0.429294857249573 
1009	 0.430624433720733 
1010	 0.431855455583391 
1011	 0.433044120031636 
1012	 0.434298855898175 
1013	 0.435509553432802 
1014	 0.436694201642694 
1015	 0.437912126188643 
1016	 0.439120188574215 
1017	 0.440322681468326 
1018	 0.441518607710622 
1019	 0.442684266346864 
1020	 0.443814259155678 
1021	 0.444967034849274 
1022	 0.446086838938648 
1023	 0.447237645622879 
1024	 0.448406296096187 
1025	 0.449503357429296 
1026	 0.450551722509169 
1027	 0.451573115708467 
1028	 0.452631561034409 
1029	 0.453657544689059 
1030	 0.454652039167945 
1031	 0.455665640110899 
1032	 0.456671475656246 
1033	 0.457684376177349 
1034	 0.458773000829269 
1035	 0.459827695820067 
1036	 0.460816158677847 
1037	 0.461755053610138 
1038	 0.462661821690758 
1039	 0.463612238788444 
1040	 0.464611528649414 
1041	 0.465602286557538 
1042	 0.466526049679511 
1043	 0.467424144803778 
1044	 0.468327676600677 
1045	 0.469215093725383 
1046	 0.47010191430704 
1047	 0.47100102774168 
1048	 0.471912602500429 
1049	 0.472782361963224 
1050	 0.473680868688304 
1051	 0.474629886943438 
1052	 0.475497382239277 
1053	 0.476403123227987 
1054	 0.477322071248793 
1055	 0.478174121137486 
1056	 0.479076625921842 
1057	 0.479969991493688 
1058	 0.480863049486806 
1059	 0.481742717701438 
1060	 0.482624774375771 
1061	 0.483498521553773 
1062	 0.48435563877411 
1063	 0.485130074436466 
1064	 0.485931699364419 
1065	 0.486758690499967 
1066	 0.487506358252124 
1067	 0.48832641960737 
1068	 0.489229424318603 
1069	 0.49008280311532 
1070	 0.490921064224535 
1071	 0.491798187057017 
1072	 0.492637985409991 
1073	 0.493418659939247 
1074	 0.494204197015268 
1075	 0.494997575957245 
1076	 0.49576164263341 
1077	 0.496509893448179 
1078	 0.497201623452894 
1079	 0.497926455695766 
1080	 0.498674489492052 
1081	 0.499331916649575 
1082	 0.500061199429794 
1083	 0.500793885415344 
1084	 0.501510071874744 
1085	 0.502220061813759 
1086	 0.502993451867752 
1087	 0.503683790412046 
1088	 0.504293901581461 
1089	 0.504967026295115 
1090	 0.505644138007309 
1091	 0.50626363458481 
1092	 0.506914629771846 
1093	 0.507562348384837 
1094	 0.508178527577426 
1095	 0.508780600769863 
1096	 0.509353137493503 
1097	 0.509930340865387 
1098	 0.510511584723595 
1099	 0.511086306047328 
1100	 0.511655353980667 
1101	 0.512237971035338 
1102	 0.512800939833339 
1103	 0.51334655109139 
1104	 0.513904856852433 
1105	 0.514422837827021 
1106	 0.514918643010767 
1107	 0.515426873409045 
1108	 0.515934027877786 
1109	 0.516455067136764 
1110	 0.517007650237919 
1111	 0.517548879635054 
1112	 0.518121913609984 
1113	 0.518610465764344 
1114	 0.519042488285196 
1115	 0.51951597586477 
1116	 0.519936679992852 
1117	 0.520408186154506 
1118	 0.520936786759372 
1119	 0.521464431380275 
1120	 0.521944943172092 
1121	 0.522419810081782 
1122	 0.522893049133966 
1123	 0.523377620359731 
1124	 0.523846803962225 
1125	 0.52432933481734 
1126	 0.524773447824651 
1127	 0.52516831640564 
1128	 0.525608111489199 
1129	 0.526069889206843 
1130	 0.526500356357207 
1131	 0.526957261649411 
1132	 0.527369389136871 
1133	 0.527726774068993 
1134	 0.528097620259978 
1135	 0.528452834856622 
1136	 0.528811453225626 
1137	 0.529187375037982 
1138	 0.529541789217224 
1139	 0.529893265892709 
1140	 0.530257929614379 
1141	 0.530577442986257 
1142	 0.530876496183559 
1143	 0.531158412649367 
1144	 0.531420210616213 
1145	 0.531657038912979 
1146	 0.531880818102508 
1147	 0.53207615952467 
1148	 0.532227618815576 
1149	 0.532386437787774 
1150	 0.53253285085368 
1151	 0.532672030043446 
1152	 0.532800785934933 
1153	 0.532936944747465 
1154	 0.533077617342313 
1155	 0.533198621128929 
1156	 0.533366209796331 
1157	 0.53357564967982 
1158	 0.533749141956378 
1159	 0.533937632831015 
1160	 0.534108879920712 
1161	 0.534236264387716 
1162	 0.534399985393995 
1163	 0.534575404129152 
1164	 0.534760566892387 
1165	 0.534945195493788 
1166	 0.535172220783964 
1167	 0.535401158010845 
1168	 0.535619372540658 
1169	 0.535833698694563 
1170	 0.536048413656109 
1171	 0.536261371104103 
1172	 0.536463031059013 
1173	 0.536677415278217 
1174	 0.536885141156075 
1175	 0.537121643599548 
1176	 0.537381361692316 
1177	 0.537631757596655 
1178	 0.53788962378003 
1179	 0.538161891318709 
1180	 0.538442946371676 
1181	 0.538715353478797 
1182	 0.539006133023829 
1183	 0.539286894072688 
1184	 0.539558174107621 
1185	 0.539809876583986 
1186	 0.54007510705373 
1187	 0.540342447738039 
1188	 0.540610531672825 
1189	 0.540880544674412 
1190	 0.541146607474901 
1191	 0.541430944476088 
1192	 0.541679470733034 
1193	 0.541898836513875 
1194	 0.542132298120263 
1195	 0.542360665134348 
1196	 0.542575164507737 
1197	 0.542775092524892 
1198	 0.542996590955829 
1199	 0.543221049417131 
1200	 0.543426572273521 
1201	 0.543663621262217 
1202	 0.543944024614086 
1203	 0.544182430491677 
1204	 0.5444089448182 
1205	 0.54463774428811 
1206	 0.544851813125458 
1207	 0.545075939077339 
1208	 0.545324308569996 
1209	 0.545534263720499 
1210	 0.545737178583109 
1211	 0.545917728539321 
1212	 0.546043995364345 
1213	 0.546202491053878 
1214	 0.546358305524319 
1215	 0.546525384915265 
1216	 0.546703629027685 
1217	 0.546908060299928 
1218	 0.547088532578568 
1219	 0.547274574987468 
1220	 0.547437483991196 
1221	 0.547572114187715 
1222	 0.547736295382179 
1223	 0.547906887005798 
1224	 0.548066707038992 
1225	 0.548240657777763 
1226	 0.548402908052865 
1227	 0.54854950563809 
1228	 0.548694583348633 
1229	 0.548832179153161 
1230	 0.54898166127366 
1231	 0.549135030812584 
1232	 0.549279792375181 
1233	 0.54942501775246 
1234	 0.549582159708713 
1235	 0.549728258205415 
1236	 0.549854291502248 
1237	 0.550004074339113 
1238	 0.550175304083873 
1239	 0.550322944172324 
1240	 0.550469123883249 
1241	 0.550610426339443 
1242	 0.550735339244539 
1243	 0.550868026300426 
1244	 0.551016990814473 
1245	 0.551140899488504 
1246	 0.551232565555453 
1247	 0.551353523429132 
1248	 0.551469858692006 
1249	 0.551599440908081 
1250	 0.551765874801808 
1251	 0.551924402719999 
1252	 0.552050586483926 
1253	 0.552157243748587 
1254	 0.552265312959416 
1255	 0.552349191831194 
1256	 0.55244548756049 
1257	 0.552556528306799 
1258	 0.552642214432571 
1259	 0.552709442509214 
1260	 0.552782150484211 
1261	 0.552834791261372 
1262	 0.552908895139587 
1263	 0.55301776750998 
1264	 0.553087709640292 
1265	 0.553137095849012 
1266	 0.553195626042992 
1267	 0.553231390388349 
1268	 0.55326875384819 
1269	 0.553330857499736 
1270	 0.553419491446464 
1271	 0.553493937531269 
1272	 0.553574886150689 
1273	 0.553650673210095 
1274	 0.553727918373058 
1275	 0.553797014661669 
1276	 0.553843247583267 
1277	 0.55392777915184 
1278	 0.554014624982953 
1279	 0.554123577620351 
1280	 0.554268394889958 
1281	 0.554412101754319 
1282	 0.554581278730565 
1283	 0.554730379462765 
1284	 0.554890445500011 
1285	 0.555028810229479 
1286	 0.555134706755608 
1287	 0.555236555639347 
1288	 0.555349442285232 
1289	 0.555459443411378 
1290	 0.555565308844901 
1291	 0.555671525588019 
1292	 0.55578940739268 
1293	 0.555908711142483 
1294	 0.556018852064386 
1295	 0.556153991455856 
1296	 0.556246284898515 
1297	 0.556303337023616 
1298	 0.556368897228855 
1299	 0.556416152904673 
1300	 0.556473589288753 
1301	 0.556530750717725 
1302	 0.556589450853507 
1303	 0.55667152519712 
1304	 0.556717149736647 
1305	 0.556745899505996 
1306	 0.556753711897404 
1307	 0.556720035718005 
1308	 0.556696764589527 
1309	 0.556659478960533 
1310	 0.556620312569433 
1311	 0.556549406055471 
1312	 0.556449007348582 
1313	 0.556364844294107 
1314	 0.556283040572865 
1315	 0.556175876962741 
1316	 0.556075720379909 
1317	 0.555941908682505 
1318	 0.55575889941842 
1319	 0.555590565664162 
1320	 0.555430169089121 
1321	 0.555243926986283 
1322	 0.555056521677396 
1323	 0.554838661270046 
1324	 0.554581308742517 
1325	 0.554326847504531 
1326	 0.554071371431539 
1327	 0.553793211034137 
1328	 0.553498987886889 
1329	 0.553203756152891 
1330	 0.552886298498349 
1331	 0.552537307201747 
1332	 0.552192994650806 
1333	 0.55185487429016 
1334	 0.551484832482418 
1335	 0.551088264352414 
1336	 0.550701816153916 
1337	 0.55029526729809 
1338	 0.549902247228454 
1339	 0.549528672395316 
1340	 0.549129956011794 
1341	 0.548717852272067 
1342	 0.548314095071779 
1343	 0.547894271526911 
1344	 0.547482836717536 
1345	 0.547114994645652 
1346	 0.546726219446279 
1347	 0.546348424326129 
1348	 0.546003022026467 
1349	 0.545599748842644 
1350	 0.545200444479722 
1351	 0.544831389552095 
1352	 0.544458877663053 
1353	 0.54410249451103 
1354	 0.543795740895259 
1355	 0.543442509092945 
1356	 0.54305208246776 
1357	 0.542699601122149 
1358	 0.542341919724548 
1359	 0.542008391873393 
1360	 0.541713963195354 
1361	 0.541404392403384 
1362	 0.541097253663477 
1363	 0.540791376680162 
1364	 0.540487816300502 
1365	 0.540180287751439 
1366	 0.539870227380798 
1367	 0.539561880764325 
1368	 0.539276982711486 
1369	 0.538990907659249 
1370	 0.538666339125978 
1371	 0.538318615607102 
1372	 0.537914644647121 
1373	 0.537458435954721 
1374	 0.536982636886672 
1375	 0.536501298166131 
1376	 0.535928916534257 
1377	 0.535312743726278 
1378	 0.534613145989231 
1379	 0.533816745880947 
1380	 0.53300979529895 
1381	 0.53215464410823 
1382	 0.53125976084047 
1383	 0.530347291551587 
1384	 0.529361992292686 
1385	 0.528371551094012 
1386	 0.527245274618333 
1387	 0.526051091176014 
1388	 0.524749328588032 
1389	 0.523356291292235 
1390	 0.521818801343852 
1391	 0.520200230513596 
1392	 0.518464472919463 
1393	 0.516598491203725 
1394	 0.514644835742705 
1395	 0.512530746629667 
1396	 0.510350574832758 
1397	 0.50810588321593 
1398	 0.505770909992254 
1399	 0.503333606152006 
1400	 0.500843740549206 
1401	 0.498218774142184 
1402	 0.495436475160584 
1403	 0.492653734567295 
1404	 0.489764892899301 
1405	 0.486919513237525 
1406	 0.484046164192537 
1407	 0.481162612570976 
1408	 0.478237475872738 
1409	 0.475376271885101 
1410	 0.47247232866223 
1411	 0.469695401295236 
1412	 0.466961883061969 
1413	 0.464367987654141 
1414	 0.46191483670394 
1415	 0.459480832516893 
1416	 0.457150033820287 
1417	 0.45488565172021 
1418	 0.452619731711876 
1419	 0.450462920225824 
1420	 0.448380783149188 
1421	 0.446369932341938 
1422	 0.444445938742276 
1423	 0.442557166930171 
1424	 0.440715130855297 
1425	 0.438926186941268 
1426	 0.43718026555049 
1427	 0.435473848437951 
1428	 0.433823680875497 
1429	 0.432234344142325 
1430	 0.430676504426477 
1431	 0.429201378884563 
1432	 0.427671964260671 
1433	 0.426150269715113 
1434	 0.424630597808165 
1435	 0.423072064930497 
1436	 0.421558392593113 
1437	 0.420080063484221 
1438	 0.418605420810396 
1439	 0.417153636044808 
1440	 0.415694192732923 
1441	 0.41421899999736 
1442	 0.412732842681129 
1443	 0.411227721413778 
1444	 0.409782984435152 
1445	 0.408433667834171 
1446	 0.40720342295931 
1447	 0.406117677765181 
1448	 0.40517405674788 
1449	 0.404369447617876 
1450	 0.403754666364764 
1451	 0.40337951691334 
1452	 0.403188941713356 
1453	 0.403244486706417 
1454	 0.403587750156616 
1455	 0.404017368427305 
1456	 0.404706698577413 
1457	 0.405368257489367 
1458	 0.40616718474362 
1459	 0.40693158295474 
1460	 0.407762071720646 
1461	 0.408528845083855 
1462	 0.409339573481064 
1463	 0.410029679029232 
1464	 0.410682722428395 
1465	 0.411226258866721 
1466	 0.411654416583375 
1467	 0.412048749575446 
1468	 0.412321162128207 
1469	 0.412614957591094 
1470	 0.412889799946402 
1471	 0.413137591891515 
1472	 0.413373080541458 
1473	 0.413600491642574 
1474	 0.413784340921877 
1475	 0.413953108163321 
1476	 0.414091003263011 
1477	 0.414225427768323 
1478	 0.41438390018385 
1479	 0.414537513295015 
1480	 0.414712623508274 
1481	 0.414908680453187 
1482	 0.415102170110679 
1483	 0.415309729769747 
1484	 0.415485490259852 
1485	 0.415646894773328 
1486	 0.415831885386962 
1487	 0.415992142427215 
1488	 0.416194132575586 
1489	 0.416438676698063 
1490	 0.416669260363462 
1491	 0.416925225121589 
1492	 0.417143051872652 
1493	 0.417340592762984 
1494	 0.417549227423983 
1495	 0.417743562045494 
1496	 0.417935150384838 
1497	 0.418157177569362 
1498	 0.418331632359023 
1499	 0.418477301095749 
1500	 0.418601431589947 
1501	 0.418679690441793 
1502	 0.418778235639881 
1503	 0.418869763605284 
1504	 0.418950377667822 
1505	 0.41906207715946 
1506	 0.419162831292363 
1507	 0.419251372868403 
1508	 0.419340265520177 
1509	 0.419413279517129 
1510	 0.41948782987717 
1511	 0.419544444568381 
1512	 0.419597854961401 
1513	 0.41965806783889 
1514	 0.419721380881571 
1515	 0.419798088279252 
1516	 0.419881590529308 
1517	 0.419969423682291 
1518	 0.420068282111094 
1519	 0.420153777296368 
1520	 0.42024304385854 
1521	 0.420321944123224 
1522	 0.420382991942525 
1523	 0.420458326689989 
1524	 0.420542256693494 
1525	 0.42061541693185 
1526	 0.420688555539265 
1527	 0.42075794511047 
1528	 0.420821008142306 
1529	 0.420874757419493 
1530	 0.420928360850469 
1531	 0.420977162545455 
1532	 0.421008513830693 
1533	 0.421047212820422 
1534	 0.421095600894922 
1535	 0.421131728524742 
1536	 0.421153469529771 
1537	 0.421188141533379 
1538	 0.421225039244287 
1539	 0.42125499268467 
1540	 0.421277930750841 
1541	 0.421323893077922 
1542	 0.421378473832484 
1543	 0.421432354815216 
1544	 0.42151285511984 
1545	 0.421575897069106 
1546	 0.421633665533944 
1547	 0.421672792326536 
1548	 0.42170643639775 
1549	 0.421738859932899 
1550	 0.421761950426205 
1551	 0.421811708468987 
1552	 0.421881573400034 
1553	 0.421949793837245 
1554	 0.422028097838079 
1555	 0.422078333645936 
1556	 0.422078525416428 
1557	 0.42207888552621 
1558	 0.422071567903566 
1559	 0.422043463195593 
1560	 0.42203136334596 
1561	 0.422034723398137 
1562	 0.422018714095473 
1563	 0.421986620613954 
1564	 0.421981015825626 
1565	 0.421986313096491 
1566	 0.421977439221198 
1567	 0.42198081213219 
1568	 0.421966267618278 
1569	 0.421920307904662 
1570	 0.421910816468591 
1571	 0.421919215400241 
1572	 0.421915005191936 
1573	 0.421922448793558 
1574	 0.421921007427272 
1575	 0.421915496906063 
1576	 0.421896220245037 
1577	 0.421869699012504 
1578	 0.421843151429759 
1579	 0.421797131866156 
1580	 0.421766938488603 
1581	 0.421746094644147 
1582	 0.421724599667427 
1583	 0.421728625983499 
1584	 0.42168399932429 
1585	 0.421608215103124 
1586	 0.421549961988 
1587	 0.42146832551052 
1588	 0.421391179790984 
1589	 0.4213445641457 
1590	 0.421265686465764 
1591	 0.421159438433547 
1592	 0.42105108800769 
1593	 0.420932460643447 
1594	 0.420806115177318 
1595	 0.420672917673398 
1596	 0.42052708293925 
1597	 0.420361486865459 
1598	 0.420205696068629 
1599	 0.420058265532387 
1600	 0.41988790559223 
1601	 0.419708228787941 
1602	 0.419527097667681 
1603	 0.419319851405011 
1604	 0.419119344776971 
1605	 0.418926441389971 
1606	 0.418733221886091 
1607	 0.41853945848367 
1608	 0.418342145338733 
1609	 0.418154362720374 
1610	 0.417957585000333 
1611	 0.417737127291032 
1612	 0.417502172665899 
1613	 0.417233239038528 
1614	 0.41693651031923 
1615	 0.416635151180606 
1616	 0.416334447907205 
1617	 0.416013342375766 
1618	 0.415712856165382 
1619	 0.415422225753587 
1620	 0.415097465124238 
1621	 0.414802135393576 
1622	 0.414528636882439 
1623	 0.414226901720372 
1624	 0.413924449621217 
1625	 0.413609441226509 
1626	 0.413273893963272 
1627	 0.412948173939458 
1628	 0.412616039821691 
1629	 0.412296643492403 
1630	 0.411987838218818 
1631	 0.411662610921312 
1632	 0.411336384622239 
1633	 0.411009691474897 
1634	 0.410681179140089 
1635	 0.410328521833558 
1636	 0.409976796684994 
1637	 0.409599785048766 
1638	 0.409176780987198 
1639	 0.408794013725436 
1640	 0.408405635624652 
1641	 0.408053453078678 
1642	 0.407734510305864 
1643	 0.407400877456947 
1644	 0.407085204558925 
1645	 0.406760167086507 
1646	 0.406423630908684 
1647	 0.406098278539701 
1648	 0.405792854252013 
1649	 0.405454777041314 
1650	 0.405106926121814 
1651	 0.404748568304687 
1652	 0.404366454047167 
1653	 0.403991494246543 
1654	 0.403609357276978 
1655	 0.40323602058275 
1656	 0.402866496211822 
1657	 0.402487790172903 
1658	 0.402106227810714 
1659	 0.401732470738887 
1660	 0.401352257349429 
1661	 0.400979499766908 
1662	 0.400618952832749 
1663	 0.400254926030774 
1664	 0.39987866585505 
1665	 0.399527666799431 
1666	 0.399185224677007 
1667	 0.398861522932898 
1668	 0.39858411780806 
1669	 0.398250454852601 
1670	 0.397910022953224 
1671	 0.397552177068528 
1672	 0.397139578384139 
1673	 0.396770552783639 
1674	 0.396408264358879 
1675	 0.396069076719803 
1676	 0.39575520089474 
1677	 0.395436722517516 
1678	 0.395143728488162 
1679	 0.394825979085856 
1680	 0.394495292740936 
1681	 0.394169202755289 
1682	 0.39383384068025 
1683	 0.393504283614111 
1684	 0.393174407279095 
1685	 0.392852840151162 
1686	 0.392532176158485 
1687	 0.392221510348236 
1688	 0.391915443306793 
1689	 0.391625683688303 
1690	 0.391356959468917 
1691	 0.391073704273194 
1692	 0.390798799297296 
1693	 0.390518511922913 
1694	 0.390215797331722 
1695	 0.389942971695622 
1696	 0.389700347906026 
1697	 0.389428864818526 
1698	 0.389164832112286 
1699	 0.388876757187024 
1700	 0.38855367652503 
1701	 0.388251418109467 
1702	 0.387938118442751 
1703	 0.387653078018654 
1704	 0.387398526343988 
1705	 0.387114758120011 
1706	 0.386846256727938 
1707	 0.386544147429652 
1708	 0.386185709569305 
1709	 0.385885764173474 
1710	 0.385595536094101 
1711	 0.385320961984328 
1712	 0.385097960235013 
1713	 0.384831494477223 
1714	 0.384541387503301 
1715	 0.38426629274577 
1716	 0.383984290666023 
1717	 0.383710622589469 
1718	 0.383455037586344 
1719	 0.383184147369605 
1720	 0.382894090479779 
1721	 0.38262530696665 
1722	 0.38235320592313 
1723	 0.382112145844024 
1724	 0.381895246614451 
1725	 0.381687797768817 
1726	 0.381529715993025 
1727	 0.381292462310846 
1728	 0.38101724717959 
1729	 0.380768014057555 
1730	 0.38048029287592 
1731	 0.380226352521045 
1732	 0.380010745551884 
1733	 0.379790184615296 
1734	 0.37955882966547 
1735	 0.379338389200113 
1736	 0.379148517840542 
1737	 0.378932194937433 
1738	 0.378685693386589 
1739	 0.378486690515005 
1740	 0.37831370901524 
1741	 0.378109246039085 
1742	 0.377930285752269 
1743	 0.377709795662086 
1744	 0.377438144582809 
1745	 0.377200025970448 
1746	 0.376963025792493 
1747	 0.376726387664696 
1748	 0.376511264817615 
1749	 0.376304590066382 
1750	 0.376089698240399 
1751	 0.375899693209205 
1752	 0.375703890296677 
1753	 0.375510504090351 
1754	 0.375311657806163 
1755	 0.375084750371681 
1756	 0.374896843458323 
1757	 0.374713800943255 
1758	 0.374519623800331 
1759	 0.374360425867876 
1760	 0.374224762995604 
1761	 0.374082588070499 
1762	 0.373937862481342 
1763	 0.373784654455306 
1764	 0.37358505364028 
1765	 0.373403693567891 
1766	 0.373265088793335 
1767	 0.373103698305591 
1768	 0.372965433685179 
1769	 0.37284656498198 
1770	 0.372704015961848 
1771	 0.372611138940992 
1772	 0.372550430683154 
1773	 0.372463503653029 
1774	 0.372387625225034 
1775	 0.372304317120803 
1776	 0.372179187417143 
1777	 0.372044652190523 
1778	 0.371912253398397 
1779	 0.371804540424784 
1780	 0.371722593538641 
1781	 0.371654462873795 
1782	 0.371597954812608 
1783	 0.371540773349668 
1784	 0.371482564227995 
1785	 0.371429230816749 
1786	 0.371368580796885 
1787	 0.371298197362946 
1788	 0.371229365474344 
1789	 0.371177774181186 
1790	 0.371108622730194 
1791	 0.371008005133425 
1792	 0.370940104128511 
1793	 0.370871886651794 
1794	 0.370825450169391 
1795	 0.370815875814071 
1796	 0.370799073216536 
1797	 0.370779320607176 
1798	 0.370767619741612 
1799	 0.370766315301124 
1800	 0.370785237510437 
1801	 0.363309643477025 
1802	 0.363611325255156 
1803	 0.363904196006869 
1804	 0.364255091898936 
1805	 0.364645865104301 
1806	 0.365006566763317 
1807	 0.365387706753575 
1808	 0.365721820835754 
1809	 0.366045325531577 
1810	 0.366306073911567 
1811	 0.366517507160502 
1812	 0.366738628876317 
1813	 0.366916842787518 
1814	 0.367035074575892 
1815	 0.367122122719376 
1816	 0.36719358833246 
1817	 0.367273451225166 
1818	 0.367305788552282 
1819	 0.367384848625041 
1820	 0.367498041677585 
1821	 0.367601217319617 
1822	 0.367706100037807 
1823	 0.367785029750851 
1824	 0.367825720434775 
1825	 0.367861887276002 
1826	 0.367892970474555 
1827	 0.367947043104267 
1828	 0.367972037454785 
1829	 0.3680176763022 
1830	 0.368010899064874 
1831	 0.367962844050084 
1832	 0.367894382840623 
1833	 0.367836160147728 
1834	 0.367777486507998 
1835	 0.367723060075745 
1836	 0.36766189053054 
1837	 0.367603253262127 
1838	 0.367565187428913 
1839	 0.367538870050774 
1840	 0.367529851998769 
1841	 0.367533005536432 
1842	 0.367540588432973 
1843	 0.367523307750936 
1844	 0.36750536395832 
1845	 0.367479177017911 
1846	 0.367407198467614 
1847	 0.3673399345807 
1848	 0.367279830731268 
1849	 0.367191648037284 
1850	 0.36709476996264 
1851	 0.367002295745796 
1852	 0.366898030838487 
1853	 0.366739701034567 
1854	 0.366547954796891 
1855	 0.366346982589775 
1856	 0.366085565328215 
1857	 0.365766148293825 
1858	 0.365440279086976 
1859	 0.365082892397816 
1860	 0.364683595215885 
1861	 0.364254809998718 
1862	 0.363794966661681 
1863	 0.363280759414132 
1864	 0.362708414185275 
1865	 0.362062147738288 
1866	 0.361376423889267 
1867	 0.360651065303166 
1868	 0.359867645875012 
1869	 0.359031194147295 
1870	 0.358122648291146 
1871	 0.357163735740227 
1872	 0.356150855207137 
1873	 0.355071949272805 
1874	 0.353930713687884 
1875	 0.352767240538028 
1876	 0.351533676614844 
1877	 0.350201232236726 
1878	 0.34874427545503 
1879	 0.347161611370695 
1880	 0.345441467130688 
1881	 0.343555725095628 
1882	 0.341582391910853 
1883	 0.339519917163296 
1884	 0.337272858688509 
1885	 0.334913011018312 
1886	 0.332410175119894 
1887	 0.329695204519679 
1888	 0.326890799574448 
1889	 0.323924349036139 
1890	 0.320827357116199 
1891	 0.317663306304459 
1892	 0.314382131779729 
1893	 0.311004102844779 
1894	 0.30753926136754 
1895	 0.30398669224081 
1896	 0.300264205658745 
1897	 0.296526874566807 
1898	 0.292720235001628 
1899	 0.288873085091691 
1900	 0.285131954325603 
1901	 0.281401164370754 
1902	 0.277753969552716 
1903	 0.27417940256529 
1904	 0.270697758513358 
1905	 0.267262900233209 
1906	 0.263956426246701 
1907	 0.260756689415358 
1908	 0.257682573325869 
1909	 0.254758462068097 
1910	 0.251921773779373 
1911	 0.249232169065143 
1912	 0.246656794393292 
1913	 0.244154977107066 
1914	 0.241727814992615 
1915	 0.239431748647788 
1916	 0.237228220575187 
1917	 0.235132635137428 
1918	 0.233196994721972 
1919	 0.231320316904386 
1920	 0.229570418242886 
1921	 0.227941837612329 
1922	 0.226379922138426 
1923	 0.224956005167845 
1924	 0.223589232063906 
1925	 0.222321140011359 
1926	 0.22110057664754 
1927	 0.219954382424656 
1928	 0.218851074442574 
1929	 0.217821559634441 
1930	 0.216883991834143 
1931	 0.216011378514003 
1932	 0.215205433697176 
1933	 0.214479277892064 
1934	 0.213800360414881 
1935	 0.213192847514986 
1936	 0.212640642918575 
1937	 0.212175769222132 
1938	 0.211748822376769 
1939	 0.211464345500726 
1940	 0.211282738997601 
1941	 0.211186991596258 
1942	 0.2112289549962 
1943	 0.211357819608234 
1944	 0.211567359074178 
1945	 0.211903900449011 
1946	 0.212322118251008 
1947	 0.212866157784167 
1948	 0.213444809376432 
1949	 0.214133406258593 
1950	 0.214825282688129 
1951	 0.215573215122945 
1952	 0.216342575168342 
1953	 0.21711332971964 
1954	 0.217898344998589 
1955	 0.218676534582206 
1956	 0.219404994578605 
1957	 0.220109810885564 
1958	 0.220799088234216 
1959	 0.221444720505643 
1960	 0.222065425998475 
1961	 0.222634950773867 
1962	 0.223158499661748 
1963	 0.22365568474475 
1964	 0.224097632438238 
1965	 0.22451937833042 
1966	 0.224942830483802 
1967	 0.225371084185467 
1968	 0.225789451418105 
1969	 0.226204508469607 
1970	 0.226610739702212 
1971	 0.227002029396083 
1972	 0.227398173689783 
1973	 0.227781715675986 
1974	 0.228190648455509 
1975	 0.22860782765732 
1976	 0.229031715893087 
1977	 0.229476606598132 
1978	 0.22991383622397 
1979	 0.230365877649562 
1980	 0.23081525541508 
1981	 0.231279883999231 
1982	 0.231754806217206 
1983	 0.232246333737723 
1984	 0.232743016628451 
1985	 0.233264096093012 
1986	 0.233824387959742 
1987	 0.234358157031541 
1988	 0.234892123294204 
1989	 0.23544568910157 
1990	 0.235953121952501 
1991	 0.236457965972937 
1992	 0.236965613138848 
1993	 0.237465478647169 
1994	 0.237962327171852 
1995	 0.238469173356878 
1996	 0.23895367675262 
1997	 0.239421264777673 
1998	 0.239895158347104 
1999	 0.240357075100123 
2000	 0.240820745322284 
2001	 0.241292185487533 
2002	 0.241749408858548 
2003	 0.242197705516715 
2004	 0.242668826155987 
2005	 0.243131303756406 
2006	 0.243593062016521 
2007	 0.244056289958911 
2008	 0.244518175985441 
2009	 0.244984433097244 
2010	 0.245458312970374 
2011	 0.245930272998387 
2012	 0.246407488557741 
2013	 0.246874914038865 
2014	 0.247328320516663 
2015	 0.247786035373313 
2016	 0.248266985554585 
2017	 0.248768489150912 
2018	 0.249278890329194 
2019	 0.249829641705567 
2020	 0.250354408048539 
2021	 0.250868844543975 
2022	 0.251392870327255 
2023	 0.251917031376528 
2024	 0.252448676123647 
2025	 0.25298040666849 
2026	 0.253527285029023 
2027	 0.254102483136224 
2028	 0.254645610788527 
2029	 0.255206978764063 
2030	 0.255786963472949 
2031	 0.256341878097209 
2032	 0.256887137587175 
2033	 0.257436134866535 
2034	 0.257977232927669 
2035	 0.258516994534212 
2036	 0.259062345660383 
2037	 0.259597712646652 
2038	 0.260126530598694 
2039	 0.260647067968838 
2040	 0.261178942061929 
2041	 0.261666436987161 
2042	 0.262149790758638 
2043	 0.262639272682198 
2044	 0.263141878805936 
2045	 0.263639956007249 
2046	 0.264165001780438 
2047	 0.264730972980813 
2048	 0.265258237153556 
2049	 0.265802517427583 
2050	 0.266303500527929 
2051	 0.266750409179826 
2052	 0.267220938775865 
2053	 0.267680362469219 
2054	 0.268141563182794 
2055	 0.268607300183441 
2056	 0.269082358678853 
2057	 0.269541036251039 
2058	 0.269986744947911 
2059	 0.270436670095365 
2060	 0.270887685903512 
2061	 0.271330405022443 
2062	 0.271769049904906 
2063	 0.27220552088092 
2064	 0.272631058073794 
2065	 0.273060337424726 
2066	 0.273501425956331 
2067	 0.273923332840895 
2068	 0.274328872713053 
2069	 0.274747298246201 
2070	 0.275145606211275 
2071	 0.275516537592995 
2072	 0.275920655831207 
2073	 0.276338832157221 
2074	 0.276740683628148 
2075	 0.277165751629064 
2076	 0.2775505961121 
2077	 0.277886892448983 
2078	 0.278257959806364 
2079	 0.278632820469097 
2080	 0.279001824987812 
2081	 0.279387223120432 
2082	 0.279762913239985 
2083	 0.280124938839266 
2084	 0.280482155145755 
2085	 0.280849640458003 
2086	 0.281226818900349 
2087	 0.281593722562818 
2088	 0.281959041229001 
2089	 0.282322677837706 
2090	 0.282689195723749 
2091	 0.283037605766217 
2092	 0.283375475001805 
2093	 0.28371451646193 
2094	 0.284048241086449 
2095	 0.284369001655073 
2096	 0.284671546676369 
2097	 0.284993675277084 
2098	 0.285312960618291 
2099	 0.285627692484717 
2100	 0.285963264070601 
2101	 0.286322495317839 
2102	 0.286678378808254 
2103	 0.287041906308522 
2104	 0.287400175216294 
2105	 0.287778795046856 
2106	 0.288125887942398 
2107	 0.288448629100136 
2108	 0.288780797245863 
2109	 0.289087013048865 
2110	 0.289422187533629 
2111	 0.289765683329108 
2112	 0.290126395384233 
2113	 0.290504088906202 
2114	 0.290906649758962 
2115	 0.291284931859071 
2116	 0.291663989290872 
2117	 0.292049842409218 
2118	 0.292432829663052 
2119	 0.292810735343602 
2120	 0.293203432783634 
2121	 0.293580364707741 
2122	 0.293934003974592 
2123	 0.29429909315916 
2124	 0.29468823928681 
2125	 0.295037171671018 
2126	 0.295374392598968 
2127	 0.295692510512821 
2128	 0.295962319663473 
2129	 0.296249637039809 
2130	 0.296523178160746 
2131	 0.296818537313211 
2132	 0.297104470721903 
2133	 0.297406993252193 
2134	 0.297673563248962 
2135	 0.297934141659928 
2136	 0.298165126007574 
2137	 0.298375254203366 
2138	 0.298559689348685 
2139	 0.298698739542729 
2140	 0.298860689302261 
2141	 0.299013924963321 
2142	 0.299160172597061 
2143	 0.299337784850541 
2144	 0.299467082448204 
2145	 0.299569276891008 
2146	 0.299643806291179 
2147	 0.299691866700079 
2148	 0.299703749010483 
2149	 0.299704763573273 
2150	 0.29966963341371 
2151	 0.299649767487018 
2152	 0.299603627965954 
2153	 0.299595336105171 
2154	 0.299610675202439 
2155	 0.299607916425445 
2156	 0.299637335219767 
2157	 0.29961645988411 
2158	 0.299559229942146 
2159	 0.299505010618886 
2160	 0.29941291888567 
2161	 0.299345362929635 
2162	 0.299276534588298 
2163	 0.299223347357838 
2164	 0.299183073199755 
2165	 0.29915747223896 
2166	 0.299129829554026 
2167	 0.299131709892755 
2168	 0.299075178611199 
2169	 0.299003680874677 
2170	 0.298910082196013 
2171	 0.29877555394726 
2172	 0.298645674144874 
2173	 0.298497724908492 
2174	 0.298362090241363 
2175	 0.298224007250893 
2176	 0.298076403651244 
2177	 0.297948223192772 
2178	 0.297785135979478 
2179	 0.297579140009465 
2180	 0.297391862676406 
2181	 0.297204451804409 
2182	 0.297003843581955 
2183	 0.296787673941419 
2184	 0.296597187364209 
2185	 0.296399408823337 
2186	 0.296179416533792 
2187	 0.295998378973746 
2188	 0.295857659846612 
2189	 0.29567692749431 
2190	 0.295497296257166 
2191	 0.295304101008869 
2192	 0.295082014872533 
2193	 0.294873922804331 
2194	 0.294668701484186 
2195	 0.294461383560473 
2196	 0.294237350241624 
2197	 0.294041706828688 
2198	 0.293853958410577 
2199	 0.293680812564788 
2200	 0.293546120311875 
2201	 0.29339580694733 
2202	 0.29324057415624 
2203	 0.293089405686437 
2204	 0.292953444347476 
2205	 0.292807130810357 
2206	 0.292703106751467 
2207	 0.292632779054418 
2208	 0.292559869076438 
2209	 0.292491202616315 
2210	 0.292463617210616 
2211	 0.292452686416482 
2212	 0.292467016691842 
2213	 0.292522658119333 
2214	 0.292589152001303 
2215	 0.292691457524251 
2216	 0.29277231983059 
2217	 0.292878503874854 
2218	 0.292955232590778 
2219	 0.2930129327287 
2220	 0.293055713361052 
2221	 0.29307260897043 
2222	 0.29310021688512 
2223	 0.293110032511098 
2224	 0.293113957694969 
2225	 0.293133285552985 
2226	 0.293176466436383 
2227	 0.293167764281802 
2228	 0.293130725742278 
2229	 0.293124577811754 
2230	 0.29310759664365 
2231	 0.293084835985601 
2232	 0.293088434302816 
2233	 0.293067491593206 
2234	 0.293014929404071 
2235	 0.292969530936968 
2236	 0.292947352207798 
2237	 0.292883257122549 
2238	 0.292775658351478 
2239	 0.292682221015242 
2240	 0.292573878777912 
2241	 0.29247232038157 
2242	 0.292392466075401 
2243	 0.292286834936441 
2244	 0.292190902881147 
2245	 0.292042359282186 
2246	 0.291854485687554 
2247	 0.291686397420832 
2248	 0.291481863398505 
2249	 0.291231423857711 
2250	 0.291022590240567 
2251	 0.290824335828995 
2252	 0.290590417700217 
2253	 0.290350184317828 
2254	 0.290118367133697 
2255	 0.289858746863842 
2256	 0.289622299841004 
2257	 0.289400901306617 
2258	 0.289195305313982 
2259	 0.288984284837881 
2260	 0.288799587559844 
2261	 0.288675505071241 
2262	 0.288500290556369 
2263	 0.288316225994284 
2264	 0.288121116344328 
2265	 0.287881241859735 
2266	 0.287672668582248 
2267	 0.287490553869858 
2268	 0.287285575498725 
2269	 0.287064472464436 
2270	 0.286862399626091 
2271	 0.286689676022439 
2272	 0.286469930065666 
2273	 0.286293467859218 
2274	 0.286115449668072 
2275	 0.285893723243458 
2276	 0.285629900360223 
2277	 0.285388720616549 
2278	 0.285124205229096 
2279	 0.284884028217513 
2280	 0.284648602088124 
2281	 0.28443494404518 
2282	 0.284247559012373 
2283	 0.284046569397 
2284	 0.283875711188045 
2285	 0.283657134655253 
2286	 0.283417572183352 
2287	 0.283152399528259 
2288	 0.282848733979784 
2289	 0.282547380311894 
2290	 0.28223750315905 
2291	 0.281906296588583 
2292	 0.281549601722328 
2293	 0.281208136198864 
2294	 0.280870389053367 
2295	 0.280494895684314 
2296	 0.280105922359137 
2297	 0.279710860713203 
2298	 0.279295270474133 
2299	 0.278858416042559 
2300	 0.278502782517129 
2301	 0.278158412802981 
2302	 0.277748975786239 
2303	 0.277364929484051 
2304	 0.276940601951011 
2305	 0.276471164600279 
2306	 0.276009217187973 
2307	 0.27553486770703 
2308	 0.275086341427182 
2309	 0.274638207258605 
2310	 0.274163736320112 
2311	 0.273712469826689 
2312	 0.273213947823212 
2313	 0.272659020173483 
2314	 0.272140377281336 
2315	 0.271651383703983 
2316	 0.271102827743165 
2317	 0.270524037040847 
2318	 0.26993745776843 
2319	 0.269286641646554 
2320	 0.268671218997592 
2321	 0.268060462334748 
2322	 0.26747785465377 
2323	 0.266932156923055 
2324	 0.266370917020046 
2325	 0.265825781404416 
2326	 0.265279605710036 
2327	 0.264747223923921 
2328	 0.264150249587107 
2329	 0.263588591251975 
2330	 0.262992336858888 
2331	 0.262382451056885 
2332	 0.261803445301916 
2333	 0.261222369079743 
2334	 0.260657350336059 
2335	 0.260082687242482 
2336	 0.259466753151893 
2337	 0.258824205317834 
2338	 0.258234784768544 
2339	 0.257604568226639 
2340	 0.25692369427918 
2341	 0.25626692424177 
2342	 0.255531311902038 
2343	 0.254804157001678 
2344	 0.254098356462254 
2345	 0.253340077747538 
2346	 0.252559452016613 
2347	 0.25175956807524 
2348	 0.250880249966062 
2349	 0.250081286799934 
2350	 0.249347462514634 
2351	 0.248531886069631 
2352	 0.247730441237199 
2353	 0.246870226267456 
2354	 0.245890472615734 
2355	 0.244988793901784 
2356	 0.244107749602564 
2357	 0.243240295574854 
2358	 0.242408279479675 
2359	 0.24155930696764 
2360	 0.240717819386737 
2361	 0.239834507343873 
2362	 0.238931530328709 
2363	 0.238043123715162 
2364	 0.237094756519059 
2365	 0.236221054413217 
2366	 0.235437868180999 
2367	 0.234567300621908 
2368	 0.233689083857067 
2369	 0.232807021805825 
2370	 0.231871735226217 
2371	 0.230944121600058 
2372	 0.230078098207007 
2373	 0.229259845450892 
2374	 0.228391332029448 
2375	 0.227529364475667 
2376	 0.226634782636605 
2377	 0.225710263089399 
2378	 0.224852014380868 
2379	 0.223955642671093 
2380	 0.223056451438325 
2381	 0.222166957917853 
2382	 0.221279487719154 
2383	 0.220418302713126 
2384	 0.219574506273085 
2385	 0.218723101491787 
2386	 0.217809566730131 
2387	 0.216942654312504 
2388	 0.216134325483006 
2389	 0.215312626100956 
2390	 0.21451902542724 
2391	 0.213710921185026 
2392	 0.212840965219512 
2393	 0.212024174387691 
2394	 0.211273979140945 
2395	 0.210530861431643 
2396	 0.209899696689706 
2397	 0.209317549439193 
2398	 0.208756626287758 
2399	 0.208194362757992 
2400	 0.207524256886756 
2401	 0.206883446153534 
2402	 0.206216617738106 
2403	 0.20553441033158 
2404	 0.205010629959082 
2405	 0.204543192020159 
2406	 0.204078216193185 
2407	 0.203591024492133 
2408	 0.203036895508453 
2409	 0.202449784135694 
2410	 0.201889846993801 
2411	 0.201427738554604 
2412	 0.200991412693383 
2413	 0.200476431911611 
2414	 0.199978754247674 
2415	 0.199483629888085 
2416	 0.19900491625992 
2417	 0.198550065386977 
2418	 0.198143809515608 
2419	 0.197795512044202 
2420	 0.197394548148218 
2421	 0.196995052636123 
2422	 0.196592199771972 
2423	 0.19614271476749 
2424	 0.195703311527477 
2425	 0.195329836639879 
2426	 0.194868774877761 
2427	 0.19435321214415 
2428	 0.193847887459803 
2429	 0.193288568293971 
2430	 0.192742108232842 
2431	 0.192158947188751 
2432	 0.19167121425208 
2433	 0.191257642741299 
2434	 0.190803860625885 
2435	 0.190381484414782 
2436	 0.189939512720882 
2437	 0.189498307645437 
2438	 0.188999458003634 
2439	 0.188507021434171 
2440	 0.187984607520899 
2441	 0.187324991163425 
2442	 0.186721150569221 
2443	 0.186174911531937 
2444	 0.185621928521174 
2445	 0.185067345119802 
2446	 0.184538677840528 
2447	 0.184012758171468 
2448	 0.183478731528778 
2449	 0.182977740474405 
2450	 0.182434041969384 
2451	 0.181869280798396 
2452	 0.181313601600937 
2453	 0.180711300273718 
2454	 0.180264095843725 
2455	 0.179900186764593 
2456	 0.17941965891332 
2457	 0.178981449239975 
2458	 0.178442498817757 
2459	 0.177712604384144 
2460	 0.17729723213462 
2461	 0.17705362383184 
2462	 0.176756830882016 
2463	 0.176612387134391 
2464	 0.176386437189657 
2465	 0.176060945073063 
2466	 0.175803251156585 
2467	 0.17558737916051 
2468	 0.175312290949277 
2469	 0.175038809449554 
2470	 0.174901306770061 
2471	 0.174586935946424 
2472	 0.174386496205751 
2473	 0.17418917890028 
2474	 0.17374826137332 
2475	 0.173369081164028 
2476	 0.173100487847961 
2477	 0.172794636079028 
2478	 0.172451765712865 
2479	 0.172254869868718 
2480	 0.172033422401805 
2481	 0.171696357664913 
2482	 0.171402623807776 
2483	 0.170997575055597 
2484	 0.17059502239285 
2485	 0.17025575941488 
2486	 0.169899676809464 
2487	 0.169699962967782 
2488	 0.169395813332484 
2489	 0.169013150261911 
2490	 0.168835130573008 
2491	 0.168684994428078 
2492	 0.168452572019903 
2493	 0.168066831114629 
2494	 0.167641434758196 
2495	 0.167083013580349 
2496	 0.166477794178361 
2497	 0.166192732819465 
2498	 0.16583819117832 
2499	 0.1654608992556 
2500	 0.165239557375403 
