Wavelength	mm23-100002.asd
350	 4.93000594728725E-02 
351	 6.07084792184431E-02 
352	 6.03860155354906E-02 
353	 0.044541432165997 
354	 5.74531799298482E-02 
355	 6.22871543851943E-02 
356	 5.97230580709391E-02 
357	 5.96082975425396E-02 
358	 6.80253787227851E-02 
359	 5.97199020021663E-02 
360	 4.48792406710716E-02 
361	 5.30451909994372E-02 
362	 5.89502119163938E-02 
363	 5.91764016680034E-02 
364	 5.58149648458889E-02 
365	 5.45755452555981E-02 
366	 5.44943694920915E-02 
367	 5.58033241845506E-02 
368	 5.83425527190069E-02 
369	 6.05345211047227E-02 
370	 5.87926867995301E-02 
371	 5.69310248815281E-02 
372	 6.22956260008587E-02 
373	 6.18581939427806E-02 
374	 6.02921546470057E-02 
375	 6.14588718756188E-02 
376	 6.41264078583069E-02 
377	 6.21804674934709E-02 
378	 6.03745921103472E-02 
379	 6.38078128170921E-02 
380	 6.37349580822163E-02 
381	 6.53122993447948E-02 
382	 6.85790638479293E-02 
383	 6.96775423490435E-02 
384	 7.04143921368392E-02 
385	 7.02010470053102E-02 
386	 6.96422173395136E-02 
387	 7.23447908328802E-02 
388	 7.43629291074516E-02 
389	 7.45224069777766E-02 
390	 7.33462427185626E-02 
391	 7.44620208714238E-02 
392	 7.60472289837314E-02 
393	 7.75402476830243E-02 
394	 7.95522198004765E-02 
395	 8.03682693326077E-02 
396	 8.13645978448501E-02 
397	 8.35058475360349E-02 
398	 8.61002554448965E-02 
399	 8.69535040270943E-02 
400	 8.71658721575238E-02 
401	 8.86917952565065E-02 
402	 9.05874547639254E-02 
403	 9.15254644986917E-02 
404	 9.17258668116464E-02 
405	 9.29107409515562E-02 
406	 9.48427020178514E-02 
407	 9.68388620915181E-02 
408	 0.098106663533135 
409	 9.74972773619529E-02 
410	 9.84181926689239E-02 
411	 0.100477965201408 
412	 0.101608486664945 
413	 0.101977573135612 
414	 0.10283975523243 
415	 0.104101852701434 
416	 0.103872193809976 
417	 0.103531164684487 
418	 0.104080046029432 
419	 0.105485894786752 
420	 0.104664031898494 
421	 0.104063281452981 
422	 0.104628799711137 
423	 0.105983586032433 
424	 0.105386185471865 
425	 0.104112380010449 
426	 0.103373283751974 
427	 0.103356486318953 
428	 0.10283802523656 
429	 0.102076553017985 
430	 0.101652488205574 
431	 0.101034462583479 
432	 0.100602410526581 
433	 0.100551616641597 
434	 0.100828423244353 
435	 0.100220270153613 
436	 9.96285939718413E-02 
437	 9.98361020456954E-02 
438	 0.100227560085731 
439	 0.100737765205488 
440	 0.101390174214885 
441	 0.102224523746728 
442	 0.102941933847723 
443	 0.103712767729079 
444	 0.104621138252068 
445	 0.105555123705978 
446	 0.106435265799395 
447	 0.107314756236443 
448	 0.108219525149589 
449	 0.10882380482025 
450	 0.109773132359669 
451	 0.110957745352904 
452	 0.111652547676837 
453	 0.112281098866215 
454	 0.113004504650233 
455	 0.113848044751014 
456	 0.114657674649355 
457	 0.115167439742736 
458	 0.115570424291823 
459	 0.116215533796773 
460	 0.116867447701804 
461	 0.117122693775727 
462	 0.117155848692474 
463	 0.117955076617965 
464	 0.118608011565926 
465	 0.119013508957216 
466	 0.11931114677191 
467	 0.119604762177913 
468	 0.120135985997017 
469	 0.120564086344355 
470	 0.120195033921483 
471	 0.120499277939706 
472	 0.120926872177171 
473	 0.121005746398005 
474	 0.121280570119546 
475	 0.121579533038978 
476	 0.12182660460993 
477	 0.122021983190833 
478	 0.122496497887266 
479	 0.122770052268875 
480	 0.122715827095014 
481	 0.122771923712238 
482	 0.123147053804484 
483	 0.123551218237161 
484	 0.123676732390386 
485	 0.123785790922934 
486	 0.123996751157844 
487	 0.124269505112748 
488	 0.124434915453538 
489	 0.124377977012991 
490	 0.124499101239076 
491	 0.124965515769367 
492	 0.125187704782283 
493	 0.125246118069328 
494	 0.125278572117912 
495	 0.125462167679091 
496	 0.125903388407195 
497	 0.126316184690047 
498	 0.1265371582441 
499	 0.126634461247772 
500	 0.126706244116795 
501	 0.126763875664992 
502	 0.126812073088393 
503	 0.126953862788708 
504	 0.127193095238499 
505	 0.127478829192066 
506	 0.127712179105998 
507	 0.1276943656459 
508	 0.127740203851951 
509	 0.12802473562736 
510	 0.128076701444922 
511	 0.128151245544458 
512	 0.128318211781541 
513	 0.128533944141719 
514	 0.128660510237996 
515	 0.128781773059925 
516	 0.128945130751375 
517	 0.129092512236371 
518	 0.129231175133551 
519	 0.1293561865829 
520	 0.12947808826406 
521	 0.12969759393474 
522	 0.129920943481355 
523	 0.130080441709152 
524	 0.130149695489657 
525	 0.130145153652351 
526	 0.130227484155245 
527	 0.130488104682146 
528	 0.130724715921885 
529	 0.130944861475953 
530	 0.131107212146364 
531	 0.131159220229631 
532	 0.131281528927681 
533	 0.13144607574427 
534	 0.131626379119034 
535	 0.131893478225874 
536	 0.131981853729489 
537	 0.132038879701008 
538	 0.132306879861522 
539	 0.132444946993903 
540	 0.132543810743942 
541	 0.132697625942649 
542	 0.13295937973573 
543	 0.133197999542835 
544	 0.133418578843293 
545	 0.133650262035189 
546	 0.133846876883081 
547	 0.134078765909639 
548	 0.134349203335122 
549	 0.134602121155183 
550	 0.134801465109052 
551	 0.135057891227857 
552	 0.135433500513098 
553	 0.135809184933703 
554	 0.136129630921394 
555	 0.13641230075658 
556	 0.136717515718338 
557	 0.137064914508873 
558	 0.137418384790984 
559	 0.137778603803431 
560	 0.138229320218107 
561	 0.138619700561399 
562	 0.139084994932569 
563	 0.139802477071643 
564	 0.14060832541785 
565	 0.14142978999572 
566	 0.142204934487088 
567	 0.142881375172414 
568	 0.143491816493597 
569	 0.144015406440711 
570	 0.14447549314502 
571	 0.145065020033276 
572	 0.145765301164504 
573	 0.14652267604553 
574	 0.147268706379842 
575	 0.14807904627992 
576	 0.149097464394374 
577	 0.150343478370875 
578	 0.151575296033907 
579	 0.152695323853535 
580	 0.153670057877347 
581	 0.154532815387918 
582	 0.155429931997062 
583	 0.156296502757496 
584	 0.157176659370281 
585	 0.158295572850207 
586	 0.159718274477599 
587	 0.161287919795788 
588	 0.162796905631146 
589	 0.164195499245046 
590	 0.165511932944502 
591	 0.16679140110139 
592	 0.168081360424595 
593	 0.169104771774002 
594	 0.169953448655712 
595	 0.170790514077278 
596	 0.171740054132241 
597	 0.172838938876188 
598	 0.174036002933853 
599	 0.175249022823217 
600	 0.17661591020952 
601	 0.177969636388882 
602	 0.179186853678968 
603	 0.180276957816961 
604	 0.181375249003979 
605	 0.182526289944009 
606	 0.183699004032397 
607	 0.184679331591242 
608	 0.185597726554442 
609	 0.186544169288702 
610	 0.187535925496613 
611	 0.188357788741817 
612	 0.189129227655037 
613	 0.189953549443179 
614	 0.190578946218475 
615	 0.191248932341958 
616	 0.191977075392621 
617	 0.192619196859369 
618	 0.193291074474273 
619	 0.193872789283742 
620	 0.194331169265772 
621	 0.194889726350182 
622	 0.195411618171729 
623	 0.195897981080669 
624	 0.196392563628358 
625	 0.196851362991558 
626	 0.19728216339789 
627	 0.197709937142706 
628	 0.198175939509532 
629	 0.198599023303487 
630	 0.198999056298203 
631	 0.199408450673813 
632	 0.199783987438455 
633	 0.200167513353226 
634	 0.200552999697626 
635	 0.200899392121196 
636	 0.201270083139975 
637	 0.201673432964876 
638	 0.202079476660977 
639	 0.202379388806593 
640	 0.202754196227402 
641	 0.203183169504786 
642	 0.203561728634447 
643	 0.203947749858009 
644	 0.204320713896332 
645	 0.204679975355581 
646	 0.20506109867474 
647	 0.205478927383803 
648	 0.205907222059803 
649	 0.206318284035854 
650	 0.206737545180117 
651	 0.207164551801941 
652	 0.20760332520455 
653	 0.208061178451334 
654	 0.208513858155103 
655	 0.208945740711039 
656	 0.209363140441541 
657	 0.209809186520403 
658	 0.210342740586549 
659	 0.210892746365238 
660	 0.211349326714913 
661	 0.211850015535072 
662	 0.212376678093611 
663	 0.212909553287372 
664	 0.213447954372262 
665	 0.214005153670867 
666	 0.214556707621435 
667	 0.215097038007689 
668	 0.21574336040432 
669	 0.216399385980276 
670	 0.217050935019174 
671	 0.217748558683911 
672	 0.218381184703606 
673	 0.218995876376128 
674	 0.219637282397301 
675	 0.220273185152317 
676	 0.220930252454816 
677	 0.221630779619629 
678	 0.222381760149698 
679	 0.223099896213854 
680	 0.223844425800907 
681	 0.224631168734431 
682	 0.225403876508116 
683	 0.22617698567539 
684	 0.226946365830011 
685	 0.227722070331143 
686	 0.228581438874028 
687	 0.229453121051617 
688	 0.230302718683969 
689	 0.231130066320893 
690	 0.231994957334122 
691	 0.232881247659081 
692	 0.233771293589234 
693	 0.234673754146554 
694	 0.235547722815225 
695	 0.236438487945664 
696	 0.237393838935185 
697	 0.238277577001766 
698	 0.239213287867838 
699	 0.240207576992271 
700	 0.241131814734099 
701	 0.242046773216563 
702	 0.242989022787714 
703	 0.243972556372323 
704	 0.244965828257313 
705	 0.245955196301255 
706	 0.246914663100941 
707	 0.247828544722733 
708	 0.24881001182992 
709	 0.2498143354739 
710	 0.250788492402499 
711	 0.251694376643222 
712	 0.252644121936123 
713	 0.253613996881619 
714	 0.254556133490021 
715	 0.255493718187488 
716	 0.256372476350934 
717	 0.257235092631852 
718	 0.258185480235542 
719	 0.259162934826349 
720	 0.260050102380672 
721	 0.260819330805977 
722	 0.261630166683175 
723	 0.262420143710571 
724	 0.263153821876646 
725	 0.263827531675831 
726	 0.264551999841832 
727	 0.265288688064515 
728	 0.265984850062999 
729	 0.266588395362774 
730	 0.267164719818476 
731	 0.267730876852848 
732	 0.268286420041234 
733	 0.268819490639574 
734	 0.269290343933223 
735	 0.26968336199522 
736	 0.270011465069218 
737	 0.270372369904326 
738	 0.270715705923826 
739	 0.271004032311801 
740	 0.271229413705685 
741	 0.271464382164994 
742	 0.271613874587121 
743	 0.271641563701514 
744	 0.271773649455539 
745	 0.271831402909355 
746	 0.271816791521758 
747	 0.271807243262143 
748	 0.271760280292362 
749	 0.271632526453693 
750	 0.271465904226853 
751	 0.271399189387833 
752	 0.271249027223723 
753	 0.27100701828081 
754	 0.27071664013489 
755	 0.270440810078562 
756	 0.270150652174417 
757	 0.269798077762902 
758	 0.269350419092301 
759	 0.268955562794925 
760	 0.268543000742531 
761	 0.26808918565373 
762	 0.26765480887142 
763	 0.267207906024179 
764	 0.266701785762397 
765	 0.266129008674292 
766	 0.265595313244155 
767	 0.265098742181034 
768	 0.264598100400929 
769	 0.264036277857047 
770	 0.263412416499012 
771	 0.262822488038424 
772	 0.262258104430955 
773	 0.261582245499065 
774	 0.26095226560317 
775	 0.260342437233245 
776	 0.259694727414539 
777	 0.258969243590172 
778	 0.258299526415969 
779	 0.257703980491744 
780	 0.257128458659743 
781	 0.256465517039915 
782	 0.25579072197641 
783	 0.255126523523558 
784	 0.254428738143999 
785	 0.253769155156355 
786	 0.253148059591471 
787	 0.252539207446879 
788	 0.251883150781597 
789	 0.251300922408435 
790	 0.250703303983461 
791	 0.249979023937114 
792	 0.24934318187035 
793	 0.2486986829157 
794	 0.248038667646661 
795	 0.247437944542279 
796	 0.24678983535203 
797	 0.246171790405209 
798	 0.245619095082293 
799	 0.245039081667072 
800	 0.244491998790002 
801	 0.243924506521003 
802	 0.243297175962147 
803	 0.242753902924964 
804	 0.242221920873058 
805	 0.241661751803912 
806	 0.241073534630504 
807	 0.240557470740954 
808	 0.240084722956589 
809	 0.239603839948116 
810	 0.239057635408881 
811	 0.238531985607419 
812	 0.237992420387135 
813	 0.237447414863763 
814	 0.237105754470843 
815	 0.236750713628427 
816	 0.236302309486269 
817	 0.235768299397906 
818	 0.235253498100983 
819	 0.234851251934558 
820	 0.234523101292263 
821	 0.234130603417813 
822	 0.23375634605118 
823	 0.233315680813591 
824	 0.232829097473376 
825	 0.232519187757837 
826	 0.232237495241012 
827	 0.23191889122429 
828	 0.231559212297151 
829	 0.231283635684201 
830	 0.230891783927417 
831	 0.230448777393982 
832	 0.230138139568233 
833	 0.229991705507153 
834	 0.229759851512346 
835	 0.229412795706149 
836	 0.229143361944706 
837	 0.228936182542387 
838	 0.228749350567821 
839	 0.228540798429492 
840	 0.22828314135362 
841	 0.228000322685095 
842	 0.227762112398936 
843	 0.227591809746365 
844	 0.22732518951223 
845	 0.227154447885112 
846	 0.227046594916444 
847	 0.226897312104075 
848	 0.226871181920248 
849	 0.226764529395248 
850	 0.226555335783247 
851	 0.226392276334292 
852	 0.226282917428521 
853	 0.226210756683762 
854	 0.226134951526509 
855	 0.225994392072857 
856	 0.225979480667114 
857	 0.225983499470624 
858	 0.225909061087824 
859	 0.225867954109857 
860	 0.225859421848395 
861	 0.225839210890916 
862	 0.225768610363524 
863	 0.225707574674595 
864	 0.225717919834902 
865	 0.225765185399849 
866	 0.225772516035855 
867	 0.225831620561702 
868	 0.225887453364428 
869	 0.225909651678225 
870	 0.225913211697167 
871	 0.225974802851996 
872	 0.226115678466926 
873	 0.226302463892743 
874	 0.226438618725826 
875	 0.226535930784889 
876	 0.22661915273528 
877	 0.226723913214046 
878	 0.226897808787046 
879	 0.227106270661878 
880	 0.227289103063497 
881	 0.22740418953965 
882	 0.227509880759177 
883	 0.22766627024117 
884	 0.227887426409808 
885	 0.228150287363673 
886	 0.228410360383837 
887	 0.228687789954061 
888	 0.22891817171658 
889	 0.229006978427612 
890	 0.229301071388565 
891	 0.229630213328302 
892	 0.229917737487368 
893	 0.230281158981819 
894	 0.23052986323744 
895	 0.230818414794238 
896	 0.23120263952791 
897	 0.231442582272564 
898	 0.231863274584874 
899	 0.232296969970641 
900	 0.232588685744752 
901	 0.232970692009871 
902	 0.233362706113051 
903	 0.233758524696265 
904	 0.234166478437754 
905	 0.234560958208335 
906	 0.235035628125862 
907	 0.235561566790429 
908	 0.236067232771595 
909	 0.236623587507348 
910	 0.23706030749486 
911	 0.237408914724203 
912	 0.237839236587212 
913	 0.238406251718094 
914	 0.239038213659878 
915	 0.239659638629544 
916	 0.240210571751277 
917	 0.240623066645674 
918	 0.241179736235899 
919	 0.24189536973805 
920	 0.242454082806728 
921	 0.243104224195285 
922	 0.243741428956753 
923	 0.244325555009922 
924	 0.244989173618803 
925	 0.245648250516002 
926	 0.246373087586872 
927	 0.24715487779907 
928	 0.247791934060062 
929	 0.248447678685957 
930	 0.249210685691909 
931	 0.250078626586369 
932	 0.250902881329057 
933	 0.25172094361461 
934	 0.252516723041794 
935	 0.253297029235332 
936	 0.254169799404229 
937	 0.25498482950513 
938	 0.255738932411004 
939	 0.256520385710342 
940	 0.257529661962413 
941	 0.25850952323521 
942	 0.259454038438554 
943	 0.260424469329519 
944	 0.261298485321586 
945	 0.262148753087173 
946	 0.263106326516851 
947	 0.264219229970453 
948	 0.265095585871087 
949	 0.266084026462947 
950	 0.267186241847124 
951	 0.268225633609988 
952	 0.269186870563278 
953	 0.270132536341358 
954	 0.271190397815826 
955	 0.272434484611517 
956	 0.273510467942781 
957	 0.274734762321314 
958	 0.276011262380328 
959	 0.277054400490091 
960	 0.278138048578507 
961	 0.279381306176941 
962	 0.280622848071815 
963	 0.281627906580067 
964	 0.28282757176136 
965	 0.284087196544283 
966	 0.285370110706079 
967	 0.286705132296789 
968	 0.287945610007843 
969	 0.289171605635011 
970	 0.290440518631919 
971	 0.291739542471899 
972	 0.292848520161541 
973	 0.294077974497441 
974	 0.29545963117632 
975	 0.296831966454966 
976	 0.298308834740132 
977	 0.299644013925706 
978	 0.300892844605098 
979	 0.302280449062958 
980	 0.303701108773004 
981	 0.305120771882141 
982	 0.306496337674236 
983	 0.307813833578614 
984	 0.309209380587357 
985	 0.310649808026094 
986	 0.311992538525362 
987	 0.313152843728833 
988	 0.314586266289386 
989	 0.315916476115704 
990	 0.317224783435906 
991	 0.31876462639227 
992	 0.320331277827737 
993	 0.321747236138134 
994	 0.323077975189354 
995	 0.324456299068069 
996	 0.325760457994058 
997	 0.327256713562521 
998	 0.328667838276262 
999	 0.329765587866583 
1000	 0.331245969611207 
1001	 0.33192798290886 
1002	 0.333253229026899 
1003	 0.334543864051932 
1004	 0.335809718054602 
1005	 0.337151872121941 
1006	 0.338430791218239 
1007	 0.339635440951149 
1008	 0.340812990449256 
1009	 0.34206529069564 
1010	 0.343241076232972 
1011	 0.344341652670738 
1012	 0.345456623286544 
1013	 0.34660600299384 
1014	 0.347740501805044 
1015	 0.348898393187689 
1016	 0.350138285565014 
1017	 0.351314472802931 
1018	 0.352467989138224 
1019	 0.353558246562531 
1020	 0.354679072284828 
1021	 0.355745178079132 
1022	 0.356756602084837 
1023	 0.357804285153901 
1024	 0.358844794688424 
1025	 0.359863667604809 
1026	 0.360874129896787 
1027	 0.361869719579955 
1028	 0.362885231534928 
1029	 0.363887679738414 
1030	 0.364830274899403 
1031	 0.365765942387398 
1032	 0.366697614919684 
1033	 0.367584075125987 
1034	 0.36847376112577 
1035	 0.36945794623752 
1036	 0.370388083670302 
1037	 0.371317322959961 
1038	 0.372277981598186 
1039	 0.373162736308263 
1040	 0.374121391204636 
1041	 0.375096981885363 
1042	 0.376021993321038 
1043	 0.376948789663595 
1044	 0.377855188940979 
1045	 0.378740373185792 
1046	 0.379634342113806 
1047	 0.380507464149584 
1048	 0.381393149732012 
1049	 0.382285630485629 
1050	 0.383175434256634 
1051	 0.38409275814326 
1052	 0.384950894939195 
1053	 0.385819695995197 
1054	 0.386693245880619 
1055	 0.387548249522626 
1056	 0.388436813980113 
1057	 0.389297854723085 
1058	 0.390155707193694 
1059	 0.390993982205201 
1060	 0.391797411699528 
1061	 0.392615869229616 
1062	 0.393454234700515 
1063	 0.394327094511433 
1064	 0.395238216392358 
1065	 0.396055522522788 
1066	 0.396837979604645 
1067	 0.397631824039324 
1068	 0.398393276116953 
1069	 0.399190951871495 
1070	 0.399990687930508 
1071	 0.40082476426537 
1072	 0.401618454640841 
1073	 0.40239820208969 
1074	 0.403168319120947 
1075	 0.403951322700119 
1076	 0.40465467243592 
1077	 0.40530017637076 
1078	 0.405955751625984 
1079	 0.406627607288878 
1080	 0.407310132070887 
1081	 0.408027890508227 
1082	 0.408791782509424 
1083	 0.409530327645418 
1084	 0.410262027616712 
1085	 0.410961427526842 
1086	 0.41166854242827 
1087	 0.412329041115796 
1088	 0.412924385576555 
1089	 0.41355571856392 
1090	 0.414194503177687 
1091	 0.414820793344621 
1092	 0.415434929350555 
1093	 0.416060216825211 
1094	 0.416706687620285 
1095	 0.417308170611701 
1096	 0.417925453855875 
1097	 0.418552938357502 
1098	 0.419169066073946 
1099	 0.419779826754456 
1100	 0.42038651824291 
1101	 0.420981069291468 
1102	 0.421582645652002 
1103	 0.422199157726645 
1104	 0.422775729429415 
1105	 0.423329823196178 
1106	 0.423910062074787 
1107	 0.424484206327379 
1108	 0.425049250971186 
1109	 0.425593179280834 
1110	 0.426169341135361 
1111	 0.426736947006167 
1112	 0.427282001769393 
1113	 0.427830966386672 
1114	 0.428413394262845 
1115	 0.428950796496309 
1116	 0.429439105247069 
1117	 0.429961536561789 
1118	 0.430481311760068 
1119	 0.431008552220112 
1120	 0.431583143095225 
1121	 0.432153625653072 
1122	 0.432680092448084 
1123	 0.43321453525605 
1124	 0.433730234462189 
1125	 0.434205927868573 
1126	 0.434701740785102 
1127	 0.435193471779065 
1128	 0.435699975282943 
1129	 0.436203015675952 
1130	 0.436724161974904 
1131	 0.437296074454224 
1132	 0.437814555527512 
1133	 0.438296310271107 
1134	 0.43880131927963 
1135	 0.439295374636268 
1136	 0.439790445000369 
1137	 0.440295099665542 
1138	 0.440788330655346 
1139	 0.441263980921724 
1140	 0.441702912334435 
1141	 0.442165431055572 
1142	 0.442640840477756 
1143	 0.443099694819922 
1144	 0.443559468190357 
1145	 0.44399823241568 
1146	 0.44440570836983 
1147	 0.444834932823321 
1148	 0.445277737416635 
1149	 0.44569682145837 
1150	 0.44610642753412 
1151	 0.446538261326594 
1152	 0.446916146618467 
1153	 0.447297443257871 
1154	 0.447692747522146 
1155	 0.448085516589995 
1156	 0.448497647119043 
1157	 0.448941737405369 
1158	 0.449344969672823 
1159	 0.449754570419601 
1160	 0.450140201995803 
1161	 0.450479390565219 
1162	 0.450845918353291 
1163	 0.451231948090315 
1164	 0.451594749114614 
1165	 0.451952371128905 
1166	 0.452309765632262 
1167	 0.452641993780249 
1168	 0.452951554060228 
1169	 0.453278388287355 
1170	 0.453601996008528 
1171	 0.453928977751469 
1172	 0.454263782272897 
1173	 0.454592325249526 
1174	 0.454914062221741 
1175	 0.455245439313027 
1176	 0.455588921927426 
1177	 0.455916529195152 
1178	 0.456252736794282 
1179	 0.456568917660633 
1180	 0.456850417307585 
1181	 0.457152712310163 
1182	 0.457464745055642 
1183	 0.457759978601033 
1184	 0.458067213161946 
1185	 0.458393300707174 
1186	 0.458697913602652 
1187	 0.458988507699773 
1188	 0.459288979281305 
1189	 0.459591747442175 
1190	 0.459886977773754 
1191	 0.46019896772551 
1192	 0.460475454712915 
1193	 0.460718612779709 
1194	 0.460977630319731 
1195	 0.461225208230269 
1196	 0.461473121919625 
1197	 0.461734251332132 
1198	 0.461985916242245 
1199	 0.462231018600757 
1200	 0.462454394870053 
1201	 0.462712040203779 
1202	 0.462987188725965 
1203	 0.463243705441504 
1204	 0.463510690143056 
1205	 0.463766088607985 
1206	 0.463999015941288 
1207	 0.464248209094289 
1208	 0.464520570931844 
1209	 0.464764248171165 
1210	 0.465002251246312 
1211	 0.465226733964538 
1212	 0.465409989232153 
1213	 0.465624007031227 
1214	 0.465849108065514 
1215	 0.466072223708955 
1216	 0.466301444800951 
1217	 0.46655790187883 
1218	 0.466773750712474 
1219	 0.466967246781477 
1220	 0.467174819904992 
1221	 0.467360910567728 
1222	 0.4675788942586 
1223	 0.467834698365631 
1224	 0.468051357356854 
1225	 0.468265157602882 
1226	 0.468471273369249 
1227	 0.468647831799257 
1228	 0.468837425379152 
1229	 0.469027782906743 
1230	 0.469226867106737 
1231	 0.469440520810421 
1232	 0.469638973614316 
1233	 0.469834278454587 
1234	 0.470034573133907 
1235	 0.470226556776555 
1236	 0.47040566322436 
1237	 0.470586190591755 
1238	 0.470782535323122 
1239	 0.470943947656377 
1240	 0.471074310052613 
1241	 0.471221097959513 
1242	 0.4713443742473 
1243	 0.471494845911964 
1244	 0.471666761031717 
1245	 0.471837540858747 
1246	 0.472021277044359 
1247	 0.472201228940744 
1248	 0.47238865820543 
1249	 0.472566252776088 
1250	 0.472745026386348 
1251	 0.472916773992385 
1252	 0.473080455261613 
1253	 0.473236972527049 
1254	 0.473389801663437 
1255	 0.47353601023134 
1256	 0.473675914561074 
1257	 0.473814113225326 
1258	 0.473937776042906 
1259	 0.474047798131718 
1260	 0.474159319843739 
1261	 0.474258868815973 
1262	 0.47436191901956 
1263	 0.474458159985575 
1264	 0.474566779642824 
1265	 0.474665517381042 
1266	 0.474789908083046 
1267	 0.474936598915614 
1268	 0.475091219265634 
1269	 0.475248985422719 
1270	 0.475429267676893 
1271	 0.475586269294951 
1272	 0.475726832342666 
1273	 0.475892009891929 
1274	 0.476058003465638 
1275	 0.476235617088963 
1276	 0.476425293674 
1277	 0.476628286179706 
1278	 0.476839753936688 
1279	 0.477056723574767 
1280	 0.477285202282529 
1281	 0.47752984086481 
1282	 0.477802608455855 
1283	 0.478048926524646 
1284	 0.478299416841761 
1285	 0.478546310872392 
1286	 0.478775225454123 
1287	 0.478974535114149 
1288	 0.479183488244361 
1289	 0.479399290708129 
1290	 0.479597077041476 
1291	 0.479774115914142 
1292	 0.479962811389123 
1293	 0.480164394007342 
1294	 0.48032924881038 
1295	 0.48048427789198 
1296	 0.480625475892114 
1297	 0.480733438784206 
1298	 0.480846218602216 
1299	 0.480963338076496 
1300	 0.481058491348289 
1301	 0.481127197055247 
1302	 0.481206796462608 
1303	 0.481281106801653 
1304	 0.481350760315325 
1305	 0.48142970193461 
1306	 0.481497126870035 
1307	 0.481528160188623 
1308	 0.481538154742555 
1309	 0.481553090166266 
1310	 0.48154753780034 
1311	 0.481548859597543 
1312	 0.481565117113759 
1313	 0.481552705833659 
1314	 0.481521055331673 
1315	 0.481493100494582 
1316	 0.481450926656478 
1317	 0.481412528426432 
1318	 0.481376276127471 
1319	 0.481334825191768 
1320	 0.48127943499799 
1321	 0.481237019775654 
1322	 0.481214141825604 
1323	 0.481173348097058 
1324	 0.481093046682436 
1325	 0.481027446688878 
1326	 0.48093627653391 
1327	 0.480825779319691 
1328	 0.480746888285628 
1329	 0.480684363022128 
1330	 0.480599979886531 
1331	 0.48051240213139 
1332	 0.480415250822737 
1333	 0.480313224493364 
1334	 0.480191216462152 
1335	 0.480025255309758 
1336	 0.479923525059724 
1337	 0.479845769548567 
1338	 0.479753641052966 
1339	 0.479701715234247 
1340	 0.479622431755541 
1341	 0.479521904821466 
1342	 0.479412768480641 
1343	 0.479288667920021 
1344	 0.479185221790853 
1345	 0.479068173993215 
1346	 0.478927814970185 
1347	 0.478833781955723 
1348	 0.478755519247915 
1349	 0.478652273255909 
1350	 0.478560725645014 
1351	 0.478473118287976 
1352	 0.478384486851325 
1353	 0.478288345023582 
1354	 0.478204037481383 
1355	 0.478105311900468 
1356	 0.477982647076938 
1357	 0.47788011284779 
1358	 0.47777853209042 
1359	 0.477687669070499 
1360	 0.477598047204761 
1361	 0.477525290051509 
1362	 0.477496423526395 
1363	 0.477424842271866 
1364	 0.477330041138843 
1365	 0.477253169303529 
1366	 0.47716936987198 
1367	 0.477060840677977 
1368	 0.477006078257945 
1369	 0.476964265346883 
1370	 0.476865671260649 
1371	 0.476757410866782 
1372	 0.476635068856667 
1373	 0.476481695059429 
1374	 0.476331234844937 
1375	 0.476196673026724 
1376	 0.476009427192872 
1377	 0.47580187737637 
1378	 0.475552223103562 
1379	 0.475248213093866 
1380	 0.474957470720091 
1381	 0.474633387294078 
1382	 0.474324262628516 
1383	 0.474050361715771 
1384	 0.473712793651249 
1385	 0.473377462234708 
1386	 0.472976603905302 
1387	 0.472512757582363 
1388	 0.47202783014947 
1389	 0.471509195550802 
1390	 0.470949752295627 
1391	 0.470364524102017 
1392	 0.469737743558812 
1393	 0.469022315384696 
1394	 0.468253902367257 
1395	 0.46741709997385 
1396	 0.466554495605184 
1397	 0.465710522939952 
1398	 0.464847091140329 
1399	 0.463990500131976 
1400	 0.463152200315945 
1401	 0.462281427018039 
1402	 0.46138813227739 
1403	 0.460510199791239 
1404	 0.459590982180942 
1405	 0.458751256853755 
1406	 0.457943272751675 
1407	 0.457152267044892 
1408	 0.456405536587018 
1409	 0.455676261694278 
1410	 0.454926937070013 
1411	 0.454268838109576 
1412	 0.453656718404797 
1413	 0.453102215983461 
1414	 0.452646723694467 
1415	 0.452246143806206 
1416	 0.451902419185542 
1417	 0.451603895547828 
1418	 0.451306352018474 
1419	 0.451031021204388 
1420	 0.450791644157297 
1421	 0.450558249341155 
1422	 0.450353571898146 
1423	 0.450144343439312 
1424	 0.449892182187917 
1425	 0.4496105613898 
1426	 0.44934454087644 
1427	 0.449015100747795 
1428	 0.448790960974595 
1429	 0.448625052397367 
1430	 0.448447909418746 
1431	 0.448338395790341 
1432	 0.448178352790293 
1433	 0.447979670909343 
1434	 0.447819166875712 
1435	 0.447637992377223 
1436	 0.447509722976391 
1437	 0.447418582013745 
1438	 0.447344228697128 
1439	 0.44731214140232 
1440	 0.447289520120181 
1441	 0.44723099774793 
1442	 0.447173134264262 
1443	 0.447085454749012 
1444	 0.446992720525047 
1445	 0.446934286483806 
1446	 0.446877651834299 
1447	 0.446838330542903 
1448	 0.446788091372775 
1449	 0.446695621486515 
1450	 0.446606712374651 
1451	 0.446524611651778 
1452	 0.446421037332215 
1453	 0.446347724630643 
1454	 0.446311240534358 
1455	 0.446236923907934 
1456	 0.446161591769933 
1457	 0.446064275445458 
1458	 0.445940494697542 
1459	 0.445820641775159 
1460	 0.445669172391648 
1461	 0.445565563669699 
1462	 0.445481545923868 
1463	 0.445398606946138 
1464	 0.445351424551068 
1465	 0.44528676166661 
1466	 0.445188793546893 
1467	 0.445134135980766 
1468	 0.445060476476676 
1469	 0.44506565706614 
1470	 0.445121680430985 
1471	 0.445223980226697 
1472	 0.445372861137963 
1473	 0.445546475573448 
1474	 0.445695527994168 
1475	 0.44584882716601 
1476	 0.446002220294214 
1477	 0.44616583466649 
1478	 0.446358861687479 
1479	 0.446574262896083 
1480	 0.446829270917591 
1481	 0.447093383879424 
1482	 0.447344796371582 
1483	 0.447614221069215 
1484	 0.447857983578731 
1485	 0.448073069836697 
1486	 0.448314332269751 
1487	 0.448554854861579 
1488	 0.448801930772392 
1489	 0.449071714729633 
1490	 0.44931921910444 
1491	 0.449570688661674 
1492	 0.449798389139194 
1493	 0.449994190490841 
1494	 0.450208080576586 
1495	 0.450419809880924 
1496	 0.450627862789553 
1497	 0.45086201061909 
1498	 0.451057040326286 
1499	 0.451231526178857 
1500	 0.451381674817789 
1501	 0.4514795199212 
1502	 0.451608348969941 
1503	 0.451725666921913 
1504	 0.451864524597324 
1505	 0.452022807511152 
1506	 0.452203302352134 
1507	 0.452411321781391 
1508	 0.452597720398528 
1509	 0.452759402223936 
1510	 0.452909562422555 
1511	 0.453017485053423 
1512	 0.45311480392415 
1513	 0.453248397232845 
1514	 0.453407730364559 
1515	 0.453549634209897 
1516	 0.453673139470823 
1517	 0.453815945773599 
1518	 0.453961619238752 
1519	 0.454087124870664 
1520	 0.454220700810874 
1521	 0.454349172893142 
1522	 0.454436908916574 
1523	 0.454561890809886 
1524	 0.454723577445507 
1525	 0.454860006178478 
1526	 0.454996681850196 
1527	 0.455126296154314 
1528	 0.455240391608329 
1529	 0.455360486326325 
1530	 0.455500841912801 
1531	 0.455600244693197 
1532	 0.455672250464155 
1533	 0.455754215718054 
1534	 0.455811663300302 
1535	 0.455877836077593 
1536	 0.455957830318381 
1537	 0.456031583976415 
1538	 0.456092365002866 
1539	 0.456159916818117 
1540	 0.456222739160747 
1541	 0.456308649695874 
1542	 0.456416609173351 
1543	 0.456508061612149 
1544	 0.45661249895769 
1545	 0.456707720923968 
1546	 0.456793499926763 
1547	 0.456865764007396 
1548	 0.456926611782871 
1549	 0.456976153560897 
1550	 0.457030669382904 
1551	 0.457084319680239 
1552	 0.457165343132529 
1553	 0.457264148899459 
1554	 0.457338844993788 
1555	 0.457394237902383 
1556	 0.457434094480721 
1557	 0.457474986452211 
1558	 0.45751547489659 
1559	 0.457554833159295 
1560	 0.457597740698266 
1561	 0.457644865596529 
1562	 0.457687910082626 
1563	 0.457721000346481 
1564	 0.457785554411912 
1565	 0.457864211001329 
1566	 0.457944612357438 
1567	 0.458049555841655 
1568	 0.458131653521873 
1569	 0.458218561444858 
1570	 0.458269152136348 
1571	 0.45829776480586 
1572	 0.458328282724528 
1573	 0.458332187975675 
1574	 0.45834769767288 
1575	 0.458376007142126 
1576	 0.458382203357473 
1577	 0.458362921609083 
1578	 0.458364365189558 
1579	 0.458352327087982 
1580	 0.458376073884205 
1581	 0.458422325498354 
1582	 0.458478714978012 
1583	 0.458586342015827 
1584	 0.458637453972394 
1585	 0.458678058256939 
1586	 0.45870367219046 
1587	 0.458681405479422 
1588	 0.458682068991242 
1589	 0.458677060928936 
1590	 0.458692468442567 
1591	 0.458726516685552 
1592	 0.458749481719892 
1593	 0.458782869542759 
1594	 0.458809461422231 
1595	 0.458820783105046 
1596	 0.458843105425995 
1597	 0.458875396417586 
1598	 0.458905674249434 
1599	 0.458958134369018 
1600	 0.458970782027388 
1601	 0.45895232378362 
1602	 0.458946290083305 
1603	 0.458909295871346 
1604	 0.458893490626895 
1605	 0.458886850638433 
1606	 0.458901602697459 
1607	 0.458935053189388 
1608	 0.458975980414469 
1609	 0.459030248747429 
1610	 0.459067163437083 
1611	 0.459055477968384 
1612	 0.459025054772683 
1613	 0.45897057952537 
1614	 0.458932381283678 
1615	 0.458927750665757 
1616	 0.458933059683523 
1617	 0.458955979152798 
1618	 0.458958370955729 
1619	 0.458938894388148 
1620	 0.458920194560043 
1621	 0.458898333812716 
1622	 0.458874980757339 
1623	 0.458835564174523 
1624	 0.458786881295373 
1625	 0.458740085619492 
1626	 0.45867504438754 
1627	 0.458630341048612 
1628	 0.458588517081884 
1629	 0.458570841302941 
1630	 0.458571004737132 
1631	 0.458568410713557 
1632	 0.458594232938823 
1633	 0.458579590460588 
1634	 0.458548698108464 
1635	 0.458507619922688 
1636	 0.458445438359728 
1637	 0.458392062974534 
1638	 0.458330078002215 
1639	 0.458277016090433 
1640	 0.458215745309714 
1641	 0.458185339633538 
1642	 0.458174433034332 
1643	 0.458155855544274 
1644	 0.458163216927435 
1645	 0.458140634460321 
1646	 0.458095939388865 
1647	 0.458063991551396 
1648	 0.458032182865795 
1649	 0.457994169611988 
1650	 0.457949861712058 
1651	 0.457919907201504 
1652	 0.457892006006839 
1653	 0.457860895256011 
1654	 0.457839796558397 
1655	 0.457815529151392 
1656	 0.457801227198517 
1657	 0.457744387842123 
1658	 0.457666019280481 
1659	 0.457599608354778 
1660	 0.457501943827004 
1661	 0.457420754452811 
1662	 0.457358883191266 
1663	 0.457295453268645 
1664	 0.457211087430333 
1665	 0.457160834788188 
1666	 0.45714267049082 
1667	 0.457114801134845 
1668	 0.457098990310837 
1669	 0.457074047950846 
1670	 0.457048193338413 
1671	 0.457020248559803 
1672	 0.457000154876785 
1673	 0.456952424390475 
1674	 0.456893001870165 
1675	 0.456825305760822 
1676	 0.456726785362705 
1677	 0.456648376580507 
1678	 0.456588885979264 
1679	 0.456495204350911 
1680	 0.456377771588111 
1681	 0.456284178022665 
1682	 0.456154861546291 
1683	 0.456091009650169 
1684	 0.456083047381838 
1685	 0.456059665659556 
1686	 0.456083681778278 
1687	 0.456051907256937 
1688	 0.456001505072407 
1689	 0.455929397742244 
1690	 0.455799636878894 
1691	 0.455721834798205 
1692	 0.455656806114588 
1693	 0.455587333730794 
1694	 0.455543823996477 
1695	 0.455482889801749 
1696	 0.455387774147357 
1697	 0.455340887010987 
1698	 0.455327221034377 
1699	 0.455293450170128 
1700	 0.455298521134089 
1701	 0.455237446203762 
1702	 0.455128582919526 
1703	 0.455035625499405 
1704	 0.454910963764062 
1705	 0.4548044697216 
1706	 0.454723324208279 
1707	 0.454604225145645 
1708	 0.454449372388813 
1709	 0.454335539709239 
1710	 0.45421614056847 
1711	 0.454121616209723 
1712	 0.454071787842157 
1713	 0.453995208132198 
1714	 0.453914606541985 
1715	 0.453828164714127 
1716	 0.453740295169191 
1717	 0.453642337392391 
1718	 0.453518696634997 
1719	 0.4534328733485 
1720	 0.453366593917632 
1721	 0.453282701946284 
1722	 0.453223926842033 
1723	 0.453136747310208 
1724	 0.45301061936926 
1725	 0.452911882097143 
1726	 0.452837016122143 
1727	 0.452711139573829 
1728	 0.452564544815664 
1729	 0.452429081514487 
1730	 0.452269447000379 
1731	 0.452117283455735 
1732	 0.451970772892006 
1733	 0.451830481429569 
1734	 0.451684900349581 
1735	 0.45153259045664 
1736	 0.451403490003707 
1737	 0.451252740938904 
1738	 0.451072431109615 
1739	 0.450899193713147 
1740	 0.450713646214669 
1741	 0.450564405790493 
1742	 0.450421250336891 
1743	 0.450302495664186 
1744	 0.450226484870661 
1745	 0.450118358999917 
1746	 0.450018851727413 
1747	 0.449863346665441 
1748	 0.449713290849852 
1749	 0.449580788924899 
1750	 0.449416057732386 
1751	 0.449273492821882 
1752	 0.449141795499089 
1753	 0.448973269242508 
1754	 0.448799806853253 
1755	 0.448644566396996 
1756	 0.44848307615096 
1757	 0.448307043220142 
1758	 0.448128884859748 
1759	 0.44795770502942 
1760	 0.447813895441795 
1761	 0.447648262918427 
1762	 0.447474455462748 
1763	 0.44733325165897 
1764	 0.447161647794994 
1765	 0.447022193970427 
1766	 0.446915333932965 
1767	 0.446734417772612 
1768	 0.446553147826638 
1769	 0.446429191404841 
1770	 0.446308824998952 
1771	 0.446241949409729 
1772	 0.446178748210524 
1773	 0.446038704887765 
1774	 0.445934340597814 
1775	 0.445817921882711 
1776	 0.445651398715891 
1777	 0.445532789296338 
1778	 0.44538064423109 
1779	 0.445198037941153 
1780	 0.445087515325268 
1781	 0.444976756699132 
1782	 0.44490800024872 
1783	 0.444935045484445 
1784	 0.444913606983308 
1785	 0.444914723901368 
1786	 0.444887662852324 
1787	 0.444827902396718 
1788	 0.444768882836434 
1789	 0.444721461348315 
1790	 0.444649735301075 
1791	 0.444531519444023 
1792	 0.444436895811634 
1793	 0.444324838279188 
1794	 0.444255088459521 
1795	 0.444225420444017 
1796	 0.444181540971191 
1797	 0.44416302838802 
1798	 0.444115305602548 
1799	 0.444058155291391 
1800	 0.443984719915388 
1801	 0.448284416109515 
1802	 0.448555758273451 
1803	 0.448880071408099 
1804	 0.449276597813642 
1805	 0.449692558858594 
1806	 0.450116088506984 
1807	 0.450520162715569 
1808	 0.450850561218742 
1809	 0.45116131609179 
1810	 0.451394014139165 
1811	 0.451554761875627 
1812	 0.451682659094552 
1813	 0.451782968967801 
1814	 0.451800138897976 
1815	 0.451786705120166 
1816	 0.451776009021464 
1817	 0.451729073404209 
1818	 0.451598347634814 
1819	 0.451539672821716 
1820	 0.451491156695037 
1821	 0.451450366140383 
1822	 0.451443371790382 
1823	 0.451446050576999 
1824	 0.451417211520983 
1825	 0.451347654782731 
1826	 0.451267433877585 
1827	 0.451189009250974 
1828	 0.451053075692933 
1829	 0.450874939556648 
1830	 0.450695133937226 
1831	 0.450474455216171 
1832	 0.450234547477744 
1833	 0.450033763704678 
1834	 0.449849960032624 
1835	 0.449669015624295 
1836	 0.449493891892907 
1837	 0.449352913729107 
1838	 0.44918825513229 
1839	 0.449008015547526 
1840	 0.448819648832751 
1841	 0.448638813397393 
1842	 0.448429739571079 
1843	 0.448241776526181 
1844	 0.448068089117642 
1845	 0.447889843034695 
1846	 0.447738957902336 
1847	 0.447623706648662 
1848	 0.447559313862644 
1849	 0.447522488310344 
1850	 0.447477044182844 
1851	 0.447445615206646 
1852	 0.447412918464171 
1853	 0.447393969623666 
1854	 0.447339817866275 
1855	 0.447252789658395 
1856	 0.447141336071834 
1857	 0.446967995962633 
1858	 0.446778198423199 
1859	 0.446572611634557 
1860	 0.446342088838977 
1861	 0.446081452910273 
1862	 0.445808470093451 
1863	 0.445527394121533 
1864	 0.445244713293209 
1865	 0.444947990828987 
1866	 0.444593059808875 
1867	 0.444201448703023 
1868	 0.44375824566193 
1869	 0.443264047304874 
1870	 0.442767484149069 
1871	 0.44222096659378 
1872	 0.441640639385217 
1873	 0.441021260136954 
1874	 0.440345334417336 
1875	 0.439591457248607 
1876	 0.438768603853738 
1877	 0.437879568579831 
1878	 0.436896649817996 
1879	 0.435812801210916 
1880	 0.43462143526784 
1881	 0.433318199632561 
1882	 0.431915096648685 
1883	 0.430420387498056 
1884	 0.428794184791661 
1885	 0.427072671325041 
1886	 0.425228917124511 
1887	 0.423225983285628 
1888	 0.421138206180943 
1889	 0.418936997107463 
1890	 0.416652826898348 
1891	 0.414325834109017 
1892	 0.411904376182479 
1893	 0.409461785732996 
1894	 0.40697437563764 
1895	 0.404436620844941 
1896	 0.401832428544748 
1897	 0.399266153184041 
1898	 0.39666104717679 
1899	 0.394076523598398 
1900	 0.391580945921541 
1901	 0.389092610062318 
1902	 0.386694560749004 
1903	 0.384384416922139 
1904	 0.382124468729661 
1905	 0.37990119731838 
1906	 0.377797207648592 
1907	 0.375761792411338 
1908	 0.37381537258337 
1909	 0.372007347617449 
1910	 0.370264489466192 
1911	 0.368623779134902 
1912	 0.367067921629546 
1913	 0.365567980863374 
1914	 0.364113574869597 
1915	 0.362768395422345 
1916	 0.361496429249623 
1917	 0.360318454960948 
1918	 0.359252512131632 
1919	 0.358266183846416 
1920	 0.357360893244397 
1921	 0.356531402323297 
1922	 0.355758530295016 
1923	 0.355083387964669 
1924	 0.354468611022686 
1925	 0.353941198422115 
1926	 0.35344988677406 
1927	 0.353017567977285 
1928	 0.352635988039645 
1929	 0.35230734475327 
1930	 0.352050356109519 
1931	 0.351867018817022 
1932	 0.35172858827652 
1933	 0.351647711642858 
1934	 0.351625998494059 
1935	 0.351620938056302 
1936	 0.351644211733859 
1937	 0.351721883696344 
1938	 0.351847428131258 
1939	 0.35198767100728 
1940	 0.352180608248766 
1941	 0.352374263808264 
1942	 0.35258020420397 
1943	 0.352812805010631 
1944	 0.353086111773603 
1945	 0.353402732151755 
1946	 0.353721417531837 
1947	 0.35406086040804 
1948	 0.354424212380002 
1949	 0.354813138894419 
1950	 0.355201887420015 
1951	 0.355607541338694 
1952	 0.356039808811674 
1953	 0.356454558240348 
1954	 0.356852215620239 
1955	 0.357300667653932 
1956	 0.357777864712277 
1957	 0.358263346729847 
1958	 0.358776206108677 
1959	 0.359301520766471 
1960	 0.3598405548577 
1961	 0.360385778768717 
1962	 0.360964241065514 
1963	 0.361528580007958 
1964	 0.362091308128908 
1965	 0.362647032363185 
1966	 0.363224808141311 
1967	 0.363811793539262 
1968	 0.364394023109865 
1969	 0.364986128560221 
1970	 0.365579909078615 
1971	 0.366168265511603 
1972	 0.366763194110526 
1973	 0.367380084452597 
1974	 0.367977982299871 
1975	 0.368560242355796 
1976	 0.369154273034398 
1977	 0.369758365254256 
1978	 0.37033762952819 
1979	 0.370913067732517 
1980	 0.371497343587928 
1981	 0.372092497333528 
1982	 0.372677129602334 
1983	 0.373288981436257 
1984	 0.373936975635528 
1985	 0.374566799586359 
1986	 0.375222067358597 
1987	 0.375834795946266 
1988	 0.376435297544952 
1989	 0.377014842653679 
1990	 0.377554467890496 
1991	 0.378079280675255 
1992	 0.378624895975046 
1993	 0.37915589354293 
1994	 0.379723784025227 
1995	 0.38032452918465 
1996	 0.38090593481139 
1997	 0.381502779890437 
1998	 0.382088962518573 
1999	 0.382650625370524 
2000	 0.383235528345056 
2001	 0.38383374217425 
2002	 0.384436613882586 
2003	 0.385051073939276 
2004	 0.385646305834256 
2005	 0.386213967757993 
2006	 0.386750487420416 
2007	 0.387301761958682 
2008	 0.387827895031028 
2009	 0.388374222383076 
2010	 0.388941137727493 
2011	 0.389498034904843 
2012	 0.390057346139346 
2013	 0.390605500315574 
2014	 0.391141629895053 
2015	 0.391691383287292 
2016	 0.392229920557846 
2017	 0.392746859519372 
2018	 0.393265595631885 
2019	 0.393772267586363 
2020	 0.39429152670547 
2021	 0.394814772793859 
2022	 0.39533251275661 
2023	 0.395865399631171 
2024	 0.396375041080479 
2025	 0.396854279016101 
2026	 0.397352481288248 
2027	 0.39785925658709 
2028	 0.398358771397015 
2029	 0.398837787099147 
2030	 0.399322890219281 
2031	 0.399776207190519 
2032	 0.40018725036005 
2033	 0.400616891313263 
2034	 0.401049526747363 
2035	 0.401466129518059 
2036	 0.401884900137646 
2037	 0.40228281223331 
2038	 0.402649389486679 
2039	 0.403028010667124 
2040	 0.403393341612156 
2041	 0.403769571722835 
2042	 0.40414926614148 
2043	 0.404513120305505 
2044	 0.404881954725014 
2045	 0.405242240470863 
2046	 0.40560611037801 
2047	 0.405987136564974 
2048	 0.40633829097782 
2049	 0.406679537199401 
2050	 0.407008968936158 
2051	 0.407318295656484 
2052	 0.407621944134337 
2053	 0.407917534319512 
2054	 0.408202691717119 
2055	 0.408472495525861 
2056	 0.408732345533505 
2057	 0.409006082829391 
2058	 0.409285319475137 
2059	 0.409550884322018 
2060	 0.409804703998351 
2061	 0.410081660836113 
2062	 0.410360917186291 
2063	 0.410638715620782 
2064	 0.41095827085392 
2065	 0.411231989534197 
2066	 0.411473335934338 
2067	 0.411712158886109 
2068	 0.411922463258068 
2069	 0.412142219743239 
2070	 0.412370883031789 
2071	 0.412596169417634 
2072	 0.41283853664887 
2073	 0.413108155101367 
2074	 0.413345190306295 
2075	 0.413576190228782 
2076	 0.413806877890118 
2077	 0.414003897996634 
2078	 0.41423639069375 
2079	 0.414492033664982 
2080	 0.41474386361912 
2081	 0.415010403630116 
2082	 0.415275657242999 
2083	 0.415542549024477 
2084	 0.415810689032638 
2085	 0.416070501657119 
2086	 0.416339837850298 
2087	 0.416577685097843 
2088	 0.416792344578017 
2089	 0.41701306437505 
2090	 0.41722478612237 
2091	 0.417425504948101 
2092	 0.417615134425439 
2093	 0.417812326532461 
2094	 0.417998308182845 
2095	 0.418186849645531 
2096	 0.418383270846687 
2097	 0.418581327234299 
2098	 0.418774650549347 
2099	 0.418967454268426 
2100	 0.419166694027947 
2101	 0.419379302845595 
2102	 0.419576708080737 
2103	 0.41975755776934 
2104	 0.419966615996212 
2105	 0.420182577900062 
2106	 0.420401537020648 
2107	 0.420652976171035 
2108	 0.420874101902107 
2109	 0.421056752255917 
2110	 0.42128133246664 
2111	 0.421501743364263 
2112	 0.421751461549849 
2113	 0.422042828027847 
2114	 0.422347503088222 
2115	 0.422625632522645 
2116	 0.422905604664683 
2117	 0.423181147104407 
2118	 0.423436091932867 
2119	 0.423712559879429 
2120	 0.424013678893963 
2121	 0.42428611991419 
2122	 0.424549959526327 
2123	 0.424812488073055 
2124	 0.425082025174581 
2125	 0.425311385728233 
2126	 0.425535644920928 
2127	 0.425728210521356 
2128	 0.425871843768689 
2129	 0.426008684701283 
2130	 0.426131013861029 
2131	 0.42624006151319 
2132	 0.426322753383969 
2133	 0.426385958061801 
2134	 0.426428636889488 
2135	 0.426440088414653 
2136	 0.426451831527748 
2137	 0.426444764073626 
2138	 0.426434128936181 
2139	 0.426429871393845 
2140	 0.42639230153263 
2141	 0.426343051011255 
2142	 0.426264126057628 
2143	 0.426162676953275 
2144	 0.426029009499375 
2145	 0.425838313103313 
2146	 0.425668523992523 
2147	 0.425469675499026 
2148	 0.425291529125762 
2149	 0.425116155833832 
2150	 0.424967723608059 
2151	 0.424787578674332 
2152	 0.424607255477659 
2153	 0.424394327148487 
2154	 0.424158183201526 
2155	 0.423914981456221 
2156	 0.423677559058243 
2157	 0.423378716336908 
2158	 0.423052093522006 
2159	 0.422697014729808 
2160	 0.422265326786871 
2161	 0.421852063012699 
2162	 0.421433922105174 
2163	 0.421007729375322 
2164	 0.420556246198936 
2165	 0.420130068157751 
2166	 0.419693787247286 
2167	 0.419249566376224 
2168	 0.41881354023284 
2169	 0.418374985070719 
2170	 0.417955772780816 
2171	 0.417559536640047 
2172	 0.417136857617425 
2173	 0.416716053462441 
2174	 0.416292896900581 
2175	 0.415839334234287 
2176	 0.415411569824282 
2177	 0.415034108742639 
2178	 0.414596021818351 
2179	 0.414142447841089 
2180	 0.413667146234539 
2181	 0.413136082537573 
2182	 0.412615989419558 
2183	 0.412063761049137 
2184	 0.41155377996739 
2185	 0.41104482605486 
2186	 0.410532038924374 
2187	 0.410047696665232 
2188	 0.409593429895092 
2189	 0.409128787438573 
2190	 0.408660907681058 
2191	 0.408225631091005 
2192	 0.407805866854645 
2193	 0.407395243609472 
2194	 0.40700377219931 
2195	 0.406628252526985 
2196	 0.406258674016167 
2197	 0.405908362932199 
2198	 0.405568254531063 
2199	 0.405269886391746 
2200	 0.404983998011003 
2201	 0.404741008394475 
2202	 0.404544088454373 
2203	 0.404387432118687 
2204	 0.404241784551103 
2205	 0.404128259541079 
2206	 0.404023100290541 
2207	 0.403940030780352 
2208	 0.403865885971268 
2209	 0.403789497129105 
2210	 0.403772432210867 
2211	 0.403817204324212 
2212	 0.403816679811597 
2213	 0.403832704024631 
2214	 0.403850899561519 
2215	 0.403857927034506 
2216	 0.403849456411233 
2217	 0.403858070065504 
2218	 0.403853940372653 
2219	 0.403810745814492 
2220	 0.403776735575349 
2221	 0.403767314192544 
2222	 0.403737003872655 
2223	 0.403656824644062 
2224	 0.403571352153024 
2225	 0.40351058540142 
2226	 0.403450173681306 
2227	 0.403367992129303 
2228	 0.403310320527486 
2229	 0.403207839750844 
2230	 0.403054842274527 
2231	 0.402920818031859 
2232	 0.402799074941296 
2233	 0.402637643690583 
2234	 0.402454311684391 
2235	 0.402257958854275 
2236	 0.402029104989489 
2237	 0.401802511721396 
2238	 0.401578317551777 
2239	 0.401325508415396 
2240	 0.401052891836227 
2241	 0.400775032261469 
2242	 0.400473361651711 
2243	 0.400168700039246 
2244	 0.399884747930473 
2245	 0.39953743248662 
2246	 0.399194017597995 
2247	 0.398853447809051 
2248	 0.398509073780631 
2249	 0.398171512995749 
2250	 0.397806198804406 
2251	 0.397423112323368 
2252	 0.397044191562124 
2253	 0.396628961055947 
2254	 0.396253697898371 
2255	 0.395878129974699 
2256	 0.39555576684517 
2257	 0.395243584582123 
2258	 0.395009991470848 
2259	 0.394865415124539 
2260	 0.394698725376705 
2261	 0.394578466306232 
2262	 0.394446404069087 
2263	 0.394277422690445 
2264	 0.394169808416259 
2265	 0.394074245316618 
2266	 0.394052776312192 
2267	 0.394119528462555 
2268	 0.394179862152154 
2269	 0.394290993375148 
2270	 0.394410188024251 
2271	 0.39450958847088 
2272	 0.394613705931002 
2273	 0.394705081924461 
2274	 0.394805290631888 
2275	 0.394940118060095 
2276	 0.395082085155606 
2277	 0.395236493329024 
2278	 0.395424341175991 
2279	 0.395621012769772 
2280	 0.395822523656988 
2281	 0.396038066941001 
2282	 0.39628909160701 
2283	 0.39652762324827 
2284	 0.396776826757304 
2285	 0.396998333791307 
2286	 0.397242923042933 
2287	 0.397413767783469 
2288	 0.397493605701594 
2289	 0.397639078799961 
2290	 0.397801539849538 
2291	 0.397924912529436 
2292	 0.398079141509544 
2293	 0.398176979922911 
2294	 0.398167320375514 
2295	 0.398215217874769 
2296	 0.398254119035806 
2297	 0.39834999774899 
2298	 0.398481451262634 
2299	 0.398570297335655 
2300	 0.39862026692137 
2301	 0.398655620315605 
2302	 0.39864329205648 
2303	 0.398633161396064 
2304	 0.398675244728579 
2305	 0.398682447213606 
2306	 0.398676348032286 
2307	 0.398656167100636 
2308	 0.398650289781113 
2309	 0.398630933606542 
2310	 0.398626262878097 
2311	 0.398644245181337 
2312	 0.398632211432842 
2313	 0.398607788102829 
2314	 0.398566147158179 
2315	 0.398518770109514 
2316	 0.398448399459391 
2317	 0.398342436513383 
2318	 0.398255431526393 
2319	 0.398150785339782 
2320	 0.398060116823301 
2321	 0.39798448362898 
2322	 0.397912164338264 
2323	 0.397830791075626 
2324	 0.397780666848666 
2325	 0.397751486999838 
2326	 0.397734329599675 
2327	 0.397765001842477 
2328	 0.397745279915694 
2329	 0.397736567399657 
2330	 0.397694783018332 
2331	 0.397586852418011 
2332	 0.397494734740949 
2333	 0.397371839135821 
2334	 0.397213567021559 
2335	 0.397117619458474 
2336	 0.397021250813073 
2337	 0.396876014636577 
2338	 0.396743902804035 
2339	 0.396565944720099 
2340	 0.396319877693379 
2341	 0.396123755664991 
2342	 0.395952924731406 
2343	 0.395763265191997 
2344	 0.395592286116284 
2345	 0.395389137719029 
2346	 0.395191297771829 
2347	 0.394928430693466 
2348	 0.394612507494112 
2349	 0.394319657125214 
2350	 0.394002994331197 
2351	 0.393661314484507 
2352	 0.393309160897276 
2353	 0.392944127966163 
2354	 0.3925210829167 
2355	 0.392153660383896 
2356	 0.391848020340268 
2357	 0.391490303271485 
2358	 0.391094370152831 
2359	 0.390742351255403 
2360	 0.390377787873058 
2361	 0.390015589996925 
2362	 0.389711519215794 
2363	 0.389395132216903 
2364	 0.389062648038708 
2365	 0.388712010686146 
2366	 0.388392673967153 
2367	 0.388004519275317 
2368	 0.387547807375988 
2369	 0.387104265125093 
2370	 0.386665706462913 
2371	 0.386136888173153 
2372	 0.385615292616128 
2373	 0.385124764258402 
2374	 0.384652425987025 
2375	 0.384171261410645 
2376	 0.383683081164194 
2377	 0.383226827118083 
2378	 0.382778647806631 
2379	 0.382343789817928 
2380	 0.381852230820136 
2381	 0.381366989934046 
2382	 0.380899397336987 
2383	 0.380362432840665 
2384	 0.379858061268284 
2385	 0.379334818999873 
2386	 0.37870975445541 
2387	 0.378077081816672 
2388	 0.377434946776723 
2389	 0.376801656866748 
2390	 0.376199876546027 
2391	 0.375578808704888 
2392	 0.374955723583784 
2393	 0.374316741433762 
2394	 0.373679646818082 
2395	 0.373074717157992 
2396	 0.37251594704479 
2397	 0.372009356072747 
2398	 0.371498967333609 
2399	 0.371010977467507 
2400	 0.370522931428832 
2401	 0.369992054791293 
2402	 0.369461043619292 
2403	 0.368854543659435 
2404	 0.368143480888449 
2405	 0.36746222908477 
2406	 0.366934642548897 
2407	 0.366451717795843 
2408	 0.365894189204899 
2409	 0.365307279384836 
2410	 0.364637706857218 
2411	 0.363927935992084 
2412	 0.363337048206889 
2413	 0.362837925792442 
2414	 0.362218185234374 
2415	 0.36156223200536 
2416	 0.36097472197759 
2417	 0.360356414579354 
2418	 0.359808040250191 
2419	 0.359413664984413 
2420	 0.358828377518322 
2421	 0.358169574652525 
2422	 0.357572792263548 
2423	 0.356890608610577 
2424	 0.35629019908598 
2425	 0.355746075976099 
2426	 0.355206408417051 
2427	 0.354725876461672 
2428	 0.354197791024154 
2429	 0.35373329138016 
2430	 0.353115797752793 
2431	 0.352318259581992 
2432	 0.351658006175632 
2433	 0.350970378808609 
2434	 0.350325714423022 
2435	 0.349783370106206 
2436	 0.349216772442998 
2437	 0.348646633587253 
2438	 0.348131303233289 
2439	 0.347699054973545 
2440	 0.347108639050504 
2441	 0.346400441761106 
2442	 0.345826825395846 
2443	 0.345274497161386 
2444	 0.344714041212518 
2445	 0.344240496913435 
2446	 0.34370255415384 
2447	 0.343075618438138 
2448	 0.342490133306097 
2449	 0.3418970551978 
2450	 0.341415475757053 
2451	 0.34104050895853 
2452	 0.340477879502763 
2453	 0.339958957424048 
2454	 0.339330714927117 
2455	 0.338410046224592 
2456	 0.337759979913992 
2457	 0.337296779914862 
2458	 0.336706482659835 
2459	 0.336113823416656 
2460	 0.335614076749351 
2461	 0.335070098383549 
2462	 0.334532729886169 
2463	 0.334125240438558 
2464	 0.333631913822221 
2465	 0.333041066892378 
2466	 0.332540695315957 
2467	 0.332100754469431 
2468	 0.331560889593759 
2469	 0.331000862593503 
2470	 0.33035245565403 
2471	 0.329798847029157 
2472	 0.329355251722169 
2473	 0.328878901134337 
2474	 0.32843658204483 
2475	 0.328056579501185 
2476	 0.327607335820979 
2477	 0.32707794812357 
2478	 0.326565928627859 
2479	 0.326193945211867 
2480	 0.325776528705778 
2481	 0.325251800537907 
2482	 0.324735789770122 
2483	 0.324084143234869 
2484	 0.323457403424396 
2485	 0.323012150478645 
2486	 0.322674177331151 
2487	 0.32221196643695 
2488	 0.321603222809293 
2489	 0.321126918801328 
2490	 0.320803185694419 
2491	 0.320518555525278 
2492	 0.320230955809077 
2493	 0.319875916959479 
2494	 0.319394630467222 
2495	 0.318886161642064 
2496	 0.318298284561298 
2497	 0.317688299381968 
2498	 0.31709737354376 
2499	 0.316652616844246 
2500	 0.316512218808067 
