Wavelength	mm23-100001.asd
350	 6.44482704602596E-02 
351	 7.15749172149174E-02 
352	 6.31084598222446E-02 
353	 4.72243211200552E-02 
354	 0.053075757894511 
355	 5.87104955794551E-02 
356	 5.68779547660901E-02 
357	 5.02470822452301E-02 
358	 6.22240662039968E-02 
359	 6.50018941990396E-02 
360	 5.91671434244161E-02 
361	 6.24588619476486E-02 
362	 5.90368361590676E-02 
363	 5.77694380628759E-02 
364	 6.14196835702992E-02 
365	 5.86528772645618E-02 
366	 6.05228356926467E-02 
367	 6.33038030925923E-02 
368	 6.17834454302904E-02 
369	 6.10562816630509E-02 
370	 0.062058144751582 
371	 6.31335770805685E-02 
372	 6.15186411222177E-02 
373	 6.23553155630187E-02 
374	 0.063855090511158 
375	 6.44709459470139E-02 
376	 6.46559592677345E-02 
377	 6.43700748210961E-02 
378	 6.48608668793683E-02 
379	 6.65829258776762E-02 
380	 6.51499566163579E-02 
381	 6.40294715124685E-02 
382	 6.54208501252972E-02 
383	 6.96888530933698E-02 
384	 0.070460743739759 
385	 6.87127614380445E-02 
386	 6.75510202788951E-02 
387	 7.22359071038427E-02 
388	 7.38221078457719E-02 
389	 7.34068568268247E-02 
390	 7.45562336196633E-02 
391	 0.075880535729824 
392	 7.62958725902918E-02 
393	 7.72516569447654E-02 
394	 8.17540622738417E-02 
395	 8.30181890648851E-02 
396	 8.25096038464464E-02 
397	 8.26978017760355E-02 
398	 8.53022557590439E-02 
399	 0.087274331813514 
400	 8.83332000175972E-02 
401	 8.93192147765508E-02 
402	 9.08960045613366E-02 
403	 0.091764410362701 
404	 9.20633382112565E-02 
405	 9.34378924311879E-02 
406	 9.61073330516179E-02 
407	 9.81572293412708E-02 
408	 9.84488762733327E-02 
409	 9.86381266560422E-02 
410	 9.93522563141051E-02 
411	 0.100307757377367 
412	 0.100915450644215 
413	 0.102240016372134 
414	 0.102532425639342 
415	 0.101834254819405 
416	 0.102692461472284 
417	 0.103689739868312 
418	 0.10445242058521 
419	 0.104867138262466 
420	 0.104837972716208 
421	 0.104428395483252 
422	 0.104134359166683 
423	 0.104560227790131 
424	 0.104390068409467 
425	 0.104108961394762 
426	 0.103910421827836 
427	 0.103011470836204 
428	 0.101887425207524 
429	 0.101077278808003 
430	 0.100928090024577 
431	 0.100807603254594 
432	 0.100592888827228 
433	 0.100188059216392 
434	 9.95214766354936E-02 
435	 9.93806861371038E-02 
436	 9.95908336918177E-02 
437	 9.98083833449577E-02 
438	 9.97036632473947E-02 
439	 0.100387074200114 
440	 0.101416054507679 
441	 0.101748876935368 
442	 0.102398338834781 
443	 0.10343080051617 
444	 0.104578237157068 
445	 0.105220785163988 
446	 0.106007993251857 
447	 0.106904346885276 
448	 0.10767955169916 
449	 0.108108353897141 
450	 0.108932959877546 
451	 0.110160284519755 
452	 0.111170397999586 
453	 0.112109494945396 
454	 0.112718451975092 
455	 0.113038920997746 
456	 0.11401295347043 
457	 0.114726022355803 
458	 0.115145156736976 
459	 0.115623207911315 
460	 0.116159725540778 
461	 0.116625972940548 
462	 0.117024705980272 
463	 0.117566162021082 
464	 0.11780030257778 
465	 0.118122052627981 
466	 0.11885675188197 
467	 0.119078858129815 
468	 0.119359330026889 
469	 0.11969815542203 
470	 0.119662253592588 
471	 0.119982340241204 
472	 0.120445644322491 
473	 0.120785240334669 
474	 0.120998191276092 
475	 0.12115766194519 
476	 0.121197768354051 
477	 0.121089437814757 
478	 0.121500277033466 
479	 0.121948841834258 
480	 0.122186020471032 
481	 0.122422857785334 
482	 0.122761442063546 
483	 0.123009272670867 
484	 0.12302317571915 
485	 0.123222675080445 
486	 0.123358302308991 
487	 0.123391766835449 
488	 0.123483582094905 
489	 0.123899505918078 
490	 0.12422060676904 
491	 0.12424424246841 
492	 0.124612434981645 
493	 0.124821872737683 
494	 0.124854089757181 
495	 0.124926468901236 
496	 0.12520120650307 
497	 0.125376694168155 
498	 0.12544986957862 
499	 0.125941003366199 
500	 0.126118887641711 
501	 0.126147030137446 
502	 0.126350849738981 
503	 0.126515405282143 
504	 0.126648637240365 
505	 0.126747257941779 
506	 0.126798815752331 
507	 0.126954514776566 
508	 0.127205197869749 
509	 0.127455642241683 
510	 0.127460589381146 
511	 0.127527599843323 
512	 0.12771601938437 
513	 0.127927129916519 
514	 0.127941648239705 
515	 0.128016425772532 
516	 0.128287321367775 
517	 0.128624999358895 
518	 0.128665288564005 
519	 0.128669133998949 
520	 0.128984875078152 
521	 0.129221957511919 
522	 0.129344002065455 
523	 0.129388035582271 
524	 0.129444846693041 
525	 0.129541292823281 
526	 0.129694958661035 
527	 0.129878515138907 
528	 0.129940587008629 
529	 0.130031905621308 
530	 0.130193391639082 
531	 0.13038584966594 
532	 0.130551981707913 
533	 0.130743414830084 
534	 0.130972107655449 
535	 0.131134899024924 
536	 0.131267847052342 
537	 0.131373769895409 
538	 0.131462112798753 
539	 0.131650529999403 
540	 0.131823383321721 
541	 0.131983208560441 
542	 0.132315663490953 
543	 0.132550866428802 
544	 0.132713365418147 
545	 0.132900077019935 
546	 0.133139299501229 
547	 0.133401771898777 
548	 0.133668572792708 
549	 0.13393283962007 
550	 0.134211626301616 
551	 0.13447067870154 
552	 0.134716051070963 
553	 0.13510134212945 
554	 0.135362586300963 
555	 0.135572495049972 
556	 0.135956296496173 
557	 0.136365672815463 
558	 0.136744528384863 
559	 0.137104409535507 
560	 0.137559714194676 
561	 0.137969259795912 
562	 0.13843579599887 
563	 0.139112044903104 
564	 0.139953875050032 
565	 0.140722656187328 
566	 0.141374853634408 
567	 0.142093504783316 
568	 0.142700390465225 
569	 0.143239411674054 
570	 0.143795219326127 
571	 0.144401754738789 
572	 0.145018052650387 
573	 0.145697421136161 
574	 0.14654489651624 
575	 0.147405614595132 
576	 0.148406747380093 
577	 0.149602099206338 
578	 0.150811085020488 
579	 0.1519519641261 
580	 0.152958617774932 
581	 0.153817123967875 
582	 0.154711894898559 
583	 0.15557459428624 
584	 0.156456852525721 
585	 0.157614992051021 
586	 0.158984692903417 
587	 0.160489507387118 
588	 0.162021444026579 
589	 0.163415297036198 
590	 0.164779088359144 
591	 0.166114381954009 
592	 0.167322513529726 
593	 0.168378789847613 
594	 0.169248534400026 
595	 0.170009611008355 
596	 0.171023677579477 
597	 0.172129736452158 
598	 0.173287151674479 
599	 0.174520231381854 
600	 0.175850003966163 
601	 0.177133508813286 
602	 0.178301577163924 
603	 0.1794475222956 
604	 0.180593995305864 
605	 0.181755439784389 
606	 0.182909354087013 
607	 0.183887367067475 
608	 0.184778685558349 
609	 0.185679386466828 
610	 0.186671385243896 
611	 0.187566878221308 
612	 0.18836497709099 
613	 0.189104055181032 
614	 0.189780682106549 
615	 0.190485695808667 
616	 0.191199626421302 
617	 0.191828157860573 
618	 0.192443386317206 
619	 0.193003819187822 
620	 0.193498451122636 
621	 0.194011183663969 
622	 0.194515888806621 
623	 0.195013084827641 
624	 0.195505661553034 
625	 0.19594913070591 
626	 0.196396538469632 
627	 0.196860162811184 
628	 0.197287901254658 
629	 0.1977092309596 
630	 0.198117300564962 
631	 0.198504786134776 
632	 0.198896656491442 
633	 0.199259780611232 
634	 0.199611943585187 
635	 0.200008512312383 
636	 0.200386756936782 
637	 0.200784831226836 
638	 0.201201901345812 
639	 0.20148854040918 
640	 0.20183592456901 
641	 0.20224595614569 
642	 0.202634494047933 
643	 0.203004343943321 
644	 0.203388173722451 
645	 0.203783090223651 
646	 0.20412845128008 
647	 0.204472255482636 
648	 0.204876701363421 
649	 0.205366543293047 
650	 0.205802942125427 
651	 0.20622863479423 
652	 0.206667458963361 
653	 0.207122018763334 
654	 0.207588822557236 
655	 0.207989503166175 
656	 0.208329153570586 
657	 0.208849355615967 
658	 0.209414235988343 
659	 0.209948308905563 
660	 0.210415974911999 
661	 0.210878077424321 
662	 0.211404716541727 
663	 0.211988701394508 
664	 0.212511380452574 
665	 0.213077424658279 
666	 0.213640413254088 
667	 0.214155529537427 
668	 0.214757799358869 
669	 0.215424875366794 
670	 0.216110084207465 
671	 0.216751590220774 
672	 0.217340316711567 
673	 0.21796597124683 
674	 0.218660577211679 
675	 0.219271080543662 
676	 0.219943987722655 
677	 0.220675592474955 
678	 0.221398879280069 
679	 0.222095211660024 
680	 0.2228310772289 
681	 0.223618990872331 
682	 0.224392185514822 
683	 0.225174191272267 
684	 0.225950438924497 
685	 0.226719992130721 
686	 0.227566973738276 
687	 0.228406010583706 
688	 0.229220466485191 
689	 0.230046308635943 
690	 0.230910865482303 
691	 0.231795611476167 
692	 0.232688225476519 
693	 0.233608967867635 
694	 0.23452035273553 
695	 0.235413643856045 
696	 0.236301265531182 
697	 0.237233315853404 
698	 0.238193338216818 
699	 0.239150835564695 
700	 0.240066992979615 
701	 0.240995531938947 
702	 0.241924260249504 
703	 0.242854505098063 
704	 0.243876224890281 
705	 0.244858054522631 
706	 0.245788532945493 
707	 0.246721343125478 
708	 0.247669137931893 
709	 0.248664253209842 
710	 0.249677772423462 
711	 0.250594579127119 
712	 0.251537404549197 
713	 0.252481627388281 
714	 0.253390439901788 
715	 0.254345150745044 
716	 0.255244118371476 
717	 0.256116807179799 
718	 0.257080085864632 
719	 0.258067871307122 
720	 0.258931147209785 
721	 0.259641599635959 
722	 0.260419106027517 
723	 0.261226450520786 
724	 0.261975709231361 
725	 0.262613950492519 
726	 0.263379825178171 
727	 0.264114608547344 
728	 0.264771194484296 
729	 0.265420768342249 
730	 0.26599999473775 
731	 0.266546300601633 
732	 0.267091575910178 
733	 0.267615136184869 
734	 0.268106482211657 
735	 0.268512260560142 
736	 0.268801355952923 
737	 0.26916961549077 
738	 0.26955107461599 
739	 0.269859417958643 
740	 0.270017256457942 
741	 0.270231168451583 
742	 0.270397739581068 
743	 0.270439932518509 
744	 0.270542624520987 
745	 0.270596381327815 
746	 0.270608229664839 
747	 0.27062657661947 
748	 0.270588393977511 
749	 0.270463697929029 
750	 0.270300864728291 
751	 0.270232371825137 
752	 0.270067993599727 
753	 0.269793368116418 
754	 0.269462049196343 
755	 0.269190862739611 
756	 0.268912650310365 
757	 0.268575962557251 
758	 0.268156871409324 
759	 0.267760731860667 
760	 0.267359807310458 
761	 0.266932489140628 
762	 0.266482147467708 
763	 0.266058987241433 
764	 0.265572196220297 
765	 0.26497421950325 
766	 0.264431735430347 
767	 0.263925803480799 
768	 0.263412269358744 
769	 0.262840901678091 
770	 0.262237022418371 
771	 0.261682598931318 
772	 0.261132392199821 
773	 0.260394881598546 
774	 0.259753045610392 
775	 0.259176660520659 
776	 0.258566872154922 
777	 0.257834498442326 
778	 0.257138929950187 
779	 0.256538001301934 
780	 0.256003739374456 
781	 0.255331553729346 
782	 0.254641334742424 
783	 0.253979117732006 
784	 0.253289051948956 
785	 0.252609525774184 
786	 0.251979338925417 
787	 0.25139120301185 
788	 0.250721083358255 
789	 0.250144975468033 
790	 0.249573845301047 
791	 0.248871436287012 
792	 0.248215125095313 
793	 0.24755157193328 
794	 0.24689640626537 
795	 0.246320134789088 
796	 0.245674928086989 
797	 0.245046036215228 
798	 0.244484717161106 
799	 0.243914203713872 
800	 0.243347259129569 
801	 0.242773957614347 
802	 0.242187170417391 
803	 0.241603284516452 
804	 0.241074769331874 
805	 0.24056273475827 
806	 0.239989353962419 
807	 0.239470660017855 
808	 0.238982593139598 
809	 0.238487887501784 
810	 0.237954287388055 
811	 0.237450574583308 
812	 0.236925287440637 
813	 0.236371936597325 
814	 0.235981374561802 
815	 0.235627812636381 
816	 0.235210976183684 
817	 0.2346833344001 
818	 0.234198483911747 
819	 0.233786344891677 
820	 0.233410796487164 
821	 0.232995483036216 
822	 0.232630336748372 
823	 0.232196181328446 
824	 0.231704681081313 
825	 0.231424195909127 
826	 0.231127675885261 
827	 0.230810320663001 
828	 0.230504319424539 
829	 0.230161503914521 
830	 0.229772339875153 
831	 0.229389768693427 
832	 0.229091046012299 
833	 0.228910910938202 
834	 0.228653173943915 
835	 0.228298874188355 
836	 0.2280105943276 
837	 0.227821954715692 
838	 0.227659531741437 
839	 0.22745376487104 
840	 0.227179579948127 
841	 0.226884018002524 
842	 0.226643163558763 
843	 0.226489646078751 
844	 0.226308230513545 
845	 0.226138911123405 
846	 0.225964852391249 
847	 0.225776749388797 
848	 0.225756077130091 
849	 0.225679007013922 
850	 0.225495074876323 
851	 0.225325500677879 
852	 0.22519471977257 
853	 0.22512357072656 
854	 0.225069447679418 
855	 0.224911215180805 
856	 0.224856117938505 
857	 0.224831764473899 
858	 0.224757517141696 
859	 0.224700335538184 
860	 0.224742730270663 
861	 0.224754193391436 
862	 0.224614001931708 
863	 0.224589880011199 
864	 0.22465885883805 
865	 0.224725529830362 
866	 0.224691699595903 
867	 0.224746564712175 
868	 0.22480766046562 
869	 0.224824114725705 
870	 0.224812884376795 
871	 0.224890144681423 
872	 0.22505305161667 
873	 0.225246046735416 
874	 0.225372498905714 
875	 0.225448677324713 
876	 0.225494288088934 
877	 0.225560703401999 
878	 0.225771941560987 
879	 0.22602755779197 
880	 0.226226305748691 
881	 0.226317425690523 
882	 0.226433832116243 
883	 0.22662893567257 
884	 0.226875995140308 
885	 0.227108620445816 
886	 0.227338885242142 
887	 0.227587481184851 
888	 0.22781286328438 
889	 0.227952486086806 
890	 0.228276300298443 
891	 0.22857139127622 
892	 0.228788085399264 
893	 0.229144377421248 
894	 0.229448947804504 
895	 0.229755909895642 
896	 0.2301019919088 
897	 0.230408168491186 
898	 0.230802419163564 
899	 0.23121244328151 
900	 0.231559410383272 
901	 0.231889740123096 
902	 0.23225186549762 
903	 0.23262788496 
904	 0.232995429234306 
905	 0.233413167418175 
906	 0.233892698398635 
907	 0.23443196559144 
908	 0.234996062064678 
909	 0.235448692685234 
910	 0.23586216236299 
911	 0.236295487847407 
912	 0.236781252889459 
913	 0.237297083301142 
914	 0.237884532013136 
915	 0.238513678624617 
916	 0.239094934106736 
917	 0.239620866804365 
918	 0.240172178994523 
919	 0.240771912925483 
920	 0.241364259278851 
921	 0.242003016902679 
922	 0.242599759062709 
923	 0.243162174412593 
924	 0.243860965125787 
925	 0.244572786157865 
926	 0.245254335145757 
927	 0.245899665254086 
928	 0.246535640480883 
929	 0.247337605199628 
930	 0.248180472940642 
931	 0.248931484615506 
932	 0.249633020398125 
933	 0.250462574704911 
934	 0.251354085331636 
935	 0.252201421062614 
936	 0.25302303705072 
937	 0.253804529487516 
938	 0.254561710008629 
939	 0.255353190773677 
940	 0.256337901652586 
941	 0.257315343941292 
942	 0.258279620397726 
943	 0.259268543273577 
944	 0.260155142947207 
945	 0.26094220053568 
946	 0.26182785269088 
947	 0.2629571676477 
948	 0.263870249808966 
949	 0.264860905071219 
950	 0.265911399234587 
951	 0.266891047653627 
952	 0.268017708714284 
953	 0.269107302391466 
954	 0.270150754496279 
955	 0.271247081021634 
956	 0.272427657157045 
957	 0.273570381214324 
958	 0.274684580882767 
959	 0.275846500254982 
960	 0.276973994596659 
961	 0.278126929210028 
962	 0.279322753614903 
963	 0.280521781697997 
964	 0.281579273980825 
965	 0.28277838766314 
966	 0.28409834490397 
967	 0.285339063939346 
968	 0.286688456117413 
969	 0.287981276466099 
970	 0.289216714903364 
971	 0.29049382267032 
972	 0.291705375285844 
973	 0.292971953068195 
974	 0.29430624798495 
975	 0.295648534348316 
976	 0.297066884445114 
977	 0.298426401849384 
978	 0.299742188128893 
979	 0.301110185172127 
980	 0.302434764048515 
981	 0.303740579129648 
982	 0.305094969989539 
983	 0.306538792314301 
984	 0.307874709232777 
985	 0.30919918395771 
986	 0.310575658065635 
987	 0.312006447104301 
988	 0.313384123601454 
989	 0.314681877042062 
990	 0.316002185973917 
991	 0.31747063476115 
992	 0.319013955333441 
993	 0.320417120150179 
994	 0.321819050090173 
995	 0.323362232650473 
996	 0.324505152471773 
997	 0.3258273354915 
998	 0.327201444240362 
999	 0.328407281492753 
1000	 0.329991616696747 
1001	 0.330293267659886 
1002	 0.331598694007902 
1003	 0.332919479129354 
1004	 0.334170877879786 
1005	 0.335437389825397 
1006	 0.336702964371781 
1007	 0.337913289919729 
1008	 0.339085852449988 
1009	 0.340364725059121 
1010	 0.341615135721332 
1011	 0.342803126038645 
1012	 0.343978982360196 
1013	 0.345135624180679 
1014	 0.346235370544809 
1015	 0.347344695536037 
1016	 0.348548657414257 
1017	 0.34971295598542 
1018	 0.35088635211654 
1019	 0.352004825161944 
1020	 0.353080483751789 
1021	 0.35405019132426 
1022	 0.355018012851156 
1023	 0.356057464649292 
1024	 0.357089048285981 
1025	 0.358129687788705 
1026	 0.359161378183863 
1027	 0.360120344616049 
1028	 0.361088663780023 
1029	 0.362127258824607 
1030	 0.363116742464352 
1031	 0.364050493105033 
1032	 0.36495019960036 
1033	 0.365854979481259 
1034	 0.366758403011971 
1035	 0.367712827622574 
1036	 0.368720121815667 
1037	 0.369727485196984 
1038	 0.370694256513934 
1039	 0.371571959320809 
1040	 0.372410104930628 
1041	 0.37333228679903 
1042	 0.37429598612287 
1043	 0.375196752861083 
1044	 0.376094666665444 
1045	 0.377012380070979 
1046	 0.377934796081261 
1047	 0.378761131323055 
1048	 0.379617032255114 
1049	 0.380565645364181 
1050	 0.381423321935562 
1051	 0.38225988786467 
1052	 0.38312305959072 
1053	 0.383957766393201 
1054	 0.384797060587525 
1055	 0.385667502478494 
1056	 0.38659163812039 
1057	 0.38747690602615 
1058	 0.388367698720729 
1059	 0.389229731913572 
1060	 0.390081379010935 
1061	 0.390860739275805 
1062	 0.391663366085639 
1063	 0.39248434866687 
1064	 0.393297616446199 
1065	 0.394095272426712 
1066	 0.394908829086008 
1067	 0.395781540874539 
1068	 0.396595164711174 
1069	 0.397377524219123 
1070	 0.398187334170141 
1071	 0.398984393784531 
1072	 0.399750280817856 
1073	 0.40056329454178 
1074	 0.401328933495208 
1075	 0.402048188539807 
1076	 0.402708816703456 
1077	 0.403445970148898 
1078	 0.404106572704606 
1079	 0.404765686690428 
1080	 0.405470107444822 
1081	 0.406125606354073 
1082	 0.406790563223564 
1083	 0.407468588373685 
1084	 0.408149245801185 
1085	 0.408849046169836 
1086	 0.409579253126576 
1087	 0.410259108567246 
1088	 0.410911226413522 
1089	 0.411627642104438 
1090	 0.412273009387785 
1091	 0.412869982277472 
1092	 0.413504091428916 
1093	 0.414064468496197 
1094	 0.414610010190966 
1095	 0.415229392424708 
1096	 0.415826216613171 
1097	 0.416433959449635 
1098	 0.417053472262613 
1099	 0.417701070203686 
1100	 0.418300369036192 
1101	 0.418892825479986 
1102	 0.419471059846167 
1103	 0.420017586479796 
1104	 0.420570279544574 
1105	 0.421114042557888 
1106	 0.421690145454378 
1107	 0.422288471498739 
1108	 0.422873899299113 
1109	 0.423438387227448 
1110	 0.424012336475279 
1111	 0.42458174720791 
1112	 0.42513057809581 
1113	 0.425677228967176 
1114	 0.42623441240034 
1115	 0.426786207386293 
1116	 0.427317269017959 
1117	 0.427854679853843 
1118	 0.428409119878258 
1119	 0.428941502017845 
1120	 0.429474607559252 
1121	 0.430018191561509 
1122	 0.430521154794812 
1123	 0.431050047420664 
1124	 0.431583723428682 
1125	 0.432121143301021 
1126	 0.432622557247959 
1127	 0.433120595183184 
1128	 0.433621651717521 
1129	 0.434076134599133 
1130	 0.43457823452017 
1131	 0.435141326043118 
1132	 0.435655034090431 
1133	 0.43615163374614 
1134	 0.436651156803712 
1135	 0.437138065177485 
1136	 0.437604830220936 
1137	 0.438115304735115 
1138	 0.438608649493308 
1139	 0.439083648836207 
1140	 0.439558689290152 
1141	 0.440016178601999 
1142	 0.440437047391615 
1143	 0.440882808503906 
1144	 0.441340666860144 
1145	 0.441777142239059 
1146	 0.442210376580258 
1147	 0.442637797004227 
1148	 0.443055664968501 
1149	 0.44346476104191 
1150	 0.443866485335251 
1151	 0.44427146560007 
1152	 0.444654850737148 
1153	 0.445038510812398 
1154	 0.445447728267469 
1155	 0.44587646844383 
1156	 0.446290633311203 
1157	 0.446724133502328 
1158	 0.447128867240739 
1159	 0.447516381393976 
1160	 0.447900974998289 
1161	 0.4482785163061 
1162	 0.448648708707845 
1163	 0.449017204251427 
1164	 0.449368777102926 
1165	 0.449704809830057 
1166	 0.45004238249916 
1167	 0.450360051605339 
1168	 0.450675440097623 
1169	 0.451006412426864 
1170	 0.451341535396178 
1171	 0.451678363079977 
1172	 0.452030452468796 
1173	 0.452370388408709 
1174	 0.452706771264325 
1175	 0.453040231756821 
1176	 0.453376871951324 
1177	 0.453699889823162 
1178	 0.454009321669089 
1179	 0.454325782536083 
1180	 0.454648136263032 
1181	 0.454952734779198 
1182	 0.455235630272391 
1183	 0.455541117079083 
1184	 0.455848891559432 
1185	 0.456152035368946 
1186	 0.456454360403836 
1187	 0.456783634627751 
1188	 0.45707362543191 
1189	 0.457324561465021 
1190	 0.457607257638703 
1191	 0.457899034947775 
1192	 0.458177442875837 
1193	 0.45847530643405 
1194	 0.458743314774397 
1195	 0.458985527856836 
1196	 0.459225477476775 
1197	 0.459426844711633 
1198	 0.45966558629521 
1199	 0.459917218286591 
1200	 0.46018167278732 
1201	 0.460430481106139 
1202	 0.460702922563672 
1203	 0.460948548891573 
1204	 0.461154896380735 
1205	 0.461400933406909 
1206	 0.461675292395735 
1207	 0.461920904349038 
1208	 0.462169682847083 
1209	 0.462408405196672 
1210	 0.462628109659403 
1211	 0.462847206547008 
1212	 0.463048183926509 
1213	 0.463275127304305 
1214	 0.463512612144929 
1215	 0.463746139425573 
1216	 0.463986367895624 
1217	 0.464259147345502 
1218	 0.464486169985968 
1219	 0.464684718152875 
1220	 0.464902042569687 
1221	 0.465109019527808 
1222	 0.465326473476877 
1223	 0.465558440723368 
1224	 0.465780285838592 
1225	 0.466014038161601 
1226	 0.466216786128897 
1227	 0.466392651482623 
1228	 0.466584154814355 
1229	 0.466756559042534 
1230	 0.466941916870055 
1231	 0.467157778103782 
1232	 0.467353346314318 
1233	 0.467541224976436 
1234	 0.467721393156052 
1235	 0.467899062753726 
1236	 0.468074927089113 
1237	 0.468232220948677 
1238	 0.468375228335842 
1239	 0.468522842958112 
1240	 0.468643111379655 
1241	 0.468796424687672 
1242	 0.468969680691116 
1243	 0.469141508450568 
1244	 0.469342425706748 
1245	 0.469513658263627 
1246	 0.469661507196176 
1247	 0.4698263147433 
1248	 0.469990354088376 
1249	 0.470144465191809 
1250	 0.470325580412068 
1251	 0.470504843881125 
1252	 0.470672801392858 
1253	 0.470831671124251 
1254	 0.470996051548353 
1255	 0.471168076114042 
1256	 0.471312465672699 
1257	 0.471451842887579 
1258	 0.471574682828757 
1259	 0.471654539543661 
1260	 0.471769061956816 
1261	 0.471909217723002 
1262	 0.472015420577929 
1263	 0.472111581901405 
1264	 0.472215859795948 
1265	 0.472278709402998 
1266	 0.472379429955477 
1267	 0.472519503834553 
1268	 0.472649577490986 
1269	 0.472790674204567 
1270	 0.472945528408304 
1271	 0.47310321685828 
1272	 0.473264985684154 
1273	 0.473433309847532 
1274	 0.473607755437557 
1275	 0.473790693350615 
1276	 0.47396717337741 
1277	 0.474176021700398 
1278	 0.474418302235775 
1279	 0.4746443819984 
1280	 0.474880824510876 
1281	 0.475124569524112 
1282	 0.475377880806204 
1283	 0.475610264759995 
1284	 0.475856599603414 
1285	 0.476072700476902 
1286	 0.476259633517451 
1287	 0.47645931512087 
1288	 0.476673449506409 
1289	 0.476900449740202 
1290	 0.477118570284093 
1291	 0.477364058917599 
1292	 0.477550221408429 
1293	 0.477710030888908 
1294	 0.477865137888597 
1295	 0.47797921555244 
1296	 0.478105174942103 
1297	 0.47823575500062 
1298	 0.478355049940754 
1299	 0.478473850677413 
1300	 0.478570208137816 
1301	 0.478646463371441 
1302	 0.478724629742704 
1303	 0.478787637321692 
1304	 0.478845200103548 
1305	 0.478918391921721 
1306	 0.478972714319897 
1307	 0.478979865293382 
1308	 0.478984209301368 
1309	 0.478998433980471 
1310	 0.479001302233998 
1311	 0.478999386912386 
1312	 0.479015525049797 
1313	 0.479000768273687 
1314	 0.478956556611053 
1315	 0.478921776390783 
1316	 0.478884722839439 
1317	 0.478843426188471 
1318	 0.478795588326002 
1319	 0.478743225905112 
1320	 0.478675781340273 
1321	 0.478624135037647 
1322	 0.478576674270044 
1323	 0.478534865061739 
1324	 0.478498760516128 
1325	 0.478462872646416 
1326	 0.478406470598045 
1327	 0.478330615379013 
1328	 0.478252247538265 
1329	 0.478173443938043 
1330	 0.478076817124866 
1331	 0.477971054549935 
1332	 0.477861537946898 
1333	 0.477737843232049 
1334	 0.477613554364445 
1335	 0.477464057433892 
1336	 0.477360795950517 
1337	 0.477272312222838 
1338	 0.477186403934768 
1339	 0.477154744505194 
1340	 0.47707850411813 
1341	 0.476980584757986 
1342	 0.476878868272332 
1343	 0.476759700863547 
1344	 0.476624447674851 
1345	 0.476547880274103 
1346	 0.476451811848277 
1347	 0.476368898622103 
1348	 0.476302678144363 
1349	 0.476177210274055 
1350	 0.476074105777244 
1351	 0.475978106281873 
1352	 0.475888153081993 
1353	 0.475790136647899 
1354	 0.475693662979573 
1355	 0.475604646096739 
1356	 0.475501746859646 
1357	 0.475428966572515 
1358	 0.475383665015243 
1359	 0.475328208399975 
1360	 0.475290347410347 
1361	 0.475232913751898 
1362	 0.47518806350372 
1363	 0.475107301473713 
1364	 0.474975000001083 
1365	 0.474876666984056 
1366	 0.474766736718783 
1367	 0.474663349315539 
1368	 0.474627401924139 
1369	 0.474603356191187 
1370	 0.474532823928471 
1371	 0.474446755027631 
1372	 0.474322055407101 
1373	 0.474167061253926 
1374	 0.474016426739919 
1375	 0.473879234210563 
1376	 0.473680832188503 
1377	 0.473459167245356 
1378	 0.473201422005282 
1379	 0.47287937157924 
1380	 0.472586289230173 
1381	 0.472276250702205 
1382	 0.471968048392626 
1383	 0.47168462730546 
1384	 0.47135886907226 
1385	 0.471046725706642 
1386	 0.470663628843163 
1387	 0.470244628820373 
1388	 0.469775133115006 
1389	 0.469255934064054 
1390	 0.468674801067157 
1391	 0.468088524892772 
1392	 0.467440369607102 
1393	 0.466710272801122 
1394	 0.465951167827627 
1395	 0.465101717798568 
1396	 0.464239083603146 
1397	 0.463409926363012 
1398	 0.462586531086372 
1399	 0.461736327845048 
1400	 0.460903588724986 
1401	 0.460033905790535 
1402	 0.459103805727126 
1403	 0.458235771581942 
1404	 0.457358034795199 
1405	 0.456536594901219 
1406	 0.455770759829024 
1407	 0.454991544892919 
1408	 0.454220538940094 
1409	 0.453493511492626 
1410	 0.452743777895605 
1411	 0.452085784696948 
1412	 0.451481999439818 
1413	 0.450942814056228 
1414	 0.450489027033453 
1415	 0.450087974395562 
1416	 0.449766054084132 
1417	 0.449485109309505 
1418	 0.449184251367408 
1419	 0.448922664493369 
1420	 0.44869994669674 
1421	 0.448466228795911 
1422	 0.448252403398607 
1423	 0.448051612408492 
1424	 0.447802556848159 
1425	 0.447502555982761 
1426	 0.447237923146079 
1427	 0.446936374146891 
1428	 0.446711187451107 
1429	 0.446532870433685 
1430	 0.446354013445131 
1431	 0.446227923808722 
1432	 0.446070176572035 
1433	 0.445893839566674 
1434	 0.445737948340525 
1435	 0.445561190406814 
1436	 0.445438743638392 
1437	 0.445346610065825 
1438	 0.445272560658678 
1439	 0.445245219664738 
1440	 0.445223394988014 
1441	 0.445159905129094 
1442	 0.44510008384015 
1443	 0.445007437138615 
1444	 0.444922074069451 
1445	 0.44487297249047 
1446	 0.444825125744992 
1447	 0.444793564335353 
1448	 0.4447439882098 
1449	 0.444650002049773 
1450	 0.444534279283218 
1451	 0.444435930433253 
1452	 0.444308864919372 
1453	 0.444221643229164 
1454	 0.444184267535772 
1455	 0.444097297559838 
1456	 0.444002994007578 
1457	 0.443894359644041 
1458	 0.443747262522245 
1459	 0.443623637168519 
1460	 0.443490746225196 
1461	 0.443391047799237 
1462	 0.443315346990982 
1463	 0.443235098096647 
1464	 0.443171168501387 
1465	 0.443107842347724 
1466	 0.443024828238628 
1467	 0.442979477996823 
1468	 0.442937638857026 
1469	 0.442947416327093 
1470	 0.442986034500405 
1471	 0.443065855941124 
1472	 0.443217294721913 
1473	 0.443394744182838 
1474	 0.443571513719948 
1475	 0.443769780317943 
1476	 0.443926824125757 
1477	 0.444078486354383 
1478	 0.444270679311795 
1479	 0.444473385451244 
1480	 0.44471118168183 
1481	 0.444975365990059 
1482	 0.445231754771678 
1483	 0.445510941135326 
1484	 0.445751681553832 
1485	 0.445973993879318 
1486	 0.446207214781026 
1487	 0.446414447103295 
1488	 0.446656032096995 
1489	 0.446936673937474 
1490	 0.447177146087601 
1491	 0.447421549392495 
1492	 0.447640652728745 
1493	 0.447818472601334 
1494	 0.448019522023843 
1495	 0.448212674450364 
1496	 0.448416471803415 
1497	 0.448647900788833 
1498	 0.448850827876108 
1499	 0.449058492295841 
1500	 0.449234792900981 
1501	 0.449375586171629 
1502	 0.449514701398393 
1503	 0.449630474460139 
1504	 0.449748598108563 
1505	 0.449885336997744 
1506	 0.450028411248751 
1507	 0.450174683456455 
1508	 0.450332249258197 
1509	 0.450473548833043 
1510	 0.450609839260816 
1511	 0.450747950519165 
1512	 0.450874083558012 
1513	 0.45102243828502 
1514	 0.451173981269036 
1515	 0.451302280237942 
1516	 0.451446012542308 
1517	 0.451585216765334 
1518	 0.451710796701606 
1519	 0.451841084931102 
1520	 0.451988283225985 
1521	 0.452110558924797 
1522	 0.452206927477532 
1523	 0.452322639639648 
1524	 0.452435998044769 
1525	 0.452561850726323 
1526	 0.452708489678625 
1527	 0.452831333603328 
1528	 0.452960533700931 
1529	 0.453062935171573 
1530	 0.453130316119121 
1531	 0.453220527640759 
1532	 0.453313303335036 
1533	 0.453393506734248 
1534	 0.453486417614478 
1535	 0.453556061106177 
1536	 0.453593489275737 
1537	 0.45364231813749 
1538	 0.453667914525948 
1539	 0.453733899638317 
1540	 0.45381958554327 
1541	 0.453911533609049 
1542	 0.454039437928426 
1543	 0.454151391100253 
1544	 0.454267113459532 
1545	 0.454376288018678 
1546	 0.454493002852998 
1547	 0.454584070262268 
1548	 0.454654762201715 
1549	 0.454704753319128 
1550	 0.454752978806976 
1551	 0.454817804492933 
1552	 0.454884353811686 
1553	 0.454966996536699 
1554	 0.455055364532259 
1555	 0.455118402637119 
1556	 0.455167735346687 
1557	 0.455203926899557 
1558	 0.455237222280877 
1559	 0.455270370279343 
1560	 0.455312889262688 
1561	 0.455370590148988 
1562	 0.455424443526823 
1563	 0.455476612319051 
1564	 0.455536625057127 
1565	 0.455611306780167 
1566	 0.455669421719126 
1567	 0.455715907105508 
1568	 0.455773483754556 
1569	 0.455833364469067 
1570	 0.455884384410225 
1571	 0.455957440230706 
1572	 0.455984783274218 
1573	 0.455969834769583 
1574	 0.45598255697744 
1575	 0.455981042331983 
1576	 0.455987566059478 
1577	 0.456005502587125 
1578	 0.456031346273016 
1579	 0.456042628402719 
1580	 0.456088770695354 
1581	 0.456176421785103 
1582	 0.456241154127674 
1583	 0.456332614346954 
1584	 0.456380558047913 
1585	 0.456397941970713 
1586	 0.456415318729246 
1587	 0.456395877804549 
1588	 0.456403490203204 
1589	 0.456428745931794 
1590	 0.456438401495713 
1591	 0.45645038232161 
1592	 0.456458039178004 
1593	 0.456435345500942 
1594	 0.45644915644052 
1595	 0.456492873868335 
1596	 0.456524422013906 
1597	 0.456572760927292 
1598	 0.456609593716817 
1599	 0.456649580096602 
1600	 0.456661159831772 
1601	 0.456654583449795 
1602	 0.456647657847722 
1603	 0.456598168765128 
1604	 0.456579131129954 
1605	 0.456571321523788 
1606	 0.456579139766269 
1607	 0.456625220297238 
1608	 0.456643800444921 
1609	 0.456655373317412 
1610	 0.456690791437514 
1611	 0.456689192895913 
1612	 0.456664774972876 
1613	 0.45663451113052 
1614	 0.456585495707663 
1615	 0.456513681037938 
1616	 0.456479702245876 
1617	 0.456489970000227 
1618	 0.456479578344215 
1619	 0.456480272273535 
1620	 0.45649251472948 
1621	 0.456497569546387 
1622	 0.456498893704224 
1623	 0.456473432223337 
1624	 0.456442427060311 
1625	 0.4564105956463 
1626	 0.45634566890102 
1627	 0.456308330841757 
1628	 0.456292736408407 
1629	 0.4562682233961 
1630	 0.456232932202899 
1631	 0.456220489189304 
1632	 0.456228616034784 
1633	 0.456216777081195 
1634	 0.456212662275927 
1635	 0.456184785461021 
1636	 0.456142283594355 
1637	 0.456091429451139 
1638	 0.456011909242131 
1639	 0.455974003509247 
1640	 0.455941985029327 
1641	 0.455917485101002 
1642	 0.455935121979904 
1643	 0.45590239572846 
1644	 0.455837806774636 
1645	 0.455797948009139 
1646	 0.455746828011949 
1647	 0.455712816444034 
1648	 0.455704906414783 
1649	 0.455675163838348 
1650	 0.455636219639749 
1651	 0.455600784328197 
1652	 0.455560032208442 
1653	 0.455524350379876 
1654	 0.455499192935663 
1655	 0.45545548771979 
1656	 0.455408141688905 
1657	 0.455348932675831 
1658	 0.455271085642344 
1659	 0.45520023743775 
1660	 0.455131357143253 
1661	 0.455047799086684 
1662	 0.45493442392626 
1663	 0.45487384778267 
1664	 0.45481084389213 
1665	 0.454793849700575 
1666	 0.454854249666995 
1667	 0.454861101565285 
1668	 0.454880220468177 
1669	 0.454861045375105 
1670	 0.45481042402532 
1671	 0.454753243313683 
1672	 0.454672989484737 
1673	 0.454593797931026 
1674	 0.454492630216011 
1675	 0.454414131496505 
1676	 0.454344183386564 
1677	 0.454268737252027 
1678	 0.454209450057048 
1679	 0.454127380290296 
1680	 0.45402107135598 
1681	 0.453935571591578 
1682	 0.453830551421639 
1683	 0.453776159987956 
1684	 0.453765947426446 
1685	 0.453733458811649 
1686	 0.45374636460199 
1687	 0.453692700387246 
1688	 0.453580004669955 
1689	 0.453505460746258 
1690	 0.453408515917678 
1691	 0.453340720653351 
1692	 0.453310651345793 
1693	 0.453263306426874 
1694	 0.453214457693637 
1695	 0.453165116909169 
1696	 0.453112735666366 
1697	 0.453065280654471 
1698	 0.453018871353751 
1699	 0.45297799817811 
1700	 0.452960522584706 
1701	 0.452902327751233 
1702	 0.452834083628553 
1703	 0.452743441203264 
1704	 0.452612782606206 
1705	 0.452499112985092 
1706	 0.45237717843222 
1707	 0.452260549283107 
1708	 0.452134722183637 
1709	 0.45203490201752 
1710	 0.45195181477786 
1711	 0.451869543506039 
1712	 0.451811644466024 
1713	 0.451731407968525 
1714	 0.451640292414767 
1715	 0.451548340165645 
1716	 0.451448403856154 
1717	 0.451351414940313 
1718	 0.451248018816523 
1719	 0.451159847702611 
1720	 0.451088714319939 
1721	 0.45099592821073 
1722	 0.450897783612429 
1723	 0.450803580279744 
1724	 0.450705449694279 
1725	 0.450589168337976 
1726	 0.450479654449158 
1727	 0.4503424210041 
1728	 0.450167280409516 
1729	 0.450012631505022 
1730	 0.449858595207143 
1731	 0.449705461868774 
1732	 0.449548182728698 
1733	 0.449399851793927 
1734	 0.449256423796386 
1735	 0.449108192020145 
1736	 0.448968881350467 
1737	 0.448819623146424 
1738	 0.448650621713354 
1739	 0.448516443297875 
1740	 0.448392416052253 
1741	 0.448278453457122 
1742	 0.448196468716573 
1743	 0.44807761173125 
1744	 0.447954147018717 
1745	 0.447813282611287 
1746	 0.447648783928721 
1747	 0.447511460933379 
1748	 0.447348240249011 
1749	 0.447187143945171 
1750	 0.447044895359366 
1751	 0.446899035464952 
1752	 0.446748890547793 
1753	 0.446604578761647 
1754	 0.446444930717358 
1755	 0.446277714344584 
1756	 0.446123151234293 
1757	 0.445958512950729 
1758	 0.445787501438907 
1759	 0.445628378186793 
1760	 0.445506986265093 
1761	 0.445420824666968 
1762	 0.445340210786576 
1763	 0.445231853284558 
1764	 0.445062670605907 
1765	 0.444891290925904 
1766	 0.444717999302737 
1767	 0.444527147001194 
1768	 0.444382510926071 
1769	 0.444238253919826 
1770	 0.44409579756505 
1771	 0.444024853185947 
1772	 0.443941790791905 
1773	 0.4438174764845 
1774	 0.443715687984322 
1775	 0.443580218384229 
1776	 0.443414612764236 
1777	 0.443298157775736 
1778	 0.443173426448875 
1779	 0.443025530578793 
1780	 0.442926216848061 
1781	 0.442840588894704 
1782	 0.442764378834371 
1783	 0.442710447374132 
1784	 0.442668677505432 
1785	 0.442646808270244 
1786	 0.442602670465626 
1787	 0.442591070443364 
1788	 0.442535862192177 
1789	 0.442421172361292 
1790	 0.44234380051536 
1791	 0.442269976829284 
1792	 0.442183362239998 
1793	 0.442098956731715 
1794	 0.4420296827345 
1795	 0.441946455708163 
1796	 0.441878276325391 
1797	 0.441861938064779 
1798	 0.441798390592048 
1799	 0.441703877899114 
1800	 0.441616080846216 
1801	 0.446083673190611 
1802	 0.446366248376428 
1803	 0.446662495997106 
1804	 0.447010621312532 
1805	 0.447405132801053 
1806	 0.447781851500384 
1807	 0.448149175646265 
1808	 0.448466691301651 
1809	 0.448771796636892 
1810	 0.449022183225281 
1811	 0.449228387463606 
1812	 0.449424222495223 
1813	 0.44954821659336 
1814	 0.449559738674094 
1815	 0.44950756314602 
1816	 0.449434496698977 
1817	 0.449383238580657 
1818	 0.449306096144679 
1819	 0.449261709083608 
1820	 0.449247472131156 
1821	 0.449207134316692 
1822	 0.449159229851872 
1823	 0.449115234440326 
1824	 0.44906786718559 
1825	 0.448994049163771 
1826	 0.448908965638911 
1827	 0.448825270641145 
1828	 0.448702007997796 
1829	 0.448548195876625 
1830	 0.448387378735199 
1831	 0.448203270784475 
1832	 0.447998142613372 
1833	 0.447789898574674 
1834	 0.447574832049014 
1835	 0.447396985136859 
1836	 0.447221543162913 
1837	 0.447068509886427 
1838	 0.446936297545851 
1839	 0.446771031965104 
1840	 0.446587848832341 
1841	 0.446397665084175 
1842	 0.446206688388363 
1843	 0.446017181380013 
1844	 0.445853233672951 
1845	 0.445705645104933 
1846	 0.445565498631729 
1847	 0.445453364862535 
1848	 0.445352328298515 
1849	 0.445260856949971 
1850	 0.445200462964005 
1851	 0.445179025599565 
1852	 0.445147136017253 
1853	 0.445116993694431 
1854	 0.445078221286046 
1855	 0.445003775381792 
1856	 0.444901778097734 
1857	 0.444749415444661 
1858	 0.444595175690708 
1859	 0.444434486284432 
1860	 0.444230222187071 
1861	 0.443990044350121 
1862	 0.44373794072416 
1863	 0.443479193701406 
1864	 0.443186007268711 
1865	 0.442868887183126 
1866	 0.44253936000854 
1867	 0.442145562531689 
1868	 0.441678539542003 
1869	 0.441199191222023 
1870	 0.440695877974186 
1871	 0.440147824730203 
1872	 0.439564296105881 
1873	 0.438977042576143 
1874	 0.438324570634168 
1875	 0.437611060135966 
1876	 0.436862765859895 
1877	 0.436006975378405 
1878	 0.435031338721643 
1879	 0.433938270810343 
1880	 0.432741510220474 
1881	 0.431420495329904 
1882	 0.43001314250237 
1883	 0.428512010076536 
1884	 0.426889194706501 
1885	 0.425191214955969 
1886	 0.423363282980096 
1887	 0.421416957478222 
1888	 0.419380919180375 
1889	 0.417212560226798 
1890	 0.414955396406328 
1891	 0.412658153500135 
1892	 0.410261440187482 
1893	 0.407846048265623 
1894	 0.405384284550031 
1895	 0.402881266716899 
1896	 0.400318862693567 
1897	 0.397781287783609 
1898	 0.395219299348963 
1899	 0.392662141733461 
1900	 0.39017924240957 
1901	 0.38770445238086 
1902	 0.385324279978047 
1903	 0.383036958289029 
1904	 0.380802973157021 
1905	 0.378606607542052 
1906	 0.37652635032645 
1907	 0.374546215709201 
1908	 0.372634630054365 
1909	 0.370858612928877 
1910	 0.369150578877504 
1911	 0.367511292981332 
1912	 0.365954297577016 
1913	 0.364468959198825 
1914	 0.363055694354032 
1915	 0.361721655727856 
1916	 0.360454960315874 
1917	 0.359277484888262 
1918	 0.358201701392098 
1919	 0.357171305718156 
1920	 0.35624112338663 
1921	 0.355396124785075 
1922	 0.354607303809288 
1923	 0.353935955375326 
1924	 0.35332567663835 
1925	 0.352813535728202 
1926	 0.352339207708278 
1927	 0.351936278844968 
1928	 0.351566311712066 
1929	 0.351255503924843 
1930	 0.351028455111537 
1931	 0.350831172208053 
1932	 0.350680608701608 
1933	 0.350582301851357 
1934	 0.350527073336178 
1935	 0.350520342905424 
1936	 0.350576279372092 
1937	 0.350654846183157 
1938	 0.350773002096249 
1939	 0.350926098993971 
1940	 0.351123817310654 
1941	 0.351342375452441 
1942	 0.351567088095268 
1943	 0.351816478009644 
1944	 0.352088598254735 
1945	 0.352375002293149 
1946	 0.352695675741462 
1947	 0.353067957518665 
1948	 0.353436594170987 
1949	 0.35383541234277 
1950	 0.354219347684274 
1951	 0.354607001625454 
1952	 0.355002407994198 
1953	 0.355374819698641 
1954	 0.355777845951802 
1955	 0.356239485511431 
1956	 0.356721012052013 
1957	 0.357214180663955 
1958	 0.357762389897093 
1959	 0.358267887604009 
1960	 0.358753856062569 
1961	 0.359260525798337 
1962	 0.35975563896143 
1963	 0.360285226716928 
1964	 0.360844440273656 
1965	 0.361400371254649 
1966	 0.361981627156224 
1967	 0.362550883328962 
1968	 0.363133918271708 
1969	 0.36372682839086 
1970	 0.364323209425554 
1971	 0.364953981417759 
1972	 0.365534019782641 
1973	 0.366094506077016 
1974	 0.366642551973929 
1975	 0.367149196076331 
1976	 0.367660568919855 
1977	 0.368207242120439 
1978	 0.368780874798218 
1979	 0.369378301697059 
1980	 0.370020637402237 
1981	 0.370641342575455 
1982	 0.371270309915893 
1983	 0.371895914311558 
1984	 0.372516821120563 
1985	 0.373139436236563 
1986	 0.373785769474262 
1987	 0.374397834315939 
1988	 0.374986827117105 
1989	 0.375589986249419 
1990	 0.376169610045103 
1991	 0.376736153166382 
1992	 0.377294543011763 
1993	 0.377843824748996 
1994	 0.378396689316636 
1995	 0.378928709734903 
1996	 0.379478459768398 
1997	 0.380042472493516 
1998	 0.380606680247674 
1999	 0.381172116499374 
2000	 0.38174121486429 
2001	 0.382320409852344 
2002	 0.382892408709973 
2003	 0.383476444367224 
2004	 0.384057032129717 
2005	 0.384621013076358 
2006	 0.385177493331999 
2007	 0.385737560262614 
2008	 0.38627502037015 
2009	 0.386834371712535 
2010	 0.387427340029001 
2011	 0.387983576203184 
2012	 0.388530202769695 
2013	 0.389069483466542 
2014	 0.389583312009746 
2015	 0.390098391356584 
2016	 0.390624583809526 
2017	 0.391137201645254 
2018	 0.391669934597787 
2019	 0.39222154368778 
2020	 0.392746853212666 
2021	 0.393284258854086 
2022	 0.393797134622917 
2023	 0.394270551328445 
2024	 0.394766999578313 
2025	 0.395267812111606 
2026	 0.395757225544443 
2027	 0.396248312607106 
2028	 0.396746503947226 
2029	 0.397213256633817 
2030	 0.397667118037289 
2031	 0.398105667274219 
2032	 0.398515121954172 
2033	 0.398933604568384 
2034	 0.399339500677241 
2035	 0.399750144357647 
2036	 0.400168375352812 
2037	 0.400577653622957 
2038	 0.400998635273831 
2039	 0.401382786266139 
2040	 0.40173977309538 
2041	 0.402093838158551 
2042	 0.402429539174321 
2043	 0.402773034665948 
2044	 0.403127529967415 
2045	 0.403500288844586 
2046	 0.403863666451696 
2047	 0.404240874415182 
2048	 0.404589198936077 
2049	 0.404927532228598 
2050	 0.405257155965783 
2051	 0.405583781200651 
2052	 0.405875442599317 
2053	 0.406135277091608 
2054	 0.406406187487866 
2055	 0.406650036203864 
2056	 0.406885367271071 
2057	 0.407152185474044 
2058	 0.40744625698893 
2059	 0.407724770718593 
2060	 0.408014547318458 
2061	 0.408289042052356 
2062	 0.408566995085205 
2063	 0.408823229191004 
2064	 0.409061679578158 
2065	 0.409296846655214 
2066	 0.409517422968835 
2067	 0.40973454754068 
2068	 0.409931631896131 
2069	 0.410150994138555 
2070	 0.410368911896625 
2071	 0.410573622111458 
2072	 0.41081265905982 
2073	 0.411080896522354 
2074	 0.41132987894549 
2075	 0.411591337127121 
2076	 0.411843493703182 
2077	 0.412083032838181 
2078	 0.412328890221012 
2079	 0.412582648086076 
2080	 0.412827055008564 
2081	 0.413054094591007 
2082	 0.413299580162955 
2083	 0.413541462300676 
2084	 0.413803590683967 
2085	 0.414071653256364 
2086	 0.41437463362241 
2087	 0.414625118816053 
2088	 0.414866369120482 
2089	 0.415092275529855 
2090	 0.4152771431228 
2091	 0.415482621949217 
2092	 0.415690879518797 
2093	 0.415895331001208 
2094	 0.416101609947763 
2095	 0.41630077865547 
2096	 0.416497005362261 
2097	 0.416690643386153 
2098	 0.416885670123442 
2099	 0.417062862964692 
2100	 0.417241791592797 
2101	 0.417412355588181 
2102	 0.417592449860597 
2103	 0.417759925946822 
2104	 0.417956768336665 
2105	 0.418183469400478 
2106	 0.41838577843177 
2107	 0.418583686423283 
2108	 0.418796143054528 
2109	 0.418987653587001 
2110	 0.419214299183285 
2111	 0.419460178309588 
2112	 0.419731057854107 
2113	 0.420051350763358 
2114	 0.420343223366707 
2115	 0.420643569539693 
2116	 0.42097200439234 
2117	 0.42126337614541 
2118	 0.421526590552521 
2119	 0.4218076800735 
2120	 0.422094116234637 
2121	 0.422362878907881 
2122	 0.422629165720371 
2123	 0.422888386911434 
2124	 0.423145186321694 
2125	 0.423374450870049 
2126	 0.423611827065094 
2127	 0.423800613179548 
2128	 0.42393640019792 
2129	 0.424069283657269 
2130	 0.424187573090101 
2131	 0.42427341410578 
2132	 0.424342899765903 
2133	 0.424394294543419 
2134	 0.424438091035201 
2135	 0.424453899266595 
2136	 0.424470457938298 
2137	 0.424494761546104 
2138	 0.424484414845867 
2139	 0.424459996559279 
2140	 0.42440412303644 
2141	 0.424316090430771 
2142	 0.424215130913309 
2143	 0.424072628140436 
2144	 0.423943136542504 
2145	 0.423824279163356 
2146	 0.423676239194672 
2147	 0.423510720252682 
2148	 0.423339776746395 
2149	 0.423161140144281 
2150	 0.422955571100616 
2151	 0.422756675361207 
2152	 0.422566181529941 
2153	 0.422356736212159 
2154	 0.422137002930967 
2155	 0.421901317663452 
2156	 0.421683715169403 
2157	 0.421397891969309 
2158	 0.421073860100665 
2159	 0.420721534757007 
2160	 0.420318990702313 
2161	 0.419896199675668 
2162	 0.419412681802976 
2163	 0.418963870939846 
2164	 0.418504411538756 
2165	 0.418042313747745 
2166	 0.417610678372404 
2167	 0.417223611587103 
2168	 0.416797820505622 
2169	 0.416354526451369 
2170	 0.415941141554071 
2171	 0.415532099234114 
2172	 0.415124331605619 
2173	 0.414742859898216 
2174	 0.414343232142213 
2175	 0.413941394939268 
2176	 0.413519657121053 
2177	 0.413106419723726 
2178	 0.412653236130959 
2179	 0.412166700495365 
2180	 0.411665677903813 
2181	 0.411111785357799 
2182	 0.410585338581308 
2183	 0.4100331974287 
2184	 0.409525128649391 
2185	 0.409026179662938 
2186	 0.408551971085954 
2187	 0.408078136648045 
2188	 0.407624474447361 
2189	 0.407153676103524 
2190	 0.406683232398009 
2191	 0.406215034074252 
2192	 0.405708898796842 
2193	 0.405276480240129 
2194	 0.404878630441085 
2195	 0.404494055868748 
2196	 0.404146874989037 
2197	 0.403825690992372 
2198	 0.403512688085757 
2199	 0.403235068815915 
2200	 0.403014124533923 
2201	 0.402797137424807 
2202	 0.402588248265666 
2203	 0.402411764098165 
2204	 0.402255335930349 
2205	 0.402112586625854 
2206	 0.402013027513378 
2207	 0.401960937851989 
2208	 0.401893224503083 
2209	 0.401843337389871 
2210	 0.401809576393452 
2211	 0.401769562279932 
2212	 0.401767712469691 
2213	 0.401813638472755 
2214	 0.40185153263293 
2215	 0.401917005866293 
2216	 0.401958791212209 
2217	 0.402017108362192 
2218	 0.402031583516552 
2219	 0.402009303897691 
2220	 0.401990556260155 
2221	 0.401953088277957 
2222	 0.401901413957369 
2223	 0.401857650961969 
2224	 0.401806569241278 
2225	 0.401751240839836 
2226	 0.401704069284042 
2227	 0.401599822854076 
2228	 0.401453374086385 
2229	 0.401351106798069 
2230	 0.401233890356479 
2231	 0.401105664948773 
2232	 0.401019461820732 
2233	 0.400877464747005 
2234	 0.400680673953284 
2235	 0.400494933933933 
2236	 0.400339099958801 
2237	 0.400102784312172 
2238	 0.399781410173693 
2239	 0.399499739099923 
2240	 0.399181891443396 
2241	 0.398885054735501 
2242	 0.39863668890639 
2243	 0.398361588697733 
2244	 0.398085692122619 
2245	 0.397767974406606 
2246	 0.39746435171298 
2247	 0.397115144924336 
2248	 0.396754897010904 
2249	 0.396365249034167 
2250	 0.395975484476723 
2251	 0.395546578250977 
2252	 0.395181679324153 
2253	 0.394825445973607 
2254	 0.394494117174692 
2255	 0.394213028929121 
2256	 0.393911105552294 
2257	 0.39358163652834 
2258	 0.39332661172979 
2259	 0.393097343530045 
2260	 0.392907454927378 
2261	 0.392786874932976 
2262	 0.392657340415787 
2263	 0.392549725860858 
2264	 0.392447493168894 
2265	 0.392326106474245 
2266	 0.392277653968478 
2267	 0.39225990469955 
2268	 0.392283769344011 
2269	 0.392356618028509 
2270	 0.3924958769555 
2271	 0.392653747524696 
2272	 0.392811840578749 
2273	 0.392999652625255 
2274	 0.393140688054467 
2275	 0.393267687372456 
2276	 0.393352370243926 
2277	 0.393476191757591 
2278	 0.393579808541458 
2279	 0.393740480679593 
2280	 0.393954270964244 
2281	 0.394137965713323 
2282	 0.394338211920336 
2283	 0.394541200213744 
2284	 0.394733795307211 
2285	 0.39492971648337 
2286	 0.395157381224993 
2287	 0.39534378108238 
2288	 0.395524460916845 
2289	 0.395664448524906 
2290	 0.395765572814675 
2291	 0.395863128064237 
2292	 0.395902794050307 
2293	 0.395975475138242 
2294	 0.396081366354123 
2295	 0.396151277882715 
2296	 0.396188564530645 
2297	 0.396274790097865 
2298	 0.396319410055378 
2299	 0.39636233318563 
2300	 0.396468100088304 
2301	 0.39653692285915 
2302	 0.396570167184874 
2303	 0.396591743532007 
2304	 0.396611788567579 
2305	 0.396652069650206 
2306	 0.396669961025886 
2307	 0.396720536880476 
2308	 0.396707751444602 
2309	 0.396617177564006 
2310	 0.396598175754463 
2311	 0.396587104100041 
2312	 0.396584890015276 
2313	 0.396641624788242 
2314	 0.396634526602145 
2315	 0.39659975065287 
2316	 0.396554242389857 
2317	 0.396486901628041 
2318	 0.39639605752819 
2319	 0.396245307445923 
2320	 0.396160462335 
2321	 0.396085317831949 
2322	 0.396021880420618 
2323	 0.396015237229492 
2324	 0.395993542906229 
2325	 0.395955948158773 
2326	 0.395927849227594 
2327	 0.395917526263684 
2328	 0.395902058502234 
2329	 0.395862704864453 
2330	 0.395829822521401 
2331	 0.395788188712552 
2332	 0.39568284689909 
2333	 0.395547634388894 
2334	 0.395406380597453 
2335	 0.395249265896361 
2336	 0.395111280297798 
2337	 0.395022391218059 
2338	 0.394893729252057 
2339	 0.394686485165012 
2340	 0.394456223648727 
2341	 0.394232797439 
2342	 0.394032816259165 
2343	 0.39388931575509 
2344	 0.393777270748938 
2345	 0.393557075330739 
2346	 0.393248495951699 
2347	 0.392966195334659 
2348	 0.392645815322054 
2349	 0.392318715568377 
2350	 0.392021840477459 
2351	 0.391662967688019 
2352	 0.391200367215829 
2353	 0.39081089033567 
2354	 0.390414124893701 
2355	 0.390067808345136 
2356	 0.389784812605381 
2357	 0.389505602002906 
2358	 0.389279093644634 
2359	 0.388986838942469 
2360	 0.388678598937548 
2361	 0.388349504941915 
2362	 0.387948412318855 
2363	 0.387610059827727 
2364	 0.387315905740261 
2365	 0.386976967717641 
2366	 0.386683575692892 
2367	 0.386306838829082 
2368	 0.385841893661179 
2369	 0.385394205495777 
2370	 0.38491188323683 
2371	 0.384419721552276 
2372	 0.383956898125277 
2373	 0.383527376449232 
2374	 0.38313597160224 
2375	 0.382670496325436 
2376	 0.382120475661415 
2377	 0.381587913694876 
2378	 0.381054447171969 
2379	 0.380518420206405 
2380	 0.380051710153715 
2381	 0.379636801849634 
2382	 0.379142833399679 
2383	 0.378616866118142 
2384	 0.378115358122233 
2385	 0.377561299799408 
2386	 0.376961872648383 
2387	 0.376365786245616 
2388	 0.375723411550457 
2389	 0.375065201226321 
2390	 0.374497824909296 
2391	 0.373942216134464 
2392	 0.37338592701871 
2393	 0.372809087239534 
2394	 0.37219949402897 
2395	 0.371601012083058 
2396	 0.371055986285382 
2397	 0.370589623280035 
2398	 0.3700387113752 
2399	 0.369482952034128 
2400	 0.368921730283983 
2401	 0.368240077038798 
2402	 0.367632816445148 
2403	 0.367090519056772 
2404	 0.366582072944175 
2405	 0.366052970659864 
2406	 0.365456634333005 
2407	 0.364828786927942 
2408	 0.364100807926328 
2409	 0.363422032311191 
2410	 0.36281063526374 
2411	 0.362220995044839 
2412	 0.361665794145987 
2413	 0.361137845178184 
2414	 0.360596888272045 
2415	 0.360032174250102 
2416	 0.35949109046676 
2417	 0.35894387660428 
2418	 0.358389571218334 
2419	 0.357857431325206 
2420	 0.357301320769582 
2421	 0.356750827166937 
2422	 0.356200311682629 
2423	 0.355642526277379 
2424	 0.35507234965924 
2425	 0.354485874835797 
2426	 0.353837033988216 
2427	 0.353151233026147 
2428	 0.352494928517663 
2429	 0.351781002281639 
2430	 0.351191246250114 
2431	 0.350674123161677 
2432	 0.350127325094518 
2433	 0.349711761974938 
2434	 0.34911586442593 
2435	 0.348291120339247 
2436	 0.347731212360238 
2437	 0.347326333719713 
2438	 0.346751644937007 
2439	 0.346241956775686 
2440	 0.345662811391937 
2441	 0.344837784954386 
2442	 0.344184790453324 
2443	 0.343702864364827 
2444	 0.343161274677678 
2445	 0.34259888799969 
2446	 0.342003117576056 
2447	 0.341376935854163 
2448	 0.340851238867292 
2449	 0.340363898615511 
2450	 0.339847679192412 
2451	 0.339393559301133 
2452	 0.338874752161714 
2453	 0.338306933496949 
2454	 0.337743543332983 
2455	 0.337180289148813 
2456	 0.336571417728311 
2457	 0.335890000345889 
2458	 0.335309338032027 
2459	 0.334764338858185 
2460	 0.334183294329395 
2461	 0.333630551458564 
2462	 0.33308014103996 
2463	 0.332521266551474 
2464	 0.332017951863682 
2465	 0.331517538988422 
2466	 0.331055716666627 
2467	 0.330567579730144 
2468	 0.33012158291458 
2469	 0.329845957043779 
2470	 0.329527611921019 
2471	 0.32918987036495 
2472	 0.32878724108454 
2473	 0.32829192648504 
2474	 0.327664490410764 
2475	 0.327092749537451 
2476	 0.326752350119366 
2477	 0.326256413452349 
2478	 0.325876793440813 
2479	 0.325573784696443 
2480	 0.324910381408873 
2481	 0.324183568359047 
2482	 0.323541995678183 
2483	 0.322911712263182 
2484	 0.322378369894712 
2485	 0.322009658052518 
2486	 0.321607914489745 
2487	 0.321191321336521 
2488	 0.320885428576216 
2489	 0.320433250869276 
2490	 0.320008911528038 
2491	 0.31952036632006 
2492	 0.318905629754908 
2493	 0.318533257724512 
2494	 0.31814979217647 
2495	 0.317868138034175 
2496	 0.317501214768333 
2497	 0.316980161498001 
2498	 0.31665457809082 
2499	 0.316216898614202 
2500	 0.315930426220152 
