Wavelength	mm23-100009.asd
350	 5.86377837788463E-02 
351	 6.36616490363827E-02 
352	 5.92413130171086E-02 
353	 5.02092609307831E-02 
354	 5.88855938782098E-02 
355	 6.24209650949371E-02 
356	 6.02636651907694E-02 
357	 5.83127655811988E-02 
358	 6.22876575670649E-02 
359	 0.062906055206468 
360	 6.01507133613678E-02 
361	 5.97710263777773E-02 
362	 0.057838894848384 
363	 5.93427081918104E-02 
364	 0.063495278618027 
365	 5.89647010306208E-02 
366	 5.66802063768427E-02 
367	 5.65625385269623E-02 
368	 5.65927152237001E-02 
369	 6.06830473560353E-02 
370	 6.17429525748852E-02 
371	 6.04711079453474E-02 
372	 0.06244917961261 
373	 6.21427377369769E-02 
374	 6.14560003402243E-02 
375	 0.062539436663619 
376	 6.67837861701508E-02 
377	 6.54464824706662E-02 
378	 6.32624303049784E-02 
379	 6.62639505763147E-02 
380	 0.067425764330365 
381	 6.70041050812203E-02 
382	 6.68023846141321E-02 
383	 6.91292904249891E-02 
384	 6.97830231922317E-02 
385	 6.90859106765622E-02 
386	 6.87573101777245E-02 
387	 7.20309275835601E-02 
388	 7.39818669251482E-02 
389	 7.43997399443257E-02 
390	 7.45067506304004E-02 
391	 7.41141135163153E-02 
392	 7.50832449109098E-02 
393	 0.077741142063976 
394	 8.09321092804526E-02 
395	 8.24740658272348E-02 
396	 8.32186781463178E-02 
397	 8.41311714249903E-02 
398	 8.52152887733968E-02 
399	 8.63946632843045E-02 
400	 8.79948128917819E-02 
401	 9.01914987790902E-02 
402	 9.18202542630574E-02 
403	 9.18571671879334E-02 
404	 9.15006688909333E-02 
405	 9.39174651892508E-02 
406	 9.62444629635532E-02 
407	 9.81444836244976E-02 
408	 9.95742055666976E-02 
409	 9.98329481757187E-02 
410	 9.91704377075775E-02 
411	 0.099157416251939 
412	 0.101264780946439 
413	 0.10187687756737 
414	 0.102075499951418 
415	 0.102760768719175 
416	 0.104063198386096 
417	 0.104086096343352 
418	 0.104027049921892 
419	 0.105071231271808 
420	 0.105862023724036 
421	 0.105119063494266 
422	 0.104129648917244 
423	 0.10537572505351 
424	 0.105331174918854 
425	 0.104497244186241 
426	 0.103728630207069 
427	 0.10357301815027 
428	 0.102937131243345 
429	 0.102098821771459 
430	 0.10164539685083 
431	 0.101302881339789 
432	 0.100981950457983 
433	 0.1006691073002 
434	 0.100421582543893 
435	 0.100538990868543 
436	 0.100883754818025 
437	 0.101158107638497 
438	 0.100771185124754 
439	 0.101086261388874 
440	 0.101940037338286 
441	 0.102462361252346 
442	 0.102889423943556 
443	 0.103767104355442 
444	 0.105067063175175 
445	 0.105871978817594 
446	 0.106817169709327 
447	 0.107602284662266 
448	 0.107972873692752 
449	 0.108955192953342 
450	 0.110034349227303 
451	 0.111019463418419 
452	 0.11201794526636 
453	 0.112487016618511 
454	 0.113129958399051 
455	 0.114251634836006 
456	 0.114642478957753 
457	 0.115071889656418 
458	 0.115651529235594 
459	 0.116211576465507 
460	 0.116798558662791 
461	 0.1173287165009 
462	 0.117794890901757 
463	 0.118310263887152 
464	 0.118677834643661 
465	 0.118999596471854 
466	 0.119387564360245 
467	 0.119629793318687 
468	 0.119912338364332 
469	 0.120273325078357 
470	 0.120619845208642 
471	 0.120875206317589 
472	 0.121174094965015 
473	 0.121524076343146 
474	 0.121518728703174 
475	 0.121606310115507 
476	 0.121817554958737 
477	 0.12202940713217 
478	 0.122484153609714 
479	 0.122722760648425 
480	 0.122685299970476 
481	 0.122926539336164 
482	 0.123390107817841 
483	 0.123781100768572 
484	 0.123868005576936 
485	 0.12399548840795 
486	 0.124068518994056 
487	 0.124125964714072 
488	 0.124313768927879 
489	 0.124515867217258 
490	 0.124790960769409 
491	 0.125131654927031 
492	 0.125306683420962 
493	 0.125347017799479 
494	 0.125432610132784 
495	 0.125769510815421 
496	 0.12617329113907 
497	 0.126315351588963 
498	 0.126242379117668 
499	 0.126567545760585 
500	 0.126776401587521 
501	 0.12684555856245 
502	 0.126900069964442 
503	 0.127026878058641 
504	 0.12730473909669 
505	 0.127626329067095 
506	 0.127735864721593 
507	 0.127843271850149 
508	 0.127969851323873 
509	 0.12809755432916 
510	 0.128199257952873 
511	 0.12832743995211 
512	 0.128474257240223 
513	 0.128605144679052 
514	 0.128761087688697 
515	 0.128941138694613 
516	 0.129125880416779 
517	 0.129273364013905 
518	 0.129414809882057 
519	 0.12953583082873 
520	 0.129629906403257 
521	 0.129805789923313 
522	 0.129974043243782 
523	 0.130102976448664 
524	 0.130232577018794 
525	 0.130340687860084 
526	 0.130490508988863 
527	 0.130695868414683 
528	 0.130754429459104 
529	 0.130846844302896 
530	 0.130995191429118 
531	 0.13112080081712 
532	 0.131277843569415 
533	 0.131524523585008 
534	 0.131809651631766 
535	 0.131832945404923 
536	 0.131934806625345 
537	 0.132166594586766 
538	 0.132435985010969 
539	 0.132535494844356 
540	 0.132585758245018 
541	 0.132712442225748 
542	 0.133012366034721 
543	 0.133260430660632 
544	 0.133434133157714 
545	 0.133593357440575 
546	 0.133875720401995 
547	 0.134125161787575 
548	 0.134327993424546 
549	 0.134594676789953 
550	 0.134894551347155 
551	 0.135172479582058 
552	 0.135410424755209 
553	 0.135699164483191 
554	 0.135980318116818 
555	 0.136281166691297 
556	 0.136662000099587 
557	 0.137070229418219 
558	 0.1373875792181 
559	 0.137645730422025 
560	 0.138156242293463 
561	 0.138598156872041 
562	 0.139057316003544 
563	 0.139716091130881 
564	 0.140477976915846 
565	 0.141265072453553 
566	 0.142013621060397 
567	 0.142678024727457 
568	 0.143269797191841 
569	 0.143782100978037 
570	 0.144248185238486 
571	 0.144834663737968 
572	 0.145474748055372 
573	 0.14615706670481 
574	 0.146909909813338 
575	 0.147715509925925 
576	 0.148720166114368 
577	 0.14994858969035 
578	 0.151131777640128 
579	 0.152218808591866 
580	 0.153194604527899 
581	 0.154083356954959 
582	 0.154930724680276 
583	 0.155751043974433 
584	 0.156632322385975 
585	 0.157773978837053 
586	 0.159138766277116 
587	 0.160635727177377 
588	 0.162141499474985 
589	 0.163534120738215 
590	 0.164794900417394 
591	 0.165995657544557 
592	 0.167273092480284 
593	 0.168336326955238 
594	 0.169169061550434 
595	 0.169896336774902 
596	 0.170829222191733 
597	 0.171983265197303 
598	 0.173231506856445 
599	 0.174398548758555 
600	 0.175698826671315 
601	 0.177012338126219 
602	 0.178231471404123 
603	 0.17933945626985 
604	 0.180403449693157 
605	 0.181484863782464 
606	 0.182611098162677 
607	 0.183661226540149 
608	 0.184575119900819 
609	 0.18542467515326 
610	 0.186421031185552 
611	 0.187318255022653 
612	 0.188109449167947 
613	 0.188833469433414 
614	 0.189469065491998 
615	 0.190139271895597 
616	 0.1908516833148 
617	 0.191526996961797 
618	 0.192161002040419 
619	 0.1927505816297 
620	 0.193298518707872 
621	 0.193809857121453 
622	 0.194299281416991 
623	 0.194775348672825 
624	 0.195237340223522 
625	 0.195629478732567 
626	 0.196084795029103 
627	 0.196618020623854 
628	 0.197070557857374 
629	 0.197534178695771 
630	 0.197945936694374 
631	 0.198261307116858 
632	 0.198649527681736 
633	 0.199073706104818 
634	 0.199490299726305 
635	 0.199858042663454 
636	 0.200210460589059 
637	 0.200572825532362 
638	 0.200942134764491 
639	 0.201243221485058 
640	 0.201595811709839 
641	 0.201987429369746 
642	 0.202354894516589 
643	 0.202772854535908 
644	 0.203189266449568 
645	 0.203574672540724 
646	 0.203947790151835 
647	 0.204319881682485 
648	 0.204701157132219 
649	 0.205103261595477 
650	 0.205554757448462 
651	 0.205978791123395 
652	 0.206386812609942 
653	 0.206863021562899 
654	 0.207315630615751 
655	 0.207716187461489 
656	 0.208099442680388 
657	 0.20862584386673 
658	 0.209177845072981 
659	 0.209703684081245 
660	 0.210187598016193 
661	 0.210641862290053 
662	 0.211160750300136 
663	 0.211735594770792 
664	 0.212197368986794 
665	 0.212737303792824 
666	 0.213322838079484 
667	 0.213883010574012 
668	 0.214467919678918 
669	 0.215098030091209 
670	 0.21577259375327 
671	 0.216466340860789 
672	 0.217072485201625 
673	 0.217675295834044 
674	 0.218331832339699 
675	 0.218942659112885 
676	 0.219623211311954 
677	 0.220361520706408 
678	 0.221090428106138 
679	 0.221785707898223 
680	 0.222501589023273 
681	 0.22325579490501 
682	 0.224009184796018 
683	 0.224783579987396 
684	 0.225550974036192 
685	 0.2263015589297 
686	 0.227139108741147 
687	 0.227981833834882 
688	 0.22880749385397 
689	 0.229640248062297 
690	 0.230506796565911 
691	 0.231394568846262 
692	 0.232282896436362 
693	 0.233148262408891 
694	 0.234021521262675 
695	 0.234915200713946 
696	 0.235825376449505 
697	 0.236689436757449 
698	 0.237605256765908 
699	 0.238584582841251 
700	 0.23953824983165 
701	 0.240411899200978 
702	 0.241321167898802 
703	 0.242337650814815 
704	 0.243308797783416 
705	 0.244252388169783 
706	 0.245189710525412 
707	 0.246144729310402 
708	 0.247128557204995 
709	 0.248104049840832 
710	 0.249046820324822 
711	 0.249959955104631 
712	 0.250886146417989 
713	 0.251823049346276 
714	 0.252758140478785 
715	 0.253699546061098 
716	 0.254589430851432 
717	 0.255446676689737 
718	 0.256344537170632 
719	 0.257280597600325 
720	 0.258174560393403 
721	 0.258982165814878 
722	 0.259749959095257 
723	 0.260521997628918 
724	 0.261232184750516 
725	 0.261836872024569 
726	 0.262604888427519 
727	 0.263361043047907 
728	 0.264033880891088 
729	 0.264669122759816 
730	 0.265252204042688 
731	 0.26578188109495 
732	 0.266271359888129 
733	 0.266759051519259 
734	 0.267271939540951 
735	 0.26774039716001 
736	 0.26807943671459 
737	 0.268381903165786 
738	 0.268702176905164 
739	 0.269019727672741 
740	 0.26923988898003 
741	 0.26944996106805 
742	 0.26958465593924 
743	 0.269626778861592 
744	 0.269785565119361 
745	 0.269840330121721 
746	 0.269823674192545 
747	 0.269858772805591 
748	 0.269776922231974 
749	 0.269655762118233 
750	 0.269550881070821 
751	 0.269462729402024 
752	 0.26931433676027 
753	 0.269072326973404 
754	 0.268758704316291 
755	 0.268513616125948 
756	 0.268269078884463 
757	 0.267931539617492 
758	 0.2674414524543 
759	 0.267077520767525 
760	 0.266687461719461 
761	 0.266213974677118 
762	 0.265769469991508 
763	 0.265338993276702 
764	 0.264865504036093 
765	 0.26432439562878 
766	 0.263815304714635 
767	 0.263297440195855 
768	 0.262763120625691 
769	 0.262214269558629 
770	 0.261598187397005 
771	 0.261010083600521 
772	 0.260455829625675 
773	 0.259823168720145 
774	 0.259196818351259 
775	 0.258577982840871 
776	 0.257948200964588 
777	 0.257284449938262 
778	 0.25661928279694 
779	 0.255994124111213 
780	 0.25542992155065 
781	 0.254812880418988 
782	 0.254155884785993 
783	 0.253487856847607 
784	 0.252842648311528 
785	 0.252173076371463 
786	 0.251542862344429 
787	 0.25097275743159 
788	 0.250325036880083 
789	 0.249753175522983 
790	 0.249170112036185 
791	 0.248456281546837 
792	 0.247817056226287 
793	 0.247185152703988 
794	 0.246563644685648 
795	 0.246013356603541 
796	 0.245369090855622 
797	 0.244729072707301 
798	 0.244161660323704 
799	 0.243602991890377 
800	 0.243095792383483 
801	 0.242540459486534 
802	 0.24187125865134 
803	 0.241305082200289 
804	 0.240814504182341 
805	 0.240320035303619 
806	 0.239738317072424 
807	 0.239221415852546 
808	 0.238755342155051 
809	 0.238285696133667 
810	 0.237734747296476 
811	 0.237213308536514 
812	 0.23668907610262 
813	 0.236160954773318 
814	 0.235810941366414 
815	 0.235447605251269 
816	 0.235028396770987 
817	 0.234575163061895 
818	 0.234070207219049 
819	 0.233641852854378 
820	 0.233282175643887 
821	 0.232871348969258 
822	 0.232506879919935 
823	 0.232099081093008 
824	 0.231645684247078 
825	 0.231325182110452 
826	 0.23104566117916 
827	 0.230745219519891 
828	 0.230400485326282 
829	 0.230091061279328 
830	 0.229716235691189 
831	 0.229324315234979 
832	 0.229029460826077 
833	 0.22887042637705 
834	 0.228630050089541 
835	 0.228282511856817 
836	 0.22799743230542 
837	 0.227779977734701 
838	 0.227599164500656 
839	 0.227410935586226 
840	 0.227167759262993 
841	 0.226897894662023 
842	 0.226658364653964 
843	 0.226476779426486 
844	 0.226264972923751 
845	 0.226093772032742 
846	 0.225941705549529 
847	 0.225775470361958 
848	 0.225762198353848 
849	 0.225684203737733 
850	 0.225496209156517 
851	 0.225322004274212 
852	 0.225185561109434 
853	 0.225095834516536 
854	 0.225034472440063 
855	 0.224954272962082 
856	 0.224903500032744 
857	 0.224840128133096 
858	 0.22475372245636 
859	 0.224769982134937 
860	 0.224776314884964 
861	 0.224757231832061 
862	 0.224723772280691 
863	 0.224628328205674 
864	 0.224614930750268 
865	 0.22468402164861 
866	 0.224741911737607 
867	 0.224763092836185 
868	 0.224785026462265 
869	 0.22481633814034 
870	 0.224836078306499 
871	 0.224937832978491 
872	 0.225082213054046 
873	 0.225219789015239 
874	 0.225325980420044 
875	 0.225411278343256 
876	 0.225475656509903 
877	 0.225552191132309 
878	 0.225766247006419 
879	 0.225999664983651 
880	 0.226208907942891 
881	 0.226378336046655 
882	 0.226482266569986 
883	 0.226622160933592 
884	 0.226829568965941 
885	 0.227080571517672 
886	 0.227320038513403 
887	 0.227537821378288 
888	 0.227749035483068 
889	 0.227987206673767 
890	 0.228279702544026 
891	 0.228570722587958 
892	 0.228850974358788 
893	 0.229176991672881 
894	 0.229442173389055 
895	 0.22972865504144 
896	 0.230067335179582 
897	 0.230331023706679 
898	 0.230747725267314 
899	 0.231186089039248 
900	 0.231508009886645 
901	 0.231811587077201 
902	 0.232185764998519 
903	 0.232613106490708 
904	 0.233041649802505 
905	 0.233468110079699 
906	 0.233916954837729 
907	 0.234404575637174 
908	 0.234921018319936 
909	 0.235363666173842 
910	 0.235799026209595 
911	 0.236239404270439 
912	 0.236672620791095 
913	 0.237216308222422 
914	 0.237815774880835 
915	 0.238414124611152 
916	 0.238971449222272 
917	 0.239450984631937 
918	 0.239987583691977 
919	 0.240600037413809 
920	 0.241161159276629 
921	 0.241841065029296 
922	 0.242459760517419 
923	 0.242997987164166 
924	 0.243737917797163 
925	 0.244429079339511 
926	 0.245082736365593 
927	 0.245749387390345 
928	 0.246443692650939 
929	 0.247132670724992 
930	 0.247915216941782 
931	 0.248795367226517 
932	 0.249498178443699 
933	 0.250243271975024 
934	 0.251035385033992 
935	 0.251836084512271 
936	 0.252673265108447 
937	 0.253506145168329 
938	 0.254322018616255 
939	 0.255141602072327 
940	 0.256047038596886 
941	 0.257033804862123 
942	 0.258018998030502 
943	 0.258919847269349 
944	 0.259776182522891 
945	 0.260634974391608 
946	 0.261560113963842 
947	 0.26257498385366 
948	 0.263529164569554 
949	 0.264516293136384 
950	 0.265497913880567 
951	 0.26641895476151 
952	 0.267498621887405 
953	 0.268537196173265 
954	 0.269569514222876 
955	 0.270735657568596 
956	 0.271922638410782 
957	 0.273045631009821 
958	 0.274127859296545 
959	 0.275246894969842 
960	 0.276357890595582 
961	 0.277558269415806 
962	 0.278805537193758 
963	 0.279958608832219 
964	 0.280905218679089 
965	 0.282071776449759 
966	 0.283437103674006 
967	 0.284691840704942 
968	 0.285945460527739 
969	 0.287206727761606 
970	 0.288448827303129 
971	 0.28964652056439 
972	 0.290942967485513 
973	 0.292186184427168 
974	 0.293428968103079 
975	 0.294830626344349 
976	 0.296256225201509 
977	 0.297587292477126 
978	 0.298898976608976 
979	 0.300330297826543 
980	 0.301630867184262 
981	 0.302904167935525 
982	 0.304206010667234 
983	 0.305544572622669 
984	 0.3069322784709 
985	 0.308275339641992 
986	 0.309612914185174 
987	 0.311019024302676 
988	 0.312342561860312 
989	 0.313551609698403 
990	 0.314824909945393 
991	 0.316356320535128 
992	 0.317931693419484 
993	 0.319386316845666 
994	 0.320698849698365 
995	 0.321959270021311 
996	 0.323352832349591 
997	 0.32477635903429 
998	 0.326097971329169 
999	 0.327303592841015 
1000	 0.328772660986771 
1001	 0.329461227856583 
1002	 0.330721516672267 
1003	 0.331962136844463 
1004	 0.333188243581073 
1005	 0.334406428045784 
1006	 0.335642066107386 
1007	 0.336855910728576 
1008	 0.338104133924032 
1009	 0.339373664742331 
1010	 0.340607276408716 
1011	 0.341784622456467 
1012	 0.342859549934599 
1013	 0.343953836034328 
1014	 0.345114525003525 
1015	 0.346244223827087 
1016	 0.347407993313488 
1017	 0.348559779820304 
1018	 0.349717812306486 
1019	 0.350770343343149 
1020	 0.351819948863356 
1021	 0.352888353391312 
1022	 0.353894779845982 
1023	 0.354890195871641 
1024	 0.355960436588358 
1025	 0.357006384248054 
1026	 0.357993334332261 
1027	 0.358983147557103 
1028	 0.35994167701969 
1029	 0.360899052593157 
1030	 0.361878385078859 
1031	 0.362818067084486 
1032	 0.363743005683596 
1033	 0.36465694384565 
1034	 0.365558189093592 
1035	 0.366428400767336 
1036	 0.367377498029046 
1037	 0.368346828573289 
1038	 0.369272532194261 
1039	 0.370267767266366 
1040	 0.371214064714158 
1041	 0.372112169550448 
1042	 0.373055621720171 
1043	 0.3738794493914 
1044	 0.374747563498704 
1045	 0.375603018314576 
1046	 0.376544365489663 
1047	 0.377396867211939 
1048	 0.378296894376111 
1049	 0.379235535647245 
1050	 0.380042239638207 
1051	 0.380876578559456 
1052	 0.381761207227412 
1053	 0.382572932225425 
1054	 0.383447590636394 
1055	 0.384380671634515 
1056	 0.385276566674315 
1057	 0.386160759094976 
1058	 0.387061610440171 
1059	 0.387917325797 
1060	 0.388729869575881 
1061	 0.389542082925081 
1062	 0.390324697203995 
1063	 0.391143512950986 
1064	 0.391989788122565 
1065	 0.392837437468597 
1066	 0.393680542549064 
1067	 0.394488012657326 
1068	 0.395256740601611 
1069	 0.396007660266921 
1070	 0.396765023522374 
1071	 0.397515252919612 
1072	 0.398292599921688 
1073	 0.399082312291084 
1074	 0.399859334239156 
1075	 0.400673955950543 
1076	 0.401416194123862 
1077	 0.402117341816589 
1078	 0.402775456088526 
1079	 0.403420973155908 
1080	 0.404109143256079 
1081	 0.404776017248565 
1082	 0.405483820537014 
1083	 0.406187755436417 
1084	 0.406877488121348 
1085	 0.407587229641517 
1086	 0.408337098151621 
1087	 0.409025956096085 
1088	 0.409691556861314 
1089	 0.410364709291214 
1090	 0.410986372632424 
1091	 0.411620838670272 
1092	 0.412273209957575 
1093	 0.412902468388463 
1094	 0.413527112240732 
1095	 0.414163781133981 
1096	 0.414773492868177 
1097	 0.415353890102645 
1098	 0.415954953195722 
1099	 0.416564563142454 
1100	 0.417170620911922 
1101	 0.417790806427705 
1102	 0.418388372728456 
1103	 0.419001812160043 
1104	 0.419535218446588 
1105	 0.42007488372125 
1106	 0.420654922198765 
1107	 0.421230403571906 
1108	 0.421796339935938 
1109	 0.422368169322126 
1110	 0.42296204334632 
1111	 0.423540510867336 
1112	 0.424126865096954 
1113	 0.424692788105153 
1114	 0.425249350214117 
1115	 0.425791879655697 
1116	 0.426315842891501 
1117	 0.426845075245612 
1118	 0.427369207340052 
1119	 0.42788754606224 
1120	 0.428420848697172 
1121	 0.428942269584179 
1122	 0.429466015833894 
1123	 0.429982316711575 
1124	 0.430506384286701 
1125	 0.431040600906368 
1126	 0.431549977999536 
1127	 0.432044653533055 
1128	 0.432549952949028 
1129	 0.433043787765763 
1130	 0.433539332536405 
1131	 0.434059623270637 
1132	 0.434551595769498 
1133	 0.434994429174113 
1134	 0.435482976869437 
1135	 0.435979359510703 
1136	 0.436489858377155 
1137	 0.437043380486385 
1138	 0.437560960272604 
1139	 0.438048802523067 
1140	 0.438505131036103 
1141	 0.438971175407988 
1142	 0.43941894420794 
1143	 0.439866425692708 
1144	 0.440323189937449 
1145	 0.440760297091672 
1146	 0.441170309165781 
1147	 0.441590681482939 
1148	 0.442019943118122 
1149	 0.442425988975534 
1150	 0.442803758029683 
1151	 0.443220843036336 
1152	 0.443604450773837 
1153	 0.44398284404816 
1154	 0.444388697607922 
1155	 0.444816310521877 
1156	 0.445225995350206 
1157	 0.445654310652506 
1158	 0.446052424878611 
1159	 0.446427952694169 
1160	 0.446810825431066 
1161	 0.447187440424834 
1162	 0.447560166568051 
1163	 0.447947580755777 
1164	 0.448305627485966 
1165	 0.448633446605828 
1166	 0.44897283968604 
1167	 0.449317487704609 
1168	 0.449641803762356 
1169	 0.449974250574623 
1170	 0.450315535516943 
1171	 0.450652534909604 
1172	 0.450983970238757 
1173	 0.451316400520657 
1174	 0.45165746074953 
1175	 0.451987238688384 
1176	 0.45231243038582 
1177	 0.452626643589268 
1178	 0.452936045093081 
1179	 0.453241229075811 
1180	 0.453536292479326 
1181	 0.453827337563986 
1182	 0.454106404558113 
1183	 0.454389709737056 
1184	 0.454694415287084 
1185	 0.455001054631086 
1186	 0.455319831512335 
1187	 0.455678287004945 
1188	 0.45599060123372 
1189	 0.456292585870981 
1190	 0.456580027670816 
1191	 0.456843846124234 
1192	 0.457110431886992 
1193	 0.457364775620748 
1194	 0.457623159680825 
1195	 0.457862672245184 
1196	 0.45812770158925 
1197	 0.458430212253028 
1198	 0.458699048035436 
1199	 0.458959725466595 
1200	 0.459227829701854 
1201	 0.459474762760058 
1202	 0.459681304467336 
1203	 0.459924318907661 
1204	 0.460181098718472 
1205	 0.460433707359338 
1206	 0.46069468840943 
1207	 0.460949981155722 
1208	 0.461210672416463 
1209	 0.461457425699139 
1210	 0.461700847243416 
1211	 0.46193528034882 
1212	 0.4621560797655 
1213	 0.462375760690692 
1214	 0.462579527528622 
1215	 0.462797464949128 
1216	 0.463019918092521 
1217	 0.463247047673922 
1218	 0.463467233969302 
1219	 0.463691940433228 
1220	 0.463918175247924 
1221	 0.464136808673048 
1222	 0.464363154228484 
1223	 0.464613813031919 
1224	 0.464832474933631 
1225	 0.465028957345915 
1226	 0.465237925926863 
1227	 0.465436759121432 
1228	 0.465639936493427 
1229	 0.465863807897157 
1230	 0.466066789052252 
1231	 0.466256627879828 
1232	 0.466442797145221 
1233	 0.466622048542946 
1234	 0.466787185566011 
1235	 0.466964432541364 
1236	 0.467145294453546 
1237	 0.467318431810593 
1238	 0.467496898183341 
1239	 0.467660860281822 
1240	 0.46781267000978 
1241	 0.467964333234309 
1242	 0.468096871012101 
1243	 0.468253785939559 
1244	 0.468423759884013 
1245	 0.468587408256635 
1246	 0.468759114568949 
1247	 0.468933857074449 
1248	 0.469100412174734 
1249	 0.469282053758273 
1250	 0.469451982190714 
1251	 0.469630241589492 
1252	 0.469798691966958 
1253	 0.469957551552856 
1254	 0.470110250290641 
1255	 0.470269213575055 
1256	 0.470407316438448 
1257	 0.470531360079283 
1258	 0.470643754865574 
1259	 0.470718365219979 
1260	 0.470835901381699 
1261	 0.470966184260503 
1262	 0.471090246436772 
1263	 0.471253477420884 
1264	 0.471385391151975 
1265	 0.471475532126928 
1266	 0.47158942208714 
1267	 0.471707980822829 
1268	 0.471823868971396 
1269	 0.471957231166179 
1270	 0.472101019877279 
1271	 0.472260526151797 
1272	 0.472437513862733 
1273	 0.472609278100206 
1274	 0.472793088251377 
1275	 0.472976662210512 
1276	 0.473145779753888 
1277	 0.473344235634128 
1278	 0.473568296265577 
1279	 0.473785262011311 
1280	 0.473995007393081 
1281	 0.474241047738996 
1282	 0.474535711276125 
1283	 0.474780189770058 
1284	 0.475024411652606 
1285	 0.475273314530065 
1286	 0.475459324725508 
1287	 0.475633622285014 
1288	 0.475831254057871 
1289	 0.476042259148365 
1290	 0.476241160338379 
1291	 0.476434308052476 
1292	 0.47663855003266 
1293	 0.476860350221107 
1294	 0.477044749178751 
1295	 0.477242331298301 
1296	 0.477385769385535 
1297	 0.477464029789854 
1298	 0.477572933416181 
1299	 0.477664120014483 
1300	 0.477758423117757 
1301	 0.477873343691672 
1302	 0.477962089132676 
1303	 0.478024281698456 
1304	 0.478102422171053 
1305	 0.478158094988737 
1306	 0.478194684308477 
1307	 0.478234383302744 
1308	 0.478271563419714 
1309	 0.478289529835964 
1310	 0.478296620608915 
1311	 0.478296265155841 
1312	 0.478281466242758 
1313	 0.478260054679568 
1314	 0.478233839362375 
1315	 0.478202714469825 
1316	 0.478157289090103 
1317	 0.478113315070815 
1318	 0.478058735202725 
1319	 0.478016765843237 
1320	 0.477979269028648 
1321	 0.477939691180758 
1322	 0.477900072848828 
1323	 0.477884061277533 
1324	 0.477832863538719 
1325	 0.477761169655563 
1326	 0.477709532327276 
1327	 0.477637081859103 
1328	 0.477553003680998 
1329	 0.477484713628831 
1330	 0.477397135775779 
1331	 0.477287800391907 
1332	 0.477180869595668 
1333	 0.477078081123222 
1334	 0.47695969346014 
1335	 0.476807991066354 
1336	 0.476699530195813 
1337	 0.476605102667953 
1338	 0.476511366687765 
1339	 0.476451311437848 
1340	 0.476360072519247 
1341	 0.476258243652088 
1342	 0.476149929058943 
1343	 0.476012543083822 
1344	 0.475903361602801 
1345	 0.475818954914775 
1346	 0.475708461515388 
1347	 0.475617077396251 
1348	 0.475529448394111 
1349	 0.475399567723083 
1350	 0.475267139179075 
1351	 0.475160691425097 
1352	 0.47506347265325 
1353	 0.474964626830156 
1354	 0.474890015351749 
1355	 0.474788200330872 
1356	 0.474664122405457 
1357	 0.474556919053147 
1358	 0.474439142218046 
1359	 0.474349186082811 
1360	 0.474276031534162 
1361	 0.474200080098164 
1362	 0.47415276271921 
1363	 0.474082005950971 
1364	 0.473998754768005 
1365	 0.473920839069495 
1366	 0.473832173656194 
1367	 0.473744691296575 
1368	 0.473690758339947 
1369	 0.473627367234583 
1370	 0.473528318535056 
1371	 0.473409053466625 
1372	 0.473248227460535 
1373	 0.47306637155165 
1374	 0.47289321611824 
1375	 0.472729966295389 
1376	 0.472524958464352 
1377	 0.472316623760372 
1378	 0.472057109143379 
1379	 0.471751136076517 
1380	 0.471447760137441 
1381	 0.471099113224567 
1382	 0.47076958692734 
1383	 0.470473706729257 
1384	 0.470113763082283 
1385	 0.469757941315238 
1386	 0.469335669849499 
1387	 0.468848379018414 
1388	 0.468335218291929 
1389	 0.467786333124587 
1390	 0.467197186653647 
1391	 0.466588000709468 
1392	 0.465920412945057 
1393	 0.465156546362193 
1394	 0.46436258653467 
1395	 0.463490270297285 
1396	 0.462591516882083 
1397	 0.461702012895239 
1398	 0.460798669186812 
1399	 0.459880886016662 
1400	 0.458947304918868 
1401	 0.458017521012099 
1402	 0.457057058008631 
1403	 0.45614699239447 
1404	 0.455245428837736 
1405	 0.454384359013905 
1406	 0.453565572490421 
1407	 0.452748240096134 
1408	 0.451936882041143 
1409	 0.451169455999645 
1410	 0.450389941416904 
1411	 0.449702179458876 
1412	 0.449061440764775 
1413	 0.448491704678238 
1414	 0.448037881153056 
1415	 0.447617064268 
1416	 0.447256125124004 
1417	 0.446956717995411 
1418	 0.446637309606275 
1419	 0.44634941586721 
1420	 0.446114090786216 
1421	 0.445882519666515 
1422	 0.445661000930927 
1423	 0.445446851708088 
1424	 0.445195799520922 
1425	 0.444903160284427 
1426	 0.444640715078663 
1427	 0.444352741434822 
1428	 0.4441220970435 
1429	 0.443923393753158 
1430	 0.443734904280376 
1431	 0.443596915225967 
1432	 0.44342191098786 
1433	 0.443227526378263 
1434	 0.443060648166367 
1435	 0.442863477187848 
1436	 0.442733786107889 
1437	 0.442658913835721 
1438	 0.442584460340783 
1439	 0.442552459007835 
1440	 0.442520751386768 
1441	 0.442447081023854 
1442	 0.442367848768013 
1443	 0.442281742608784 
1444	 0.442199462298749 
1445	 0.442132511910719 
1446	 0.442092722703061 
1447	 0.442071804477585 
1448	 0.442027283329354 
1449	 0.441947841401865 
1450	 0.441865553127006 
1451	 0.441781375567159 
1452	 0.441657216123361 
1453	 0.441572857650908 
1454	 0.44152062070653 
1455	 0.441445598847244 
1456	 0.441373319729135 
1457	 0.441286297251957 
1458	 0.441186475990823 
1459	 0.441090389900209 
1460	 0.440967239341529 
1461	 0.440889019402598 
1462	 0.440838505191609 
1463	 0.440780307823097 
1464	 0.440742270357689 
1465	 0.440698892084004 
1466	 0.44062586124405 
1467	 0.440600765404354 
1468	 0.440575643302943 
1469	 0.440615934446962 
1470	 0.440711399212879 
1471	 0.44082547796402 
1472	 0.440993008255986 
1473	 0.441169646712532 
1474	 0.44133222980187 
1475	 0.441523040420275 
1476	 0.441694904118329 
1477	 0.44189058416708 
1478	 0.442118195705623 
1479	 0.442332697685617 
1480	 0.442578539068932 
1481	 0.442838698533478 
1482	 0.443091146419683 
1483	 0.443353615902698 
1484	 0.443600425467333 
1485	 0.443822457339141 
1486	 0.444090496801917 
1487	 0.444374927423669 
1488	 0.444655320308461 
1489	 0.444985140118519 
1490	 0.445255309075589 
1491	 0.445495530424062 
1492	 0.445722155408511 
1493	 0.44590907001066 
1494	 0.446122267822498 
1495	 0.44632686926914 
1496	 0.446541568638362 
1497	 0.446790886354484 
1498	 0.446997859902055 
1499	 0.447195616018424 
1500	 0.44737248632872 
1501	 0.447493721556773 
1502	 0.44765244985821 
1503	 0.447821514949525 
1504	 0.447980607534538 
1505	 0.448160734021475 
1506	 0.448360644145632 
1507	 0.448539888337205 
1508	 0.448707088377838 
1509	 0.448856324937043 
1510	 0.449000347208622 
1511	 0.449138511736779 
1512	 0.449270491548044 
1513	 0.449409194209778 
1514	 0.449566942431266 
1515	 0.449753450045527 
1516	 0.449937714312444 
1517	 0.450103225464662 
1518	 0.450283630692619 
1519	 0.450425072910324 
1520	 0.450528383911052 
1521	 0.450645437262186 
1522	 0.450749721003303 
1523	 0.450868949492527 
1524	 0.450988841164619 
1525	 0.451109925435516 
1526	 0.45123622738875 
1527	 0.451367348880525 
1528	 0.451512257283366 
1529	 0.451629269968523 
1530	 0.4517456676346 
1531	 0.451848863109088 
1532	 0.451920456381357 
1533	 0.452003960179362 
1534	 0.452090470788055 
1535	 0.452171612819844 
1536	 0.452232971482204 
1537	 0.452321674309743 
1538	 0.452421807528649 
1539	 0.452531373305337 
1540	 0.452667671736441 
1541	 0.452791603635671 
1542	 0.452923427702832 
1543	 0.453036975237119 
1544	 0.453139921097291 
1545	 0.453241932120374 
1546	 0.453341975271623 
1547	 0.453421122416373 
1548	 0.453495225406073 
1549	 0.453554507051675 
1550	 0.453597748791645 
1551	 0.453645374113353 
1552	 0.453687839808514 
1553	 0.453747851286735 
1554	 0.453839251458503 
1555	 0.453912811350087 
1556	 0.453974370353185 
1557	 0.454039001980256 
1558	 0.454078624807584 
1559	 0.454124110699305 
1560	 0.454183685561752 
1561	 0.454260834998873 
1562	 0.454329185259175 
1563	 0.454395617506301 
1564	 0.454475023134338 
1565	 0.454570068864126 
1566	 0.454645854015459 
1567	 0.454718909027434 
1568	 0.454793158657696 
1569	 0.454857011192301 
1570	 0.454921662900674 
1571	 0.455003695659232 
1572	 0.455055820415971 
1573	 0.455090022043601 
1574	 0.455115069765233 
1575	 0.455116442693339 
1576	 0.455133534484042 
1577	 0.455147675532089 
1578	 0.455161497963007 
1579	 0.455164255896226 
1580	 0.45520125979039 
1581	 0.455251905292274 
1582	 0.455304421876056 
1583	 0.45540500059778 
1584	 0.455458665948488 
1585	 0.45548839922075 
1586	 0.455515669385894 
1587	 0.455514475654103 
1588	 0.45553132460389 
1589	 0.455551892839742 
1590	 0.455566393078259 
1591	 0.45557897574837 
1592	 0.455605278559741 
1593	 0.455635634368893 
1594	 0.455663249183586 
1595	 0.455710299540934 
1596	 0.4557377799443 
1597	 0.455742639842934 
1598	 0.4557618867309 
1599	 0.45579465056504 
1600	 0.45580295189238 
1601	 0.455802524193551 
1602	 0.455801642201006 
1603	 0.455767133655999 
1604	 0.455758939027482 
1605	 0.455765358125356 
1606	 0.455779056555517 
1607	 0.455802251012454 
1608	 0.455841351405774 
1609	 0.455894201160853 
1610	 0.455921645939326 
1611	 0.45592407839383 
1612	 0.455925096900068 
1613	 0.455878959865396 
1614	 0.455837931011136 
1615	 0.455829710466071 
1616	 0.455817900135597 
1617	 0.455829622792417 
1618	 0.455845696198414 
1619	 0.455856364985425 
1620	 0.455861569262706 
1621	 0.455860666635842 
1622	 0.455875975572865 
1623	 0.455831267181259 
1624	 0.455745904353413 
1625	 0.455685963735984 
1626	 0.455589347984977 
1627	 0.455539918471844 
1628	 0.455523315124545 
1629	 0.455504137194558 
1630	 0.455489215833265 
1631	 0.45549394551864 
1632	 0.45552596971141 
1633	 0.455529589163585 
1634	 0.45554060377125 
1635	 0.455531104559245 
1636	 0.455509212721588 
1637	 0.455460864359392 
1638	 0.45538235410617 
1639	 0.45533547750774 
1640	 0.455268221220785 
1641	 0.45523428850746 
1642	 0.455230059033694 
1643	 0.455234705935398 
1644	 0.455269081976578 
1645	 0.455255575784093 
1646	 0.455242339458599 
1647	 0.455218689503267 
1648	 0.455153366234722 
1649	 0.455107340012586 
1650	 0.45507079894972 
1651	 0.455043834280208 
1652	 0.455011022674346 
1653	 0.45498485176036 
1654	 0.454979306769185 
1655	 0.454968100759123 
1656	 0.454964496387193 
1657	 0.454926883962056 
1658	 0.454890215345116 
1659	 0.454825719418987 
1660	 0.454718397619706 
1661	 0.454618189849039 
1662	 0.454492693700776 
1663	 0.454408990593638 
1664	 0.454328587869616 
1665	 0.454265021174331 
1666	 0.454236107979047 
1667	 0.454205608724911 
1668	 0.454179380828872 
1669	 0.454154716267055 
1670	 0.454165445659135 
1671	 0.454125555448302 
1672	 0.454054823481466 
1673	 0.453990966941792 
1674	 0.453892881042076 
1675	 0.453830320536684 
1676	 0.453796046495634 
1677	 0.453737794472682 
1678	 0.453679150364529 
1679	 0.45362057190487 
1680	 0.453556664021839 
1681	 0.453480328726449 
1682	 0.45338982870935 
1683	 0.453326666943689 
1684	 0.45327563200067 
1685	 0.453196583751779 
1686	 0.453125782042667 
1687	 0.453049219520169 
1688	 0.452916782491776 
1689	 0.452851037998138 
1690	 0.452834396685818 
1691	 0.452804405964292 
1692	 0.452809055995637 
1693	 0.452774040049125 
1694	 0.452710785992254 
1695	 0.4526718468033 
1696	 0.452617064857803 
1697	 0.45258835321002 
1698	 0.452607559553732 
1699	 0.452579592539023 
1700	 0.452557156543282 
1701	 0.452484850927679 
1702	 0.452365150758181 
1703	 0.45224597720554 
1704	 0.452092086362139 
1705	 0.451949564673716 
1706	 0.451794298867319 
1707	 0.451662942245747 
1708	 0.45153144748094 
1709	 0.451420325188904 
1710	 0.451341450011692 
1711	 0.451245510840096 
1712	 0.451155317574947 
1713	 0.451056164189012 
1714	 0.450942784767759 
1715	 0.450844504662947 
1716	 0.450741880676036 
1717	 0.450659724519993 
1718	 0.450600010723101 
1719	 0.45053097048677 
1720	 0.450480224111257 
1721	 0.450401231804541 
1722	 0.450307427988871 
1723	 0.450206908705507 
1724	 0.450088222415366 
1725	 0.449977215158003 
1726	 0.4498693452739 
1727	 0.449747928982767 
1728	 0.449612351081617 
1729	 0.449487987603248 
1730	 0.449364280663318 
1731	 0.449233208957935 
1732	 0.44911047249192 
1733	 0.44897274636072 
1734	 0.448822517358541 
1735	 0.448660999597413 
1736	 0.448477496533672 
1737	 0.448334550307821 
1738	 0.448196209384152 
1739	 0.448064797271548 
1740	 0.447968019581108 
1741	 0.447844105106571 
1742	 0.44770206577654 
1743	 0.447567380885682 
1744	 0.447445290436484 
1745	 0.447296633525208 
1746	 0.447133509540147 
1747	 0.446975008628727 
1748	 0.446790728438046 
1749	 0.446617658081801 
1750	 0.446445582592548 
1751	 0.446261569029985 
1752	 0.446093432742163 
1753	 0.445934897592878 
1754	 0.445777221456811 
1755	 0.4456260013068 
1756	 0.445464091190852 
1757	 0.445281869242603 
1758	 0.445133027734937 
1759	 0.445029223328803 
1760	 0.44493211613914 
1761	 0.444854666477803 
1762	 0.444741933960191 
1763	 0.444570811962777 
1764	 0.444404854506846 
1765	 0.444247415676227 
1766	 0.444089500303517 
1767	 0.443927623779681 
1768	 0.443775296477358 
1769	 0.443644155887811 
1770	 0.44355127550851 
1771	 0.44349330868882 
1772	 0.443426237719118 
1773	 0.443323628722885 
1774	 0.443207110054008 
1775	 0.443076019684456 
1776	 0.44290967716133 
1777	 0.442750982249655 
1778	 0.442555055096264 
1779	 0.442338227172321 
1780	 0.442223574251833 
1781	 0.442133043780835 
1782	 0.44206801805573 
1783	 0.442085174816623 
1784	 0.442047001880544 
1785	 0.442010933524953 
1786	 0.441962668187102 
1787	 0.441888213851143 
1788	 0.441817024121994 
1789	 0.441737056297954 
1790	 0.441665353359251 
1791	 0.441593970972127 
1792	 0.441511675235708 
1793	 0.44142510364474 
1794	 0.44134434677216 
1795	 0.441243449354254 
1796	 0.441180064454445 
1797	 0.441155913155888 
1798	 0.441106383493898 
1799	 0.44108539955567 
1800	 0.441018093823966 
1801	 0.445508408617454 
1802	 0.445737982283151 
1803	 0.446061405079902 
1804	 0.446472165555326 
1805	 0.44691374748067 
1806	 0.44734986456914 
1807	 0.447734231227445 
1808	 0.448055393347598 
1809	 0.448322349651472 
1810	 0.448539091494747 
1811	 0.448700188713294 
1812	 0.448845321266939 
1813	 0.448931617509569 
1814	 0.448967271024822 
1815	 0.448951852903436 
1816	 0.448920201954436 
1817	 0.448889541437289 
1818	 0.448799352033974 
1819	 0.448758607103561 
1820	 0.448738645426605 
1821	 0.4487367711479 
1822	 0.448714363102678 
1823	 0.448692124133222 
1824	 0.44864761122371 
1825	 0.448525530338381 
1826	 0.448407695478388 
1827	 0.448305639012708 
1828	 0.448165417597837 
1829	 0.448018383914023 
1830	 0.447849898458977 
1831	 0.447651739805796 
1832	 0.447424206262309 
1833	 0.447201217670389 
1834	 0.446984031350133 
1835	 0.44680517989677 
1836	 0.446611563512041 
1837	 0.44646194801674 
1838	 0.446345834105105 
1839	 0.446193403121051 
1840	 0.446027293743272 
1841	 0.445881940202501 
1842	 0.445698384706984 
1843	 0.445480430464532 
1844	 0.445297349782267 
1845	 0.445115146196404 
1846	 0.444946547091024 
1847	 0.444838206114754 
1848	 0.44476803249532 
1849	 0.444702450833341 
1850	 0.444647363886703 
1851	 0.444632330494346 
1852	 0.444593095422972 
1853	 0.444523095760165 
1854	 0.444452078970068 
1855	 0.444360904896881 
1856	 0.444225689681032 
1857	 0.444025904528005 
1858	 0.443801442260233 
1859	 0.443546681914878 
1860	 0.443278696365724 
1861	 0.442986297936759 
1862	 0.442698759849596 
1863	 0.442378294066845 
1864	 0.442029962246371 
1865	 0.441635211392619 
1866	 0.441216638593335 
1867	 0.440798909203788 
1868	 0.440297524931549 
1869	 0.439723549284856 
1870	 0.43913439923376 
1871	 0.438513677948529 
1872	 0.437842014188897 
1873	 0.437159718351979 
1874	 0.436450961676529 
1875	 0.435665987926438 
1876	 0.434777985200215 
1877	 0.433791087939807 
1878	 0.432719308403965 
1879	 0.431535399538062 
1880	 0.430228606877813 
1881	 0.428795530627929 
1882	 0.427278612348675 
1883	 0.425663281727361 
1884	 0.423907840519332 
1885	 0.422077893690651 
1886	 0.420102014361325 
1887	 0.417955969510555 
1888	 0.415701919542686 
1889	 0.413324634780602 
1890	 0.410868100800258 
1891	 0.4083722964284 
1892	 0.405774942780595 
1893	 0.403169097495841 
1894	 0.400521030673805 
1895	 0.39783888683124 
1896	 0.395089224540828 
1897	 0.392411921053217 
1898	 0.389700671750122 
1899	 0.386992197010055 
1900	 0.384398582808581 
1901	 0.381818124682036 
1902	 0.379336406329758 
1903	 0.376959037612291 
1904	 0.37463919144777 
1905	 0.372368219455659 
1906	 0.370205310646286 
1907	 0.368134240024656 
1908	 0.366161740235269 
1909	 0.364315151574888 
1910	 0.362542883541813 
1911	 0.360851693365976 
1912	 0.359251228300806 
1913	 0.357719465130638 
1914	 0.356236520361762 
1915	 0.354874571726232 
1916	 0.353604677080356 
1917	 0.352423725789709 
1918	 0.351361061595006 
1919	 0.350364101058182 
1920	 0.34944863477984 
1921	 0.348617131271977 
1922	 0.347834244185385 
1923	 0.347150681536862 
1924	 0.346544691337547 
1925	 0.346037353568168 
1926	 0.345571543793063 
1927	 0.345179133538078 
1928	 0.344842495084304 
1929	 0.344553822844506 
1930	 0.34430624873206 
1931	 0.344118614414166 
1932	 0.343999574224788 
1933	 0.343931142249496 
1934	 0.343908588943309 
1935	 0.343924059072161 
1936	 0.343984688954959 
1937	 0.344084587863418 
1938	 0.344235060943763 
1939	 0.344405203048446 
1940	 0.344617996749612 
1941	 0.344848187648036 
1942	 0.345096506694478 
1943	 0.345379289213174 
1944	 0.345664596924295 
1945	 0.34597500290499 
1946	 0.346312123200888 
1947	 0.346646050633564 
1948	 0.347039997563294 
1949	 0.347513233070172 
1950	 0.347953609210953 
1951	 0.348398484555418 
1952	 0.348893430855711 
1953	 0.349348490279961 
1954	 0.349800933518901 
1955	 0.350302707260113 
1956	 0.3508068303314 
1957	 0.351346650040864 
1958	 0.351933803206672 
1959	 0.35250113067649 
1960	 0.353085931547618 
1961	 0.353665844044401 
1962	 0.354239176976293 
1963	 0.354816297843835 
1964	 0.35538492131507 
1965	 0.355987275380906 
1966	 0.356594260951064 
1967	 0.357196693882725 
1968	 0.357830655619582 
1969	 0.358505571167186 
1970	 0.359154465731355 
1971	 0.359818043662823 
1972	 0.36046070039299 
1973	 0.361093780462511 
1974	 0.361716252018561 
1975	 0.362314575086408 
1976	 0.362928390561787 
1977	 0.363566529619483 
1978	 0.364175129851842 
1979	 0.364805133541266 
1980	 0.365466153464453 
1981	 0.366110147216939 
1982	 0.366745331586241 
1983	 0.367396668499743 
1984	 0.368055548499857 
1985	 0.368710065468466 
1986	 0.369384783172602 
1987	 0.370034213416855 
1988	 0.370676274795715 
1989	 0.37131237748062 
1990	 0.371907711403327 
1991	 0.372488889548891 
1992	 0.373092863793814 
1993	 0.373692272859757 
1994	 0.374291523916239 
1995	 0.374910815605441 
1996	 0.375512486583557 
1997	 0.376090460014166 
1998	 0.376681275974223 
1999	 0.377281360364945 
2000	 0.37787865745885 
2001	 0.378470982891979 
2002	 0.379069170704528 
2003	 0.379676783062368 
2004	 0.380274627311551 
2005	 0.380873735660235 
2006	 0.381478973246148 
2007	 0.382074919692333 
2008	 0.382659164461676 
2009	 0.383248633105694 
2010	 0.383835711476619 
2011	 0.384426143553459 
2012	 0.385042601855694 
2013	 0.385622698939228 
2014	 0.386191985185257 
2015	 0.386736634810694 
2016	 0.387275028581935 
2017	 0.387804779765874 
2018	 0.388339274538923 
2019	 0.388879954287552 
2020	 0.389417498087869 
2021	 0.389946287227044 
2022	 0.390480305679156 
2023	 0.39101678376121 
2024	 0.3915621496478 
2025	 0.392125362341946 
2026	 0.392665168480712 
2027	 0.393216755423054 
2028	 0.3937361309098 
2029	 0.394242491438748 
2030	 0.394725162672482 
2031	 0.395199979371132 
2032	 0.395666214062213 
2033	 0.396109116516959 
2034	 0.396520739970665 
2035	 0.396940471367575 
2036	 0.397344301185594 
2037	 0.39775477157174 
2038	 0.398171354670183 
2039	 0.398579357561518 
2040	 0.398982949045901 
2041	 0.399374568698743 
2042	 0.399785072684356 
2043	 0.400193001209396 
2044	 0.400592222948512 
2045	 0.400992395505212 
2046	 0.401393434761112 
2047	 0.401790569695267 
2048	 0.402176419077164 
2049	 0.402588972857331 
2050	 0.402947475047557 
2051	 0.403257907330439 
2052	 0.403578621256795 
2053	 0.403874028496376 
2054	 0.404166718764667 
2055	 0.404452210765426 
2056	 0.404751833328881 
2057	 0.405030005736815 
2058	 0.405282227706334 
2059	 0.405563402743126 
2060	 0.40585009741646 
2061	 0.406137340263563 
2062	 0.40644703515172 
2063	 0.406734721253826 
2064	 0.406998252074465 
2065	 0.407282738441893 
2066	 0.407583734127302 
2067	 0.407863101840298 
2068	 0.408132431150108 
2069	 0.408423816120141 
2070	 0.408685569714956 
2071	 0.408916038994794 
2072	 0.409166464360178 
2073	 0.40942610068604 
2074	 0.409666280043737 
2075	 0.409897607688797 
2076	 0.410134385320489 
2077	 0.410348943516245 
2078	 0.410590266561507 
2079	 0.410847947600651 
2080	 0.411104913726822 
2081	 0.411377771572653 
2082	 0.411644873500693 
2083	 0.411915481928556 
2084	 0.41218043787952 
2085	 0.412444131837301 
2086	 0.412715247753478 
2087	 0.412958660794196 
2088	 0.41318787158484 
2089	 0.413416524060847 
2090	 0.413627158661401 
2091	 0.41383832108008 
2092	 0.41404486509437 
2093	 0.414256485138514 
2094	 0.414465366321626 
2095	 0.414671212104887 
2096	 0.414883211234597 
2097	 0.415089826009246 
2098	 0.415292720488225 
2099	 0.415480574850807 
2100	 0.415680963695198 
2101	 0.415876212665453 
2102	 0.41609735876051 
2103	 0.416338230433123 
2104	 0.41656405751039 
2105	 0.416793099342134 
2106	 0.417034270211426 
2107	 0.417270744912589 
2108	 0.417514579734211 
2109	 0.417787546666603 
2110	 0.41804248865314 
2111	 0.418278122671803 
2112	 0.418525361549847 
2113	 0.418769554353234 
2114	 0.419027008635764 
2115	 0.419289799881621 
2116	 0.419557729118557 
2117	 0.41983934649056 
2118	 0.420129861953861 
2119	 0.42043210053524 
2120	 0.420759729796599 
2121	 0.421065772085203 
2122	 0.421388722953258 
2123	 0.421675745877148 
2124	 0.42195339808948 
2125	 0.42219599612797 
2126	 0.422417566774659 
2127	 0.422607253887653 
2128	 0.42274624855794 
2129	 0.42288777138831 
2130	 0.423010109989396 
2131	 0.423119465645442 
2132	 0.423217675049199 
2133	 0.423315363878655 
2134	 0.423385749309989 
2135	 0.423430167553737 
2136	 0.423470700016183 
2137	 0.423506821346853 
2138	 0.423507284314622 
2139	 0.423498733976389 
2140	 0.423451782909408 
2141	 0.423356198752729 
2142	 0.423260864902484 
2143	 0.42314032295281 
2144	 0.423012533370361 
2145	 0.422868813709364 
2146	 0.422723123525008 
2147	 0.422565971830127 
2148	 0.422400538622438 
2149	 0.422245051192144 
2150	 0.422096544292533 
2151	 0.421933000999244 
2152	 0.421784112570467 
2153	 0.421587775021138 
2154	 0.421378069182353 
2155	 0.421126972179764 
2156	 0.420850474933442 
2157	 0.420528534539108 
2158	 0.420151077067726 
2159	 0.419770997010569 
2160	 0.419332258690016 
2161	 0.418919835528959 
2162	 0.418508637155267 
2163	 0.418101614132907 
2164	 0.417702081566546 
2165	 0.417305074625501 
2166	 0.416897821304324 
2167	 0.41649063879438 
2168	 0.416069560511288 
2169	 0.415625801987152 
2170	 0.415212714444791 
2171	 0.414798129624366 
2172	 0.414401528527657 
2173	 0.414039989966525 
2174	 0.4136529667307 
2175	 0.413271606640745 
2176	 0.412871027513991 
2177	 0.412477151628768 
2178	 0.412036328595233 
2179	 0.411559618971505 
2180	 0.41107533524587 
2181	 0.410538322653027 
2182	 0.410021667578872 
2183	 0.409494542572945 
2184	 0.408986524375307 
2185	 0.408499413269316 
2186	 0.40802420088519 
2187	 0.407561874139349 
2188	 0.407133367177363 
2189	 0.406682102488859 
2190	 0.406219191184244 
2191	 0.40578032628968 
2192	 0.405340339674052 
2193	 0.404922194119 
2194	 0.404510820783754 
2195	 0.404134843241721 
2196	 0.403788387515061 
2197	 0.403448798017748 
2198	 0.403133209622806 
2199	 0.402841848474948 
2200	 0.402552419600774 
2201	 0.40229641437669 
2202	 0.402068721691148 
2203	 0.401877969947282 
2204	 0.401711239515741 
2205	 0.40156871278144 
2206	 0.401458209257058 
2207	 0.401391986321215 
2208	 0.401320851405931 
2209	 0.401265425208899 
2210	 0.401236087366425 
2211	 0.401226499317586 
2212	 0.401224792578629 
2213	 0.401238796224297 
2214	 0.4012795683819 
2215	 0.401368327584728 
2216	 0.401411543640518 
2217	 0.401485731151008 
2218	 0.401505894235263 
2219	 0.401438960232465 
2220	 0.40141711763961 
2221	 0.401405092041465 
2222	 0.401388779956425 
2223	 0.401370798698996 
2224	 0.401307848096016 
2225	 0.401221514733992 
2226	 0.40107561184064 
2227	 0.400966742262325 
2228	 0.400850110330833 
2229	 0.400745606135195 
2230	 0.400656169744904 
2231	 0.400545645433129 
2232	 0.400441289766617 
2233	 0.400310889546865 
2234	 0.400182673119236 
2235	 0.399997678991349 
2236	 0.39977852800139 
2237	 0.399538946538649 
2238	 0.399234119170706 
2239	 0.398949762506331 
2240	 0.398632345460264 
2241	 0.398356666821843 
2242	 0.398136114881974 
2243	 0.397861645392038 
2244	 0.397595985216875 
2245	 0.397302707335486 
2246	 0.39695634890412 
2247	 0.396605896155503 
2248	 0.396238445745628 
2249	 0.395862940649885 
2250	 0.395482186422306 
2251	 0.395066210965268 
2252	 0.39467209655771 
2253	 0.394287172702868 
2254	 0.393904792125349 
2255	 0.393507289623604 
2256	 0.393154331750067 
2257	 0.3927854068333 
2258	 0.392515622307394 
2259	 0.392310523112283 
2260	 0.392133296242568 
2261	 0.392051548583935 
2262	 0.391940956533962 
2263	 0.391840632661846 
2264	 0.391748414269258 
2265	 0.39161119563141 
2266	 0.391582363186482 
2267	 0.391634073299801 
2268	 0.391678842868127 
2269	 0.39177315826511 
2270	 0.391919443699143 
2271	 0.392039998994643 
2272	 0.39215718341791 
2273	 0.392323146584262 
2274	 0.392438837134994 
2275	 0.392531930658701 
2276	 0.392564267866997 
2277	 0.392677024374781 
2278	 0.392784416163058 
2279	 0.3929425298261 
2280	 0.39317075979924 
2281	 0.393371352534929 
2282	 0.393574611020411 
2283	 0.393800974650178 
2284	 0.39405595052866 
2285	 0.394284733697854 
2286	 0.394549215712085 
2287	 0.394744840563279 
2288	 0.394873459627984 
2289	 0.395032029787683 
2290	 0.3951999100767 
2291	 0.395315661702983 
2292	 0.39543034319036 
2293	 0.39550335505492 
2294	 0.395460451138285 
2295	 0.395484231432871 
2296	 0.395509132739629 
2297	 0.395578515638838 
2298	 0.395673916284752 
2299	 0.395808488916764 
2300	 0.395912045018758 
2301	 0.395969099830732 
2302	 0.395960071157674 
2303	 0.395917430957606 
2304	 0.395907859014729 
2305	 0.395862643659961 
2306	 0.395843298754508 
2307	 0.395853746935406 
2308	 0.395859348871899 
2309	 0.395870566998733 
2310	 0.395860493604163 
2311	 0.395872826161388 
2312	 0.395822254669577 
2313	 0.395691871754362 
2314	 0.395621173327475 
2315	 0.39556410847912 
2316	 0.395484963468886 
2317	 0.395416683101682 
2318	 0.395347859043996 
2319	 0.39526256189891 
2320	 0.395161821700122 
2321	 0.39505073555193 
2322	 0.394961957574135 
2323	 0.394850641246973 
2324	 0.394771195875521 
2325	 0.394760926014369 
2326	 0.394707087072909 
2327	 0.394653861756889 
2328	 0.394554685042013 
2329	 0.394429920640065 
2330	 0.394312263346793 
2331	 0.394230068283739 
2332	 0.39415865753068 
2333	 0.39407881937151 
2334	 0.393986864705892 
2335	 0.393890534516087 
2336	 0.393736696900401 
2337	 0.393603307480424 
2338	 0.393495177281602 
2339	 0.393341738578685 
2340	 0.393173599976473 
2341	 0.392959338477016 
2342	 0.392724252090143 
2343	 0.392455697746474 
2344	 0.392198814464056 
2345	 0.391944119299854 
2346	 0.391705421573263 
2347	 0.39142527280967 
2348	 0.391149068700256 
2349	 0.390808344798586 
2350	 0.390390362451248 
2351	 0.390041281638566 
2352	 0.389678842667524 
2353	 0.389337776975011 
2354	 0.389060978407367 
2355	 0.388735597863097 
2356	 0.388361935480956 
2357	 0.388027117880634 
2358	 0.387717586530612 
2359	 0.387373305504655 
2360	 0.387063608278436 
2361	 0.386684646820984 
2362	 0.386218371036063 
2363	 0.385807219103192 
2364	 0.385373808413363 
2365	 0.384947429439151 
2366	 0.384552850083263 
2367	 0.384162627876014 
2368	 0.383811293823596 
2369	 0.383384559106681 
2370	 0.382943974871682 
2371	 0.382452901364404 
2372	 0.381904549284783 
2373	 0.381411673710517 
2374	 0.380976613934541 
2375	 0.380551309079497 
2376	 0.380113140957552 
2377	 0.379612309595278 
2378	 0.379127949781296 
2379	 0.37862528936663 
2380	 0.378112718587289 
2381	 0.377611679167326 
2382	 0.377064829800915 
2383	 0.376533071065232 
2384	 0.37601884964552 
2385	 0.375538114640729 
2386	 0.374989213967201 
2387	 0.374385739648478 
2388	 0.373786933804388 
2389	 0.373115489435257 
2390	 0.372506725739123 
2391	 0.371916643467397 
2392	 0.37130826171919 
2393	 0.370721655960954 
2394	 0.370066051229151 
2395	 0.369436184860469 
2396	 0.368789337723299 
2397	 0.368143512669719 
2398	 0.367621880682283 
2399	 0.367117495363366 
2400	 0.366611334834673 
2401	 0.36613578482407 
2402	 0.365486014784932 
2403	 0.364700940349997 
2404	 0.364036331636488 
2405	 0.363279085593742 
2406	 0.362585227684488 
2407	 0.362115893888493 
2408	 0.361518343477773 
2409	 0.360820930668747 
2410	 0.360182124951206 
2411	 0.35946806213305 
2412	 0.358710835168443 
2413	 0.358149508091688 
2414	 0.357578623827594 
2415	 0.357033687878772 
2416	 0.356522901862501 
2417	 0.356073068915309 
2418	 0.355566758813479 
2419	 0.35504879724278 
2420	 0.354501788797032 
2421	 0.35398609592543 
2422	 0.353398456975994 
2423	 0.35275645073168 
2424	 0.3521256539224 
2425	 0.35143042420909 
2426	 0.35076292858216 
2427	 0.350093879160168 
2428	 0.349496781462893 
2429	 0.348951620903537 
2430	 0.348337081990447 
2431	 0.347667130795244 
2432	 0.347097993453454 
2433	 0.346621124444513 
2434	 0.346037339768518 
2435	 0.345466091208277 
2436	 0.344965171421769 
2437	 0.344409768454552 
2438	 0.343818049826597 
2439	 0.343325184623647 
2440	 0.342745965888155 
2441	 0.341994557092938 
2442	 0.34139825656093 
2443	 0.340853063713348 
2444	 0.340347742568226 
2445	 0.339949011908679 
2446	 0.339436995096587 
2447	 0.339001463988236 
2448	 0.338425530680857 
2449	 0.337655078721125 
2450	 0.336995440594297 
2451	 0.33622590131747 
2452	 0.335582374035381 
2453	 0.335126264642681 
2454	 0.334577700651576 
2455	 0.33408693394705 
2456	 0.333571339557188 
2457	 0.332919868194278 
2458	 0.332388971507356 
2459	 0.331920336898419 
2460	 0.33137748801638 
2461	 0.33089195526669 
2462	 0.330438701724964 
2463	 0.329981388453842 
2464	 0.329445662642776 
2465	 0.328924328112126 
2466	 0.328334903894407 
2467	 0.327630696047938 
2468	 0.326952455994692 
2469	 0.326237009927629 
2470	 0.325616773403703 
2471	 0.325052988438879 
2472	 0.324678892562199 
2473	 0.324413857433154 
2474	 0.324101617896497 
2475	 0.323735244685567 
2476	 0.323300080859598 
2477	 0.322719325594488 
2478	 0.322147038124143 
2479	 0.321585792495541 
2480	 0.320999984118075 
2481	 0.320428106827385 
2482	 0.319961024535252 
2483	 0.319548302030617 
2484	 0.319152061917136 
2485	 0.318800557041703 
2486	 0.318407455330198 
2487	 0.31793944573006 
2488	 0.317273043305982 
2489	 0.31662872934442 
2490	 0.315912158473155 
2491	 0.315183249919371 
2492	 0.314714192066499 
2493	 0.314281960131769 
2494	 0.313984827868585 
2495	 0.313632120010105 
2496	 0.313285930274073 
2497	 0.313014213771949 
2498	 0.312483447984432 
2499	 0.312064187019775 
2500	 0.311532192637042 
