Wavelength	mm23-200005.asd
350	 5.23288782787939E-02 
351	 6.60037196521645E-02 
352	 0.066170833937996 
353	 4.78256762367731E-02 
354	 5.44519530179876E-02 
355	 5.75385115146108E-02 
356	 5.39602017198834E-02 
357	 4.87997529846747E-02 
358	 0.051086204271318 
359	 5.17950973591706E-02 
360	 4.99377699137002E-02 
361	 4.97572762935838E-02 
362	 4.88667747490119E-02 
363	 4.79338725910665E-02 
364	 4.69653265091575E-02 
365	 4.39689153437979E-02 
366	 4.63680832845067E-02 
367	 0.049483583092708 
368	 4.85861332406394E-02 
369	 5.29474579577335E-02 
370	 5.44625041249153E-02 
371	 5.32073353259357E-02 
372	 0.054655559999908 
373	 5.47228387765008E-02 
374	 5.39327106791279E-02 
375	 5.33461393628605E-02 
376	 5.39748681556148E-02 
377	 5.40063525677777E-02 
378	 5.51312734646168E-02 
379	 5.86268305654016E-02 
380	 5.98258734218462E-02 
381	 5.98733115696676E-02 
382	 6.11248640863271E-02 
383	 6.59005823373158E-02 
384	 6.68286305225019E-02 
385	 6.47027135545419E-02 
386	 6.24956654102586E-02 
387	 6.46074391516486E-02 
388	 7.04152778598323E-02 
389	 7.40733284952086E-02 
390	 7.12735242494282E-02 
391	 7.31030741313571E-02 
392	 7.50957430228856E-02 
393	 7.70619541787987E-02 
394	 8.24265027459359E-02 
395	 8.35168775449494E-02 
396	 8.39374454299562E-02 
397	 8.69965922315867E-02 
398	 9.19594006808178E-02 
399	 9.28948347624257E-02 
400	 9.35418748537595E-02 
401	 9.89860329088473E-02 
402	 9.97831540016257E-02 
403	 0.100855963432841 
404	 0.103855340155858 
405	 0.106318384506539 
406	 0.107820003796537 
407	 0.109232148753956 
408	 0.110765600520085 
409	 0.109953412774361 
410	 0.109816756117121 
411	 0.110628214594055 
412	 0.111352323218737 
413	 0.11214158621425 
414	 0.11152736450311 
415	 0.109816728839433 
416	 0.109667814387099 
417	 0.108228354367171 
418	 0.106844558888582 
419	 0.106745733244491 
420	 0.10531516557122 
421	 0.103625297358099 
422	 0.102431675218909 
423	 0.102066870330759 
424	 0.10117577968504 
425	 9.90879601860352E-02 
426	 9.62880635975109E-02 
427	 0.095069755942687 
428	 9.40428037099496E-02 
429	 9.30000703155722E-02 
430	 9.21215102209733E-02 
431	 9.16251025156098E-02 
432	 9.14344783208278E-02 
433	 9.17281605670089E-02 
434	 9.29056935779041E-02 
435	 9.43216790221685E-02 
436	 9.59291342757344E-02 
437	 9.78048575156563E-02 
438	 9.99561011373363E-02 
439	 0.10261067904588 
440	 0.105475406449853 
441	 0.10807637333159 
442	 0.110791683365595 
443	 0.114077836390238 
444	 0.117745968074943 
445	 0.120644413140449 
446	 0.123777560705029 
447	 0.126933897037115 
448	 0.129842059174974 
449	 0.133535401471978 
450	 0.137004560327369 
451	 0.140139524652605 
452	 0.14361362727491 
453	 0.146787650451699 
454	 0.149671752954572 
455	 0.152536941982188 
456	 0.156050579501553 
457	 0.159265148640016 
458	 0.162146715338094 
459	 0.165081345170045 
460	 0.168160778709958 
461	 0.171290734331946 
462	 0.174416161676976 
463	 0.177560818272738 
464	 0.180730539972324 
465	 0.183896558501267 
466	 0.186984587776483 
467	 0.189759458406854 
468	 0.192602624624272 
469	 0.195531208426902 
470	 0.198275363302369 
471	 0.201133580470092 
472	 0.20383536292566 
473	 0.206334997183985 
474	 0.209353347858885 
475	 0.212185831292983 
476	 0.214785400937302 
477	 0.217383476787436 
478	 0.219983290754291 
479	 0.222291994050946 
480	 0.224419342025875 
481	 0.227071974635372 
482	 0.229453686894928 
483	 0.231571064053868 
484	 0.233640406530317 
485	 0.235782294861406 
486	 0.237728848265956 
487	 0.239443946447442 
488	 0.241095962076463 
489	 0.242703557297762 
490	 0.244205714138569 
491	 0.245619800684588 
492	 0.247229273599475 
493	 0.248555765516462 
494	 0.249675086102584 
495	 0.250899414451663 
496	 0.252148318205096 
497	 0.253120417317275 
498	 0.253864953999551 
499	 0.254987329113289 
500	 0.255840124652712 
501	 0.256481294805895 
502	 0.257144983518261 
503	 0.257857135353128 
504	 0.258544393758713 
505	 0.259177050434954 
506	 0.25977079980708 
507	 0.260337422476349 
508	 0.260865566953079 
509	 0.261322725904567 
510	 0.261610515446289 
511	 0.261975753026147 
512	 0.262367102859483 
513	 0.262604046395085 
514	 0.262908132246824 
515	 0.263277659171642 
516	 0.263650818682816 
517	 0.263913216924686 
518	 0.264100512995487 
519	 0.264304774846784 
520	 0.264591754208494 
521	 0.264783726650045 
522	 0.264946558731085 
523	 0.265136919168278 
524	 0.265385074970501 
525	 0.265646998922541 
526	 0.265838031954236 
527	 0.265944095422113 
528	 0.266191189899235 
529	 0.266450833108137 
530	 0.266666374896325 
531	 0.266836779160024 
532	 0.267000688529901 
533	 0.267222657101312 
534	 0.267521419174961 
535	 0.267835254225852 
536	 0.268047641278292 
537	 0.268245651309716 
538	 0.268562822616876 
539	 0.268817901783355 
540	 0.269040705091507 
541	 0.269310782354221 
542	 0.269755358618428 
543	 0.269996033541465 
544	 0.2702169608435 
545	 0.270645391497198 
546	 0.271019446303356 
547	 0.271384545625955 
548	 0.271749276389862 
549	 0.272091390616419 
550	 0.272537195617914 
551	 0.273022832728705 
552	 0.273466907749523 
553	 0.27382155298372 
554	 0.274273085592042 
555	 0.274822366245957 
556	 0.275373088262975 
557	 0.275948420328152 
558	 0.276515386758096 
559	 0.277082123416324 
560	 0.277747609114898 
561	 0.278294717958191 
562	 0.278821290197605 
563	 0.279493318498334 
564	 0.280185675118507 
565	 0.280911470411583 
566	 0.281676208268039 
567	 0.282469116655962 
568	 0.283281345936586 
569	 0.284101825276113 
570	 0.284920742663453 
571	 0.285726836593971 
572	 0.286576704240343 
573	 0.287462621082343 
574	 0.288334015401213 
575	 0.289243131857247 
576	 0.29012676364076 
577	 0.290952338710909 
578	 0.291779430053648 
579	 0.292665893190973 
580	 0.293637800282111 
581	 0.294711077798221 
582	 0.295969443329126 
583	 0.29724041048197 
584	 0.298414599151779 
585	 0.299509920567957 
586	 0.300495868892334 
587	 0.301423937621522 
588	 0.302378269730213 
589	 0.303471497915599 
590	 0.304545997517344 
591	 0.305564649313855 
592	 0.306613296891121 
593	 0.307728585292358 
594	 0.308800503184676 
595	 0.309785564866307 
596	 0.310894209445274 
597	 0.312067071757891 
598	 0.313262092164406 
599	 0.314445366273474 
600	 0.315579018700646 
601	 0.316654286511104 
602	 0.317674346917893 
603	 0.318660037272281 
604	 0.319597154922303 
605	 0.320522602327837 
606	 0.321486696249705 
607	 0.322514142121798 
608	 0.323482983246277 
609	 0.324369971409728 
610	 0.325275057832695 
611	 0.32627812203118 
612	 0.327276358363844 
613	 0.328144024263203 
614	 0.328849354451334 
615	 0.329555850509636 
616	 0.330302149176173 
617	 0.331029901791537 
618	 0.331723854075451 
619	 0.332402145876177 
620	 0.333074999979526 
621	 0.333723331147343 
622	 0.334311186541769 
623	 0.334849099797527 
624	 0.335381748799964 
625	 0.336016661271984 
626	 0.336605790659853 
627	 0.337112783271622 
628	 0.337672806827604 
629	 0.338234099245859 
630	 0.33874483164937 
631	 0.339192614835655 
632	 0.339718259947009 
633	 0.340217885660178 
634	 0.340688050592278 
635	 0.341206295731429 
636	 0.341705711578562 
637	 0.342183979175087 
638	 0.342633214090088 
639	 0.342985766756549 
640	 0.343457652318257 
641	 0.343978939463765 
642	 0.34437630291485 
643	 0.34483187205364 
644	 0.345304296315759 
645	 0.345752969447693 
646	 0.346168673689068 
647	 0.346540343803884 
648	 0.346929541259032 
649	 0.347387515336528 
650	 0.347840267438555 
651	 0.34821730577867 
652	 0.348568687078454 
653	 0.349039239971963 
654	 0.3495264512565 
655	 0.349964925346083 
656	 0.350348687906817 
657	 0.350804804114981 
658	 0.351196233220444 
659	 0.351567976137124 
660	 0.352026128769122 
661	 0.352419990953949 
662	 0.352891671054664 
663	 0.353422303484463 
664	 0.353716542203009 
665	 0.354184671254149 
666	 0.354670287801838 
667	 0.354969699088774 
668	 0.355385391283841 
669	 0.355897098260825 
670	 0.356382498928722 
671	 0.356667565958204 
672	 0.357071699822705 
673	 0.3575322949334 
674	 0.357957650216518 
675	 0.35834502796096 
676	 0.358787800421447 
677	 0.359245818698069 
678	 0.359634139377645 
679	 0.360009833171104 
680	 0.360411417757724 
681	 0.360846442316397 
682	 0.361284609221948 
683	 0.361747457744591 
684	 0.362157382244325 
685	 0.362482403716586 
686	 0.362941776437827 
687	 0.363406162171692 
688	 0.363822533985807 
689	 0.364203656312218 
690	 0.364626300090821 
691	 0.365037812402208 
692	 0.365411110542831 
693	 0.365809760231566 
694	 0.366208094177358 
695	 0.366636091302672 
696	 0.367099062004193 
697	 0.367360763900329 
698	 0.367653965497331 
699	 0.368065532746533 
700	 0.368496390044633 
701	 0.368843914261474 
702	 0.36919189680631 
703	 0.369598926818413 
704	 0.369927729287569 
705	 0.370248549232694 
706	 0.370570406087078 
707	 0.370878323615717 
708	 0.37123358469912 
709	 0.371596437488073 
710	 0.371915515478732 
711	 0.372137495271214 
712	 0.372419986003971 
713	 0.372665804433838 
714	 0.372802442394952 
715	 0.373143385921791 
716	 0.373435775969951 
717	 0.37361702696796 
718	 0.373778863887329 
719	 0.373988318631823 
720	 0.374150802506728 
721	 0.37422962139429 
722	 0.374346696840773 
723	 0.374458066180053 
724	 0.374556406262723 
725	 0.374635051751635 
726	 0.374641700073539 
727	 0.374623291281929 
728	 0.374623796427753 
729	 0.374668587740439 
730	 0.374577058822478 
731	 0.374464503919478 
732	 0.374404759439554 
733	 0.374228960912121 
734	 0.374106466399553 
735	 0.373978759667657 
736	 0.373726847699354 
737	 0.37347770406456 
738	 0.373233496089411 
739	 0.372969112449997 
740	 0.372642089026772 
741	 0.372308314333662 
742	 0.371929413801676 
743	 0.371499319821943 
744	 0.371164421075308 
745	 0.370739593061386 
746	 0.370248824566376 
747	 0.369798905606979 
748	 0.369309920852714 
749	 0.368744995483005 
750	 0.368163033398117 
751	 0.367725226739961 
752	 0.36713649308904 
753	 0.366444823587549 
754	 0.365768077956501 
755	 0.365177827851103 
756	 0.364576723807477 
757	 0.363917689446627 
758	 0.363194952299746 
759	 0.362474550660716 
760	 0.361755601375658 
761	 0.361021432088297 
762	 0.36024632354331 
763	 0.359577595848743 
764	 0.358866551097271 
765	 0.358011385270697 
766	 0.357251035143155 
767	 0.356523194300172 
768	 0.355751283884043 
769	 0.354881743212126 
770	 0.354098081774125 
771	 0.353297088017832 
772	 0.352437086358494 
773	 0.351582490300129 
774	 0.350811066084685 
775	 0.350012141728482 
776	 0.349126229549697 
777	 0.348358573708529 
778	 0.347581279803151 
779	 0.346781632482939 
780	 0.34598895852046 
781	 0.345148813340813 
782	 0.344313293373377 
783	 0.343500559618866 
784	 0.342688139137645 
785	 0.341910009645864 
786	 0.341139580076345 
787	 0.340355862442488 
788	 0.339575481311703 
789	 0.338837165605299 
790	 0.33809192089198 
791	 0.337284790967124 
792	 0.336513213528559 
793	 0.335763844605804 
794	 0.335033683469769 
795	 0.33432428087412 
796	 0.333497903611591 
797	 0.332739440934699 
798	 0.332131511445079 
799	 0.331482778947124 
800	 0.330830126393819 
801	 0.330128304728256 
802	 0.329365970538074 
803	 0.328725889440931 
804	 0.32815149346946 
805	 0.32754632637716 
806	 0.326824373061333 
807	 0.326161658564044 
808	 0.325565460536045 
809	 0.325002061949767 
810	 0.324411832763165 
811	 0.323840083233451 
812	 0.323233604915551 
813	 0.322589311742371 
814	 0.322095898605139 
815	 0.321629686070678 
816	 0.32112462983015 
817	 0.320563808213984 
818	 0.320046311507045 
819	 0.319577001198474 
820	 0.319099340582638 
821	 0.318534150291107 
822	 0.318127160544444 
823	 0.317632182196049 
824	 0.317016585754601 
825	 0.316711132150485 
826	 0.316352540223047 
827	 0.3159498925633 
828	 0.315564748413655 
829	 0.315079536094187 
830	 0.314639868469634 
831	 0.31427485664557 
832	 0.31395116345271 
833	 0.313676100951996 
834	 0.313367396114999 
835	 0.313009071034185 
836	 0.312657428772659 
837	 0.312378940061927 
838	 0.312133525657097 
839	 0.311869315906385 
840	 0.311550267674659 
841	 0.311198634069658 
842	 0.310909169132788 
843	 0.310731062305807 
844	 0.310521115628183 
845	 0.31030639051791 
846	 0.310052997819702 
847	 0.309757779415922 
848	 0.309728299970011 
849	 0.309650256199293 
850	 0.309455933074486 
851	 0.309308605253952 
852	 0.309068641512045 
853	 0.308915837918226 
854	 0.308883309995137 
855	 0.308738199793531 
856	 0.308659828362334 
857	 0.308592290936359 
858	 0.308493587473169 
859	 0.30849642254249 
860	 0.308536495270159 
861	 0.308501965745928 
862	 0.308338623588443 
863	 0.308292591077984 
864	 0.308347442197386 
865	 0.30837648734514 
866	 0.308252333266519 
867	 0.308311038119057 
868	 0.30838435598588 
869	 0.308419770383862 
870	 0.308522159705811 
871	 0.308615763272973 
872	 0.308743450419526 
873	 0.308915782922882 
874	 0.309064151998381 
875	 0.30914814862281 
876	 0.309215955622448 
877	 0.309333151203461 
878	 0.30954269180531 
879	 0.309805492966915 
880	 0.310037050351184 
881	 0.310189463773515 
882	 0.310426686569683 
883	 0.310618600305373 
884	 0.310790143974223 
885	 0.311043069453722 
886	 0.311361017249787 
887	 0.311630872595457 
888	 0.311850352517602 
889	 0.312116181671939 
890	 0.312436775933177 
891	 0.312796351777559 
892	 0.313190691286464 
893	 0.313629640414091 
894	 0.313968672432907 
895	 0.314277823763832 
896	 0.314640937249731 
897	 0.315081116137985 
898	 0.315566162250687 
899	 0.316016562490188 
900	 0.316396737929265 
901	 0.316804113771561 
902	 0.31730585024642 
903	 0.31786156554768 
904	 0.318386263504173 
905	 0.318797059170759 
906	 0.319333484632828 
907	 0.319913162308714 
908	 0.32037585507333 
909	 0.321048417011592 
910	 0.32165919448669 
911	 0.322183526327889 
912	 0.322769254109217 
913	 0.323390637371221 
914	 0.324020025390819 
915	 0.324671254460282 
916	 0.325380996775162 
917	 0.326019364384994 
918	 0.326662344334665 
919	 0.327337922685704 
920	 0.327997221899715 
921	 0.328828675923803 
922	 0.329586808447616 
923	 0.330208663159849 
924	 0.330993421625809 
925	 0.331809259037456 
926	 0.332625853805016 
927	 0.333400755665221 
928	 0.334038602968844 
929	 0.33487890450532 
930	 0.335837502908512 
931	 0.336750511306389 
932	 0.337558347418169 
933	 0.338367797789226 
934	 0.339205111454124 
935	 0.34009570407763 
936	 0.34115990503968 
937	 0.341999801636261 
938	 0.342797854487263 
939	 0.343820850293904 
940	 0.34489278807311 
941	 0.345882766922262 
942	 0.346851450926126 
943	 0.347889839175577 
944	 0.348851161903726 
945	 0.349809009786466 
946	 0.350789874541818 
947	 0.351795364257114 
948	 0.352840060599257 
949	 0.353853234290238 
950	 0.35489688305324 
951	 0.356060557801182 
952	 0.357220300679148 
953	 0.358238762465596 
954	 0.359281156164632 
955	 0.360584948476894 
956	 0.361830043458714 
957	 0.362899422672834 
958	 0.363911311987503 
959	 0.365072045748655 
960	 0.366222148832597 
961	 0.367455501705816 
962	 0.368738351981539 
963	 0.369936382760902 
964	 0.370902605989157 
965	 0.372083214881812 
966	 0.37345499592399 
967	 0.374690011496216 
968	 0.375883000374224 
969	 0.377126393052989 
970	 0.37837871253407 
971	 0.379524656548968 
972	 0.380607737478062 
973	 0.381873742636879 
974	 0.383260452291725 
975	 0.384546887599331 
976	 0.385973499391138 
977	 0.387418928169676 
978	 0.388751491256168 
979	 0.389941295456339 
980	 0.391435211877457 
981	 0.392736593280937 
982	 0.393901372062991 
983	 0.395285823516071 
984	 0.396650116496284 
985	 0.398061319055328 
986	 0.399437481337804 
987	 0.400683175501172 
988	 0.402091289313022 
989	 0.40349595499523 
990	 0.404840208664478 
991	 0.406183904061185 
992	 0.407745519926376 
993	 0.409233251028905 
994	 0.410668723945484 
995	 0.412156091502653 
996	 0.413488916820595 
997	 0.414679766014293 
998	 0.415902082968848 
999	 0.417301594031102 
1000	 0.41869114204856 
1001	 0.420434386289199 
1002	 0.421749422250257 
1003	 0.423025293622975 
1004	 0.424341874530937 
1005	 0.425757448950989 
1006	 0.42705544806824 
1007	 0.428308030548926 
1008	 0.429551743497446 
1009	 0.43079869477133 
1010	 0.431965511381887 
1011	 0.433155626346616 
1012	 0.434407430721283 
1013	 0.435607608534545 
1014	 0.436783613480832 
1015	 0.437990728698306 
1016	 0.439256921835538 
1017	 0.440494168559689 
1018	 0.44172041755637 
1019	 0.442894745949807 
1020	 0.444154406023769 
1021	 0.445358513287762 
1022	 0.446434746934728 
1023	 0.447587422523304 
1024	 0.448662748668819 
1025	 0.449631396770998 
1026	 0.450700513856615 
1027	 0.451786687940368 
1028	 0.452837231952162 
1029	 0.453934623414647 
1030	 0.455003815293618 
1031	 0.456039093476556 
1032	 0.457034394891678 
1033	 0.458086757158848 
1034	 0.459103512620662 
1035	 0.460074891496091 
1036	 0.461077623567728 
1037	 0.462010414363968 
1038	 0.462930516408698 
1039	 0.463914475940778 
1040	 0.464860370924024 
1041	 0.465831718351528 
1042	 0.466842410712592 
1043	 0.467760909260468 
1044	 0.468673800880627 
1045	 0.469581655809525 
1046	 0.470464646109342 
1047	 0.47129273557552 
1048	 0.472217848000126 
1049	 0.473165267699305 
1050	 0.474088692289865 
1051	 0.475007013208891 
1052	 0.475880927092097 
1053	 0.476728377607703 
1054	 0.477617636459186 
1055	 0.478559130345502 
1056	 0.479453929757694 
1057	 0.480345875167387 
1058	 0.481243085858918 
1059	 0.482120766678471 
1060	 0.482971433245655 
1061	 0.483835823438224 
1062	 0.484658090410487 
1063	 0.485448929789566 
1064	 0.486273559315877 
1065	 0.487064649973447 
1066	 0.487907209877011 
1067	 0.488823294716159 
1068	 0.489669368994897 
1069	 0.490504187349142 
1070	 0.491375419187693 
1071	 0.492281417532203 
1072	 0.493105451661895 
1073	 0.493927568783723 
1074	 0.494733879116958 
1075	 0.495483439673061 
1076	 0.496212746839657 
1077	 0.496968625477161 
1078	 0.497696570194822 
1079	 0.498442913217214 
1080	 0.499145768092604 
1081	 0.499811249089888 
1082	 0.500523450773889 
1083	 0.501217387693353 
1084	 0.501852000579312 
1085	 0.502561194748137 
1086	 0.503359778714646 
1087	 0.504050366449298 
1088	 0.50469592913758 
1089	 0.505383017707641 
1090	 0.506045113360512 
1091	 0.506653377749916 
1092	 0.507335897981983 
1093	 0.508007015415769 
1094	 0.508612757195696 
1095	 0.509236224560345 
1096	 0.50983899791531 
1097	 0.510430112450241 
1098	 0.511012641011255 
1099	 0.511579503108858 
1100	 0.512145600510513 
1101	 0.512716989905256 
1102	 0.513262059675589 
1103	 0.513786967559212 
1104	 0.514315366344623 
1105	 0.514872497398356 
1106	 0.515405726168107 
1107	 0.515925213865368 
1108	 0.5164590835468 
1109	 0.516943968870481 
1110	 0.51744779873553 
1111	 0.517963226434932 
1112	 0.518513318704823 
1113	 0.519022767707059 
1114	 0.51951583008209 
1115	 0.52000678108953 
1116	 0.52048321928618 
1117	 0.520968561167229 
1118	 0.52145609379472 
1119	 0.521939852230197 
1120	 0.522442063018812 
1121	 0.522920564914297 
1122	 0.523401554989787 
1123	 0.523910414866563 
1124	 0.524406296016675 
1125	 0.524921496403541 
1126	 0.525380018130418 
1127	 0.525812996962638 
1128	 0.526248926945966 
1129	 0.526658496583155 
1130	 0.527057099729199 
1131	 0.527452049050616 
1132	 0.527844598791354 
1133	 0.528206427360421 
1134	 0.528579499934683 
1135	 0.528972068183974 
1136	 0.529359886391734 
1137	 0.529706514175193 
1138	 0.530056529855821 
1139	 0.530386187043276 
1140	 0.530686796544567 
1141	 0.531002704652286 
1142	 0.53134462993348 
1143	 0.531621872641199 
1144	 0.531880708864666 
1145	 0.532114759831231 
1146	 0.532288462733257 
1147	 0.532471540128021 
1148	 0.532670604683444 
1149	 0.532829618762593 
1150	 0.532934713402313 
1151	 0.533081871036096 
1152	 0.533203145896536 
1153	 0.533318507697201 
1154	 0.533460136930249 
1155	 0.533608787488656 
1156	 0.533784518598381 
1157	 0.533992521256511 
1158	 0.53417487265919 
1159	 0.534386091700857 
1160	 0.534566093144198 
1161	 0.53470673485979 
1162	 0.53486747734367 
1163	 0.535013896615452 
1164	 0.535186008379651 
1165	 0.535362275677474 
1166	 0.535564644602467 
1167	 0.535794914685078 
1168	 0.536037984010804 
1169	 0.536260348403256 
1170	 0.536484795277766 
1171	 0.536709265477856 
1172	 0.53692160215537 
1173	 0.537141799065259 
1174	 0.537363654885917 
1175	 0.537601311340354 
1176	 0.537840525534164 
1177	 0.538087590333964 
1178	 0.538353738521999 
1179	 0.538620215168704 
1180	 0.538887443010062 
1181	 0.53915935850924 
1182	 0.539444700382407 
1183	 0.539726591144887 
1184	 0.539998773480093 
1185	 0.540264987104114 
1186	 0.540538079013033 
1187	 0.540815241752531 
1188	 0.541072877748878 
1189	 0.541332229741379 
1190	 0.541575954121557 
1191	 0.541792882219304 
1192	 0.542021071944963 
1193	 0.542247951015598 
1194	 0.542477465646758 
1195	 0.542707890728513 
1196	 0.542935006128938 
1197	 0.543159683438953 
1198	 0.543388504316136 
1199	 0.543618503983818 
1200	 0.543848133865464 
1201	 0.5440773132133 
1202	 0.54431216301518 
1203	 0.544539691947778 
1204	 0.544765222285096 
1205	 0.544983075363012 
1206	 0.545188853722511 
1207	 0.545409816180143 
1208	 0.545645281825599 
1209	 0.545854683823524 
1210	 0.546075082583766 
1211	 0.546266415400159 
1212	 0.546409056592443 
1213	 0.546573703988455 
1214	 0.546723694783034 
1215	 0.546895068233768 
1216	 0.547078941173398 
1217	 0.547287707206209 
1218	 0.547467238354669 
1219	 0.547647455641093 
1220	 0.547827168722416 
1221	 0.547992919976862 
1222	 0.548162297885297 
1223	 0.548346133055466 
1224	 0.548512509491487 
1225	 0.548664995442696 
1226	 0.548816145406636 
1227	 0.548961103464752 
1228	 0.549107122960878 
1229	 0.549246466833247 
1230	 0.549387347978636 
1231	 0.549539086977945 
1232	 0.549675688574763 
1233	 0.549805065778196 
1234	 0.549916522762893 
1235	 0.550063736307241 
1236	 0.55022096307221 
1237	 0.550368734918162 
1238	 0.550540502063424 
1239	 0.550690336206093 
1240	 0.550819890569764 
1241	 0.550951532967103 
1242	 0.551087592370938 
1243	 0.551215091987276 
1244	 0.551325082128347 
1245	 0.551443386207626 
1246	 0.551563102868312 
1247	 0.551683539202238 
1248	 0.551797249076541 
1249	 0.551924598918309 
1250	 0.55206521402996 
1251	 0.552205337745528 
1252	 0.552336765071169 
1253	 0.552481223937037 
1254	 0.552597060265005 
1255	 0.552687292638462 
1256	 0.552790841215338 
1257	 0.552892310756873 
1258	 0.552983522294731 
1259	 0.553075504424041 
1260	 0.553157963634853 
1261	 0.553220581451914 
1262	 0.553292768596864 
1263	 0.553367950903342 
1264	 0.553439665972976 
1265	 0.553516618577189 
1266	 0.553584542085695 
1267	 0.553638245589309 
1268	 0.553704500348768 
1269	 0.553763254477428 
1270	 0.553802255467212 
1271	 0.55388083357522 
1272	 0.553985336524202 
1273	 0.554065348378941 
1274	 0.554162540024913 
1275	 0.554240055806006 
1276	 0.554266109596527 
1277	 0.554355143286788 
1278	 0.554484018236069 
1279	 0.554592226351638 
1280	 0.554720208892339 
1281	 0.554846426543368 
1282	 0.554962356642554 
1283	 0.55507788635423 
1284	 0.555211295781335 
1285	 0.555329150902819 
1286	 0.555418652296774 
1287	 0.555519564189147 
1288	 0.555635871741932 
1289	 0.555756759142105 
1290	 0.55588917167335 
1291	 0.556042248981151 
1292	 0.556178345465229 
1293	 0.556332116126863 
1294	 0.55644133104086 
1295	 0.55652547847779 
1296	 0.556615669923006 
1297	 0.556675305770373 
1298	 0.556747144334971 
1299	 0.556834423719706 
1300	 0.556902860957291 
1301	 0.556966009199655 
1302	 0.557014763970472 
1303	 0.55704994609443 
1304	 0.557083772868574 
1305	 0.557099018131999 
1306	 0.557091508725205 
1307	 0.557061200343008 
1308	 0.557021414513223 
1309	 0.556989129496976 
1310	 0.556949333378923 
1311	 0.556902268118567 
1312	 0.556876190356626 
1313	 0.556800792104368 
1314	 0.556697211992807 
1315	 0.556579060631044 
1316	 0.556430679333916 
1317	 0.556284827228825 
1318	 0.556124875963371 
1319	 0.555962861393305 
1320	 0.55580943107351 
1321	 0.555619607826564 
1322	 0.555409239422611 
1323	 0.555192587057212 
1324	 0.554938586125737 
1325	 0.554682314931583 
1326	 0.554442884027661 
1327	 0.554182488880548 
1328	 0.553907213651145 
1329	 0.553628445343975 
1330	 0.553298351172575 
1331	 0.552916768645606 
1332	 0.552552966297069 
1333	 0.552159624411135 
1334	 0.551780878555126 
1335	 0.551407836210274 
1336	 0.551037049922938 
1337	 0.550672881600954 
1338	 0.550294996009374 
1339	 0.549929701209722 
1340	 0.5495330956182 
1341	 0.549102104565594 
1342	 0.548686272546943 
1343	 0.548260251032506 
1344	 0.547829824515797 
1345	 0.547435232965611 
1346	 0.547055922632467 
1347	 0.546678013626262 
1348	 0.546324432741108 
1349	 0.545941715405731 
1350	 0.545538133536506 
1351	 0.545167613837564 
1352	 0.544792984887853 
1353	 0.544445146858797 
1354	 0.544142883999208 
1355	 0.543800626540104 
1356	 0.543453559955969 
1357	 0.543101320944188 
1358	 0.542712718309813 
1359	 0.542366097202652 
1360	 0.542025195870236 
1361	 0.541710802131299 
1362	 0.541456121418622 
1363	 0.541153379120471 
1364	 0.540838402219458 
1365	 0.540532296799684 
1366	 0.540202304105217 
1367	 0.539878498329668 
1368	 0.539609603372393 
1369	 0.539326149774919 
1370	 0.538999704675604 
1371	 0.538640367928386 
1372	 0.538217399291111 
1373	 0.537754928058174 
1374	 0.537268606257773 
1375	 0.536764377429072 
1376	 0.536188249286611 
1377	 0.535592968731414 
1378	 0.534886274364437 
1379	 0.534079388906906 
1380	 0.533258207148311 
1381	 0.532356489363949 
1382	 0.531447227836357 
1383	 0.530552151399414 
1384	 0.529556185924191 
1385	 0.52854876129358 
1386	 0.527408240202282 
1387	 0.526172669840802 
1388	 0.524854552150407 
1389	 0.523456771124882 
1390	 0.521942540662224 
1391	 0.520334572306322 
1392	 0.51861684997513 
1393	 0.516750555497203 
1394	 0.514779099079721 
1395	 0.512649817481552 
1396	 0.51043190690562 
1397	 0.508158337783783 
1398	 0.505790497985541 
1399	 0.503328233048692 
1400	 0.500812316182698 
1401	 0.49818064771083 
1402	 0.495416391929102 
1403	 0.49262008181089 
1404	 0.489702906985254 
1405	 0.48684707371398 
1406	 0.483960700905251 
1407	 0.481058612812758 
1408	 0.478131125620742 
1409	 0.475255987559749 
1410	 0.472314064213519 
1411	 0.469512879626833 
1412	 0.466773092289918 
1413	 0.464154619499975 
1414	 0.461660342788328 
1415	 0.459203826638447 
1416	 0.456865369547778 
1417	 0.454608088607046 
1418	 0.452367096702918 
1419	 0.450217837795493 
1420	 0.448134272985898 
1421	 0.446115275132498 
1422	 0.444194816830382 
1423	 0.442311743299595 
1424	 0.440447144676035 
1425	 0.438610902817621 
1426	 0.436845091112778 
1427	 0.435101879198085 
1428	 0.433442907249061 
1429	 0.431881072823923 
1430	 0.43033212192969 
1431	 0.428856471804545 
1432	 0.427336655292471 
1433	 0.42584260638483 
1434	 0.424327235309241 
1435	 0.422766513628937 
1436	 0.421257206969273 
1437	 0.419766194780754 
1438	 0.418284571859212 
1439	 0.416840683408359 
1440	 0.41537479259153 
1441	 0.41388203953968 
1442	 0.412394949734759 
1443	 0.410901369178363 
1444	 0.409463164805993 
1445	 0.40811075105873 
1446	 0.406884253356413 
1447	 0.405796423792382 
1448	 0.404837087392565 
1449	 0.404031171872273 
1450	 0.40341261629096 
1451	 0.403031052616104 
1452	 0.402837360517198 
1453	 0.402877360816743 
1454	 0.403193049645303 
1455	 0.403601400254507 
1456	 0.404245324879482 
1457	 0.404901872547639 
1458	 0.405733277876092 
1459	 0.406506473383124 
1460	 0.407362593534359 
1461	 0.40813308842684 
1462	 0.408918675564329 
1463	 0.409597267362327 
1464	 0.410232442371745 
1465	 0.410774365073295 
1466	 0.411214519707006 
1467	 0.411609430311956 
1468	 0.411888596566618 
1469	 0.412188362620881 
1470	 0.412457264640616 
1471	 0.412707151784431 
1472	 0.412968539862908 
1473	 0.413213568097388 
1474	 0.413406486760836 
1475	 0.41359144560258 
1476	 0.41373533303855 
1477	 0.4138733140629 
1478	 0.414029211302718 
1479	 0.414169237144548 
1480	 0.414330585485733 
1481	 0.414493769641 
1482	 0.414670536129829 
1483	 0.414858675720255 
1484	 0.415051741075911 
1485	 0.415258072634677 
1486	 0.415458295072158 
1487	 0.415651596475973 
1488	 0.415860192132192 
1489	 0.416084049606875 
1490	 0.416304694441131 
1491	 0.416541092298694 
1492	 0.416755548025559 
1493	 0.416954848476873 
1494	 0.417154700078265 
1495	 0.417346762760877 
1496	 0.41753758176703 
1497	 0.417746599754674 
1498	 0.417919621374994 
1499	 0.41807959539482 
1500	 0.418214648063872 
1501	 0.418304064001095 
1502	 0.418403802545979 
1503	 0.418483854641275 
1504	 0.41857783284018 
1505	 0.418694536654061 
1506	 0.418803393300711 
1507	 0.418912104032993 
1508	 0.419024819478541 
1509	 0.419096380346675 
1510	 0.419163333124337 
1511	 0.419232960069725 
1512	 0.419283639030836 
1513	 0.419345309781588 
1514	 0.419424602708617 
1515	 0.419520530980666 
1516	 0.419607278287988 
1517	 0.419690313396673 
1518	 0.419786134814526 
1519	 0.419860718253467 
1520	 0.41991283403117 
1521	 0.419982560919492 
1522	 0.420044672799304 
1523	 0.420125846806274 
1524	 0.420231615840735 
1525	 0.420307924307217 
1526	 0.420382585551964 
1527	 0.420452879096506 
1528	 0.420499853949025 
1529	 0.420559649444385 
1530	 0.420642131402013 
1531	 0.420695962164312 
1532	 0.420731470020041 
1533	 0.420764816395444 
1534	 0.420776050154125 
1535	 0.420803438664292 
1536	 0.420840548453298 
1537	 0.420872996102188 
1538	 0.420901185606209 
1539	 0.420939474173539 
1540	 0.420973767330028 
1541	 0.42101947454298 
1542	 0.421087550322615 
1543	 0.421145761298732 
1544	 0.421199408908706 
1545	 0.421260620779115 
1546	 0.421332296546388 
1547	 0.421389510176122 
1548	 0.421441728005101 
1549	 0.421492237336767 
1550	 0.421513843515779 
1551	 0.421550240905452 
1552	 0.421604218113934 
1553	 0.421661226857383 
1554	 0.421750843215435 
1555	 0.421811721777366 
1556	 0.421818246501305 
1557	 0.42181567414767 
1558	 0.42179375761653 
1559	 0.421766334327874 
1560	 0.421752613670691 
1561	 0.421762237512582 
1562	 0.421750457801231 
1563	 0.421725215829849 
1564	 0.421710255222667 
1565	 0.421695472462841 
1566	 0.421681832413513 
1567	 0.421673343912594 
1568	 0.421660810467165 
1569	 0.421642016286492 
1570	 0.421635290510514 
1571	 0.421633400038588 
1572	 0.421627605256876 
1573	 0.421629612718298 
1574	 0.42162935282499 
1575	 0.421631230106507 
1576	 0.421618448533022 
1577	 0.421605800041322 
1578	 0.421578897311342 
1579	 0.421517106483911 
1580	 0.421490098415733 
1581	 0.421474062686865 
1582	 0.421460429787098 
1583	 0.421492024657906 
1584	 0.421464039028019 
1585	 0.421405243410188 
1586	 0.421343344967683 
1587	 0.421240336449664 
1588	 0.421154264069275 
1589	 0.421074027009713 
1590	 0.420992035898049 
1591	 0.420932265028987 
1592	 0.420825915302044 
1593	 0.420690613784474 
1594	 0.420559595318583 
1595	 0.420384120292072 
1596	 0.420235481003668 
1597	 0.420130882160002 
1598	 0.419982600609674 
1599	 0.419821851768219 
1600	 0.419645137822702 
1601	 0.419422976882149 
1602	 0.419222842354314 
1603	 0.419015041688635 
1604	 0.418820604511424 
1605	 0.418649982990755 
1606	 0.418465552484061 
1607	 0.41828591379864 
1608	 0.418104019873923 
1609	 0.417893509464015 
1610	 0.417664049978394 
1611	 0.417395610538939 
1612	 0.417127055096015 
1613	 0.416853518973255 
1614	 0.41655666817119 
1615	 0.416273183785747 
1616	 0.415989688504031 
1617	 0.415697650841184 
1618	 0.415415299519143 
1619	 0.415129055366592 
1620	 0.414832522855095 
1621	 0.414540240151081 
1622	 0.414250426885347 
1623	 0.413945591264131 
1624	 0.413634730522459 
1625	 0.413321573564578 
1626	 0.412996627999891 
1627	 0.412674581204721 
1628	 0.412353438615789 
1629	 0.412032280202165 
1630	 0.411705988068654 
1631	 0.411383656494191 
1632	 0.411068057289754 
1633	 0.410743050912708 
1634	 0.410420404053544 
1635	 0.410072700099741 
1636	 0.409716409784797 
1637	 0.409341732415247 
1638	 0.408932451401077 
1639	 0.408554838062546 
1640	 0.408170405875474 
1641	 0.407812200140258 
1642	 0.407479093798342 
1643	 0.407139640752717 
1644	 0.406808697372514 
1645	 0.406479902149611 
1646	 0.406158727905125 
1647	 0.405826430939245 
1648	 0.405503098692728 
1649	 0.405155267628371 
1650	 0.404781845233349 
1651	 0.404428148192624 
1652	 0.404074912165405 
1653	 0.403713518985536 
1654	 0.403364383434867 
1655	 0.40299147095013 
1656	 0.402595579886603 
1657	 0.402204794966068 
1658	 0.401798112511506 
1659	 0.401413533947191 
1660	 0.401031932892096 
1661	 0.400660736390217 
1662	 0.400300930692378 
1663	 0.399952734472356 
1664	 0.399619489617876 
1665	 0.399277535538114 
1666	 0.398945593304292 
1667	 0.398609963661294 
1668	 0.398275803732296 
1669	 0.397923129591996 
1670	 0.397570575218721 
1671	 0.397205279530265 
1672	 0.396805576285104 
1673	 0.396436403608367 
1674	 0.396067468445554 
1675	 0.395726500800842 
1676	 0.39540994278176 
1677	 0.395094428924707 
1678	 0.394811633375302 
1679	 0.394496757722763 
1680	 0.394174384988728 
1681	 0.393841649665878 
1682	 0.3934751524 
1683	 0.393145033089899 
1684	 0.392824123734034 
1685	 0.392510093218329 
1686	 0.392219071213466 
1687	 0.391922407667359 
1688	 0.391622647076825 
1689	 0.391328527320233 
1690	 0.391034620448781 
1691	 0.390759142942299 
1692	 0.390506829678747 
1693	 0.390230871033437 
1694	 0.389958860565257 
1695	 0.389681142851437 
1696	 0.389377640489337 
1697	 0.389092737435902 
1698	 0.388822514578422 
1699	 0.388547731339289 
1700	 0.388274149673166 
1701	 0.387998538604436 
1702	 0.387725822132499 
1703	 0.387448230286791 
1704	 0.387169370847176 
1705	 0.386882424789168 
1706	 0.386595451980569 
1707	 0.386296480169208 
1708	 0.385985222995846 
1709	 0.385672325363101 
1710	 0.385341189254667 
1711	 0.385034035767997 
1712	 0.384722498769779 
1713	 0.384441378947932 
1714	 0.384201187019884 
1715	 0.383931104658005 
1716	 0.383657915145785 
1717	 0.383395667733155 
1718	 0.383121901183536 
1719	 0.382861407960363 
1720	 0.382631067316048 
1721	 0.382369197960225 
1722	 0.382071926890605 
1723	 0.381828489641635 
1724	 0.381605348173907 
1725	 0.381373679003039 
1726	 0.381180777747883 
1727	 0.380953065733715 
1728	 0.380692504481203 
1729	 0.380446528624625 
1730	 0.380200509731908 
1731	 0.379960233627345 
1732	 0.379728708076239 
1733	 0.379480612625826 
1734	 0.379222331250738 
1735	 0.378980731481061 
1736	 0.378721847647161 
1737	 0.378504457563899 
1738	 0.378325742011193 
1739	 0.378128883318172 
1740	 0.377946673465867 
1741	 0.377741450010296 
1742	 0.377525414181581 
1743	 0.377320519666127 
1744	 0.377115639650212 
1745	 0.376884489844199 
1746	 0.376648343804038 
1747	 0.376367842904458 
1748	 0.376132464141736 
1749	 0.375926451472642 
1750	 0.375710421757225 
1751	 0.375530111042058 
1752	 0.37530529412402 
1753	 0.37507553181414 
1754	 0.374872837724524 
1755	 0.374668811264697 
1756	 0.374504663996837 
1757	 0.374340969991729 
1758	 0.37416744431451 
1759	 0.373991265808928 
1760	 0.373813936526724 
1761	 0.373680727283754 
1762	 0.373555247750673 
1763	 0.373399144282428 
1764	 0.373258586004888 
1765	 0.373115168060973 
1766	 0.372946576416508 
1767	 0.372775596619785 
1768	 0.372600276566367 
1769	 0.372434036232274 
1770	 0.372290671738393 
1771	 0.372205110188559 
1772	 0.372155895907452 
1773	 0.372073240151036 
1774	 0.371975207665336 
1775	 0.37188655098296 
1776	 0.371767103001314 
1777	 0.371649255753949 
1778	 0.371553050879524 
1779	 0.371437113669625 
1780	 0.371353166444427 
1781	 0.371277988859165 
1782	 0.371190077705636 
1783	 0.371112798880067 
1784	 0.371055611220953 
1785	 0.371055388810684 
1786	 0.370998111478897 
1787	 0.370917491056309 
1788	 0.370854385771404 
1789	 0.370757636934554 
1790	 0.370678096151051 
1791	 0.370622164585234 
1792	 0.370547371849813 
1793	 0.370444182768063 
1794	 0.370388785531925 
1795	 0.37035219937636 
1796	 0.370330027287144 
1797	 0.370342401423839 
1798	 0.370350614855263 
1799	 0.370379978859948 
1800	 0.37039855639605 
1801	 0.362915897625985 
1802	 0.363253102928833 
1803	 0.363578841270161 
1804	 0.363944642113607 
1805	 0.364354753790059 
1806	 0.364721391912026 
1807	 0.365070322130784 
1808	 0.365392989168024 
1809	 0.365685939874238 
1810	 0.365948625738476 
1811	 0.36618658721313 
1812	 0.366432908689164 
1813	 0.366620820974838 
1814	 0.366749308338078 
1815	 0.366843517233149 
1816	 0.366928108909676 
1817	 0.367022653228995 
1818	 0.367097646721319 
1819	 0.367179617355892 
1820	 0.367268394000466 
1821	 0.367365319404158 
1822	 0.367451906050217 
1823	 0.367528856807369 
1824	 0.367623324509968 
1825	 0.367677224663177 
1826	 0.367712036513306 
1827	 0.367747482156114 
1828	 0.367754428267421 
1829	 0.367747299486208 
1830	 0.367716173311618 
1831	 0.367646185099882 
1832	 0.367586731627953 
1833	 0.367535652401833 
1834	 0.367494849237211 
1835	 0.367455963902511 
1836	 0.367387384684948 
1837	 0.367311232700286 
1838	 0.367256068996415 
1839	 0.367222829316852 
1840	 0.367213852328556 
1841	 0.367217729392604 
1842	 0.367236420414345 
1843	 0.367224662278067 
1844	 0.367161635393422 
1845	 0.367096964038739 
1846	 0.367011185079411 
1847	 0.366912305333242 
1848	 0.366856870041486 
1849	 0.366803606515367 
1850	 0.366717962817548 
1851	 0.366627228887675 
1852	 0.366519202413559 
1853	 0.366355432720526 
1854	 0.366146303515822 
1855	 0.365928224064233 
1856	 0.365665803035013 
1857	 0.365383171088132 
1858	 0.365087400075617 
1859	 0.364716301376789 
1860	 0.364318533576253 
1861	 0.363892243854445 
1862	 0.363413494982664 
1863	 0.362879629627157 
1864	 0.362346339849751 
1865	 0.361740209105793 
1866	 0.361061312293189 
1867	 0.360347440290712 
1868	 0.359547513600686 
1869	 0.358671562878918 
1870	 0.357748207033347 
1871	 0.356765025810784 
1872	 0.355708239158346 
1873	 0.354627771999178 
1874	 0.353508990644196 
1875	 0.352330836732882 
1876	 0.351106176478601 
1877	 0.349762634380426 
1878	 0.348284640732351 
1879	 0.346707038462413 
1880	 0.344976936960924 
1881	 0.343079875320589 
1882	 0.34109721406421 
1883	 0.339023184138672 
1884	 0.33675046376512 
1885	 0.334367910304761 
1886	 0.331872237137082 
1887	 0.329163160558205 
1888	 0.326349876399587 
1889	 0.323406971477123 
1890	 0.320338810600324 
1891	 0.317184463423928 
1892	 0.313907591490621 
1893	 0.310536427708214 
1894	 0.307062805981124 
1895	 0.303504075265239 
1896	 0.299813891907492 
1897	 0.296088109831891 
1898	 0.29228301666434 
1899	 0.288434949720528 
1900	 0.284658510111156 
1901	 0.280914067819637 
1902	 0.277266165002349 
1903	 0.27370483665838 
1904	 0.270234299489512 
1905	 0.266823807623293 
1906	 0.263540148566862 
1907	 0.260363008010555 
1908	 0.257315720718574 
1909	 0.254386658836027 
1910	 0.251533322089047 
1911	 0.248814374591981 
1912	 0.24620383134165 
1913	 0.243681685945809 
1914	 0.241245566326824 
1915	 0.238940313562695 
1916	 0.236736248403273 
1917	 0.234631396727487 
1918	 0.232690485092488 
1919	 0.230836897823046 
1920	 0.229105062293588 
1921	 0.227502633596545 
1922	 0.225967673835777 
1923	 0.224535651818803 
1924	 0.223168570990415 
1925	 0.221876967248633 
1926	 0.220669948615619 
1927	 0.219545427888831 
1928	 0.218486109263001 
1929	 0.217524822788034 
1930	 0.216595386554937 
1931	 0.215698852309799 
1932	 0.214880980848574 
1933	 0.214120413396839 
1934	 0.213414863075732 
1935	 0.212796083974763 
1936	 0.212234608083131 
1937	 0.211788505744966 
1938	 0.211426907290488 
1939	 0.211160760142086 
1940	 0.211000431528761 
1941	 0.210920326362015 
1942	 0.210923611866675 
1943	 0.211032578389557 
1944	 0.211245311965244 
1945	 0.211588821599033 
1946	 0.211993149966362 
1947	 0.212500071394151 
1948	 0.213067340156806 
1949	 0.213741983868841 
1950	 0.214421514150798 
1951	 0.215172488130576 
1952	 0.215956461869972 
1953	 0.21670291586903 
1954	 0.217469501141562 
1955	 0.218221555185917 
1956	 0.218935710190882 
1957	 0.219646264015682 
1958	 0.220375292812704 
1959	 0.221022102537852 
1960	 0.221636584685402 
1961	 0.222211991411041 
1962	 0.222728451465051 
1963	 0.22322072702544 
1964	 0.223672050151921 
1965	 0.22410575282098 
1966	 0.224527898327886 
1967	 0.22492121466644 
1968	 0.22532743824784 
1969	 0.225734051666764 
1970	 0.226143324587377 
1971	 0.226545686891852 
1972	 0.226956124455642 
1973	 0.227376522169678 
1974	 0.227796380646937 
1975	 0.228215983203873 
1976	 0.228633374654958 
1977	 0.229065219378253 
1978	 0.229480927744501 
1979	 0.229915037307456 
1980	 0.230391765169434 
1981	 0.230861898304226 
1982	 0.231346809329677 
1983	 0.231843430341868 
1984	 0.232349726365243 
1985	 0.232857203136074 
1986	 0.233382270671203 
1987	 0.23390965859121 
1988	 0.234442357273677 
1989	 0.234974260245496 
1990	 0.235512699752327 
1991	 0.236022506648462 
1992	 0.236529558226689 
1993	 0.237015610851336 
1994	 0.237518373640043 
1995	 0.238037667390428 
1996	 0.238520483074174 
1997	 0.238987240917394 
1998	 0.239450839997059 
1999	 0.239873810549571 
2000	 0.240328831743356 
2001	 0.240808467260169 
2002	 0.241278678789749 
2003	 0.2417496704796 
2004	 0.242207933931838 
2005	 0.242660991725234 
2006	 0.24309540660159 
2007	 0.243545607499267 
2008	 0.243989687277492 
2009	 0.244452779627816 
2010	 0.244936369681952 
2011	 0.245408330272594 
2012	 0.245878580708827 
2013	 0.246357909461119 
2014	 0.246830026662345 
2015	 0.247314358843708 
2016	 0.247815906645124 
2017	 0.248337034493389 
2018	 0.248845519427706 
2019	 0.24935068027732 
2020	 0.249869084659426 
2021	 0.250386136831755 
2022	 0.250915716533486 
2023	 0.251468460824865 
2024	 0.252011366884712 
2025	 0.252555764063503 
2026	 0.253100470650902 
2027	 0.253637987389102 
2028	 0.254183321479301 
2029	 0.254742895596386 
2030	 0.255317453851826 
2031	 0.255869571668771 
2032	 0.256431441269804 
2033	 0.25697432046422 
2034	 0.25749246513474 
2035	 0.258021726393189 
2036	 0.258550098808438 
2037	 0.25907796688556 
2038	 0.259609589612408 
2039	 0.260128097831451 
2040	 0.26063816342856 
2041	 0.261154869432709 
2042	 0.261642147551251 
2043	 0.262125860895336 
2044	 0.26263634092019 
2045	 0.26315191714319 
2046	 0.263677098577844 
2047	 0.264240404468878 
2048	 0.264767682913924 
2049	 0.265298397832726 
2050	 0.265799230802642 
2051	 0.266258953523601 
2052	 0.266737966811915 
2053	 0.267200524807511 
2054	 0.267670704064264 
2055	 0.268153592447083 
2056	 0.268653784403871 
2057	 0.269105584671914 
2058	 0.269534538330643 
2059	 0.269968184188641 
2060	 0.27036109110868 
2061	 0.270795966662482 
2062	 0.271262633709899 
2063	 0.27170502541914 
2064	 0.272155048825713 
2065	 0.272590847259623 
2066	 0.273008224016758 
2067	 0.273427160044965 
2068	 0.273838077436179 
2069	 0.274255352186329 
2070	 0.274669283351781 
2071	 0.275083154111411 
2072	 0.275489565515587 
2073	 0.275894518157554 
2074	 0.276293699036205 
2075	 0.276688150729968 
2076	 0.277074035997891 
2077	 0.277450686756424 
2078	 0.277831823437407 
2079	 0.278210961587209 
2080	 0.278581157454215 
2081	 0.278956580571532 
2082	 0.279318956568595 
2083	 0.279656033093797 
2084	 0.280000772830468 
2085	 0.28036149730805 
2086	 0.280729517138568 
2087	 0.281091648480779 
2088	 0.281464533300068 
2089	 0.281833179683417 
2090	 0.282205635742619 
2091	 0.282556170374774 
2092	 0.282909491439725 
2093	 0.283243892610982 
2094	 0.283535628013875 
2095	 0.283850237190433 
2096	 0.284157481508003 
2097	 0.284486048372952 
2098	 0.284837963322847 
2099	 0.285184540060752 
2100	 0.285527692603604 
2101	 0.285879278012075 
2102	 0.28622902293528 
2103	 0.286569486011045 
2104	 0.286919404651595 
2105	 0.287285806725114 
2106	 0.28763611903967 
2107	 0.287974073176268 
2108	 0.288320295968804 
2109	 0.288659448079848 
2110	 0.289012441527999 
2111	 0.289371402508082 
2112	 0.289739275925865 
2113	 0.290128012353685 
2114	 0.290503012897759 
2115	 0.290883907154186 
2116	 0.2912709580505 
2117	 0.291652697453849 
2118	 0.292030832437628 
2119	 0.292412354355343 
2120	 0.292812299911835 
2121	 0.293175074204244 
2122	 0.293509271384954 
2123	 0.293864255119341 
2124	 0.294217871400727 
2125	 0.294551855018333 
2126	 0.294903394760716 
2127	 0.295225831669672 
2128	 0.295486798109356 
2129	 0.295782593920877 
2130	 0.296096686278084 
2131	 0.296409453908067 
2132	 0.296685708120223 
2133	 0.296965002688531 
2134	 0.297213283463461 
2135	 0.29740512933792 
2136	 0.297632286408413 
2137	 0.29789721626288 
2138	 0.29808699369844 
2139	 0.298241951233297 
2140	 0.298395628910207 
2141	 0.298499477454862 
2142	 0.298612796465631 
2143	 0.29873892508041 
2144	 0.298846426287737 
2145	 0.298944214821933 
2146	 0.299015154905021 
2147	 0.299058122903208 
2148	 0.299106524488368 
2149	 0.299145726476175 
2150	 0.299163304818528 
2151	 0.29917922698758 
2152	 0.299205076170506 
2153	 0.299205147416609 
2154	 0.299166804488493 
2155	 0.29915521324788 
2156	 0.29916784026631 
2157	 0.299136776001435 
2158	 0.299089660128753 
2159	 0.299042095744187 
2160	 0.298946421588521 
2161	 0.29888373974387 
2162	 0.298842889765488 
2163	 0.298801967060051 
2164	 0.298771040156834 
2165	 0.298747428288523 
2166	 0.298702397552514 
2167	 0.298657819990785 
2168	 0.298591858442896 
2169	 0.298506030330771 
2170	 0.298415827590428 
2171	 0.298321461743056 
2172	 0.298207358446874 
2173	 0.298073940430071 
2174	 0.297939824051543 
2175	 0.297788808634131 
2176	 0.297637984079473 
2177	 0.2974896766011 
2178	 0.297326947385282 
2179	 0.297160405914041 
2180	 0.296976626354151 
2181	 0.296776971921266 
2182	 0.296569617542579 
2183	 0.296336326669372 
2184	 0.296107666290431 
2185	 0.295892476588977 
2186	 0.2956743371755 
2187	 0.295471723552384 
2188	 0.295286562167704 
2189	 0.29510038651237 
2190	 0.294913740012331 
2191	 0.294743025716368 
2192	 0.294613161711838 
2193	 0.294424389698829 
2194	 0.294208397231385 
2195	 0.294005518521904 
2196	 0.29374506200696 
2197	 0.293543057334594 
2198	 0.293404246207303 
2199	 0.29323404811439 
2200	 0.29306894188661 
2201	 0.292904188645228 
2202	 0.292721210339453 
2203	 0.29253676731559 
2204	 0.292396126063732 
2205	 0.292273312778242 
2206	 0.292178500562274 
2207	 0.292125330243953 
2208	 0.292060921793389 
2209	 0.292002454311798 
2210	 0.291970688340234 
2211	 0.291943218884534 
2212	 0.291946471255805 
2213	 0.291980249835338 
2214	 0.292032581563341 
2215	 0.292137608010257 
2216	 0.292202540656573 
2217	 0.292266177217117 
2218	 0.29233198261828 
2219	 0.292382752284772 
2220	 0.292424177982934 
2221	 0.292465016082559 
2222	 0.292520770374477 
2223	 0.292539722906186 
2224	 0.292543864451211 
2225	 0.292546262179598 
2226	 0.29254343341749 
2227	 0.292534345123144 
2228	 0.292507833423393 
2229	 0.292500274177893 
2230	 0.292500591753281 
2231	 0.292491822040202 
2232	 0.292491180090769 
2233	 0.29247622761722 
2234	 0.292446125564882 
2235	 0.292424314152202 
2236	 0.292417894574282 
2237	 0.292372399159561 
2238	 0.292314357653818 
2239	 0.292241323166359 
2240	 0.292142547056146 
2241	 0.292032184901235 
2242	 0.291892580414698 
2243	 0.29176936032982 
2244	 0.291652966192761 
2245	 0.291507143221828 
2246	 0.291364463951724 
2247	 0.291239920280215 
2248	 0.291058693914489 
2249	 0.290837898275301 
2250	 0.290609030219831 
2251	 0.290339295285461 
2252	 0.290100652107668 
2253	 0.28985242412194 
2254	 0.289619681339142 
2255	 0.289404404555689 
2256	 0.28918626922634 
2257	 0.288965943168634 
2258	 0.288759453151084 
2259	 0.288560392773123 
2260	 0.288374266689746 
2261	 0.288201463174315 
2262	 0.288026732441087 
2263	 0.287887962055149 
2264	 0.287703250873502 
2265	 0.287474384693398 
2266	 0.28727804105478 
2267	 0.287072287711399 
2268	 0.286869385711436 
2269	 0.286676919983951 
2270	 0.286516961885325 
2271	 0.286338697296214 
2272	 0.286134957312847 
2273	 0.285934971541392 
2274	 0.285701858739344 
2275	 0.285428707523303 
2276	 0.285069860594841 
2277	 0.284825566087285 
2278	 0.284590199559371 
2279	 0.284379161323128 
2280	 0.284270757191139 
2281	 0.284061887981999 
2282	 0.283813052468829 
2283	 0.283567753455245 
2284	 0.283277645101345 
2285	 0.283022255274281 
2286	 0.282787196760693 
2287	 0.282518997825233 
2288	 0.282251787048225 
2289	 0.281974205702824 
2290	 0.281669774812753 
2291	 0.281366940115444 
2292	 0.281080011518724 
2293	 0.280757001181447 
2294	 0.280400356520993 
2295	 0.280041687749742 
2296	 0.279655429830738 
2297	 0.279278450058613 
2298	 0.278905490533839 
2299	 0.278557738239961 
2300	 0.278215458647508 
2301	 0.277841442553488 
2302	 0.277407261583638 
2303	 0.276967539350463 
2304	 0.27653639484696 
2305	 0.276071426408704 
2306	 0.275609682567988 
2307	 0.275168320996529 
2308	 0.274686363762343 
2309	 0.274140520652807 
2310	 0.273672581524131 
2311	 0.273245073671204 
2312	 0.272775603355179 
2313	 0.272360921301634 
2314	 0.271849932726299 
2315	 0.271238632450871 
2316	 0.270666716477706 
2317	 0.27006382987787 
2318	 0.269485387012744 
2319	 0.268956645269008 
2320	 0.268360915372691 
2321	 0.267700248076899 
2322	 0.267096558914504 
2323	 0.266452753735303 
2324	 0.265883123225952 
2325	 0.265441119845851 
2326	 0.26491636789678 
2327	 0.264375308268661 
2328	 0.263824539634737 
2329	 0.263261164337805 
2330	 0.262684355832109 
2331	 0.262124121066901 
2332	 0.26152904713397 
2333	 0.260899948789608 
2334	 0.260241521500615 
2335	 0.259618797704163 
2336	 0.259046001100023 
2337	 0.258460318536662 
2338	 0.257912315019351 
2339	 0.257322303498803 
2340	 0.256656412899638 
2341	 0.255996344517699 
2342	 0.255275589071037 
2343	 0.254549338702823 
2344	 0.253865573988031 
2345	 0.253128768169064 
2346	 0.252382210124279 
2347	 0.251603867970209 
2348	 0.250778814329861 
2349	 0.2499441952342 
2350	 0.249090595739489 
2351	 0.248237545347957 
2352	 0.247349379208649 
2353	 0.246503161433362 
2354	 0.245696761281862 
2355	 0.244819005119811 
2356	 0.243910549561533 
2357	 0.243023247636779 
2358	 0.242101390154149 
2359	 0.241214989831295 
2360	 0.240370479602321 
2361	 0.239502428982383 
2362	 0.238624420389327 
2363	 0.237743500500961 
2364	 0.236848588048526 
2365	 0.235988332710356 
2366	 0.235150031820125 
2367	 0.234284350463146 
2368	 0.233421614205296 
2369	 0.232566504462581 
2370	 0.231726845821513 
2371	 0.230838363109915 
2372	 0.229877329202488 
2373	 0.228954922670434 
2374	 0.227999973408229 
2375	 0.227056918142581 
2376	 0.226205912411188 
2377	 0.225315532629144 
2378	 0.224461889653202 
2379	 0.223602452164648 
2380	 0.222677846764627 
2381	 0.221893881356822 
2382	 0.221108464758657 
2383	 0.220213073621188 
2384	 0.219397209611913 
2385	 0.218532375001931 
2386	 0.217597673655737 
2387	 0.216802695173947 
2388	 0.216031867011581 
2389	 0.21531737321058 
2390	 0.214604086666113 
2391	 0.213795110919716 
2392	 0.213057588115865 
2393	 0.21226948352846 
2394	 0.211413048598487 
2395	 0.210587533352665 
2396	 0.209821247663161 
2397	 0.209113244530592 
2398	 0.208459191454378 
2399	 0.20793671921469 
2400	 0.20736955700124 
2401	 0.206656880603448 
2402	 0.205972840329015 
2403	 0.205292221711162 
2404	 0.204539368532733 
2405	 0.203945222887684 
2406	 0.203464783034367 
2407	 0.202931346127811 
2408	 0.202511639764334 
2409	 0.202092833923158 
2410	 0.20159165491936 
2411	 0.201172629147523 
2412	 0.200747107786617 
2413	 0.200242536369245 
2414	 0.199716586924125 
2415	 0.19922041929823 
2416	 0.198772971581481 
2417	 0.198342217891942 
2418	 0.197902999292201 
2419	 0.197534968363419 
2420	 0.197135617670832 
2421	 0.196724287842034 
2422	 0.196281123714686 
2423	 0.195848293398547 
2424	 0.195345848541605 
2425	 0.194719451257667 
2426	 0.194190247908204 
2427	 0.193684300926802 
2428	 0.193238557111913 
2429	 0.192872862540227 
2430	 0.192447581705213 
2431	 0.192021009287013 
2432	 0.191561325830929 
2433	 0.191083651585607 
2434	 0.190626422402906 
2435	 0.19018159585499 
2436	 0.18971527199377 
2437	 0.189193982952396 
2438	 0.188704063393568 
2439	 0.188265531039022 
2440	 0.187776903364227 
2441	 0.187294091325936 
2442	 0.186746656980028 
2443	 0.18611289252983 
2444	 0.185508727785072 
2445	 0.184885413767853 
2446	 0.184292872970473 
2447	 0.183697546297865 
2448	 0.183155573967721 
2449	 0.182686611958685 
2450	 0.182149587867571 
2451	 0.181591804868407 
2452	 0.181000384329148 
2453	 0.180340262236337 
2454	 0.179793778168666 
2455	 0.179282931066522 
2456	 0.178757221692612 
2457	 0.178256003486068 
2458	 0.177844874567538 
2459	 0.17753589365072 
2460	 0.177183392401149 
2461	 0.176864887655977 
2462	 0.176461117619024 
2463	 0.175922427261337 
2464	 0.175574210399723 
2465	 0.175328960022039 
2466	 0.175052895501377 
2467	 0.174829476389728 
2468	 0.174584682028436 
2469	 0.17435664860216 
2470	 0.174177077341277 
2471	 0.173901720228498 
2472	 0.173717035265009 
2473	 0.173634703650086 
2474	 0.17348658282192 
2475	 0.173284721852434 
2476	 0.173140049259891 
2477	 0.172828796767781 
2478	 0.172321692636899 
2479	 0.171904189989525 
2480	 0.171472768829885 
2481	 0.171148770128779 
2482	 0.170931491175037 
2483	 0.170667299840546 
2484	 0.170284264892833 
2485	 0.169702033115706 
2486	 0.169148848582455 
2487	 0.168696734214735 
2488	 0.168416968176714 
2489	 0.168295557848764 
2490	 0.16824174364296 
2491	 0.168110929687984 
2492	 0.167691154377821 
2493	 0.167239299374838 
2494	 0.166861181466618 
2495	 0.1664472611622 
2496	 0.166154741709329 
2497	 0.165844108599931 
2498	 0.165420735842355 
2499	 0.165125910875043 
2500	 0.164819511661232 
