Wavelength	mm23-100006.asd
350	 5.42632784176307E-02 
351	 5.52722648589152E-02 
352	 5.18325052801674E-02 
353	 4.85374687456213E-02 
354	 5.54770974945968E-02 
355	 0.057817810748589 
356	 0.059214571806601 
357	 6.44420961617512E-02 
358	 6.30445685247422E-02 
359	 5.73582101681803E-02 
360	 5.49902582644753E-02 
361	 6.36451363469994E-02 
362	 5.70307444280292E-02 
363	 5.29899771157582E-02 
364	 5.87496679682188E-02 
365	 5.69348941604065E-02 
366	 5.51425879049398E-02 
367	 0.05517289643453 
368	 5.70495250159735E-02 
369	 6.07488554393873E-02 
370	 5.91898931077131E-02 
371	 5.62922252630325E-02 
372	 6.18877374324866E-02 
373	 6.10813818340064E-02 
374	 6.23246166833521E-02 
375	 6.80447534190842E-02 
376	 6.51485957703422E-02 
377	 6.11190074033138E-02 
378	 6.19751220209562E-02 
379	 0.06914426661927 
380	 6.69520058776266E-02 
381	 6.57621449431487E-02 
382	 6.77657839006626E-02 
383	 6.84307028117009E-02 
384	 6.86576091660525E-02 
385	 6.85856434093246E-02 
386	 6.90018845994599E-02 
387	 7.23082868308054E-02 
388	 7.36204599463706E-02 
389	 7.34536707063497E-02 
390	 7.37559188349909E-02 
391	 7.37752098645805E-02 
392	 7.61888149605766E-02 
393	 7.96730275424717E-02 
394	 7.98333809932422E-02 
395	 8.04793368681318E-02 
396	 8.17372649486668E-02 
397	 8.31816316707693E-02 
398	 8.45169214021696E-02 
399	 8.67750749131365E-02 
400	 8.89169912761415E-02 
401	 8.96722809730285E-02 
402	 9.10011215496082E-02 
403	 9.18754354673885E-02 
404	 9.26180188262797E-02 
405	 9.49722634941908E-02 
406	 9.62872318089187E-02 
407	 9.75347580421414E-02 
408	 9.93254308137076E-02 
409	 9.94161371715815E-02 
410	 9.91292562191544E-02 
411	 0.099652718596229 
412	 0.101657768206151 
413	 0.103066878896847 
414	 0.103274254485612 
415	 0.10286441492517 
416	 0.103670399142787 
417	 0.104107215881094 
418	 0.104370553710952 
419	 0.104841148714929 
420	 0.105074986842879 
421	 0.104772080854999 
422	 0.104437759742814 
423	 0.104917895106926 
424	 0.104848262802349 
425	 0.10450688802534 
426	 0.104140877324361 
427	 0.10347407623996 
428	 0.103333279856245 
429	 0.103073552827756 
430	 0.101961648189281 
431	 0.101308835733544 
432	 0.100708841119009 
433	 0.100395870933933 
434	 0.101203939336476 
435	 0.100934373100378 
436	 0.100286396870568 
437	 0.10016778242642 
438	 0.100423725522633 
439	 0.10124772391538 
440	 0.102195841204429 
441	 0.102631804782081 
442	 0.103131776480081 
443	 0.103920101636508 
444	 0.104902391054549 
445	 0.105564216429952 
446	 0.106548589345789 
447	 0.107530728715174 
448	 0.108151957436523 
449	 0.10911107044549 
450	 0.110297941849313 
451	 0.111321095711789 
452	 0.111660670747961 
453	 0.112370326731523 
454	 0.113248920750273 
455	 0.114026104801562 
456	 0.114873368060094 
457	 0.115457827010777 
458	 0.11587881885123 
459	 0.116414587865739 
460	 0.117066884561323 
461	 0.117371997861165 
462	 0.117452726890952 
463	 0.118303106572204 
464	 0.118840591503828 
465	 0.119025667140781 
466	 0.119189309132394 
467	 0.119916435091866 
468	 0.120332315301113 
469	 0.120315742293365 
470	 0.12039656472065 
471	 0.120886463675007 
472	 0.121232325063947 
473	 0.121155072535638 
474	 0.121362489245111 
475	 0.12165036332278 
476	 0.121913478542917 
477	 0.122092082524545 
478	 0.122245238765349 
479	 0.122461859788806 
480	 0.122737952598651 
481	 0.122939030745583 
482	 0.123290207974065 
483	 0.123631078604241 
484	 0.123802613647529 
485	 0.124121353505965 
486	 0.124289971269514 
487	 0.124324460496446 
488	 0.124500996911573 
489	 0.124727274497397 
490	 0.1249301085214 
491	 0.125093986629769 
492	 0.125358019349263 
493	 0.125494941348723 
494	 0.125529189925546 
495	 0.125622108354389 
496	 0.125965269635348 
497	 0.126288230072024 
498	 0.126471170038907 
499	 0.126685180305256 
500	 0.126804885512635 
501	 0.1269304853744 
502	 0.127147715958208 
503	 0.127169816734317 
504	 0.127314704058495 
505	 0.127600889208021 
506	 0.127767671150369 
507	 0.127951481564936 
508	 0.128085024599 
509	 0.12812843468546 
510	 0.128191563134305 
511	 0.12836423496817 
512	 0.128579812642006 
513	 0.1287001869814 
514	 0.128796323236586 
515	 0.12893445873531 
516	 0.129139656631808 
517	 0.129385395968187 
518	 0.129482455100679 
519	 0.129530205470492 
520	 0.129677768342647 
521	 0.129752303193404 
522	 0.129937629829998 
523	 0.13019361637196 
524	 0.130237042677444 
525	 0.130337818051611 
526	 0.130467184856325 
527	 0.13058125695253 
528	 0.130834411976074 
529	 0.130903450316002 
530	 0.130892705961857 
531	 0.131155326090453 
532	 0.131401000966663 
533	 0.131653039912502 
534	 0.131910178417141 
535	 0.132023441595389 
536	 0.132057806927381 
537	 0.132150716668979 
538	 0.132412626596051 
539	 0.132552758138475 
540	 0.132683713446052 
541	 0.132860961372634 
542	 0.133018057049719 
543	 0.133265600721381 
544	 0.133524809371334 
545	 0.133710885914865 
546	 0.13393802304454 
547	 0.134142607660889 
548	 0.134349559647388 
549	 0.134653044886338 
550	 0.134911686623357 
551	 0.135192295712298 
552	 0.13553653431983 
553	 0.135819047966968 
554	 0.136101919094596 
555	 0.136413711574411 
556	 0.136764239022487 
557	 0.137152588453313 
558	 0.137527551348799 
559	 0.13788427470568 
560	 0.13831003155695 
561	 0.138703565218332 
562	 0.139138516209849 
563	 0.139740325653519 
564	 0.140574444320231 
565	 0.141388986695444 
566	 0.142093424210733 
567	 0.14279788206464 
568	 0.143418857695897 
569	 0.143915477872359 
570	 0.144340396099072 
571	 0.145022049939804 
572	 0.145677444120067 
573	 0.146291234529824 
574	 0.14703724555022 
575	 0.147864507598261 
576	 0.148848966360188 
577	 0.150013150166497 
578	 0.151254307462141 
579	 0.152425522835467 
580	 0.153422743295682 
581	 0.154220813394569 
582	 0.155089589370654 
583	 0.155938962460048 
584	 0.156806469827244 
585	 0.157959411630391 
586	 0.159343439001891 
587	 0.160845931621947 
588	 0.162336158906756 
589	 0.163755478350701 
590	 0.165059224457368 
591	 0.166280580422017 
592	 0.167514869673515 
593	 0.168547381872926 
594	 0.169394835105433 
595	 0.170181346704933 
596	 0.171169789913121 
597	 0.172289614511922 
598	 0.173469649650253 
599	 0.174654775384864 
600	 0.175976213380409 
601	 0.177293594363571 
602	 0.178503327599567 
603	 0.179619930728693 
604	 0.180745584241168 
605	 0.181870490803246 
606	 0.182948229756957 
607	 0.183998449352317 
608	 0.184921089143091 
609	 0.185774293796016 
610	 0.186796224355358 
611	 0.187638794539691 
612	 0.188401130244805 
613	 0.189204858511564 
614	 0.189860681003063 
615	 0.190537274874693 
616	 0.191251638055338 
617	 0.191909876824794 
618	 0.192521349323374 
619	 0.193067747893203 
620	 0.193562886943199 
621	 0.194092290814353 
622	 0.194595763304808 
623	 0.195098100723379 
624	 0.195632892373341 
625	 0.196054128493081 
626	 0.196483270593246 
627	 0.196960894019822 
628	 0.197392789937051 
629	 0.197812822280106 
630	 0.198222301166563 
631	 0.198613513268544 
632	 0.198957121367168 
633	 0.199362174409217 
634	 0.199820068810038 
635	 0.200223755383828 
636	 0.200538628234789 
637	 0.200867414547417 
638	 0.201259184671542 
639	 0.201563732245901 
640	 0.201917474874099 
641	 0.20231852304237 
642	 0.202707596155064 
643	 0.203124287664074 
644	 0.203512304226351 
645	 0.203869378222931 
646	 0.204282928012193 
647	 0.204666327563526 
648	 0.205036614023181 
649	 0.205439939115958 
650	 0.205913308383223 
651	 0.206372228401985 
652	 0.206796024140253 
653	 0.20722527211809 
654	 0.20769539806937 
655	 0.20812006676486 
656	 0.208475835162483 
657	 0.208944061672931 
658	 0.209486640653645 
659	 0.210014416476563 
660	 0.210440384432155 
661	 0.210930737981887 
662	 0.211487973846788 
663	 0.212064888489368 
664	 0.212565253214204 
665	 0.213141540414003 
666	 0.213740402903375 
667	 0.214281974253899 
668	 0.214834917714707 
669	 0.215413590561232 
670	 0.216048452076715 
671	 0.216771080169897 
672	 0.217437390792096 
673	 0.218042850796053 
674	 0.218631160319752 
675	 0.219291505210601 
676	 0.219974730248041 
677	 0.22067708446284 
678	 0.221410239019047 
679	 0.222163248218034 
680	 0.222899610811583 
681	 0.22361587170874 
682	 0.224352675047294 
683	 0.225132825461043 
684	 0.225911432136872 
685	 0.226666271029216 
686	 0.227534509728036 
687	 0.228389889960566 
688	 0.229210972824084 
689	 0.230053364490382 
690	 0.230922567543306 
691	 0.231789323130348 
692	 0.232644466312511 
693	 0.233532636375653 
694	 0.234423706076003 
695	 0.235322351820946 
696	 0.236234188498678 
697	 0.237086369912493 
698	 0.23802048978601 
699	 0.239027790569436 
700	 0.239935363489124 
701	 0.240877344460983 
702	 0.241836635736506 
703	 0.242786828719232 
704	 0.243772745795375 
705	 0.244715554294514 
706	 0.245625748406316 
707	 0.24655966517329 
708	 0.247525788013804 
709	 0.24851637532058 
710	 0.249497532869938 
711	 0.25040346172816 
712	 0.251345355069085 
713	 0.252284639481155 
714	 0.253180136800186 
715	 0.254154815113546 
716	 0.255058041577841 
717	 0.255891362943632 
718	 0.256770687656016 
719	 0.257716910603753 
720	 0.258610829815167 
721	 0.259396865117053 
722	 0.260180292184704 
723	 0.260998424356602 
724	 0.261749846890834 
725	 0.262357795687134 
726	 0.263132624867164 
727	 0.263866367239897 
728	 0.264509050862921 
729	 0.265174915706883 
730	 0.265784398539864 
731	 0.266299079142553 
732	 0.266741436404967 
733	 0.267257858528015 
734	 0.267784379671615 
735	 0.268225273457686 
736	 0.268510144604743 
737	 0.268812034792188 
738	 0.269150647567391 
739	 0.269488097435447 
740	 0.269740540380695 
741	 0.269969096049219 
742	 0.270095530921707 
743	 0.270107393782931 
744	 0.270251504747562 
745	 0.270317967770994 
746	 0.270320489855122 
747	 0.270354999964609 
748	 0.270288220338048 
749	 0.270172143638306 
750	 0.270053907021 
751	 0.269952258296522 
752	 0.269774084536464 
753	 0.26952146444325 
754	 0.269229804473644 
755	 0.268953983801611 
756	 0.268685515095215 
757	 0.268351511988016 
758	 0.267883724417884 
759	 0.267499218623901 
760	 0.267095447092341 
761	 0.266640910171596 
762	 0.266229579442114 
763	 0.265796853600058 
764	 0.265307731445971 
765	 0.26476130041015 
766	 0.264223722052818 
767	 0.263713061974986 
768	 0.263215858081982 
769	 0.262691902361693 
770	 0.262055194388989 
771	 0.261449915107107 
772	 0.260893330984843 
773	 0.260231574713657 
774	 0.259602226721304 
775	 0.258983532261372 
776	 0.258337369304623 
777	 0.257676643386508 
778	 0.257033774454276 
779	 0.256416339603653 
780	 0.255813468233799 
781	 0.255197809299296 
782	 0.254547705725702 
783	 0.253874993375435 
784	 0.253225524875132 
785	 0.252569882493227 
786	 0.251932566699618 
787	 0.251319923100354 
788	 0.250663121211927 
789	 0.250099101259164 
790	 0.249525552632615 
791	 0.248808763459603 
792	 0.248151863816328 
793	 0.247533749714181 
794	 0.246938012624051 
795	 0.246355099598121 
796	 0.245679704473856 
797	 0.245068300964864 
798	 0.244568009926869 
799	 0.243951922112085 
800	 0.243391005095877 
801	 0.242825317017145 
802	 0.242186195785309 
803	 0.241641537091929 
804	 0.24113747434164 
805	 0.240636442077302 
806	 0.240116921924606 
807	 0.239574610407648 
808	 0.239064142417955 
809	 0.238586825672777 
810	 0.238067578878685 
811	 0.237544208081677 
812	 0.237021000728751 
813	 0.236520255276651 
814	 0.236137591313599 
815	 0.235750907296867 
816	 0.235324343193776 
817	 0.234863915105004 
818	 0.234366682526039 
819	 0.233938911347781 
820	 0.233568619049054 
821	 0.233149940738403 
822	 0.232794027548714 
823	 0.232391106602012 
824	 0.231933617344708 
825	 0.231628279068697 
826	 0.231328009378093 
827	 0.230995414281548 
828	 0.230643685462167 
829	 0.230355447414646 
830	 0.229976935481618 
831	 0.229574916743111 
832	 0.229302952869595 
833	 0.229126339640283 
834	 0.228875859528251 
835	 0.228546617625395 
836	 0.228292125880773 
837	 0.228083178327677 
838	 0.227869593538225 
839	 0.227627642108873 
840	 0.22738774061422 
841	 0.227137921944449 
842	 0.226904650134301 
843	 0.226701094578303 
844	 0.226459971511083 
845	 0.226323593048964 
846	 0.226225127558259 
847	 0.2260510408604 
848	 0.226045298309757 
849	 0.225946505954439 
850	 0.225732492256628 
851	 0.225597815045429 
852	 0.225457668900102 
853	 0.225346620351631 
854	 0.225281896351023 
855	 0.225235450532513 
856	 0.225194561518296 
857	 0.225118740644316 
858	 0.225013528492084 
859	 0.225006508091505 
860	 0.225073667490741 
861	 0.225099537327843 
862	 0.224990523132238 
863	 0.224884118066277 
864	 0.224911557206073 
865	 0.225010262374224 
866	 0.225019164819792 
867	 0.225027606221597 
868	 0.225039054950912 
869	 0.225058037324084 
870	 0.225098885687218 
871	 0.225218992546815 
872	 0.22536362251485 
873	 0.225485537257044 
874	 0.225583234336038 
875	 0.225679492824333 
876	 0.22578572172854 
877	 0.225915750659042 
878	 0.226104204697322 
879	 0.226270072466043 
880	 0.226421740025867 
881	 0.226591512348728 
882	 0.226763924753383 
883	 0.226916039532764 
884	 0.227088113458605 
885	 0.227336024243096 
886	 0.227588741772881 
887	 0.227832699193004 
888	 0.228044145782742 
889	 0.22820781096508 
890	 0.228491205278888 
891	 0.228772064525478 
892	 0.229025061034146 
893	 0.229383366686141 
894	 0.229714720398118 
895	 0.230013956502073 
896	 0.230301903346696 
897	 0.230596338600885 
898	 0.231027893322334 
899	 0.231477754182574 
900	 0.231821819099044 
901	 0.232098455128498 
902	 0.23247056853964 
903	 0.232893857629366 
904	 0.233283413351476 
905	 0.233717438034372 
906	 0.23416979033977 
907	 0.234647429378449 
908	 0.235158769200458 
909	 0.235649097223718 
910	 0.236074479034257 
911	 0.236469831631439 
912	 0.236921296490104 
913	 0.23747878218997 
914	 0.238048622428561 
915	 0.23862916584492 
916	 0.239284153651877 
917	 0.239750246171918 
918	 0.240279195878999 
919	 0.240925539801835 
920	 0.241459829983537 
921	 0.242084518245008 
922	 0.242705595022275 
923	 0.243302322500455 
924	 0.244024204577201 
925	 0.24475672212598 
926	 0.245442303728726 
927	 0.246073912071186 
928	 0.246708507275043 
929	 0.247430445859655 
930	 0.24826512315364 
931	 0.249146653304111 
932	 0.249865241569256 
933	 0.250577524618962 
934	 0.251326045394196 
935	 0.252122484517137 
936	 0.252995951768049 
937	 0.253828836819182 
938	 0.254589136270223 
939	 0.255344933473987 
940	 0.256365203072581 
941	 0.257402842077571 
942	 0.258376643339386 
943	 0.259283110176547 
944	 0.260106340093773 
945	 0.260961877037145 
946	 0.2619158983862 
947	 0.26294412226549 
948	 0.263780193675669 
949	 0.264766375761379 
950	 0.265846689361528 
951	 0.266818724338078 
952	 0.267914350720948 
953	 0.268982801275846 
954	 0.270017089629836 
955	 0.271094638564367 
956	 0.272208035658423 
957	 0.27334593965611 
958	 0.274493511127242 
959	 0.275644385030197 
960	 0.276851682101269 
961	 0.277994204020805 
962	 0.279106871965243 
963	 0.280293384509408 
964	 0.28138945106886 
965	 0.282609188485414 
966	 0.283876667215224 
967	 0.284993449230884 
968	 0.286359537570658 
969	 0.287695350842966 
970	 0.288893810722046 
971	 0.290034517787565 
972	 0.291322641299942 
973	 0.292625378746539 
974	 0.293918892610402 
975	 0.295268794653981 
976	 0.296712275769795 
977	 0.298040010993151 
978	 0.299308585956375 
979	 0.300710403798899 
980	 0.302079342318169 
981	 0.303519999598513 
982	 0.304891243583869 
983	 0.306014813751871 
984	 0.307355695167204 
985	 0.308729036376356 
986	 0.310077808461547 
987	 0.311450050016535 
988	 0.312949976656139 
989	 0.314148364417989 
990	 0.315265045702137 
991	 0.316758107783792 
992	 0.318466406072402 
993	 0.319916583181254 
994	 0.321169421470607 
995	 0.322495851717841 
996	 0.323825515362272 
997	 0.32530787229142 
998	 0.326680900897207 
999	 0.327790100192569 
1000	 0.32942534604066 
1001	 0.329807314008165 
1002	 0.331116353797365 
1003	 0.332406088389959 
1004	 0.333680245090075 
1005	 0.335004021722868 
1006	 0.336271307851367 
1007	 0.337502811400905 
1008	 0.338706375433537 
1009	 0.339859219543095 
1010	 0.341032439191589 
1011	 0.342156743099563 
1012	 0.343243379720275 
1013	 0.344415869207577 
1014	 0.345571008408667 
1015	 0.346681782205588 
1016	 0.347844333958335 
1017	 0.348987103206724 
1018	 0.350118771917235 
1019	 0.351184302381572 
1020	 0.352281364125121 
1021	 0.353335599317317 
1022	 0.354318805187312 
1023	 0.35533940199575 
1024	 0.356363246837647 
1025	 0.357434336401056 
1026	 0.358502123987172 
1027	 0.359509357303483 
1028	 0.360515513716239 
1029	 0.361486575393689 
1030	 0.362423379509219 
1031	 0.363361144681169 
1032	 0.364300268334604 
1033	 0.365263410799763 
1034	 0.366197656285878 
1035	 0.367094920683816 
1036	 0.368036158644438 
1037	 0.368962240229322 
1038	 0.369860243912491 
1039	 0.370797869345681 
1040	 0.371715280208965 
1041	 0.372614397331666 
1042	 0.373549561138085 
1043	 0.374473269627131 
1044	 0.375379067317689 
1045	 0.376289575028504 
1046	 0.377195063595494 
1047	 0.37804671446672 
1048	 0.378889825242513 
1049	 0.379738126279679 
1050	 0.380603070765656 
1051	 0.381490111283435 
1052	 0.382339093048539 
1053	 0.383193784455559 
1054	 0.384067387268672 
1055	 0.384926858599965 
1056	 0.385819718182562 
1057	 0.386715799522536 
1058	 0.387661317429724 
1059	 0.388530626236103 
1060	 0.389375362260483 
1061	 0.39020394157683 
1062	 0.390974505383336 
1063	 0.391711634513398 
1064	 0.392481943764532 
1065	 0.393247957481238 
1066	 0.394009571538591 
1067	 0.394835604385397 
1068	 0.395643096991818 
1069	 0.396424502563707 
1070	 0.397235248511652 
1071	 0.398081702375418 
1072	 0.398881394504009 
1073	 0.399700544871674 
1074	 0.40046547272325 
1075	 0.40119854765286 
1076	 0.401852298605472 
1077	 0.402533212987733 
1078	 0.403178610150505 
1079	 0.403845980460871 
1080	 0.404593653057516 
1081	 0.405277906023513 
1082	 0.405973942802316 
1083	 0.406678022998036 
1084	 0.407350314436821 
1085	 0.40805604417798 
1086	 0.408824289943655 
1087	 0.409521189133164 
1088	 0.410203138643017 
1089	 0.410871130083968 
1090	 0.411456794660762 
1091	 0.412052750334297 
1092	 0.412656355744759 
1093	 0.41324795359535 
1094	 0.413900127329175 
1095	 0.414528241203856 
1096	 0.415151992628553 
1097	 0.415792583396512 
1098	 0.416408011885192 
1099	 0.417020825463993 
1100	 0.417610777488997 
1101	 0.418158946130804 
1102	 0.418738994073096 
1103	 0.419325079710998 
1104	 0.419895931426962 
1105	 0.420488853917241 
1106	 0.421091388480503 
1107	 0.42166914624287 
1108	 0.422237273213438 
1109	 0.422820510873136 
1110	 0.423382767663253 
1111	 0.423938082890625 
1112	 0.424491686061432 
1113	 0.425039284710382 
1114	 0.425571833657215 
1115	 0.426104793779058 
1116	 0.426621297203295 
1117	 0.427160377683311 
1118	 0.427706486095594 
1119	 0.428257578820871 
1120	 0.428798099468123 
1121	 0.429331609933263 
1122	 0.429855237781555 
1123	 0.430374877866544 
1124	 0.430896432547858 
1125	 0.431437929233341 
1126	 0.431953171270107 
1127	 0.432443003236298 
1128	 0.432942248007449 
1129	 0.433440126048544 
1130	 0.433941377603184 
1131	 0.434450837326362 
1132	 0.434948722902367 
1133	 0.435420561600123 
1134	 0.43591786288526 
1135	 0.436407152701978 
1136	 0.436943451747424 
1137	 0.437458232883625 
1138	 0.437959505708455 
1139	 0.438448445560002 
1140	 0.438905539916079 
1141	 0.439370504040957 
1142	 0.439859771107256 
1143	 0.44030184024272 
1144	 0.440709112898256 
1145	 0.441125958010335 
1146	 0.441503883593709 
1147	 0.441912722872763 
1148	 0.442345848151289 
1149	 0.442770481641233 
1150	 0.443201958081195 
1151	 0.443638279812987 
1152	 0.444034860262395 
1153	 0.444431441618824 
1154	 0.444824347424446 
1155	 0.445195401257883 
1156	 0.445575312445743 
1157	 0.445955352802374 
1158	 0.446347519993152 
1159	 0.446755522308107 
1160	 0.447143810999103 
1161	 0.447539162928142 
1162	 0.447918216217965 
1163	 0.448271313966938 
1164	 0.448626390380882 
1165	 0.448962810336626 
1166	 0.44933730032475 
1167	 0.449691725933575 
1168	 0.450044963392189 
1169	 0.450393505261462 
1170	 0.450744326458501 
1171	 0.45108398382498 
1172	 0.451409922563731 
1173	 0.451748313042837 
1174	 0.452094652017957 
1175	 0.452427844485313 
1176	 0.452761325929924 
1177	 0.453088711210611 
1178	 0.453401063212434 
1179	 0.45372110854211 
1180	 0.454052127414922 
1181	 0.454369122336957 
1182	 0.454681794219514 
1183	 0.454995683045751 
1184	 0.455281914605568 
1185	 0.455536126473476 
1186	 0.45582934004097 
1187	 0.456127581246322 
1188	 0.456415968554813 
1189	 0.456722132243524 
1190	 0.457017026249796 
1191	 0.457305959966217 
1192	 0.457573583160733 
1193	 0.457830035673956 
1194	 0.458094253809727 
1195	 0.458350922765274 
1196	 0.45858914310493 
1197	 0.458823942385091 
1198	 0.459062637657839 
1199	 0.459293861601075 
1200	 0.459489591958664 
1201	 0.459729641943576 
1202	 0.459995097423541 
1203	 0.460254887214568 
1204	 0.460525128614377 
1205	 0.460789995830572 
1206	 0.46106524545894 
1207	 0.461324403466044 
1208	 0.461576595254339 
1209	 0.461825876779826 
1210	 0.462072364012336 
1211	 0.462307164794811 
1212	 0.462529949650196 
1213	 0.462756240128506 
1214	 0.462974381003637 
1215	 0.463192281781535 
1216	 0.463410365720519 
1217	 0.463632681463568 
1218	 0.463851589848419 
1219	 0.464065139626322 
1220	 0.464283475977593 
1221	 0.464513490302836 
1222	 0.464723052753379 
1223	 0.464917789324743 
1224	 0.465124824045879 
1225	 0.465326548458364 
1226	 0.465530274819906 
1227	 0.46574746508441 
1228	 0.465955603435196 
1229	 0.466143701193892 
1230	 0.466351171643066 
1231	 0.466588910803509 
1232	 0.466796175085052 
1233	 0.466994395530662 
1234	 0.467198707531138 
1235	 0.467377149267123 
1236	 0.467516555493127 
1237	 0.46768479444974 
1238	 0.467865000698907 
1239	 0.46802329971267 
1240	 0.468173129798938 
1241	 0.468330105079471 
1242	 0.468472408626546 
1243	 0.46862617377868 
1244	 0.468801873772934 
1245	 0.4689599916827 
1246	 0.46909053903172 
1247	 0.469251297013639 
1248	 0.469415311884084 
1249	 0.469599954304092 
1250	 0.469802875025159 
1251	 0.469996757827773 
1252	 0.470172926752834 
1253	 0.470339099296792 
1254	 0.470492696610896 
1255	 0.470633429247526 
1256	 0.470767550719748 
1257	 0.470891006032365 
1258	 0.471005311124495 
1259	 0.47110072341297 
1260	 0.471206930880931 
1261	 0.471301450767934 
1262	 0.471409956098903 
1263	 0.471531099174818 
1264	 0.471652754595831 
1265	 0.471781024215118 
1266	 0.471908453849084 
1267	 0.472038503610711 
1268	 0.472163907826614 
1269	 0.472304621942056 
1270	 0.472446834643904 
1271	 0.472604844038066 
1272	 0.472778451202678 
1273	 0.472951180910538 
1274	 0.473133559540346 
1275	 0.473315137319114 
1276	 0.473489064758709 
1277	 0.473689962728295 
1278	 0.473905214681031 
1279	 0.474123953987488 
1280	 0.474366456818987 
1281	 0.474600773978955 
1282	 0.474835355855913 
1283	 0.475067600677815 
1284	 0.475298400674178 
1285	 0.475532910840881 
1286	 0.4757724820653 
1287	 0.476008160945001 
1288	 0.476226996014259 
1289	 0.476444719538274 
1290	 0.476650475327101 
1291	 0.47683294698852 
1292	 0.477023312065733 
1293	 0.477223366518666 
1294	 0.477394005098134 
1295	 0.477561752174174 
1296	 0.477696501793409 
1297	 0.477786298167757 
1298	 0.477900114005275 
1299	 0.478018932176795 
1300	 0.478110170143555 
1301	 0.478195044849659 
1302	 0.47827086245954 
1303	 0.478317022982235 
1304	 0.478359270692745 
1305	 0.478427710119382 
1306	 0.478480531258532 
1307	 0.47849431029593 
1308	 0.478501386318444 
1309	 0.478513375160485 
1310	 0.478503956685265 
1311	 0.478507907255808 
1312	 0.478536456032705 
1313	 0.478530144308803 
1314	 0.478505318993723 
1315	 0.478480292547014 
1316	 0.478447610021882 
1317	 0.478403458640695 
1318	 0.478345383324083 
1319	 0.478290936383685 
1320	 0.478223710242499 
1321	 0.478164315277321 
1322	 0.47811651092258 
1323	 0.478058309180911 
1324	 0.477982334361271 
1325	 0.477922119288522 
1326	 0.47785852499641 
1327	 0.477773826912017 
1328	 0.477711950226318 
1329	 0.477629280644587 
1330	 0.477533046955293 
1331	 0.477420299746129 
1332	 0.477315606842216 
1333	 0.477199799699671 
1334	 0.477091179543849 
1335	 0.476976897318801 
1336	 0.476882792442275 
1337	 0.476796032751861 
1338	 0.476707383556597 
1339	 0.476643503905076 
1340	 0.476559037251538 
1341	 0.47646344672014 
1342	 0.476369370838283 
1343	 0.476267680404908 
1344	 0.476166674753846 
1345	 0.476075877063453 
1346	 0.47596977905366 
1347	 0.475876944541339 
1348	 0.475786908295122 
1349	 0.47567681446517 
1350	 0.47558122378415 
1351	 0.475473518864375 
1352	 0.475353911933801 
1353	 0.475242653012546 
1354	 0.475126773819156 
1355	 0.475019042567993 
1356	 0.47491010867933 
1357	 0.474820332812548 
1358	 0.474749741607896 
1359	 0.474667146420841 
1360	 0.474583163284951 
1361	 0.474509379246478 
1362	 0.474447457431692 
1363	 0.474370757016269 
1364	 0.47429838698274 
1365	 0.474221166465226 
1366	 0.474125313894586 
1367	 0.474024188943819 
1368	 0.473967753544862 
1369	 0.473922867281922 
1370	 0.473846539626874 
1371	 0.473744741516192 
1372	 0.473591929723715 
1373	 0.473419988292263 
1374	 0.473245959237486 
1375	 0.473061192645069 
1376	 0.472857379697418 
1377	 0.472657920102805 
1378	 0.47240300551309 
1379	 0.472094928293154 
1380	 0.471813517477416 
1381	 0.47151079347059 
1382	 0.471201825957737 
1383	 0.470935312260539 
1384	 0.470593976060619 
1385	 0.470221855493471 
1386	 0.469809413870836 
1387	 0.469350655744765 
1388	 0.468859575402211 
1389	 0.468346365714956 
1390	 0.467771754525733 
1391	 0.467159319354187 
1392	 0.466517116947215 
1393	 0.465781907230347 
1394	 0.464976353826634 
1395	 0.46410246403882 
1396	 0.463205135965858 
1397	 0.462339619202905 
1398	 0.461467153482234 
1399	 0.460593724129693 
1400	 0.459747954699815 
1401	 0.458857148781973 
1402	 0.457920222799145 
1403	 0.457034202391655 
1404	 0.456136043123818 
1405	 0.455282384650621 
1406	 0.454466350973076 
1407	 0.453654261664732 
1408	 0.452847356658801 
1409	 0.452084073138182 
1410	 0.451309989092629 
1411	 0.450632335200102 
1412	 0.450012128188874 
1413	 0.449433607545418 
1414	 0.448984847433416 
1415	 0.448605672397079 
1416	 0.448274001472379 
1417	 0.447996251061865 
1418	 0.447702940611378 
1419	 0.447420597744498 
1420	 0.447166963057699 
1421	 0.446930916903561 
1422	 0.446720859462448 
1423	 0.446509143754451 
1424	 0.446263546636777 
1425	 0.445998236856481 
1426	 0.445738744959377 
1427	 0.445429075447271 
1428	 0.445195294056677 
1429	 0.444992564885408 
1430	 0.444806907885636 
1431	 0.444692602163333 
1432	 0.444518115964066 
1433	 0.444313000434127 
1434	 0.444141774017937 
1435	 0.443927739060997 
1436	 0.443785939506488 
1437	 0.443695341103206 
1438	 0.443626458518438 
1439	 0.443613465852378 
1440	 0.443598212903306 
1441	 0.443545827142845 
1442	 0.443483710652993 
1443	 0.44337396177796 
1444	 0.443281855348377 
1445	 0.443228828028094 
1446	 0.443191181631671 
1447	 0.443195300490171 
1448	 0.443163678638844 
1449	 0.443067313373613 
1450	 0.44296410841359 
1451	 0.442869279384391 
1452	 0.442729228305852 
1453	 0.442635617578598 
1454	 0.442588432427432 
1455	 0.442510513085228 
1456	 0.442424775342788 
1457	 0.442336184853774 
1458	 0.442239335890835 
1459	 0.442143929889536 
1460	 0.442035690726244 
1461	 0.441952702324106 
1462	 0.441875754045262 
1463	 0.441815016697452 
1464	 0.441786809090485 
1465	 0.441736817355872 
1466	 0.44167533695523 
1467	 0.441636081884941 
1468	 0.441555574545108 
1469	 0.4415537207519 
1470	 0.441596654331674 
1471	 0.441674031078428 
1472	 0.44181394831247 
1473	 0.442000009774505 
1474	 0.442161850129235 
1475	 0.442347586522022 
1476	 0.442512789386898 
1477	 0.442675442645384 
1478	 0.442898636014531 
1479	 0.443141985322301 
1480	 0.443406105236351 
1481	 0.44367763456395 
1482	 0.443941636128962 
1483	 0.444203653141837 
1484	 0.444454579094908 
1485	 0.444696360811911 
1486	 0.444959177501713 
1487	 0.445217679715947 
1488	 0.44548737624435 
1489	 0.445795342775079 
1490	 0.446059832538556 
1491	 0.446311057430951 
1492	 0.44654896943869 
1493	 0.446758469078406 
1494	 0.446972309574763 
1495	 0.447173978230009 
1496	 0.447379939831871 
1497	 0.447593347158772 
1498	 0.447792534712382 
1499	 0.448001905852235 
1500	 0.448177657236713 
1501	 0.448319473372993 
1502	 0.448466629160958 
1503	 0.448595510372557 
1504	 0.448719615247511 
1505	 0.448862425552461 
1506	 0.449011010547961 
1507	 0.449186204836978 
1508	 0.449365973125212 
1509	 0.449524436503547 
1510	 0.449675986643462 
1511	 0.44980195362048 
1512	 0.449927963970207 
1513	 0.450080612045366 
1514	 0.450246980566464 
1515	 0.450421002181854 
1516	 0.450590405850434 
1517	 0.450751847369232 
1518	 0.450919704255739 
1519	 0.451055774964097 
1520	 0.451170409765173 
1521	 0.451287384864258 
1522	 0.45137972017874 
1523	 0.451489953459783 
1524	 0.4516055537419 
1525	 0.451724070504539 
1526	 0.451843526910162 
1527	 0.4519695941872 
1528	 0.452114506633638 
1529	 0.452232160173069 
1530	 0.452353270508518 
1531	 0.452448877659612 
1532	 0.452509149804749 
1533	 0.452582771378077 
1534	 0.452637628664144 
1535	 0.452714963188566 
1536	 0.452802234543057 
1537	 0.452894720390093 
1538	 0.453006564416629 
1539	 0.4531063968967 
1540	 0.453202438382051 
1541	 0.453306670157494 
1542	 0.453415140642912 
1543	 0.453514298144818 
1544	 0.453622417203424 
1545	 0.453713606046082 
1546	 0.453783001199763 
1547	 0.453865977019766 
1548	 0.453938440988022 
1549	 0.453983359368215 
1550	 0.454016162265128 
1551	 0.45405459027462 
1552	 0.454115031606279 
1553	 0.454199021535601 
1554	 0.454287203878387 
1555	 0.454359602176625 
1556	 0.454396070671437 
1557	 0.454422066112175 
1558	 0.454460671844387 
1559	 0.454501648321903 
1560	 0.454556228590607 
1561	 0.454621369892129 
1562	 0.454697036215691 
1563	 0.454794408364266 
1564	 0.454870405997138 
1565	 0.454951861735808 
1566	 0.455021571837951 
1567	 0.455066139604922 
1568	 0.455128031573128 
1569	 0.455200633138257 
1570	 0.455265394211386 
1571	 0.455339211087156 
1572	 0.455388383783378 
1573	 0.455427688100029 
1574	 0.455457096025006 
1575	 0.455460003537457 
1576	 0.455477504419696 
1577	 0.455494716447226 
1578	 0.455511587099093 
1579	 0.455518914671608 
1580	 0.455552234285816 
1581	 0.455594669878829 
1582	 0.455646147022928 
1583	 0.455739524730956 
1584	 0.455788769913496 
1585	 0.455824598839007 
1586	 0.455851869785314 
1587	 0.455852015584111 
1588	 0.455859347675684 
1589	 0.455856128987169 
1590	 0.455864171206152 
1591	 0.455876298694424 
1592	 0.455887029705508 
1593	 0.455897185425319 
1594	 0.455921498283124 
1595	 0.455964092883138 
1596	 0.455983074468059 
1597	 0.456002193780793 
1598	 0.456020370266849 
1599	 0.456025208851014 
1600	 0.456018678716482 
1601	 0.45600851418694 
1602	 0.456003923023702 
1603	 0.455968542055643 
1604	 0.455961216525686 
1605	 0.455973027782258 
1606	 0.455996044293378 
1607	 0.456032962176825 
1608	 0.456097290810525 
1609	 0.456121106029487 
1610	 0.456132668061479 
1611	 0.456137786450502 
1612	 0.456114073709697 
1613	 0.456095083465023 
1614	 0.456089153111751 
1615	 0.456066924121677 
1616	 0.456042318442265 
1617	 0.456049053463858 
1618	 0.456063107204617 
1619	 0.456069094745856 
1620	 0.456081628267495 
1621	 0.456077224148468 
1622	 0.456071267390034 
1623	 0.456033567211117 
1624	 0.455974276173877 
1625	 0.45591579898005 
1626	 0.455827190568694 
1627	 0.455773061959082 
1628	 0.455721308759386 
1629	 0.455704607113525 
1630	 0.455718040192592 
1631	 0.455715943391477 
1632	 0.45573746129608 
1633	 0.45573238536177 
1634	 0.455717124634041 
1635	 0.455682563598185 
1636	 0.455635528113663 
1637	 0.455586160518916 
1638	 0.455504490690822 
1639	 0.455462590309432 
1640	 0.455433451891574 
1641	 0.45541503361838 
1642	 0.455423003253952 
1643	 0.45540757992243 
1644	 0.455394797863119 
1645	 0.455371766537077 
1646	 0.455327007671777 
1647	 0.45530893642747 
1648	 0.455312707121893 
1649	 0.455281569797858 
1650	 0.455242147342475 
1651	 0.455207847904744 
1652	 0.455139752252379 
1653	 0.455113033213034 
1654	 0.455123561531692 
1655	 0.45511127023848 
1656	 0.455111225643624 
1657	 0.455083294063704 
1658	 0.455037956115972 
1659	 0.454990564048166 
1660	 0.454930577464239 
1661	 0.454863578210562 
1662	 0.454793108493446 
1663	 0.454709926926198 
1664	 0.454594123342955 
1665	 0.454518026462248 
1666	 0.454440682325131 
1667	 0.454395984539724 
1668	 0.454405651811792 
1669	 0.454370781143376 
1670	 0.454340271602922 
1671	 0.454289080140227 
1672	 0.45419504135828 
1673	 0.454138000863839 
1674	 0.454098252337542 
1675	 0.454043811927317 
1676	 0.454003269672582 
1677	 0.453941338292777 
1678	 0.453855664592729 
1679	 0.453779229067152 
1680	 0.45369448606494 
1681	 0.453623553100366 
1682	 0.45356169444733 
1683	 0.45349321006645 
1684	 0.453431106530899 
1685	 0.453363356227063 
1686	 0.453286210375718 
1687	 0.453215231049053 
1688	 0.453137531495929 
1689	 0.45308189598635 
1690	 0.453040197595045 
1691	 0.452994736893337 
1692	 0.45296027742494 
1693	 0.452931632608136 
1694	 0.452900795615189 
1695	 0.452876391164654 
1696	 0.452866875372377 
1697	 0.452853278939697 
1698	 0.45285534917871 
1699	 0.45281778430598 
1700	 0.452771998928641 
1701	 0.452706815867581 
1702	 0.452609072727699 
1703	 0.452500521054416 
1704	 0.452375267743476 
1705	 0.452253821233562 
1706	 0.452103377603744 
1707	 0.451977992457339 
1708	 0.451863602386668 
1709	 0.45176241407066 
1710	 0.451679150567904 
1711	 0.451584492186721 
1712	 0.45151043772803 
1713	 0.451401665414881 
1714	 0.451262697538451 
1715	 0.451133993107765 
1716	 0.450980236392326 
1717	 0.450868565644159 
1718	 0.450775644714039 
1719	 0.450693633946585 
1720	 0.450649409721322 
1721	 0.450574306510396 
1722	 0.450494826542488 
1723	 0.450408105278977 
1724	 0.450310398844936 
1725	 0.450207010671152 
1726	 0.450099963463009 
1727	 0.449983261746167 
1728	 0.449852891797558 
1729	 0.449726321981047 
1730	 0.44960090137384 
1731	 0.44946616148554 
1732	 0.44932697165417 
1733	 0.449182809589173 
1734	 0.44902364054213 
1735	 0.448874172507663 
1736	 0.448732628010531 
1737	 0.448576984965344 
1738	 0.448414630332138 
1739	 0.448254921629058 
1740	 0.448070627261741 
1741	 0.44793442457561 
1742	 0.447832069039514 
1743	 0.447717547328448 
1744	 0.44763015673075 
1745	 0.447502927468495 
1746	 0.447349002215729 
1747	 0.447206917768976 
1748	 0.447076085017322 
1749	 0.446964006477763 
1750	 0.446829716814886 
1751	 0.446675409773089 
1752	 0.446507104509758 
1753	 0.446315558300473 
1754	 0.4461093011136 
1755	 0.445920891229007 
1756	 0.44575957562365 
1757	 0.445600982270635 
1758	 0.44547284670856 
1759	 0.445360338269671 
1760	 0.445230876997178 
1761	 0.445106345273009 
1762	 0.444956476356213 
1763	 0.444776749355245 
1764	 0.444608306604704 
1765	 0.44447277476776 
1766	 0.444349534639932 
1767	 0.444214760826044 
1768	 0.444071373461792 
1769	 0.443909858867495 
1770	 0.443762419387468 
1771	 0.443667885317787 
1772	 0.443597974572636 
1773	 0.44352345759778 
1774	 0.44344351470922 
1775	 0.443348869753251 
1776	 0.443195981787211 
1777	 0.443017277097718 
1778	 0.442845021860082 
1779	 0.442645484326503 
1780	 0.442505045816961 
1781	 0.442432490425006 
1782	 0.442367944463552 
1783	 0.442345994823153 
1784	 0.442315171684316 
1785	 0.442298694943958 
1786	 0.442261311298205 
1787	 0.442224674009683 
1788	 0.442176111425734 
1789	 0.44212043793501 
1790	 0.44203587658812 
1791	 0.441923024622182 
1792	 0.441812877020991 
1793	 0.441662146518461 
1794	 0.441560423920255 
1795	 0.441468964107608 
1796	 0.441418163126804 
1797	 0.441432429173826 
1798	 0.441378340181428 
1799	 0.441337981735956 
1800	 0.441274409572951 
1801	 0.446006840136504 
1802	 0.446297537207675 
1803	 0.446618327883015 
1804	 0.446957732664809 
1805	 0.447333982610265 
1806	 0.447732841289255 
1807	 0.448111167790574 
1808	 0.448428668203057 
1809	 0.448750591324965 
1810	 0.44898381591898 
1811	 0.449139163873385 
1812	 0.449282110992972 
1813	 0.449370731396831 
1814	 0.449396537408914 
1815	 0.449414532159455 
1816	 0.449391680943005 
1817	 0.449361533338991 
1818	 0.449279181293172 
1819	 0.449259772594835 
1820	 0.449253495710479 
1821	 0.449249633691419 
1822	 0.449266792793273 
1823	 0.449249615002448 
1824	 0.44917024568139 
1825	 0.44905875790679 
1826	 0.448953607085136 
1827	 0.448872025306047 
1828	 0.448742642477687 
1829	 0.448608283089453 
1830	 0.448430638508171 
1831	 0.448205790254165 
1832	 0.447963445964281 
1833	 0.447714634791763 
1834	 0.447490259277724 
1835	 0.447307673846271 
1836	 0.447098547561503 
1837	 0.446940915047882 
1838	 0.446800218921354 
1839	 0.446631467716503 
1840	 0.446450430832921 
1841	 0.446294537134745 
1842	 0.446105950628123 
1843	 0.445918062088815 
1844	 0.445756848385545 
1845	 0.445606922884555 
1846	 0.445480376634703 
1847	 0.44537720171107 
1848	 0.445310777642928 
1849	 0.445240644766545 
1850	 0.445170573497923 
1851	 0.44510595979768 
1852	 0.445049177101975 
1853	 0.445004626858852 
1854	 0.444935973537031 
1855	 0.444836792367583 
1856	 0.444704552930984 
1857	 0.444506169373084 
1858	 0.444302370569637 
1859	 0.444070930568903 
1860	 0.443814523128319 
1861	 0.443531451284335 
1862	 0.443234668027044 
1863	 0.442915841637786 
1864	 0.442598958815306 
1865	 0.442246809868674 
1866	 0.44185083103224 
1867	 0.441433952646512 
1868	 0.440954877733003 
1869	 0.440439491483143 
1870	 0.439924133683924 
1871	 0.439342482124396 
1872	 0.438702606329002 
1873	 0.438039842982011 
1874	 0.437355781692604 
1875	 0.436567837613561 
1876	 0.435728700287896 
1877	 0.434826933427058 
1878	 0.433790837748858 
1879	 0.432660815013999 
1880	 0.43142507500961 
1881	 0.430085908510035 
1882	 0.428634006723141 
1883	 0.427082367423443 
1884	 0.425397603376633 
1885	 0.423627188650723 
1886	 0.421712577959585 
1887	 0.419658930235441 
1888	 0.417515816488788 
1889	 0.415215035476043 
1890	 0.412816528343156 
1891	 0.410385164005344 
1892	 0.407830702569854 
1893	 0.40528432302389 
1894	 0.402704875737955 
1895	 0.400100948082407 
1896	 0.397432936904113 
1897	 0.394802633173676 
1898	 0.392146046009416 
1899	 0.389493585814003 
1900	 0.386925583984228 
1901	 0.384384111877763 
1902	 0.381937903430945 
1903	 0.379580857508324 
1904	 0.377296778189416 
1905	 0.37507021269315 
1906	 0.372952857836306 
1907	 0.370938638583795 
1908	 0.369015733386111 
1909	 0.367206992413666 
1910	 0.365463892805861 
1911	 0.363797852243589 
1912	 0.362203958284604 
1913	 0.360676418568694 
1914	 0.35919613864348 
1915	 0.35782849533442 
1916	 0.356531244466157 
1917	 0.355341170927655 
1918	 0.354284080552213 
1919	 0.353294581213603 
1920	 0.35237064633614 
1921	 0.351507431499063 
1922	 0.350698340307255 
1923	 0.349992948582803 
1924	 0.349374213364084 
1925	 0.348876620529892 
1926	 0.348417331787746 
1927	 0.348030778899245 
1928	 0.347702083636294 
1929	 0.347436839850105 
1930	 0.347214639629428 
1931	 0.347043054388479 
1932	 0.346915157026604 
1933	 0.346814326825647 
1934	 0.346757677596245 
1935	 0.346751599407314 
1936	 0.346798464088825 
1937	 0.346873099583238 
1938	 0.347000267983423 
1939	 0.347151026650463 
1940	 0.347329579989431 
1941	 0.347531718077487 
1942	 0.347797492679315 
1943	 0.348072958481809 
1944	 0.348374145714468 
1945	 0.348724315242553 
1946	 0.349066361038411 
1947	 0.349403599930511 
1948	 0.349781122385588 
1949	 0.350192675524251 
1950	 0.350597033537989 
1951	 0.350999109023424 
1952	 0.351460076702713 
1953	 0.351919636791087 
1954	 0.35238821169476 
1955	 0.352889901984861 
1956	 0.353401650525536 
1957	 0.353934310037023 
1958	 0.354493858583743 
1959	 0.355032591475036 
1960	 0.355585839536115 
1961	 0.356136521110922 
1962	 0.356659826332624 
1963	 0.357216214297912 
1964	 0.357795686490233 
1965	 0.358377522442493 
1966	 0.358985784571596 
1967	 0.359592742677898 
1968	 0.360197373657312 
1969	 0.360815920247813 
1970	 0.361427278349888 
1971	 0.362020617692516 
1972	 0.362633837924446 
1973	 0.36326733834774 
1974	 0.363884622378333 
1975	 0.364497213334644 
1976	 0.365121762383391 
1977	 0.365733329548713 
1978	 0.366339943353008 
1979	 0.366970929086958 
1980	 0.367612247336382 
1981	 0.368255495344815 
1982	 0.368918230060042 
1983	 0.369564019300925 
1984	 0.370209938517851 
1985	 0.370847578741703 
1986	 0.371478538474908 
1987	 0.372103477211412 
1988	 0.372716870120664 
1989	 0.373339831809517 
1990	 0.373951267074029 
1991	 0.374546367145487 
1992	 0.375135401551656 
1993	 0.375707853554422 
1994	 0.376287148295068 
1995	 0.376861853859221 
1996	 0.377435530980484 
1997	 0.378002131088079 
1998	 0.378582040373584 
1999	 0.379169121260643 
2000	 0.379752464098874 
2001	 0.380337080364348 
2002	 0.380936551836346 
2003	 0.381522982855749 
2004	 0.382104835738714 
2005	 0.382687397824558 
2006	 0.383270081227901 
2007	 0.38385487101752 
2008	 0.384435789513823 
2009	 0.385019105414589 
2010	 0.385609862842262 
2011	 0.38619652120133 
2012	 0.386811393883308 
2013	 0.387375678139264 
2014	 0.387908264486438 
2015	 0.388441833204909 
2016	 0.38894689574747 
2017	 0.389426082790524 
2018	 0.389942010390063 
2019	 0.390472116422329 
2020	 0.391010313159143 
2021	 0.39158343168972 
2022	 0.392118062546853 
2023	 0.392637089734724 
2024	 0.393169470636873 
2025	 0.393696999604859 
2026	 0.39420882047364 
2027	 0.39472423234756 
2028	 0.395244190150517 
2029	 0.395735650690034 
2030	 0.396202462346144 
2031	 0.396655668015034 
2032	 0.397102175350559 
2033	 0.397523706546597 
2034	 0.397904008685093 
2035	 0.398300950632002 
2036	 0.398676546788774 
2037	 0.3990807101823 
2038	 0.399516323079508 
2039	 0.399921090001804 
2040	 0.400329654768282 
2041	 0.400721801806936 
2042	 0.401091579605175 
2043	 0.401470070171113 
2044	 0.401867904049644 
2045	 0.402296943109566 
2046	 0.402692070879427 
2047	 0.403097069148562 
2048	 0.403470671128724 
2049	 0.403811349090055 
2050	 0.404158317875896 
2051	 0.404505683117594 
2052	 0.404828217013896 
2053	 0.405132198271686 
2054	 0.405433882472212 
2055	 0.405719148305963 
2056	 0.405986874416664 
2057	 0.406271235771933 
2058	 0.406565874898756 
2059	 0.406845918072609 
2060	 0.40712106333444 
2061	 0.407398917080377 
2062	 0.407674670093267 
2063	 0.407941662103313 
2064	 0.408214208922166 
2065	 0.408470494461689 
2066	 0.408702092165632 
2067	 0.408945590878462 
2068	 0.409192411135112 
2069	 0.409425686401545 
2070	 0.409675350276572 
2071	 0.409933819125035 
2072	 0.410188648950456 
2073	 0.410455117004945 
2074	 0.410702162410488 
2075	 0.410951744981074 
2076	 0.41117702162361 
2077	 0.411353957600858 
2078	 0.411582530490116 
2079	 0.411831337314563 
2080	 0.412064526492974 
2081	 0.412315728868649 
2082	 0.412567685731467 
2083	 0.412802913111638 
2084	 0.413040203401457 
2085	 0.413293157187951 
2086	 0.413582361024866 
2087	 0.413828372647505 
2088	 0.414061024813692 
2089	 0.41428769717063 
2090	 0.414496695085575 
2091	 0.414703763393689 
2092	 0.414900014429742 
2093	 0.415103368587798 
2094	 0.415292246410721 
2095	 0.415500204194976 
2096	 0.415726849490262 
2097	 0.415946416996192 
2098	 0.41616943734457 
2099	 0.416390904095483 
2100	 0.416626225320782 
2101	 0.416869670355723 
2102	 0.417101618564231 
2103	 0.417346141417291 
2104	 0.417573928246621 
2105	 0.417775995624255 
2106	 0.417999524604673 
2107	 0.418234033980171 
2108	 0.418459971380831 
2109	 0.418682180676287 
2110	 0.418914051024569 
2111	 0.419136112123917 
2112	 0.419376418305482 
2113	 0.419638567966253 
2114	 0.419903176751167 
2115	 0.420155582647312 
2116	 0.420402714601095 
2117	 0.420672587028141 
2118	 0.420939042234817 
2119	 0.421221248986343 
2120	 0.421547023217917 
2121	 0.421829051167916 
2122	 0.422096590772947 
2123	 0.422359887600025 
2124	 0.422621463072446 
2125	 0.422850668341066 
2126	 0.423063087799884 
2127	 0.423263761470943 
2128	 0.423444881466728 
2129	 0.423600017157824 
2130	 0.423739746815926 
2131	 0.42386280933621 
2132	 0.423966252933743 
2133	 0.424036604579638 
2134	 0.424104809036619 
2135	 0.424161023001772 
2136	 0.424210460990809 
2137	 0.424267913316213 
2138	 0.424263674767907 
2139	 0.424237178945317 
2140	 0.42417823578758 
2141	 0.424035009446002 
2142	 0.423931962419293 
2143	 0.423844465607861 
2144	 0.423729717422925 
2145	 0.423623859180461 
2146	 0.423484527958571 
2147	 0.423280109176902 
2148	 0.423114610132213 
2149	 0.422940430461252 
2150	 0.422765203008195 
2151	 0.422569938304584 
2152	 0.422386163213388 
2153	 0.422164372442707 
2154	 0.421909941745091 
2155	 0.421646713482938 
2156	 0.421391867330109 
2157	 0.421075906960999 
2158	 0.420712800693057 
2159	 0.420342160844795 
2160	 0.419919712907116 
2161	 0.419504172579908 
2162	 0.419068834228281 
2163	 0.418651324750282 
2164	 0.418220254949509 
2165	 0.417815407693582 
2166	 0.41741396924952 
2167	 0.417044706928633 
2168	 0.4166286898946 
2169	 0.416195306666061 
2170	 0.415771064350123 
2171	 0.415307520588971 
2172	 0.414900258274687 
2173	 0.414533519285112 
2174	 0.414149427896343 
2175	 0.413802234064664 
2176	 0.413414239615987 
2177	 0.413034500355096 
2178	 0.412589254124368 
2179	 0.412078652737215 
2180	 0.411581239933898 
2181	 0.411025560052857 
2182	 0.410497872712827 
2183	 0.409975379896339 
2184	 0.409487383510945 
2185	 0.408986738921934 
2186	 0.408470527466598 
2187	 0.408010844930575 
2188	 0.407588586611956 
2189	 0.407140189448581 
2190	 0.406700057528891 
2191	 0.40628864467633 
2192	 0.405878019048751 
2193	 0.40547698637578 
2194	 0.405114282162624 
2195	 0.404745664354382 
2196	 0.404355282184613 
2197	 0.403991324558585 
2198	 0.403648318396686 
2199	 0.40332382700261 
2200	 0.402980123326262 
2201	 0.402702593632074 
2202	 0.402458449482714 
2203	 0.402276246916942 
2204	 0.402114427908702 
2205	 0.402003780117 
2206	 0.401911738822663 
2207	 0.401851722171127 
2208	 0.401804051166215 
2209	 0.401811156198478 
2210	 0.401778735645296 
2211	 0.401722203243783 
2212	 0.401713002077714 
2213	 0.40171235196506 
2214	 0.401726468185466 
2215	 0.401808595407008 
2216	 0.401834054246147 
2217	 0.401825191331071 
2218	 0.401829364509531 
2219	 0.401829972465662 
2220	 0.40181611878742 
2221	 0.401818266756463 
2222	 0.401785895082037 
2223	 0.401713992810719 
2224	 0.401624929300396 
2225	 0.4015547225508 
2226	 0.401480276664925 
2227	 0.40138821063417 
2228	 0.401297896558247 
2229	 0.401201711332675 
2230	 0.401088356173005 
2231	 0.400964360895109 
2232	 0.400857043032554 
2233	 0.400710430782035 
2234	 0.400532023911145 
2235	 0.40033339990446 
2236	 0.40011490474234 
2237	 0.399877775532349 
2238	 0.399590906126655 
2239	 0.399329456454793 
2240	 0.399068724555343 
2241	 0.398804941917812 
2242	 0.398570584228844 
2243	 0.39829447142075 
2244	 0.398002820626474 
2245	 0.397676509319164 
2246	 0.397345386875605 
2247	 0.397002745305033 
2248	 0.396639447042079 
2249	 0.396270446998619 
2250	 0.395884663903836 
2251	 0.395453053894404 
2252	 0.395054504083952 
2253	 0.394655114761223 
2254	 0.394273384982905 
2255	 0.393899188502513 
2256	 0.393551145706215 
2257	 0.39318027961426 
2258	 0.392916898422192 
2259	 0.392719377883255 
2260	 0.392541101298906 
2261	 0.392464455022649 
2262	 0.392348724435169 
2263	 0.392219477497476 
2264	 0.392116087626105 
2265	 0.39198701046672 
2266	 0.391941068666181 
2267	 0.391955548969148 
2268	 0.391990510996595 
2269	 0.392080564204949 
2270	 0.392205919144385 
2271	 0.392359404477467 
2272	 0.39248128185622 
2273	 0.392613834834017 
2274	 0.392754535810948 
2275	 0.392874804109668 
2276	 0.392950395097655 
2277	 0.393089312216309 
2278	 0.393237244522204 
2279	 0.393431024296207 
2280	 0.393683745266335 
2281	 0.393905659982944 
2282	 0.394148061466177 
2283	 0.394384369042728 
2284	 0.394616458740977 
2285	 0.394837186467589 
2286	 0.395088822044324 
2287	 0.395273505258396 
2288	 0.395409766820465 
2289	 0.39554559730002 
2290	 0.395645993434238 
2291	 0.395744664397442 
2292	 0.395823089007024 
2293	 0.395911791127364 
2294	 0.396010485824135 
2295	 0.396074060478509 
2296	 0.396105699361016 
2297	 0.396169165133592 
2298	 0.396233667875208 
2299	 0.396274958643931 
2300	 0.396375273983416 
2301	 0.396468315543507 
2302	 0.396487654452091 
2303	 0.396534566538975 
2304	 0.396569661729086 
2305	 0.396528489351086 
2306	 0.396495625889576 
2307	 0.396424686676207 
2308	 0.39641735339513 
2309	 0.396414966820512 
2310	 0.39643031369982 
2311	 0.396517988195605 
2312	 0.396529116193994 
2313	 0.396523795899481 
2314	 0.396475434110571 
2315	 0.396368948016392 
2316	 0.396281230590137 
2317	 0.396151656137452 
2318	 0.396048985014759 
2319	 0.395984426963862 
2320	 0.395892539984794 
2321	 0.395789843127838 
2322	 0.395686883417624 
2323	 0.395536270742549 
2324	 0.395439289874196 
2325	 0.395354166981085 
2326	 0.395302499079955 
2327	 0.39531199470626 
2328	 0.395331815381055 
2329	 0.395257508547705 
2330	 0.395199724356884 
2331	 0.395112884857304 
2332	 0.395006272773545 
2333	 0.39494444199316 
2334	 0.394853886770722 
2335	 0.394777104732991 
2336	 0.394684875687544 
2337	 0.394553902952593 
2338	 0.394423852979076 
2339	 0.39423684921291 
2340	 0.393993794961364 
2341	 0.393757409328449 
2342	 0.393565955858624 
2343	 0.393396908826402 
2344	 0.393213238278321 
2345	 0.392992099334173 
2346	 0.39278941989712 
2347	 0.392498218402934 
2348	 0.39209878520322 
2349	 0.391755572536711 
2350	 0.391405434026832 
2351	 0.391067959889536 
2352	 0.390744527398422 
2353	 0.390414443343432 
2354	 0.390078736630374 
2355	 0.389725952597858 
2356	 0.389386301588723 
2357	 0.389017698786523 
2358	 0.388606701603136 
2359	 0.388209453634166 
2360	 0.387796013691979 
2361	 0.387405650091174 
2362	 0.387041464663886 
2363	 0.386655475465928 
2364	 0.386277483184455 
2365	 0.385861030596521 
2366	 0.385402688892015 
2367	 0.384981479903069 
2368	 0.384573554604786 
2369	 0.384139729192044 
2370	 0.383692421337342 
2371	 0.3832716450259 
2372	 0.3828586833987 
2373	 0.382396207786028 
2374	 0.381960001960233 
2375	 0.381488033110482 
2376	 0.380980982479661 
2377	 0.380491288148582 
2378	 0.380083624331213 
2379	 0.379713169666509 
2380	 0.379305824909315 
2381	 0.378878268441931 
2382	 0.378374570971923 
2383	 0.377808522480772 
2384	 0.37721094862299 
2385	 0.376615698400331 
2386	 0.376035891635484 
2387	 0.375445782458813 
2388	 0.374869486989129 
2389	 0.374338294783189 
2390	 0.373692314138942 
2391	 0.372997947889006 
2392	 0.372373425075488 
2393	 0.371668302939933 
2394	 0.371038433698273 
2395	 0.37044559750713 
2396	 0.369922104496505 
2397	 0.369463578729009 
2398	 0.368901257674256 
2399	 0.368384054010116 
2400	 0.367841368577829 
2401	 0.367266838726321 
2402	 0.366644763967313 
2403	 0.366073655176687 
2404	 0.365565099963846 
2405	 0.364898838796456 
2406	 0.364337028242616 
2407	 0.363859210818876 
2408	 0.363138437077837 
2409	 0.362393153519979 
2410	 0.361772468694236 
2411	 0.361126023648856 
2412	 0.360558611310766 
2413	 0.359986359667827 
2414	 0.359290376846053 
2415	 0.358627216086237 
2416	 0.357996318852879 
2417	 0.357355014980165 
2418	 0.356788495199283 
2419	 0.356329387462101 
2420	 0.355762814357159 
2421	 0.35519619060541 
2422	 0.3546770825541 
2423	 0.354091835378105 
2424	 0.353504881649101 
2425	 0.353001651729129 
2426	 0.352381459772722 
2427	 0.35168398328355 
2428	 0.35111535063433 
2429	 0.350542186380853 
2430	 0.34994502279302 
2431	 0.349395851103137 
2432	 0.348803235136906 
2433	 0.3481596892238 
2434	 0.347563714263946 
2435	 0.347003993332977 
2436	 0.346433683350307 
2437	 0.345844163122096 
2438	 0.345309042423813 
2439	 0.344812380542491 
2440	 0.344246610555638 
2441	 0.343730637861613 
2442	 0.343169897033316 
2443	 0.342532127217235 
2444	 0.341915043289183 
2445	 0.341256990814985 
2446	 0.340574309495338 
2447	 0.33989496360878 
2448	 0.339308624242455 
2449	 0.33872272784121 
2450	 0.338209277053876 
2451	 0.337806340964892 
2452	 0.337229984779639 
2453	 0.336624818449766 
2454	 0.336009609559175 
2455	 0.335262840853322 
2456	 0.334682382964563 
2457	 0.334230240570956 
2458	 0.333717908686015 
2459	 0.333214339503354 
2460	 0.332682698924328 
2461	 0.332087522559917 
2462	 0.331571777158402 
2463	 0.331198141412644 
2464	 0.330699578458104 
2465	 0.330098826315098 
2466	 0.329566641126749 
2467	 0.328988858743052 
2468	 0.328455577960076 
2469	 0.327997998914657 
2470	 0.327499452143811 
2471	 0.327057145680762 
2472	 0.326688465254137 
2473	 0.326357257280573 
2474	 0.325955235198674 
2475	 0.325470423614242 
2476	 0.325012862026348 
2477	 0.324545495036062 
2478	 0.323894606784406 
2479	 0.323277205040486 
2480	 0.32278190925239 
2481	 0.32214943946083 
2482	 0.32164383111149 
2483	 0.321218599954828 
2484	 0.320534689589615 
2485	 0.319937156722406 
2486	 0.319541968350822 
2487	 0.319104632161892 
2488	 0.318803534138471 
2489	 0.318421638826989 
2490	 0.317829844108593 
2491	 0.317324611419565 
2492	 0.316657151374878 
2493	 0.316071931525139 
2494	 0.315730757578537 
2495	 0.315366956307143 
2496	 0.314931754378274 
2497	 0.314533412892163 
2498	 0.314258088031683 
2499	 0.313894321033526 
2500	 0.313560923016328 
