Wavelength	mm2400013.asd
350	 4.36779363580661E-02 
351	 4.47842580955969E-02 
352	 3.82591071346962E-02 
353	 3.46983420821566E-02 
354	 4.52166516998616E-02 
355	 4.65228807883201E-02 
356	 0.042908719571287 
357	 4.34737874509616E-02 
358	 4.56160264456623E-02 
359	 0.044599135360468 
360	 4.14059838038572E-02 
361	 4.06067089429346E-02 
362	 4.27777349300075E-02 
363	 4.50632929396265E-02 
364	 0.045349469356279 
365	 4.30911329849652E-02 
366	 4.32660025309225E-02 
367	 4.27476037452512E-02 
368	 3.94794987893349E-02 
369	 4.53512500080327E-02 
370	 0.047448486995595 
371	 4.45729957668485E-02 
372	 4.37597812749835E-02 
373	 4.27679115208271E-02 
374	 4.32814580736541E-02 
375	 4.54995428824692E-02 
376	 4.65115561593065E-02 
377	 4.62209179191713E-02 
378	 4.59203289971277E-02 
379	 0.047008824561539 
380	 4.94771213604019E-02 
381	 4.94253820163316E-02 
382	 4.81691860252546E-02 
383	 5.04216632951257E-02 
384	 5.10185502372588E-02 
385	 0.049444196983045 
386	 4.75867469369696E-02 
387	 5.07997558553265E-02 
388	 5.16336702629702E-02 
389	 5.03601107150426E-02 
390	 4.99317149655659E-02 
391	 5.32052272138051E-02 
392	 0.05527988730212 
393	 5.54048559930702E-02 
394	 5.65111635267005E-02 
395	 5.82626913043367E-02 
396	 0.058533823335199 
397	 5.71253080299928E-02 
398	 0.058502204068733 
399	 6.07229042657771E-02 
400	 6.29165614985141E-02 
401	 6.44584285149284E-02 
402	 6.40672583632472E-02 
403	 6.42775431502434E-02 
404	 6.53194661182778E-02 
405	 6.50101239261605E-02 
406	 6.54786562368028E-02 
407	 6.65365378730596E-02 
408	 6.75194521096274E-02 
409	 6.77334280174978E-02 
410	 6.80367980830862E-02 
411	 6.86940052268377E-02 
412	 6.94840891398716E-02 
413	 6.88572646315595E-02 
414	 6.90291119414183E-02 
415	 7.03689926522229E-02 
416	 7.05544057824587E-02 
417	 7.03478835478069E-02 
418	 7.04394546550948E-02 
419	 7.10299660463966E-02 
420	 7.07431276741609E-02 
421	 7.00546949004191E-02 
422	 6.95415162908209E-02 
423	 6.96928430630573E-02 
424	 6.95489633463375E-02 
425	 6.93100868050007E-02 
426	 6.91573434789612E-02 
427	 6.89593409362929E-02 
428	 6.86324365309082E-02 
429	 6.83349884378996E-02 
430	 6.81311692078608E-02 
431	 6.71323796090745E-02 
432	 6.64773351039126E-02 
433	 6.65042548952669E-02 
434	 6.66878080937027E-02 
435	 6.63058048558129E-02 
436	 6.61560253436251E-02 
437	 6.66946214569154E-02 
438	 6.66547563232283E-02 
439	 6.68221708246696E-02 
440	 6.72962696491948E-02 
441	 6.78321434721978E-02 
442	 6.83862011908178E-02 
443	 6.89578777609601E-02 
444	 6.94097803942803E-02 
445	 0.069349033992097 
446	 6.98756522232302E-02 
447	 7.06004311844533E-02 
448	 7.09102168639406E-02 
449	 7.12168535729475E-02 
450	 7.17408198863855E-02 
451	 7.23886345525498E-02 
452	 7.28261542701747E-02 
453	 7.32364382941244E-02 
454	 7.36266746261606E-02 
455	 7.39486546550445E-02 
456	 0.074043776742183 
457	 7.44017748532022E-02 
458	 7.48580955191187E-02 
459	 7.50129696962102E-02 
460	 7.52349730446032E-02 
461	 7.52530019372192E-02 
462	 0.075130188153841 
463	 7.54617876248151E-02 
464	 0.075958489829197 
465	 7.63486117720875E-02 
466	 7.64638393954122E-02 
467	 7.65299175439137E-02 
468	 7.66118528596457E-02 
469	 7.66504712206946E-02 
470	 7.65305113051029E-02 
471	 0.076946645427548 
472	 0.077157954576487 
473	 7.68016363240156E-02 
474	 7.69704800948359E-02 
475	 7.70933397050356E-02 
476	 7.71914401373511E-02 
477	 7.74462824522525E-02 
478	 7.73155836818346E-02 
479	 7.73580083173206E-02 
480	 7.76673474081669E-02 
481	 7.75707441727636E-02 
482	 7.76072606525652E-02 
483	 7.77208987374592E-02 
484	 7.77656751296162E-02 
485	 7.79569902768964E-02 
486	 7.78352090013265E-02 
487	 7.75832117596029E-02 
488	 7.78756713405896E-02 
489	 7.81677617232512E-02 
490	 7.83153015146526E-02 
491	 7.83094735122513E-02 
492	 7.82781747773257E-02 
493	 7.81997965880725E-02 
494	 7.81321441210801E-02 
495	 7.81508268822551E-02 
496	 7.81840657031705E-02 
497	 7.82621795525591E-02 
498	 7.84365868084422E-02 
499	 7.87962007753489E-02 
500	 7.88426853324164E-02 
501	 7.86370218196323E-02 
502	 7.84506678889396E-02 
503	 7.86259806587483E-02 
504	 7.87652830621779E-02 
505	 0.078745912434545 
506	 7.87222577176823E-02 
507	 7.87459329841623E-02 
508	 0.078778565839805 
509	 7.87905920975134E-02 
510	 7.88346970870518E-02 
511	 7.88894191048152E-02 
512	 7.89469605260953E-02 
513	 0.079009796641769 
514	 7.91091491220583E-02 
515	 7.92153666740701E-02 
516	 7.92955453477761E-02 
517	 7.93239501895791E-02 
518	 0.079297214774532 
519	 0.079254365182307 
520	 7.92504743180318E-02 
521	 7.93334602244525E-02 
522	 7.94634022133087E-02 
523	 7.95751657746731E-02 
524	 7.95873359511788E-02 
525	 7.95941426272855E-02 
526	 7.95843817512028E-02 
527	 0.079550957251819 
528	 7.95735313742927E-02 
529	 7.96189985734076E-02 
530	 0.079690529301087 
531	 7.98109669180176E-02 
532	 7.99531454992707E-02 
533	 0.08004371691198 
534	 8.00495471844021E-02 
535	 8.00142521761468E-02 
536	 8.00334778549246E-02 
537	 0.080102471351841 
538	 8.01733983883198E-02 
539	 8.02408875790279E-02 
540	 8.03112035304692E-02 
541	 8.03815299141752E-02 
542	 8.04338415934833E-02 
543	 8.05138292105329E-02 
544	 8.06372351721705E-02 
545	 8.07852069445726E-02 
546	 8.08502154676262E-02 
547	 8.08707920216046E-02 
548	 8.09099456049615E-02 
549	 8.10403174988805E-02 
550	 8.11966793496193E-02 
551	 8.13125390883226E-02 
552	 8.13698899685403E-02 
553	 8.14666782517196E-02 
554	 8.15879819931997E-02 
555	 8.17354793340463E-02 
556	 8.19108182879317E-02 
557	 8.20589570216172E-02 
558	 8.22034634171606E-02 
559	 8.23877883912143E-02 
560	 8.26876521826263E-02 
561	 8.28604825656437E-02 
562	 8.30033087921465E-02 
563	 8.32864291915623E-02 
564	 8.35738831188659E-02 
565	 8.37847206225271E-02 
566	 8.39653560258868E-02 
567	 8.42954775498796E-02 
568	 8.46610038620166E-02 
569	 8.50420803071898E-02 
570	 8.54270200017234E-02 
571	 8.57512332184614E-02 
572	 8.61370394904062E-02 
573	 8.65843366708667E-02 
574	 0.087006924968115 
575	 8.74292471836725E-02 
576	 8.78856619539844E-02 
577	 8.83761518109997E-02 
578	 8.88179242913754E-02 
579	 8.92606107773311E-02 
580	 8.97460652665147E-02 
581	 9.03112709981494E-02 
582	 9.09757479318589E-02 
583	 9.15967684785261E-02 
584	 9.21474051812637E-02 
585	 9.27863874212815E-02 
586	 9.33805863130668E-02 
587	 9.39826596634862E-02 
588	 9.46656733757768E-02 
589	 9.53551207165647E-02 
590	 9.60471890441882E-02 
591	 9.67441035092926E-02 
592	 0.097451582425579 
593	 9.80956950263875E-02 
594	 9.87767702053779E-02 
595	 9.95464248403854E-02 
596	 0.100251458575588 
597	 0.100854069414887 
598	 0.101430276650587 
599	 0.102105812798793 
600	 0.102785413446685 
601	 0.10341547255773 
602	 0.104001422080076 
603	 0.104651408400734 
604	 0.105263395427665 
605	 0.105815759385526 
606	 0.106331817204413 
607	 0.106905695821029 
608	 0.107495027559902 
609	 0.108048478145562 
610	 0.108518229893374 
611	 0.108999471653362 
612	 0.109490645404107 
613	 0.109955218488154 
614	 0.11033881441972 
615	 0.110639788466884 
616	 0.110933114656349 
617	 0.111327828356596 
618	 0.111680892926271 
619	 0.111976562280833 
620	 0.112238769001523 
621	 0.112532597598466 
622	 0.112808286221556 
623	 0.113039190902861 
624	 0.113227814024666 
625	 0.113499185272017 
626	 0.113783693099119 
627	 0.114019397772697 
628	 0.114175188155459 
629	 0.11435428949228 
630	 0.114567563488637 
631	 0.114791243935323 
632	 0.114980109793096 
633	 0.115180123625944 
634	 0.115383004078022 
635	 0.115540239484508 
636	 0.115716463039028 
637	 0.115924594277469 
638	 0.116146181082915 
639	 0.11630722377568 
640	 0.116492022591834 
641	 0.116699664154017 
642	 0.116892579664865 
643	 0.117083639024122 
644	 0.117278318479694 
645	 0.117470451456512 
646	 0.117636059158962 
647	 0.117835679037366 
648	 0.118051090864157 
649	 0.118255491175897 
650	 0.118497386509647 
651	 0.118716780460242 
652	 0.118912248339114 
653	 0.119136253685882 
654	 0.119417923310608 
655	 0.119661931754462 
656	 0.119838048311697 
657	 0.120142042560848 
658	 0.120398090315444 
659	 0.120629912853281 
660	 0.120937429555078 
661	 0.121229614366412 
662	 0.121511819417036 
663	 0.121794587058061 
664	 0.122081295140383 
665	 0.122395190719845 
666	 0.122713893327232 
667	 0.12301731529774 
668	 0.123355365619719 
669	 0.12369434404224 
670	 0.124025749812195 
671	 0.124363930975508 
672	 0.124715762194452 
673	 0.1250981097201 
674	 0.125513093917719 
675	 0.125935042225751 
676	 0.12629076968414 
677	 0.126639576101249 
678	 0.127081058730681 
679	 0.127533291403258 
680	 0.127955789764903 
681	 0.128359503303067 
682	 0.12881624180171 
683	 0.129277804248568 
684	 0.129751405925974 
685	 0.130245399197614 
686	 0.13072193494663 
687	 0.131223000102971 
688	 0.131738690146886 
689	 0.13222284833421 
690	 0.132676355205073 
691	 0.133159619865064 
692	 0.133697575866552 
693	 0.134232009386774 
694	 0.13475785032357 
695	 0.135290852861855 
696	 0.135848236690962 
697	 0.136395834057318 
698	 0.136938667304729 
699	 0.137479913377333 
700	 0.138018708667337 
701	 0.138604066474622 
702	 0.139199725577401 
703	 0.139769494004352 
704	 0.140328086094989 
705	 0.140920191146339 
706	 0.141504598065482 
707	 0.142014763661956 
708	 0.142582024640571 
709	 0.143192038184851 
710	 0.143801835863362 
711	 0.144352810653063 
712	 0.14491305521185 
713	 0.145456451838507 
714	 0.145968209296211 
715	 0.146582652799688 
716	 0.147147052361387 
717	 0.147640056207632 
718	 0.148143355665754 
719	 0.148691370709156 
720	 0.149211471274773 
721	 0.149669713301062 
722	 0.150138765295013 
723	 0.150616567365881 
724	 0.151072586738182 
725	 0.151483368463856 
726	 0.151924789635355 
727	 0.152331197524344 
728	 0.152687142183003 
729	 0.153031737257589 
730	 0.153412412805927 
731	 0.153770129469398 
732	 0.154067606251068 
733	 0.154367908968508 
734	 0.154655775790122 
735	 0.154899324398221 
736	 0.155076672556096 
737	 0.155279808461951 
738	 0.155450129334974 
739	 0.155574516171692 
740	 0.155700451267365 
741	 0.15581475829879 
742	 0.15588868416568 
743	 0.155915660771846 
744	 0.155962325562495 
745	 0.155953556356663 
746	 0.155918547973697 
747	 0.155917623385918 
748	 0.155855429773394 
749	 0.155733751765777 
750	 0.155600943763016 
751	 0.155545796863446 
752	 0.155412552876664 
753	 0.155231953586132 
754	 0.15505603440865 
755	 0.154861196951765 
756	 0.15466725705119 
757	 0.154437716942069 
758	 0.154131330838917 
759	 0.153891387941751 
760	 0.153638688024837 
761	 0.153332200306853 
762	 0.153006122792475 
763	 0.152703083787055 
764	 0.152404870354367 
765	 0.15208093870573 
766	 0.151706044680435 
767	 0.15137233656823 
768	 0.151040827843966 
769	 0.15062864666458 
770	 0.15026695388816 
771	 0.149890425981566 
772	 0.14947451001671 
773	 0.149064492440371 
774	 0.148688785065558 
775	 0.148307541501611 
776	 0.147888071130703 
777	 0.147459417760585 
778	 0.147052479835512 
779	 0.146659158836412 
780	 0.146251770482937 
781	 0.145815001763339 
782	 0.145399568384865 
783	 0.14500921911196 
784	 0.144596028002069 
785	 0.144191453724438 
786	 0.143784797457311 
787	 0.143367039237301 
788	 0.142944942136007 
789	 0.142590686025208 
790	 0.142216380212736 
791	 0.14172953811562 
792	 0.141352913736317 
793	 0.140985711660259 
794	 0.140593222448081 
795	 0.140207866348278 
796	 0.139755027585067 
797	 0.139347438606775 
798	 0.139036733076418 
799	 0.138715803460488 
800	 0.138361142517607 
801	 0.137967256564278 
802	 0.137558423301593 
803	 0.137222485038302 
804	 0.136924138976046 
805	 0.136614436064452 
806	 0.136252598402859 
807	 0.135919804791363 
808	 0.135596065179859 
809	 0.135274080508948 
810	 0.13497590397785 
811	 0.134662066439061 
812	 0.134351304949829 
813	 0.134059574857358 
814	 0.133756876000158 
815	 0.133475938410579 
816	 0.133195142453439 
817	 0.132890379074492 
818	 0.132648602174083 
819	 0.132417033404956 
820	 0.132167034521787 
821	 0.131902258973546 
822	 0.131661168649746 
823	 0.131404760216131 
824	 0.131132315117193 
825	 0.130922288790587 
826	 0.130752112175159 
827	 0.130563052194985 
828	 0.130320960785961 
829	 0.130099895351751 
830	 0.12988823784774 
831	 0.129682853815555 
832	 0.129492576449018 
833	 0.129387862080079 
834	 0.129239211827481 
835	 0.129036805125445 
836	 0.128889516725996 
837	 0.128731809854547 
838	 0.128587668504929 
839	 0.128455858999888 
840	 0.128269794169191 
841	 0.128106886420116 
842	 0.127983697358758 
843	 0.12789130008364 
844	 0.127807086444106 
845	 0.127701549029068 
846	 0.127573254117463 
847	 0.127448944147372 
848	 0.127415198141535 
849	 0.127371243323329 
850	 0.127277477887405 
851	 0.127163677897613 
852	 0.127080457837508 
853	 0.127026132885277 
854	 0.126992536670408 
855	 0.126975570937074 
856	 0.126959797620212 
857	 0.126922506600608 
858	 0.126859901995404 
859	 0.126814267016416 
860	 0.126781258945177 
861	 0.126767919964015 
862	 0.126774142903232 
863	 0.126759701748796 
864	 0.126765464348457 
865	 0.126790228223375 
866	 0.126807861288905 
867	 0.12682688477875 
868	 0.126857442278741 
869	 0.126898753526991 
870	 0.126939738120094 
871	 0.126994084627584 
872	 0.127037052170077 
873	 0.127065258270977 
874	 0.127117635476549 
875	 0.127205196430319 
876	 0.127273391124012 
877	 0.127302763670226 
878	 0.12740518903047 
879	 0.127562892259227 
880	 0.127691531965375 
881	 0.127741176161364 
882	 0.127912147013578 
883	 0.128022984551438 
884	 0.128076531656138 
885	 0.128176858413951 
886	 0.128315529757676 
887	 0.128501709765241 
888	 0.128679477002589 
889	 0.128763433674458 
890	 0.128922352716114 
891	 0.129078766519967 
892	 0.129238006251613 
893	 0.129531186168625 
894	 0.12971074768701 
895	 0.129855339844153 
896	 0.13005940010862 
897	 0.130324310059854 
898	 0.130498551027188 
899	 0.130678744236219 
900	 0.130941699813959 
901	 0.131120991295951 
902	 0.131369520021244 
903	 0.131653537258732 
904	 0.131898966887594 
905	 0.13213792725528 
906	 0.132403896895142 
907	 0.132671996510637 
908	 0.132919425074988 
909	 0.133292730636975 
910	 0.133622795883228 
911	 0.133908718882743 
912	 0.134244156505205 
913	 0.134466088354757 
914	 0.134750011261811 
915	 0.135119222409055 
916	 0.135448528423616 
917	 0.135815037037832 
918	 0.136138706798928 
919	 0.136429749651896 
920	 0.13681022070255 
921	 0.137213238013855 
922	 0.137644458615837 
923	 0.138070580287647 
924	 0.138398671769076 
925	 0.138771264471272 
926	 0.139214095169653 
927	 0.139672248934559 
928	 0.139999827474527 
929	 0.140533622004626 
930	 0.141093505237736 
931	 0.141488517696579 
932	 0.141819077759038 
933	 0.142282640900596 
934	 0.142848243707318 
935	 0.143420777824676 
936	 0.143972226209331 
937	 0.144378575097607 
938	 0.144786657124796 
939	 0.14536071395263 
940	 0.145988419233187 
941	 0.146582719888256 
942	 0.147138965405793 
943	 0.147680000813875 
944	 0.14815806658694 
945	 0.148684644328373 
946	 0.149316439432957 
947	 0.150017846689074 
948	 0.15051578668083 
949	 0.151106076020712 
950	 0.151773610145415 
951	 0.152375899054829 
952	 0.153068808483427 
953	 0.153654135972448 
954	 0.154237660758127 
955	 0.155022847799224 
956	 0.15572771541812 
957	 0.156355013811014 
958	 0.156993431331289 
959	 0.15771898945132 
960	 0.158267747374265 
961	 0.158941552526253 
962	 0.159766972905855 
963	 0.160554281599108 
964	 0.16116596102475 
965	 0.161848449574545 
966	 0.162663177520021 
967	 0.163507543306636 
968	 0.164283547018642 
969	 0.164957459378083 
970	 0.165605373158225 
971	 0.166337802429175 
972	 0.167035655627163 
973	 0.167820783157038 
974	 0.168705653264388 
975	 0.169601793142135 
976	 0.170397120542113 
977	 0.171155449415812 
978	 0.171910666452578 
979	 0.172670944141998 
980	 0.173462446921413 
981	 0.174404290289925 
982	 0.175292012400757 
983	 0.175865564454304 
984	 0.176639306563413 
985	 0.177546931412142 
986	 0.178461936338418 
987	 0.179273101829026 
988	 0.180034277393189 
989	 0.18086880477885 
990	 0.181752146479021 
991	 0.182599009569756 
992	 0.183464079411104 
993	 0.184121272335182 
994	 0.18487176114937 
995	 0.18598546206427 
996	 0.186624100297433 
997	 0.187378873579607 
998	 0.18826069278212 
999	 0.189080293684143 
1000	 0.189874025074862 
1001	 0.190588038904356 
1002	 0.191311355368588 
1003	 0.191984215389154 
1004	 0.192705085031812 
1005	 0.193448639933183 
1006	 0.194167247051838 
1007	 0.194889228787923 
1008	 0.195649348579826 
1009	 0.19633122502339 
1010	 0.196923824478414 
1011	 0.19754426074769 
1012	 0.198151927329496 
1013	 0.198829457231397 
1014	 0.199616299243421 
1015	 0.200347809359188 
1016	 0.201042303428718 
1017	 0.201736352083837 
1018	 0.202406702048752 
1019	 0.203013274331223 
1020	 0.203614943393432 
1021	 0.204260426199941 
1022	 0.204869914260352 
1023	 0.205433257768204 
1024	 0.20607073933294 
1025	 0.20666692363944 
1026	 0.207204210981031 
1027	 0.207770873452185 
1028	 0.208295968643812 
1029	 0.208851442199812 
1030	 0.209448356750048 
1031	 0.209991845826681 
1032	 0.210503541957495 
1033	 0.211019594451438 
1034	 0.211550488513789 
1035	 0.212038398618197 
1036	 0.21251288028455 
1037	 0.213017419486821 
1038	 0.213509142429237 
1039	 0.213992818652741 
1040	 0.214509766138402 
1041	 0.21500750200351 
1042	 0.215508859383128 
1043	 0.215951841277949 
1044	 0.216399634770241 
1045	 0.216833702235535 
1046	 0.217323699269012 
1047	 0.217751683918123 
1048	 0.218239799705827 
1049	 0.218726268006571 
1050	 0.219137486828376 
1051	 0.219664471851854 
1052	 0.22020698844476 
1053	 0.220687434736948 
1054	 0.221198892201003 
1055	 0.221672210061816 
1056	 0.222056917553831 
1057	 0.222505489456835 
1058	 0.223050986735396 
1059	 0.223510917708434 
1060	 0.223926449760528 
1061	 0.224365649083893 
1062	 0.224768854986759 
1063	 0.225172450775731 
1064	 0.225652052725657 
1065	 0.226077564576556 
1066	 0.226500607669054 
1067	 0.22695416931156 
1068	 0.227380547759524 
1069	 0.227846000205164 
1070	 0.228294762148635 
1071	 0.228744602862995 
1072	 0.229200965557245 
1073	 0.22967970510298 
1074	 0.230105240257507 
1075	 0.230531831430462 
1076	 0.23091481939917 
1077	 0.231255892180669 
1078	 0.231579889220524 
1079	 0.23193465047229 
1080	 0.23231439912423 
1081	 0.23267993459634 
1082	 0.233062266488697 
1083	 0.233455723477371 
1084	 0.233863809242996 
1085	 0.234262669053032 
1086	 0.234687741154655 
1087	 0.235059715643648 
1088	 0.235395607224417 
1089	 0.235748347641016 
1090	 0.236071024925575 
1091	 0.236400328273868 
1092	 0.236781466999438 
1093	 0.237151680581151 
1094	 0.237502985930268 
1095	 0.237852334897221 
1096	 0.238197403613577 
1097	 0.238520805313432 
1098	 0.238839874871039 
1099	 0.239166617785907 
1100	 0.239484470375904 
1101	 0.239774290098737 
1102	 0.240076116931098 
1103	 0.240394625289726 
1104	 0.240690685802478 
1105	 0.240956233104935 
1106	 0.241269773743362 
1107	 0.241593343328277 
1108	 0.241918347175603 
1109	 0.242245618516271 
1110	 0.242529529887703 
1111	 0.242797161409713 
1112	 0.243008784900849 
1113	 0.243263591038183 
1114	 0.243519819988148 
1115	 0.243779467766289 
1116	 0.24405026856858 
1117	 0.244326262559692 
1118	 0.2445838542783 
1119	 0.244890782701946 
1120	 0.245213474758898 
1121	 0.245505582475161 
1122	 0.245813627375181 
1123	 0.246102197204003 
1124	 0.246360972200399 
1125	 0.246578624667362 
1126	 0.246835997425232 
1127	 0.247084899218366 
1128	 0.247345783631155 
1129	 0.247649565994029 
1130	 0.247916088021144 
1131	 0.248157283789527 
1132	 0.248398718962993 
1133	 0.24862352471465 
1134	 0.248856409357716 
1135	 0.249082366450856 
1136	 0.249331537348844 
1137	 0.249568072804048 
1138	 0.249806483857792 
1139	 0.250028222253845 
1140	 0.25022975196242 
1141	 0.250449533231098 
1142	 0.250670289080468 
1143	 0.25088728521875 
1144	 0.251116266163818 
1145	 0.251331642372958 
1146	 0.251540196839441 
1147	 0.251739084774427 
1148	 0.251923197190063 
1149	 0.252116379920689 
1150	 0.252301740195974 
1151	 0.252497082662493 
1152	 0.252686230290976 
1153	 0.252881985678435 
1154	 0.253075273891308 
1155	 0.253258617593252 
1156	 0.253453097452245 
1157	 0.253668419599943 
1158	 0.253853273464295 
1159	 0.254017528730064 
1160	 0.254202794373146 
1161	 0.254387921469671 
1162	 0.254567250917116 
1163	 0.254769815318281 
1164	 0.25494518754969 
1165	 0.255095557488713 
1166	 0.255241031452542 
1167	 0.255391990906718 
1168	 0.255570803997291 
1169	 0.255727042626598 
1170	 0.255879411698506 
1171	 0.256045269971483 
1172	 0.256217532235687 
1173	 0.256367277878719 
1174	 0.256513686312986 
1175	 0.256670779682676 
1176	 0.256806402331919 
1177	 0.256958836245751 
1178	 0.257153395706417 
1179	 0.257313711095876 
1180	 0.257448307603727 
1181	 0.25759166050712 
1182	 0.257723664322538 
1183	 0.257864958975663 
1184	 0.258003225195869 
1185	 0.25814601213363 
1186	 0.258288440027837 
1187	 0.258427800868299 
1188	 0.258569014983014 
1189	 0.258718749044782 
1190	 0.258856598105668 
1191	 0.258995874951913 
1192	 0.25912171571239 
1193	 0.259227568877631 
1194	 0.259347014324195 
1195	 0.259458824055005 
1196	 0.259579809737984 
1197	 0.259725978288798 
1198	 0.259852742695229 
1199	 0.259972512060015 
1200	 0.260084829064571 
1201	 0.260201858151097 
1202	 0.260303718709819 
1203	 0.260427430631952 
1204	 0.260575314063735 
1205	 0.260695176784319 
1206	 0.260811592481742 
1207	 0.260922671161507 
1208	 0.26101213306964 
1209	 0.26111493257588 
1210	 0.261230370885984 
1211	 0.261332896157735 
1212	 0.26143154560951 
1213	 0.261527393204424 
1214	 0.261602040152223 
1215	 0.261696588627112 
1216	 0.261799228649631 
1217	 0.261915044671578 
1218	 0.262012873049908 
1219	 0.262117079021786 
1220	 0.262212556183834 
1221	 0.262290088601818 
1222	 0.262377937296322 
1223	 0.262469075813944 
1224	 0.262564692957954 
1225	 0.262669197768327 
1226	 0.262758548973992 
1227	 0.262850787071376 
1228	 0.262933504007267 
1229	 0.262984801593292 
1230	 0.263061154462378 
1231	 0.263157618203041 
1232	 0.26324165077983 
1233	 0.263325572988864 
1234	 0.263414684349412 
1235	 0.26350630521425 
1236	 0.263594370008846 
1237	 0.263679764588491 
1238	 0.26377660787918 
1239	 0.263858926051255 
1240	 0.263927694796393 
1241	 0.263996176726953 
1242	 0.264069324038726 
1243	 0.26412788150714 
1244	 0.264161172345658 
1245	 0.264215240086244 
1246	 0.264270596065696 
1247	 0.264328582133033 
1248	 0.264395793937163 
1249	 0.264474857133526 
1250	 0.264522802256566 
1251	 0.264574500788668 
1252	 0.264643362207711 
1253	 0.264716311132099 
1254	 0.264787941290136 
1255	 0.264879845159462 
1256	 0.264952880797796 
1257	 0.265017018053475 
1258	 0.265077005933491 
1259	 0.265138199718342 
1260	 0.265185947532707 
1261	 0.265208186909104 
1262	 0.265247264868349 
1263	 0.265294592635837 
1264	 0.265332572479519 
1265	 0.2653698677129 
1266	 0.265411070475852 
1267	 0.265449118594145 
1268	 0.265471673403489 
1269	 0.265525084430363 
1270	 0.265602384087816 
1271	 0.265658191198892 
1272	 0.265723754574135 
1273	 0.265771906522447 
1274	 0.265785553842842 
1275	 0.265844446188281 
1276	 0.265924020666658 
1277	 0.26599324374072 
1278	 0.266078130770545 
1279	 0.266162469932992 
1280	 0.266231406214806 
1281	 0.266319837304501 
1282	 0.266439187754679 
1283	 0.266540248853835 
1284	 0.266635742692918 
1285	 0.266726912418128 
1286	 0.266837701288599 
1287	 0.266946680626026 
1288	 0.267066020525396 
1289	 0.267212601678571 
1290	 0.267330317815327 
1291	 0.267436404740726 
1292	 0.267546080209025 
1293	 0.267655234191269 
1294	 0.267747523382725 
1295	 0.267837008624407 
1296	 0.267914476469654 
1297	 0.267966246642677 
1298	 0.268033697189428 
1299	 0.268094671575818 
1300	 0.268166266576159 
1301	 0.268251404081324 
1302	 0.268327804245038 
1303	 0.26841045452269 
1304	 0.268490129864465 
1305	 0.268544739911999 
1306	 0.268595220803979 
1307	 0.268632239513211 
1308	 0.268664191168861 
1309	 0.268691572060835 
1310	 0.268721483228841 
1311	 0.268727059610877 
1312	 0.268711714054615 
1313	 0.268705826632428 
1314	 0.268684251599337 
1315	 0.268675465820493 
1316	 0.268685402696412 
1317	 0.268675934733863 
1318	 0.268651227838815 
1319	 0.268638845820807 
1320	 0.268621646235499 
1321	 0.268608539367759 
1322	 0.268607366713485 
1323	 0.268600130640889 
1324	 0.26860262577657 
1325	 0.268598037300089 
1326	 0.268573734845646 
1327	 0.26856682032864 
1328	 0.268516521528585 
1329	 0.268459168969786 
1330	 0.268408590985693 
1331	 0.268353557768661 
1332	 0.26829357583615 
1333	 0.268235615247571 
1334	 0.268169477248346 
1335	 0.268077501908604 
1336	 0.268027325308312 
1337	 0.267995337124454 
1338	 0.267964347522208 
1339	 0.267972083207441 
1340	 0.267940428662221 
1341	 0.267888907705892 
1342	 0.26784050906872 
1343	 0.267771340691745 
1344	 0.267714556640803 
1345	 0.267688174824924 
1346	 0.267627034973936 
1347	 0.267575873981057 
1348	 0.267545377099686 
1349	 0.267477586745136 
1350	 0.267423677345839 
1351	 0.267379399077918 
1352	 0.267336212779576 
1353	 0.26729910741264 
1354	 0.267290401186452 
1355	 0.267241842478743 
1356	 0.267176908157104 
1357	 0.267111252664881 
1358	 0.26701803362863 
1359	 0.266948104554483 
1360	 0.266875259595226 
1361	 0.266826015919404 
1362	 0.266811966556521 
1363	 0.266768954605696 
1364	 0.266715592444812 
1365	 0.266681848544517 
1366	 0.266646997541589 
1367	 0.266600383227431 
1368	 0.266589418753012 
1369	 0.266590855412575 
1370	 0.266552766541542 
1371	 0.266515682319774 
1372	 0.266465586734001 
1373	 0.266388850554551 
1374	 0.266319540135267 
1375	 0.266254855449534 
1376	 0.266157800034034 
1377	 0.26605218983778 
1378	 0.26592328537949 
1379	 0.265761335187447 
1380	 0.265602687643384 
1381	 0.265426714197391 
1382	 0.26525774754934 
1383	 0.265091044907643 
1384	 0.264910106169232 
1385	 0.264744120178384 
1386	 0.264538980416714 
1387	 0.264303999937027 
1388	 0.264060516845689 
1389	 0.263790364834338 
1390	 0.263521294980352 
1391	 0.263242867718373 
1392	 0.26295607770854 
1393	 0.262624299455636 
1394	 0.262262486352203 
1395	 0.261867706512118 
1396	 0.261447254257312 
1397	 0.261037588543367 
1398	 0.260615666509079 
1399	 0.260198115865507 
1400	 0.259790018213864 
1401	 0.259358454983501 
1402	 0.258911963024859 
1403	 0.258475654063457 
1404	 0.258010666935609 
1405	 0.257590579376512 
1406	 0.257205894138798 
1407	 0.256800416102811 
1408	 0.25639633822507 
1409	 0.256011533448357 
1410	 0.255602158234897 
1411	 0.255247863593278 
1412	 0.254932026058809 
1413	 0.254636879686492 
1414	 0.254379515517403 
1415	 0.254122984674127 
1416	 0.253864456645778 
1417	 0.253637362905961 
1418	 0.253410646532659 
1419	 0.253204273055024 
1420	 0.253040603163843 
1421	 0.252874818762602 
1422	 0.25271612207978 
1423	 0.252569548615308 
1424	 0.252415792145042 
1425	 0.252251978345198 
1426	 0.252110092847521 
1427	 0.251968108768814 
1428	 0.251848480726252 
1429	 0.251748802973473 
1430	 0.251656967791631 
1431	 0.251595175957214 
1432	 0.251508042901072 
1433	 0.251413395441458 
1434	 0.251323556823636 
1435	 0.251201278792137 
1436	 0.251132222919327 
1437	 0.251101895124878 
1438	 0.251062349187859 
1439	 0.251055176281423 
1440	 0.251032696683876 
1441	 0.250968847614089 
1442	 0.250905004459409 
1443	 0.250840437398548 
1444	 0.250784104871878 
1445	 0.250745334561452 
1446	 0.250722153466972 
1447	 0.250703008252952 
1448	 0.250668477872388 
1449	 0.250611526343101 
1450	 0.250550051252368 
1451	 0.250493150372709 
1452	 0.250409799307703 
1453	 0.250370540894164 
1454	 0.250360914586557 
1455	 0.250336153322846 
1456	 0.250334854864288 
1457	 0.250303995345254 
1458	 0.250250482634759 
1459	 0.250212278661414 
1460	 0.250159303192025 
1461	 0.250128920156351 
1462	 0.250111593376581 
1463	 0.250098530515112 
1464	 0.250102521442192 
1465	 0.250100588445798 
1466	 0.250095999709464 
1467	 0.25010373165444 
1468	 0.250079787766452 
1469	 0.250123456837276 
1470	 0.250201517697099 
1471	 0.250316247137717 
1472	 0.250461169304495 
1473	 0.250620663500649 
1474	 0.2507542338936 
1475	 0.250878439753101 
1476	 0.251011882910779 
1477	 0.251149801495654 
1478	 0.251293652428409 
1479	 0.25144049926571 
1480	 0.251589162333029 
1481	 0.251726922309785 
1482	 0.251864146142473 
1483	 0.252000126586091 
1484	 0.252131361041485 
1485	 0.252257706732471 
1486	 0.252383182715633 
1487	 0.25249835946557 
1488	 0.252625898148369 
1489	 0.252760184787667 
1490	 0.252892303907263 
1491	 0.253037728313583 
1492	 0.253168837486877 
1493	 0.253290687582148 
1494	 0.253407283135338 
1495	 0.253511088994336 
1496	 0.253621300586241 
1497	 0.253735145195494 
1498	 0.253838817914962 
1499	 0.253950208991311 
1500	 0.254046503401688 
1501	 0.254121555649938 
1502	 0.254198588891566 
1503	 0.254268797710957 
1504	 0.254334939498577 
1505	 0.254398862354203 
1506	 0.254503084929909 
1507	 0.254632097430776 
1508	 0.254747226380033 
1509	 0.254878445694355 
1510	 0.254987580236683 
1511	 0.255054979442034 
1512	 0.255121528176412 
1513	 0.255182314994646 
1514	 0.255246464707493 
1515	 0.255333174861351 
1516	 0.255426944675578 
1517	 0.255510360823136 
1518	 0.255590144377561 
1519	 0.255672764844621 
1520	 0.255746387905549 
1521	 0.255837060189967 
1522	 0.255945074768444 
1523	 0.256037343547739 
1524	 0.256130141050561 
1525	 0.25622179010879 
1526	 0.256299829190565 
1527	 0.256387208097055 
1528	 0.256495566410021 
1529	 0.256575279986011 
1530	 0.256638315822975 
1531	 0.256707636029823 
1532	 0.256765561036431 
1533	 0.256821453337443 
1534	 0.256875585549166 
1535	 0.256937456806274 
1536	 0.256989662930843 
1537	 0.257058324200277 
1538	 0.257145230753281 
1539	 0.257228651957767 
1540	 0.25732406050702 
1541	 0.257402130650249 
1542	 0.25747319606072 
1543	 0.257545244221568 
1544	 0.25761057785992 
1545	 0.257673770969847 
1546	 0.257739881018818 
1547	 0.257797184594735 
1548	 0.257850775874358 
1549	 0.257887556774854 
1550	 0.257933912837968 
1551	 0.257987272553985 
1552	 0.258044179625786 
1553	 0.258116309739791 
1554	 0.258180799762142 
1555	 0.258234069310263 
1556	 0.258276680571378 
1557	 0.258308527919557 
1558	 0.258353150185783 
1559	 0.258401075500437 
1560	 0.258446643704874 
1561	 0.258505309591043 
1562	 0.258542426451094 
1563	 0.258565251291967 
1564	 0.258592023917584 
1565	 0.258613394287928 
1566	 0.258631385208328 
1567	 0.258636237368758 
1568	 0.258669849890983 
1569	 0.258719675877066 
1570	 0.258753626764785 
1571	 0.258804344658945 
1572	 0.258835347139176 
1573	 0.258830691117171 
1574	 0.258859248632024 
1575	 0.258905017790951 
1576	 0.258942164134522 
1577	 0.258990459354138 
1578	 0.259030149056465 
1579	 0.259062554713981 
1580	 0.259095341527317 
1581	 0.259123194423824 
1582	 0.259159382836393 
1583	 0.259204406970386 
1584	 0.259235632140609 
1585	 0.259266719734793 
1586	 0.259292286506229 
1587	 0.259298149010806 
1588	 0.259316408460614 
1589	 0.259346592941504 
1590	 0.259367820956499 
1591	 0.259397197626536 
1592	 0.259407719587833 
1593	 0.259388391108167 
1594	 0.259393012034895 
1595	 0.259392974508718 
1596	 0.259405623865173 
1597	 0.259446701967288 
1598	 0.259479091457792 
1599	 0.259524014132798 
1600	 0.25954414939114 
1601	 0.259544144997835 
1602	 0.25955099784027 
1603	 0.25954418889175 
1604	 0.259541029886921 
1605	 0.25954812405512 
1606	 0.259549587757742 
1607	 0.259543290924438 
1608	 0.259532740116095 
1609	 0.259541574934722 
1610	 0.259555413412425 
1611	 0.25957435069125 
1612	 0.259588142238132 
1613	 0.259598272950898 
1614	 0.259597541438375 
1615	 0.259583959716641 
1616	 0.259582349958644 
1617	 0.259576234876921 
1618	 0.259577745670492 
1619	 0.259579934356332 
1620	 0.259573929182787 
1621	 0.25958568212552 
1622	 0.259596676666989 
1623	 0.259617979454429 
1624	 0.259664071190211 
1625	 0.259680879085293 
1626	 0.259690400215923 
1627	 0.259687964563444 
1628	 0.259670771817326 
1629	 0.259657082278267 
1630	 0.259635202151977 
1631	 0.259616851850015 
1632	 0.259588678553613 
1633	 0.259590195553989 
1634	 0.259610169730655 
1635	 0.259610743359497 
1636	 0.259631899480373 
1637	 0.259616066530637 
1638	 0.259556742990764 
1639	 0.259540777136899 
1640	 0.259520817289363 
1641	 0.259535092265104 
1642	 0.259597141946017 
1643	 0.259613504640094 
1644	 0.2596236215085 
1645	 0.259640590159209 
1646	 0.259644857773897 
1647	 0.259644319252764 
1648	 0.259651534811562 
1649	 0.259656047384536 
1650	 0.259650906435931 
1651	 0.259631482495166 
1652	 0.259618302166133 
1653	 0.259589596695568 
1654	 0.259525019264467 
1655	 0.259484612754431 
1656	 0.259453677087014 
1657	 0.259423881354041 
1658	 0.259398730925247 
1659	 0.259368623105475 
1660	 0.259339563697408 
1661	 0.259313739250084 
1662	 0.259286929451129 
1663	 0.259257700523581 
1664	 0.259232701887501 
1665	 0.259205107386191 
1666	 0.259162525358724 
1667	 0.259143252734051 
1668	 0.259146673361984 
1669	 0.259127993489322 
1670	 0.259107761682454 
1671	 0.259090240864286 
1672	 0.259057004490099 
1673	 0.259038704849604 
1674	 0.259038359003567 
1675	 0.259026502050668 
1676	 0.259019163876106 
1677	 0.258992708554882 
1678	 0.258950146286596 
1679	 0.258918976618153 
1680	 0.258876649420381 
1681	 0.258844709611604 
1682	 0.258824034423413 
1683	 0.258803959731756 
1684	 0.258781652213498 
1685	 0.258767241920579 
1686	 0.25877281517313 
1687	 0.258754283865092 
1688	 0.258720779866783 
1689	 0.258698922258832 
1690	 0.258675074937007 
1691	 0.258644710207153 
1692	 0.25862795063364 
1693	 0.258590499644451 
1694	 0.258511687320127 
1695	 0.258480338944151 
1696	 0.258471730533258 
1697	 0.258447571356493 
1698	 0.258445936548441 
1699	 0.258429553415671 
1700	 0.258391775207039 
1701	 0.258363153864178 
1702	 0.258338100293357 
1703	 0.258316220720635 
1704	 0.258303346816671 
1705	 0.258268136435752 
1706	 0.258231521211064 
1707	 0.25818505831859 
1708	 0.258098952091904 
1709	 0.258052873631456 
1710	 0.258034930751484 
1711	 0.257997291767725 
1712	 0.257963586601984 
1713	 0.257930298117267 
1714	 0.257893414076385 
1715	 0.257841203721096 
1716	 0.257794262019678 
1717	 0.257734059223396 
1718	 0.257638107792533 
1719	 0.25757261439509 
1720	 0.257528789387868 
1721	 0.257458801271376 
1722	 0.257382318365108 
1723	 0.25731959629746 
1724	 0.257253827136254 
1725	 0.257176833052892 
1726	 0.257099319226162 
1727	 0.257033595259089 
1728	 0.256958013405842 
1729	 0.256889940278778 
1730	 0.256855597248488 
1731	 0.256782834659415 
1732	 0.256676806364053 
1733	 0.256595873507863 
1734	 0.256513036014543 
1735	 0.256429602582066 
1736	 0.256351140434175 
1737	 0.25628402117506 
1738	 0.256227454155145 
1739	 0.256151643099348 
1740	 0.256078859421068 
1741	 0.256000290056158 
1742	 0.255895561469914 
1743	 0.255819937237022 
1744	 0.255774784358389 
1745	 0.255684450570212 
1746	 0.255574939368201 
1747	 0.255460477432086 
1748	 0.255362065705428 
1749	 0.255289393707543 
1750	 0.255226849927351 
1751	 0.255159674066455 
1752	 0.255086375765594 
1753	 0.25501210790779 
1754	 0.254931087465934 
1755	 0.254870439074584 
1756	 0.25480688801009 
1757	 0.254714563414383 
1758	 0.254628101707641 
1759	 0.254535708609216 
1760	 0.254442432396509 
1761	 0.254376153977534 
1762	 0.25430866799187 
1763	 0.254204917755188 
1764	 0.254101812343958 
1765	 0.254004815050623 
1766	 0.25389450508472 
1767	 0.253806437421653 
1768	 0.253715475200247 
1769	 0.253597173196358 
1770	 0.253499741246347 
1771	 0.253420500930336 
1772	 0.253346599011684 
1773	 0.2533035500127 
1774	 0.253281181357031 
1775	 0.253258459033975 
1776	 0.253211941286067 
1777	 0.25317210521732 
1778	 0.253122515982223 
1779	 0.253045228280702 
1780	 0.252980820276212 
1781	 0.252879748474605 
1782	 0.252789491585004 
1783	 0.252750612891967 
1784	 0.252715292477454 
1785	 0.252733000421847 
1786	 0.252704028689924 
1787	 0.252657820665072 
1788	 0.252602040909121 
1789	 0.252507409024914 
1790	 0.252458476984687 
1791	 0.2524257484748 
1792	 0.252379232119161 
1793	 0.252341207870213 
1794	 0.25232224290814 
1795	 0.252308164421183 
1796	 0.252283461839083 
1797	 0.252286101653392 
1798	 0.252252434092153 
1799	 0.252184638416607 
1800	 0.252126210153639 
1801	 0.247678320259791 
1802	 0.247858293628846 
1803	 0.248084754604505 
1804	 0.248346674003008 
1805	 0.248588040331733 
1806	 0.248819043758328 
1807	 0.249066354858009 
1808	 0.249261386809332 
1809	 0.24942703157867 
1810	 0.249568817300608 
1811	 0.249692354102376 
1812	 0.249771151990727 
1813	 0.249826975375278 
1814	 0.249885929596128 
1815	 0.249910236698096 
1816	 0.249918346258212 
1817	 0.249923179150296 
1818	 0.249882886535226 
1819	 0.249896583679207 
1820	 0.249930738997479 
1821	 0.249963763650907 
1822	 0.250015116156718 
1823	 0.250067465373657 
1824	 0.250093286313068 
1825	 0.25009553808142 
1826	 0.250070803769729 
1827	 0.250046900891614 
1828	 0.249998777784603 
1829	 0.249903466425091 
1830	 0.249835060929941 
1831	 0.249769347400463 
1832	 0.249699311089005 
1833	 0.249625184933342 
1834	 0.249571285900172 
1835	 0.249495068274839 
1836	 0.249395986118657 
1837	 0.24934249558453 
1838	 0.249285907337962 
1839	 0.249207115884842 
1840	 0.249123325660965 
1841	 0.249055743439192 
1842	 0.248953167968803 
1843	 0.248852649192253 
1844	 0.248803178554941 
1845	 0.248741116148518 
1846	 0.248657747940911 
1847	 0.248565441521206 
1848	 0.248472173885499 
1849	 0.248410962298638 
1850	 0.24836559858895 
1851	 0.248348044954768 
1852	 0.248346050804323 
1853	 0.24834505361231 
1854	 0.248322741592406 
1855	 0.248270404731978 
1856	 0.248182188793039 
1857	 0.248088500563939 
1858	 0.24798016041135 
1859	 0.247869615964496 
1860	 0.247745673123565 
1861	 0.247630612315171 
1862	 0.247465984469626 
1863	 0.24729644896699 
1864	 0.247126260018995 
1865	 0.246931725209179 
1866	 0.246751588840634 
1867	 0.246546127503667 
1868	 0.246269361129278 
1869	 0.24598882807107 
1870	 0.245709752408328 
1871	 0.245384822232356 
1872	 0.24502391498643 
1873	 0.244667257277984 
1874	 0.244276379505229 
1875	 0.243824750343533 
1876	 0.243364317515971 
1877	 0.242851105229559 
1878	 0.242262123894148 
1879	 0.24164280482171 
1880	 0.240957069757371 
1881	 0.240213392302284 
1882	 0.2394024826128 
1883	 0.23854525411683 
1884	 0.237583632218221 
1885	 0.236576212637967 
1886	 0.235499571018418 
1887	 0.234346559925989 
1888	 0.233151677224154 
1889	 0.231893118723305 
1890	 0.230609781887198 
1891	 0.229283770040701 
1892	 0.227904452260801 
1893	 0.226508503097366 
1894	 0.225078111454705 
1895	 0.223605140813346 
1896	 0.222111960441074 
1897	 0.22065797540085 
1898	 0.219176821475235 
1899	 0.21768989749719 
1900	 0.216249171182858 
1901	 0.214802624943476 
1902	 0.213409205481094 
1903	 0.212056990685507 
1904	 0.210749202757009 
1905	 0.20946380330648 
1906	 0.208249472736591 
1907	 0.207115294124723 
1908	 0.206025523561264 
1909	 0.204995431972072 
1910	 0.203995449464816 
1911	 0.203028047507277 
1912	 0.20210992809279 
1913	 0.201256319591714 
1914	 0.200472525708784 
1915	 0.199730558532323 
1916	 0.19904506479638 
1917	 0.198397876673525 
1918	 0.197800151065478 
1919	 0.197235653817572 
1920	 0.196723546038103 
1921	 0.19624107134744 
1922	 0.195791984926039 
1923	 0.195387410332103 
1924	 0.195022823878402 
1925	 0.194699064049166 
1926	 0.194417528169312 
1927	 0.194178224044778 
1928	 0.193974325024447 
1929	 0.193816561180664 
1930	 0.193699546529889 
1931	 0.193600825477858 
1932	 0.193528165521098 
1933	 0.193481928939158 
1934	 0.193450574766937 
1935	 0.193448589408105 
1936	 0.193478570178417 
1937	 0.193528070993803 
1938	 0.19360427485306 
1939	 0.193696243937729 
1940	 0.193813866151534 
1941	 0.193938763047279 
1942	 0.194085886181223 
1943	 0.194241573247616 
1944	 0.194429614827512 
1945	 0.194650846943218 
1946	 0.194863204683689 
1947	 0.195090500316705 
1948	 0.195321298291774 
1949	 0.195550491478279 
1950	 0.195790134780261 
1951	 0.19603847304396 
1952	 0.196305738924113 
1953	 0.196557094604263 
1954	 0.196820234445238 
1955	 0.197120111648024 
1956	 0.197424793388002 
1957	 0.197726769136981 
1958	 0.198039402036108 
1959	 0.198360274404737 
1960	 0.198676275058104 
1961	 0.19900616060198 
1962	 0.199366635436169 
1963	 0.199717993273747 
1964	 0.200062042214844 
1965	 0.200409323490738 
1966	 0.200775372756118 
1967	 0.201154731688478 
1968	 0.201532499556839 
1969	 0.20192109363995 
1970	 0.202309727534871 
1971	 0.202705607708384 
1972	 0.203088177874621 
1973	 0.203476150092659 
1974	 0.203853000613346 
1975	 0.204208418086116 
1976	 0.204572541242692 
1977	 0.2049598318551 
1978	 0.205348145407659 
1979	 0.205724223813956 
1980	 0.206105790985454 
1981	 0.20646466328585 
1982	 0.206773173168762 
1983	 0.207135718825815 
1984	 0.20751088319222 
1985	 0.207897313036031 
1986	 0.208329297608977 
1987	 0.208732248347818 
1988	 0.20912562774925 
1989	 0.209519274077174 
1990	 0.209907212681752 
1991	 0.210306251262094 
1992	 0.21069218591625 
1993	 0.211083712564099 
1994	 0.211459221240695 
1995	 0.211814215843356 
1996	 0.212175481024878 
1997	 0.212527749317361 
1998	 0.212893182666337 
1999	 0.213272911906181 
2000	 0.213639625194641 
2001	 0.214008485710687 
2002	 0.214369476408939 
2003	 0.214735104447006 
2004	 0.215099140518578 
2005	 0.21545472795956 
2006	 0.215827173399914 
2007	 0.216167027450303 
2008	 0.216466008579082 
2009	 0.216793721893606 
2010	 0.217116418781819 
2011	 0.217450106845468 
2012	 0.21780790947468 
2013	 0.218153656657382 
2014	 0.218500213880944 
2015	 0.218834122525472 
2016	 0.219185589038955 
2017	 0.219527963690603 
2018	 0.219859009493297 
2019	 0.220185921795783 
2020	 0.220511998851914 
2021	 0.220824459450614 
2022	 0.221138528269687 
2023	 0.221453988736353 
2024	 0.221768811580399 
2025	 0.222070217920682 
2026	 0.222387037758086 
2027	 0.22271552694797 
2028	 0.223054313416856 
2029	 0.223359153390575 
2030	 0.22365620366557 
2031	 0.223943107138413 
2032	 0.22419144609591 
2033	 0.224474404386846 
2034	 0.224782765916856 
2035	 0.225066693495605 
2036	 0.225357787476239 
2037	 0.225626945630378 
2038	 0.225866414276109 
2039	 0.226114057343847 
2040	 0.226356439890067 
2041	 0.226602669084407 
2042	 0.226824909333355 
2043	 0.227036482059344 
2044	 0.227253860316258 
2045	 0.227446575557758 
2046	 0.227670180818579 
2047	 0.227915350993356 
2048	 0.228154994881127 
2049	 0.228428129823565 
2050	 0.22864683669628 
2051	 0.228830109909812 
2052	 0.229028522300628 
2053	 0.229194206188059 
2054	 0.22937590318681 
2055	 0.229569154907872 
2056	 0.229784967942571 
2057	 0.229976725677217 
2058	 0.230157617383404 
2059	 0.230340338800204 
2060	 0.230514257736457 
2061	 0.230697098083712 
2062	 0.230883604870303 
2063	 0.231067200307767 
2064	 0.23124902332906 
2065	 0.231439793967581 
2066	 0.231648088969021 
2067	 0.231830359253088 
2068	 0.231999588644376 
2069	 0.232178030980349 
2070	 0.232349150806307 
2071	 0.232494215219151 
2072	 0.232664920923331 
2073	 0.232852768895989 
2074	 0.233035061159135 
2075	 0.233222503055252 
2076	 0.233402053853611 
2077	 0.233592854125024 
2078	 0.233759391507377 
2079	 0.233893832010224 
2080	 0.234052040550364 
2081	 0.234214095944245 
2082	 0.234370768899195 
2083	 0.234531428481157 
2084	 0.234702963992563 
2085	 0.234864924644511 
2086	 0.235013135145325 
2087	 0.235173461569011 
2088	 0.235349009414537 
2089	 0.235503666121377 
2090	 0.23565278782655 
2091	 0.235793976252786 
2092	 0.235915056939937 
2093	 0.236050911394196 
2094	 0.236183844440376 
2095	 0.236324469570009 
2096	 0.236471255175614 
2097	 0.236624124800077 
2098	 0.236783773475708 
2099	 0.236946675206909 
2100	 0.237109127979567 
2101	 0.237276467380718 
2102	 0.237444844690139 
2103	 0.237611030579138 
2104	 0.237785579502912 
2105	 0.237969150687196 
2106	 0.23814908396491 
2107	 0.238339204719776 
2108	 0.238512307755775 
2109	 0.238666185840399 
2110	 0.238840016341487 
2111	 0.239023741556676 
2112	 0.239193285733277 
2113	 0.239367068703524 
2114	 0.239548446196282 
2115	 0.239696839267528 
2116	 0.239807046346777 
2117	 0.239957318305544 
2118	 0.240106138134698 
2119	 0.240265915003163 
2120	 0.24046147136904 
2121	 0.240618969877937 
2122	 0.240766828901936 
2123	 0.240903533135076 
2124	 0.241022157722721 
2125	 0.241135874315072 
2126	 0.241241348724701 
2127	 0.241339129801817 
2128	 0.24141867596171 
2129	 0.241503519894891 
2130	 0.241573852942527 
2131	 0.241664471759424 
2132	 0.241751220646321 
2133	 0.241865469198367 
2134	 0.241913374933688 
2135	 0.241942899894455 
2136	 0.241949964195043 
2137	 0.241894720522157 
2138	 0.241873363735521 
2139	 0.241847296001564 
2140	 0.241834298387708 
2141	 0.241844588026094 
2142	 0.241825239774745 
2143	 0.24181596654298 
2144	 0.24177775017366 
2145	 0.241698546364527 
2146	 0.241624931060646 
2147	 0.241536633489531 
2148	 0.241451685083793 
2149	 0.241359904160522 
2150	 0.241265876616199 
2151	 0.241166324246583 
2152	 0.241058363341106 
2153	 0.240951981851094 
2154	 0.24085838836797 
2155	 0.240727726320625 
2156	 0.240590387118473 
2157	 0.240427512008141 
2158	 0.240218249812053 
2159	 0.240024407517222 
2160	 0.239827249008711 
2161	 0.239619596447808 
2162	 0.239401262025211 
2163	 0.239190773576527 
2164	 0.238987603210142 
2165	 0.23875779472927 
2166	 0.238538076892581 
2167	 0.23832004072279 
2168	 0.238104677433682 
2169	 0.237877682908798 
2170	 0.237674831499208 
2171	 0.237497364240378 
2172	 0.237299559251804 
2173	 0.237106329585497 
2174	 0.236901747956253 
2175	 0.236682938632631 
2176	 0.23646680570949 
2177	 0.236253597016423 
2178	 0.236029067011101 
2179	 0.235799416779085 
2180	 0.235559960807191 
2181	 0.23532091513597 
2182	 0.235061725072037 
2183	 0.234762797533746 
2184	 0.234481613113455 
2185	 0.234233808896233 
2186	 0.233991534325718 
2187	 0.233753860296812 
2188	 0.233543913960455 
2189	 0.233346235970908 
2190	 0.233144138155492 
2191	 0.23295507405873 
2192	 0.232797307873234 
2193	 0.232644481949788 
2194	 0.232511114963353 
2195	 0.232344696187829 
2196	 0.232168426808391 
2197	 0.232011915185895 
2198	 0.231807631210729 
2199	 0.231658611726514 
2200	 0.23158444839314 
2201	 0.231482859702747 
2202	 0.231383489976285 
2203	 0.231292161558538 
2204	 0.231198756361535 
2205	 0.231091241112441 
2206	 0.231015073449212 
2207	 0.23095640497299 
2208	 0.230899716930254 
2209	 0.230851612237934 
2210	 0.230816676113346 
2211	 0.230787443231867 
2212	 0.230775172787602 
2213	 0.230783206331842 
2214	 0.230795272371002 
2215	 0.230819046800687 
2216	 0.230846135046638 
2217	 0.230897512466591 
2218	 0.230927954294424 
2219	 0.230956901413566 
2220	 0.230978235654155 
2221	 0.230998684172332 
2222	 0.230982182029559 
2223	 0.230987058561369 
2224	 0.230985255481164 
2225	 0.230985887548553 
2226	 0.230990629096345 
2227	 0.230982223154185 
2228	 0.230966333062048 
2229	 0.230952767731304 
2230	 0.230954498376694 
2231	 0.230903496111725 
2232	 0.23081972992942 
2233	 0.230749738795154 
2234	 0.230636160093707 
2235	 0.230553340999327 
2236	 0.230506877490665 
2237	 0.230443581551813 
2238	 0.230385288146893 
2239	 0.230301105453468 
2240	 0.230220151983121 
2241	 0.230104966548642 
2242	 0.229948845814606 
2243	 0.229792524607282 
2244	 0.229632015319911 
2245	 0.229432256437763 
2246	 0.229239701722405 
2247	 0.229047726922856 
2248	 0.228799844583106 
2249	 0.228508444633659 
2250	 0.22824170714933 
2251	 0.227931390565394 
2252	 0.227666729963826 
2253	 0.227440422989011 
2254	 0.227198485344791 
2255	 0.226933750562207 
2256	 0.226727026112432 
2257	 0.226532742802558 
2258	 0.226380627698846 
2259	 0.22628179611233 
2260	 0.226187649718945 
2261	 0.226120699203653 
2262	 0.226069218911997 
2263	 0.226045275333987 
2264	 0.226026947354673 
2265	 0.22601641773871 
2266	 0.226026166858233 
2267	 0.226050912185073 
2268	 0.226089256323888 
2269	 0.226147990555991 
2270	 0.226228839232525 
2271	 0.226307455640634 
2272	 0.226388899105266 
2273	 0.2264972179077 
2274	 0.226600185736775 
2275	 0.226730836766196 
2276	 0.226874003274498 
2277	 0.227051400414532 
2278	 0.227272037818761 
2279	 0.227464405660479 
2280	 0.227682494299694 
2281	 0.227864912498819 
2282	 0.227997098763556 
2283	 0.22818680207076 
2284	 0.228411460099105 
2285	 0.228602668609712 
2286	 0.228828209205527 
2287	 0.22899478944887 
2288	 0.229101098455665 
2289	 0.229214944013679 
2290	 0.229298468739492 
2291	 0.22939836477137 
2292	 0.229525784196348 
2293	 0.229608588918733 
2294	 0.229679894774044 
2295	 0.229728192323041 
2296	 0.229722535091339 
2297	 0.229715055513649 
2298	 0.22975432347313 
2299	 0.229804639110687 
2300	 0.229891092275619 
2301	 0.230006311092999 
2302	 0.230064758663228 
2303	 0.230086055280063 
2304	 0.23008152160311 
2305	 0.230058088390602 
2306	 0.230073523638235 
2307	 0.230104306149941 
2308	 0.230144451362655 
2309	 0.230222837600103 
2310	 0.230246820423996 
2311	 0.230245821313148 
2312	 0.230254089554539 
2313	 0.230244618476744 
2314	 0.230239586135788 
2315	 0.230247695051141 
2316	 0.230240931471786 
2317	 0.230228648669641 
2318	 0.230194505800209 
2319	 0.230120264847442 
2320	 0.230092200807041 
2321	 0.230087982132388 
2322	 0.230045766035573 
2323	 0.230017401316275 
2324	 0.229979985401544 
2325	 0.229890284840819 
2326	 0.229829197829545 
2327	 0.229785878367672 
2328	 0.229766724110884 
2329	 0.229703497146624 
2330	 0.229637237565688 
2331	 0.22962993771695 
2332	 0.229598943351803 
2333	 0.22960998900881 
2334	 0.229627579737538 
2335	 0.229579989821153 
2336	 0.229490624987188 
2337	 0.229368933594401 
2338	 0.229274885516437 
2339	 0.229194087703769 
2340	 0.229137018521018 
2341	 0.22906517740079 
2342	 0.228955464046716 
2343	 0.228859189542799 
2344	 0.228751205441539 
2345	 0.228624949341854 
2346	 0.22850708704759 
2347	 0.228329806387571 
2348	 0.228067355769816 
2349	 0.227914240351378 
2350	 0.227784225814803 
2351	 0.227657834796371 
2352	 0.227638215529261 
2353	 0.227480499395032 
2354	 0.227229139669887 
2355	 0.227035093425224 
2356	 0.226805875038357 
2357	 0.226589089262721 
2358	 0.22641647895319 
2359	 0.226182548264204 
2360	 0.225862396242107 
2361	 0.225641337443556 
2362	 0.225464243988715 
2363	 0.225269232539697 
2364	 0.225111769035788 
2365	 0.22495709727597 
2366	 0.224811358330221 
2367	 0.224626648102213 
2368	 0.224473827352769 
2369	 0.224264405030653 
2370	 0.224000308001713 
2371	 0.223680819148822 
2372	 0.223361451773426 
2373	 0.223086904759624 
2374	 0.22281819717836 
2375	 0.22254434969407 
2376	 0.222318945757519 
2377	 0.222052823187624 
2378	 0.221741376812996 
2379	 0.22144930773139 
2380	 0.221186271697856 
2381	 0.220967373969552 
2382	 0.220740735320958 
2383	 0.220478084320638 
2384	 0.220184710912885 
2385	 0.219802169777386 
2386	 0.219413430571158 
2387	 0.21911694069928 
2388	 0.218821011108352 
2389	 0.218507564347289 
2390	 0.21822834489021 
2391	 0.217911236969817 
2392	 0.217555245805737 
2393	 0.217150248123156 
2394	 0.216724844943425 
2395	 0.216367674935073 
2396	 0.215975232548882 
2397	 0.215661137199161 
2398	 0.215389848105193 
2399	 0.215020595430733 
2400	 0.214777171451757 
2401	 0.214571279094537 
2402	 0.214341331072494 
2403	 0.214207450789199 
2404	 0.213943911068235 
2405	 0.213567186956042 
2406	 0.21325503928439 
2407	 0.212875387812685 
2408	 0.212540183801056 
2409	 0.212338367717661 
2410	 0.212068852239107 
2411	 0.211781335045989 
2412	 0.211552940282287 
2413	 0.211265169576443 
2414	 0.21093252244688 
2415	 0.210711242552405 
2416	 0.210398094829729 
2417	 0.20996769743006 
2418	 0.209637006599776 
2419	 0.209319668259765 
2420	 0.208977253642661 
2421	 0.208681026263144 
2422	 0.20839776597856 
2423	 0.208117416693369 
2424	 0.207804966898919 
2425	 0.207498745116061 
2426	 0.207191886873643 
2427	 0.206832882220097 
2428	 0.206512600312312 
2429	 0.206300579900331 
2430	 0.205976418712209 
2431	 0.205539110075578 
2432	 0.205190864248914 
2433	 0.204825609478237 
2434	 0.204437744103693 
2435	 0.20407582689464 
2436	 0.203788979898645 
2437	 0.203537242834582 
2438	 0.203213564658793 
2439	 0.202982229283378 
2440	 0.20262367449844 
2441	 0.20207725875875 
2442	 0.201694523716866 
2443	 0.201324223394888 
2444	 0.20095045059735 
2445	 0.200634104561967 
2446	 0.200292775739905 
2447	 0.200054383261363 
2448	 0.199710498977725 
2449	 0.199223089163009 
2450	 0.198837719555427 
2451	 0.198399386416679 
2452	 0.198044983832314 
2453	 0.197887432130142 
2454	 0.197508590002346 
2455	 0.196995357564156 
2456	 0.19661873528397 
2457	 0.196205259358652 
2458	 0.195849645585702 
2459	 0.195599128159136 
2460	 0.195302181694059 
2461	 0.194952348266546 
2462	 0.194662836200325 
2463	 0.19448911296703 
2464	 0.194237435850042 
2465	 0.193902204499212 
2466	 0.193527457464325 
2467	 0.193205785837756 
2468	 0.192832292843183 
2469	 0.192300312091082 
2470	 0.192163546285366 
2471	 0.191917365958593 
2472	 0.191821118351282 
2473	 0.191749941413819 
2474	 0.191570572585123 
2475	 0.191335353151567 
2476	 0.191220960863098 
2477	 0.191013727305795 
2478	 0.19059663254913 
2479	 0.190331376530225 
2480	 0.190117409392312 
2481	 0.189770252824631 
2482	 0.189354383974066 
2483	 0.188985264808946 
2484	 0.188488103727473 
2485	 0.187910923736929 
2486	 0.187657284129752 
2487	 0.187499596926599 
2488	 0.187228856195741 
2489	 0.187062150248864 
2490	 0.186862166717772 
2491	 0.186526220750374 
2492	 0.186179471925181 
2493	 0.185672659240361 
2494	 0.185220707051813 
2495	 0.18498621200294 
2496	 0.184690948632891 
2497	 0.184574003478673 
2498	 0.184530832845606 
2499	 0.184057399182317 
2500	 0.183506759200596 
