Wavelength	mm2400009.asd
350	 3.67020824900519E-02 
351	 3.99622832440795E-02 
352	 3.91393861589088E-02 
353	 3.36287847615033E-02 
354	 4.17612354054164E-02 
355	 4.41864118958048E-02 
356	 4.14284879386874E-02 
357	 3.91923573278109E-02 
358	 4.07052072776657E-02 
359	 4.17558621841792E-02 
360	 4.17029940912248E-02 
361	 4.24719008097481E-02 
362	 4.66794426409264E-02 
363	 4.72775924984771E-02 
364	 4.30662095137894E-02 
365	 4.33313645797152E-02 
366	 4.43341176921854E-02 
367	 4.36819318923343E-02 
368	 4.13436969824008E-02 
369	 4.55263204173297E-02 
370	 4.55628206068371E-02 
371	 4.24890372391702E-02 
372	 4.47747593752832E-02 
373	 4.47890601060132E-02 
374	 4.52385240184356E-02 
375	 4.72410608279149E-02 
376	 0.047008602762502 
377	 4.49829414964052E-02 
378	 4.49660572833355E-02 
379	 4.92034795669382E-02 
380	 4.93030948282661E-02 
381	 4.73720512552405E-02 
382	 4.65971386740211E-02 
383	 4.98737239680754E-02 
384	 5.00895625472082E-02 
385	 4.92587781330626E-02 
386	 4.93055448837928E-02 
387	 4.91931031638165E-02 
388	 5.08008227822183E-02 
389	 5.17780145193463E-02 
390	 5.00826427577354E-02 
391	 5.18121053830831E-02 
392	 0.052644739690834 
393	 5.29426336614917E-02 
394	 5.67974537503287E-02 
395	 5.63166786416143E-02 
396	 5.55929069234195E-02 
397	 5.76228155367671E-02 
398	 5.89705244520197E-02 
399	 5.95089585268238E-02 
400	 6.03691443695389E-02 
401	 6.25545710147228E-02 
402	 6.33171333978079E-02 
403	 6.31149792099003E-02 
404	 6.29871580193267E-02 
405	 6.42110864934016E-02 
406	 6.46950814834834E-02 
407	 6.53760992802092E-02 
408	 6.67936227895648E-02 
409	 6.69775647106185E-02 
410	 6.63745724270917E-02 
411	 6.62746137650873E-02 
412	 6.78919248864961E-02 
413	 6.91258335689486E-02 
414	 6.93704819245198E-02 
415	 6.89065130473783E-02 
416	 6.88765208832361E-02 
417	 6.89083349747739E-02 
418	 6.93973227154179E-02 
419	 7.03095793297641E-02 
420	 6.97190500599502E-02 
421	 6.84850634375722E-02 
422	 0.067871223147733 
423	 6.89943901298462E-02 
424	 0.068915127472968 
425	 6.83272945668508E-02 
426	 0.067913684990105 
427	 6.74124109866688E-02 
428	 6.69835301943754E-02 
429	 6.65301050543392E-02 
430	 6.59914223893823E-02 
431	 6.59485927334236E-02 
432	 0.065569550578669 
433	 6.50989693811947E-02 
434	 6.57774462966454E-02 
435	 0.066083935555299 
436	 6.59176394117011E-02 
437	 6.55693258097456E-02 
438	 6.54909615048784E-02 
439	 6.58608744922014E-02 
440	 6.64173674386333E-02 
441	 6.67385434310958E-02 
442	 6.71530500313558E-02 
443	 6.77528374092503E-02 
444	 6.83921729650507E-02 
445	 6.86007477776991E-02 
446	 6.89290581395898E-02 
447	 6.93757493080559E-02 
448	 6.98008031362842E-02 
449	 0.07018639833639 
450	 7.07844615397262E-02 
451	 7.14125726691011E-02 
452	 7.15777967318635E-02 
453	 7.21302849195015E-02 
454	 7.25971417209639E-02 
455	 7.26815997086795E-02 
456	 7.31008883656862E-02 
457	 7.33844104202683E-02 
458	 7.35517274795542E-02 
459	 7.38026197655046E-02 
460	 7.39707123404247E-02 
461	 7.39295177993601E-02 
462	 7.38893023273351E-02 
463	 7.45290320661507E-02 
464	 7.47951732109425E-02 
465	 7.47940698688822E-02 
466	 7.49060935055195E-02 
467	 7.52029145019616E-02 
468	 7.53615060815148E-02 
469	 7.53251590468508E-02 
470	 7.52814464054821E-02 
471	 7.55964407203834E-02 
472	 7.58121701807644E-02 
473	 7.56833062815194E-02 
474	 0.075804131722075 
475	 7.58244467803766E-02 
476	 7.57960334223273E-02 
477	 7.59122538802042E-02 
478	 7.60757168122929E-02 
479	 7.62844230864746E-02 
480	 7.64260171905547E-02 
481	 7.62177721532578E-02 
482	 7.63091176291732E-02 
483	 7.65429409696551E-02 
484	 7.66235849733951E-02 
485	 7.67029377972414E-02 
486	 7.67592371169246E-02 
487	 7.67503103938816E-02 
488	 7.66415429662127E-02 
489	 7.68010641299474E-02 
490	 7.69465025263504E-02 
491	 7.68784039857244E-02 
492	 7.68723806030771E-02 
493	 7.69343124877991E-02 
494	 7.70368793032315E-02 
495	 0.077142102442462 
496	 0.0773765860408 
497	 7.73656926182894E-02 
498	 7.71372133753576E-02 
499	 7.73792644242494E-02 
500	 7.75007479633176E-02 
501	 7.74334835029665E-02 
502	 7.73208133027018E-02 
503	 7.75332800405449E-02 
504	 7.75742759800692E-02 
505	 7.74325214997674E-02 
506	 0.077543330022934 
507	 0.077635753384577 
508	 7.76913064223201E-02 
509	 7.77350709851144E-02 
510	 7.77859015422187E-02 
511	 0.077780620887556 
512	 7.77483807516032E-02 
513	 7.77675811810292E-02 
514	 7.78723734903262E-02 
515	 7.79671674220913E-02 
516	 7.80076949238658E-02 
517	 7.80592997019605E-02 
518	 0.078120668099771 
519	 7.81253742480503E-02 
520	 7.80553491100424E-02 
521	 7.82743607253903E-02 
522	 7.83627891939407E-02 
523	 7.82691352601787E-02 
524	 7.83618365057619E-02 
525	 0.078391449781095 
526	 7.83843098962384E-02 
527	 7.84118982483834E-02 
528	 7.85040303566689E-02 
529	 7.85495053677374E-02 
530	 7.85610858163569E-02 
531	 7.86291161410566E-02 
532	 7.87145953537029E-02 
533	 0.078810905755601 
534	 7.88928036094467E-02 
535	 7.88757546427659E-02 
536	 7.88981928524893E-02 
537	 7.89667769941502E-02 
538	 7.90335164409022E-02 
539	 7.90775770182648E-02 
540	 7.91099502140605E-02 
541	 7.91466982158281E-02 
542	 7.92043684343229E-02 
543	 0.079328459432776 
544	 7.94599398426807E-02 
545	 0.079541920916889 
546	 7.96579224219486E-02 
547	 7.97266739909548E-02 
548	 7.97704806036875E-02 
549	 0.079894381934223 
550	 7.99812757641699E-02 
551	 8.00568990442666E-02 
552	 8.01679386479314E-02 
553	 8.03654177615158E-02 
554	 8.04348713289409E-02 
555	 8.04672623429188E-02 
556	 8.06854272205831E-02 
557	 8.08955332378329E-02 
558	 8.10975144472851E-02 
559	 8.13030429568212E-02 
560	 8.15065198183815E-02 
561	 8.16770359504391E-02 
562	 8.18754810449351E-02 
563	 8.21588236114091E-02 
564	 8.23816711118681E-02 
565	 0.082574005954618 
566	 8.28005041826133E-02 
567	 8.31484909566671E-02 
568	 8.34683720802241E-02 
569	 8.38242863853524E-02 
570	 8.42712241599373E-02 
571	 0.08465892400345 
572	 8.50460163539963E-02 
573	 0.085454072047209 
574	 8.58785644676056E-02 
575	 8.63508188202143E-02 
576	 8.68002075505793E-02 
577	 8.72027022936756E-02 
578	 8.76644196657353E-02 
579	 8.81830244091576E-02 
580	 8.87334828574916E-02 
581	 8.92850471761039E-02 
582	 8.98778356566663E-02 
583	 9.04513069627102E-02 
584	 9.10068853235823E-02 
585	 9.16486054774526E-02 
586	 9.22892349750897E-02 
587	 9.29190744697036E-02 
588	 0.093557978554969 
589	 9.42565152441489E-02 
590	 9.49416486438041E-02 
591	 9.56117098255623E-02 
592	 9.63322286853651E-02 
593	 9.70388628554735E-02 
594	 9.77467934984886E-02 
595	 9.84523922721897E-02 
596	 9.90486516638819E-02 
597	 0.099715990666104 
598	 0.100421496312815 
599	 0.101033566231905 
600	 0.101652007540611 
601	 0.102271619433354 
602	 0.102879185305048 
603	 0.103470014497626 
604	 0.104079104323469 
605	 0.104696421765597 
606	 0.105289768268406 
607	 0.105805310719281 
608	 0.106319191856335 
609	 0.106860307550117 
610	 0.107395280337621 
611	 0.107884304627164 
612	 0.108360038464941 
613	 0.108831801470226 
614	 0.109164187597271 
615	 0.109495050675782 
616	 0.109847542700369 
617	 0.110165533883931 
618	 0.110515711658483 
619	 0.110838766119036 
620	 0.111103068941784 
621	 0.111374227371091 
622	 0.111613957665672 
623	 0.111842777941764 
624	 0.112093812412729 
625	 0.112315853872196 
626	 0.112556152368993 
627	 0.112810905996007 
628	 0.112999332520403 
629	 0.113185196012946 
630	 0.113395097886821 
631	 0.113627909661218 
632	 0.113815525833936 
633	 0.114005891054523 
634	 0.114200106484169 
635	 0.11436318662447 
636	 0.114545342783632 
637	 0.114750700728305 
638	 0.114956541299037 
639	 0.115088320244026 
640	 0.115267231416596 
641	 0.115485646787071 
642	 0.115681421233944 
643	 0.115889201281075 
644	 0.116084760392858 
645	 0.116262629343279 
646	 0.116450444681436 
647	 0.116654580204586 
648	 0.116847681493003 
649	 0.117019187323455 
650	 0.117278358838504 
651	 0.117511223245762 
652	 0.117708168500422 
653	 0.117951650831456 
654	 0.118183809100486 
655	 0.11841065427542 
656	 0.118651531770198 
657	 0.118933629959101 
658	 0.119202011849896 
659	 0.119456672086702 
660	 0.119724376175826 
661	 0.120012853337892 
662	 0.120305731204771 
663	 0.120593319367902 
664	 0.120878469921037 
665	 0.121181821724237 
666	 0.121485477812447 
667	 0.121778815801761 
668	 0.122132424212016 
669	 0.12248220865893 
670	 0.122813620399549 
671	 0.123155898996803 
672	 0.123506566632122 
673	 0.123888370704022 
674	 0.124298177921276 
675	 0.124662527269844 
676	 0.125028445348725 
677	 0.125423548119376 
678	 0.12585589752987 
679	 0.126251404323574 
680	 0.126675214502202 
681	 0.127140439080738 
682	 0.127577814773078 
683	 0.12801241220554 
684	 0.128453912235053 
685	 0.128915501800773 
686	 0.129438551398381 
687	 0.129957206419999 
688	 0.130453997886541 
689	 0.130946452054717 
690	 0.13141391298547 
691	 0.131898724524851 
692	 0.132425929836065 
693	 0.132977771070798 
694	 0.133468060360275 
695	 0.133986722019689 
696	 0.134630774093736 
697	 0.135146223329324 
698	 0.135658310783362 
699	 0.136215799187305 
700	 0.136763787842704 
701	 0.137338550846172 
702	 0.137931288176225 
703	 0.13852155975955 
704	 0.139083042123306 
705	 0.139644416472219 
706	 0.140206287888571 
707	 0.140758808359593 
708	 0.141343138922708 
709	 0.141918137946602 
710	 0.142482573733152 
711	 0.143108273462205 
712	 0.143677498096334 
713	 0.144199173648341 
714	 0.144726678975598 
715	 0.145334129362204 
716	 0.145898808082398 
717	 0.146396877110224 
718	 0.146885564930231 
719	 0.147417113808599 
720	 0.147963213922338 
721	 0.148473411559187 
722	 0.148875083124695 
723	 0.149331344444652 
724	 0.149808025263066 
725	 0.150227198133819 
726	 0.150674939560102 
727	 0.151076275798661 
728	 0.151422189417654 
729	 0.151771290661436 
730	 0.152146778641282 
731	 0.152481052095312 
732	 0.152748752768504 
733	 0.153068141064098 
734	 0.153368463114878 
735	 0.153606977044381 
736	 0.153775395577855 
737	 0.154005507761858 
738	 0.154194860520681 
739	 0.15432008561822 
740	 0.154460436319012 
741	 0.154548693176958 
742	 0.154610313143781 
743	 0.154672739885568 
744	 0.154720320428792 
745	 0.154707112724016 
746	 0.154669200319561 
747	 0.154663895261171 
748	 0.154593646789488 
749	 0.154464318836378 
750	 0.15432770057241 
751	 0.154274521947354 
752	 0.154168420724316 
753	 0.154006095345564 
754	 0.153815707193162 
755	 0.153614146784248 
756	 0.153423495577927 
757	 0.153200232002915 
758	 0.152891870941185 
759	 0.152646269511575 
760	 0.152385186131445 
761	 0.152073676632711 
762	 0.151758078694709 
763	 0.151468690880706 
764	 0.151156512001784 
765	 0.150793011941365 
766	 0.15046702840395 
767	 0.150142955188687 
768	 0.1497836554459 
769	 0.149365744913764 
770	 0.148964061143147 
771	 0.148592063501986 
772	 0.148221795344001 
773	 0.147787775030733 
774	 0.147402723731937 
775	 0.147017395458466 
776	 0.146589938172038 
777	 0.14620150135368 
778	 0.145821647868626 
779	 0.14542488942172 
780	 0.144996389302034 
781	 0.144578753921653 
782	 0.144156826208228 
783	 0.143725396354368 
784	 0.143296942931288 
785	 0.142906809919072 
786	 0.14252034923633 
787	 0.142109372155021 
788	 0.14169025178187 
789	 0.14131859666995 
790	 0.140924705747116 
791	 0.140439956961482 
792	 0.140063543386666 
793	 0.139709947435401 
794	 0.139335015658539 
795	 0.138943084211152 
796	 0.138498180139103 
797	 0.138100532762545 
798	 0.137787614901618 
799	 0.137449545526349 
800	 0.137080891289591 
801	 0.136691343256077 
802	 0.136307651717515 
803	 0.135984274465976 
804	 0.135669661653071 
805	 0.135336897171494 
806	 0.134985322896064 
807	 0.134668555612636 
808	 0.134343881241412 
809	 0.134007738728837 
810	 0.133718271339899 
811	 0.133421520248671 
812	 0.1331022304465 
813	 0.132779324558149 
814	 0.132545015798296 
815	 0.132261297453952 
816	 0.13193813253519 
817	 0.131641931796362 
818	 0.131359078038697 
819	 0.13114303732044 
820	 0.130949560667065 
821	 0.130664599520764 
822	 0.130404194744929 
823	 0.130135244012684 
824	 0.129860782421957 
825	 0.129676267511787 
826	 0.129508203650587 
827	 0.129311635790998 
828	 0.129077915307092 
829	 0.128884422777238 
830	 0.128674679487659 
831	 0.128459952569298 
832	 0.128283646310361 
833	 0.128175253125707 
834	 0.128009343780188 
835	 0.127783079559283 
836	 0.127614349821924 
837	 0.127479223655384 
838	 0.127347520774147 
839	 0.127198871672384 
840	 0.127034118976076 
841	 0.126881003644736 
842	 0.126744028876035 
843	 0.126631189412239 
844	 0.126599485818182 
845	 0.12648362481389 
846	 0.12632089459617 
847	 0.126229239755486 
848	 0.126166947524024 
849	 0.12611893919292 
850	 0.126058463732739 
851	 0.125956498328207 
852	 0.12585749917869 
853	 0.125790005313772 
854	 0.125756150774313 
855	 0.12572503871231 
856	 0.125701937645994 
857	 0.125670951106226 
858	 0.125626290536525 
859	 0.125596464993675 
860	 0.125573311712029 
861	 0.125561200123368 
862	 0.125561637613975 
863	 0.125548070903195 
864	 0.125547751726963 
865	 0.125556768866807 
866	 0.125556182604058 
867	 0.125572175459286 
868	 0.125608126103344 
869	 0.125659342949236 
870	 0.125715468605866 
871	 0.125779105109327 
872	 0.125818825745644 
873	 0.125835435381815 
874	 0.125886736650169 
875	 0.125968505369201 
876	 0.12604559564886 
877	 0.126106097216983 
878	 0.126218050650249 
879	 0.126386501424798 
880	 0.126507623101747 
881	 0.12651435547704 
882	 0.126645281496391 
883	 0.126815260565037 
884	 0.126937147062901 
885	 0.126972556464274 
886	 0.127142682781806 
887	 0.127344390820923 
888	 0.127490332916184 
889	 0.127551109401305 
890	 0.127674711711214 
891	 0.127856031711961 
892	 0.128070396577537 
893	 0.128294641453754 
894	 0.128460004159569 
895	 0.128607342313877 
896	 0.128791185327176 
897	 0.129045208013105 
898	 0.129284368274216 
899	 0.129509907548116 
900	 0.129737586637238 
901	 0.129951319782289 
902	 0.130196999777976 
903	 0.130441714666304 
904	 0.130651672875069 
905	 0.130895439422855 
906	 0.131184020058617 
907	 0.131472667746157 
908	 0.13172035283588 
909	 0.132049893021166 
910	 0.13236719718631 
911	 0.132663794937266 
912	 0.132982089081682 
913	 0.133240843843605 
914	 0.133552481980126 
915	 0.133911882551495 
916	 0.134211708589169 
917	 0.13455032754736 
918	 0.134893024854587 
919	 0.135216470325666 
920	 0.135535158630307 
921	 0.135949970568499 
922	 0.136407896013894 
923	 0.136839647967021 
924	 0.137204453357316 
925	 0.137587228690617 
926	 0.138032917901026 
927	 0.138505431977001 
928	 0.138846706433727 
929	 0.139326023560206 
930	 0.139847503809033 
931	 0.140279928913584 
932	 0.140637216750098 
933	 0.141100183197765 
934	 0.141637979190962 
935	 0.142171984728643 
936	 0.142707068726804 
937	 0.143127047777769 
938	 0.143563114584341 
939	 0.144151715850469 
940	 0.144748214986803 
941	 0.145298718973248 
942	 0.145827138978783 
943	 0.146387339426095 
944	 0.146992592319577 
945	 0.147584062451615 
946	 0.148176933420044 
947	 0.148791827851872 
948	 0.14930787402289 
949	 0.149872768839955 
950	 0.15047084264409 
951	 0.151041711259637 
952	 0.151783638843043 
953	 0.152431209947076 
954	 0.152998494680973 
955	 0.153657913680484 
956	 0.154427530340335 
957	 0.155093638352136 
958	 0.155710885825875 
959	 0.156457342559555 
960	 0.157152927371794 
961	 0.157803935892697 
962	 0.158496770085456 
963	 0.15930375228597 
964	 0.159960364036105 
965	 0.160725965302894 
966	 0.161554994460011 
967	 0.162227489259456 
968	 0.162931707922565 
969	 0.163659005247775 
970	 0.164396077216504 
971	 0.165133178743242 
972	 0.165866232788399 
973	 0.166684042191964 
974	 0.167530747663376 
975	 0.168290830678115 
976	 0.169134161873477 
977	 0.169971565754309 
978	 0.170710711690712 
979	 0.171341528038534 
980	 0.172209597490307 
981	 0.173087722154709 
982	 0.173900297716317 
983	 0.174692520637301 
984	 0.175442718349077 
985	 0.176291063294204 
986	 0.177160851467061 
987	 0.177910491104648 
988	 0.178764807470386 
989	 0.179557970904945 
990	 0.180366286765619 
991	 0.181319407326856 
992	 0.182160391254568 
993	 0.182953421992732 
994	 0.183740796735165 
995	 0.184529323264646 
996	 0.185239762307583 
997	 0.186092997212694 
998	 0.186904107824729 
999	 0.187532239146432 
1000	 0.188590375690224 
1001	 0.189051293685724 
1002	 0.189822894575994 
1003	 0.190542779028286 
1004	 0.191285154089175 
1005	 0.19208141534631 
1006	 0.192837251084704 
1007	 0.193555516055746 
1008	 0.194330995962704 
1009	 0.195061725272031 
1010	 0.19574744821821 
1011	 0.196401602261422 
1012	 0.196983261103994 
1013	 0.197581324051309 
1014	 0.198202460177501 
1015	 0.198864207718103 
1016	 0.199529873459718 
1017	 0.200183985740223 
1018	 0.200821307519787 
1019	 0.201489852604483 
1020	 0.202142842825754 
1021	 0.202817587311211 
1022	 0.203474106827783 
1023	 0.20405538722899 
1024	 0.204605338377635 
1025	 0.205124862378024 
1026	 0.205723631881138 
1027	 0.20631572942449 
1028	 0.206885693794684 
1029	 0.207517526333959 
1030	 0.208013247383433 
1031	 0.208526620550209 
1032	 0.209030156582262 
1033	 0.209589823928058 
1034	 0.210059969111579 
1035	 0.210568968665833 
1036	 0.211045096430317 
1037	 0.211498098294477 
1038	 0.211956607549247 
1039	 0.212382480988986 
1040	 0.212864231201051 
1041	 0.213408047269128 
1042	 0.213954418318465 
1043	 0.214439997734144 
1044	 0.214930729650523 
1045	 0.215410341249336 
1046	 0.215878980106831 
1047	 0.216309854146 
1048	 0.216795474874763 
1049	 0.217286283489954 
1050	 0.217737266390316 
1051	 0.218253935496523 
1052	 0.218758336472761 
1053	 0.219206717429185 
1054	 0.219671199493334 
1055	 0.2201155109841 
1056	 0.220571085051646 
1057	 0.22102406975462 
1058	 0.22150905087974 
1059	 0.221954260452752 
1060	 0.222363662493783 
1061	 0.222792744111172 
1062	 0.223205800399069 
1063	 0.223653657195695 
1064	 0.224119338923093 
1065	 0.22455660869305 
1066	 0.225065334623231 
1067	 0.22551616171652 
1068	 0.225906058591361 
1069	 0.226361312939911 
1070	 0.226790383573339 
1071	 0.227177857803119 
1072	 0.227612359131903 
1073	 0.228076848429604 
1074	 0.228504633180543 
1075	 0.228930238900802 
1076	 0.229352342824041 
1077	 0.229728304184459 
1078	 0.230127356602138 
1079	 0.23050265843596 
1080	 0.230858871613824 
1081	 0.23123071025073 
1082	 0.231602990443781 
1083	 0.23197319975297 
1084	 0.232326785640504 
1085	 0.23271075709329 
1086	 0.233128267342644 
1087	 0.233498070023564 
1088	 0.233857524764239 
1089	 0.234226859654969 
1090	 0.234546904185128 
1091	 0.234849874223306 
1092	 0.235191636929636 
1093	 0.235511931607763 
1094	 0.235804227750975 
1095	 0.236118946527466 
1096	 0.236435586304444 
1097	 0.236750345401732 
1098	 0.237076909389964 
1099	 0.237455896092288 
1100	 0.237777812600772 
1101	 0.238053846406479 
1102	 0.238358562214253 
1103	 0.238670382319639 
1104	 0.238942613538342 
1105	 0.239268276209753 
1106	 0.239627544623414 
1107	 0.239920602378859 
1108	 0.240204723233941 
1109	 0.240477306441627 
1110	 0.240743217897627 
1111	 0.241023706987149 
1112	 0.24133548307015 
1113	 0.241611851400212 
1114	 0.241871547815946 
1115	 0.242131659670288 
1116	 0.242374562406683 
1117	 0.24263717101945 
1118	 0.242910161883353 
1119	 0.243169342516061 
1120	 0.243459461663988 
1121	 0.243738839329257 
1122	 0.24399979818046 
1123	 0.244274386371513 
1124	 0.244553150005365 
1125	 0.244841493035595 
1126	 0.245098903950174 
1127	 0.245342362726969 
1128	 0.245603588244857 
1129	 0.2458488983046 
1130	 0.246103360066848 
1131	 0.246392976123546 
1132	 0.246650282230511 
1133	 0.246881217860611 
1134	 0.247113245652258 
1135	 0.24732573695173 
1136	 0.247569251235942 
1137	 0.247791247770566 
1138	 0.248018637669092 
1139	 0.248237353556416 
1140	 0.248446526690022 
1141	 0.248660236047123 
1142	 0.248874686535451 
1143	 0.249084558690616 
1144	 0.24929722729373 
1145	 0.24950289300398 
1146	 0.249697258999409 
1147	 0.249896060946884 
1148	 0.250091988552162 
1149	 0.25029324394143 
1150	 0.250501642343116 
1151	 0.250710455737198 
1152	 0.250902254765523 
1153	 0.251081979080292 
1154	 0.251273322426796 
1155	 0.251457979686414 
1156	 0.251645511004177 
1157	 0.25184736316198 
1158	 0.252034642641422 
1159	 0.252209306135015 
1160	 0.252387464103533 
1161	 0.2525683267138 
1162	 0.252741057286019 
1163	 0.25290383593404 
1164	 0.253074188461708 
1165	 0.253246013026127 
1166	 0.253420559009932 
1167	 0.253580278189856 
1168	 0.253727448688808 
1169	 0.253890014874725 
1170	 0.254043983770487 
1171	 0.254208493491163 
1172	 0.254398553212007 
1173	 0.254560232176547 
1174	 0.254704353280677 
1175	 0.254854565442562 
1176	 0.254997071599775 
1177	 0.255147378951813 
1178	 0.255305301415907 
1179	 0.255455974190568 
1180	 0.255613411722527 
1181	 0.255756155155263 
1182	 0.25588328659127 
1183	 0.256018300467536 
1184	 0.256142274259381 
1185	 0.256243034774011 
1186	 0.256382626464682 
1187	 0.256539772583349 
1188	 0.256685793751028 
1189	 0.256863667502988 
1190	 0.256999061366188 
1191	 0.257096886615435 
1192	 0.257215666529697 
1193	 0.257317055787056 
1194	 0.257442268069187 
1195	 0.257609720869073 
1196	 0.257736801284995 
1197	 0.257843843715878 
1198	 0.257961535065078 
1199	 0.25807406748755 
1200	 0.258158997736522 
1201	 0.258275503169961 
1202	 0.258412761871496 
1203	 0.258544355996969 
1204	 0.258688403275215 
1205	 0.258809064001501 
1206	 0.25892714362363 
1207	 0.259038887294335 
1208	 0.259130580760703 
1209	 0.259228045434433 
1210	 0.259333591366829 
1211	 0.259427149296961 
1212	 0.259505712334152 
1213	 0.259591200954748 
1214	 0.259654423098422 
1215	 0.259750012007107 
1216	 0.259861772006414 
1217	 0.259998506530517 
1218	 0.260108683283978 
1219	 0.260240629203276 
1220	 0.26033700195127 
1221	 0.2603942271807 
1222	 0.260476557563531 
1223	 0.260555714350199 
1224	 0.260644119256297 
1225	 0.260747910440859 
1226	 0.260837323101859 
1227	 0.260929401083907 
1228	 0.261012037080144 
1229	 0.261076955574285 
1230	 0.26115135999964 
1231	 0.261229338938506 
1232	 0.261302511497776 
1233	 0.261374967065942 
1234	 0.261445180669322 
1235	 0.261527048247558 
1236	 0.261608979470225 
1237	 0.261696176839237 
1238	 0.261805986126882 
1239	 0.261888780379376 
1240	 0.261964078735834 
1241	 0.262029032000558 
1242	 0.262072289718061 
1243	 0.262127144265556 
1244	 0.262173956054772 
1245	 0.262232349113866 
1246	 0.262303972302977 
1247	 0.262368754964361 
1248	 0.262431828124506 
1249	 0.262496648544755 
1250	 0.2625784616032 
1251	 0.262659366671789 
1252	 0.262739236007541 
1253	 0.262837103696086 
1254	 0.262910289577567 
1255	 0.262974249226718 
1256	 0.263027337398778 
1257	 0.26306333131787 
1258	 0.263105057167218 
1259	 0.263129520193726 
1260	 0.263170970195919 
1261	 0.263231606483719 
1262	 0.26327611096643 
1263	 0.263324557657214 
1264	 0.263361159037105 
1265	 0.263365573054095 
1266	 0.263397482572973 
1267	 0.263448588108617 
1268	 0.263484040872821 
1269	 0.263530086595154 
1270	 0.263590152628279 
1271	 0.263647327780505 
1272	 0.26369808743434 
1273	 0.263760305874196 
1274	 0.263840574360164 
1275	 0.263904010902921 
1276	 0.263951245867535 
1277	 0.264024801949487 
1278	 0.264100005293212 
1279	 0.264186347647916 
1280	 0.264308424780508 
1281	 0.264405362145332 
1282	 0.264488915323948 
1283	 0.264580306203587 
1284	 0.264669396313874 
1285	 0.264751240660682 
1286	 0.264847026344541 
1287	 0.264957704060747 
1288	 0.265063884977333 
1289	 0.26517437029819 
1290	 0.265283697745938 
1291	 0.265391856445783 
1292	 0.265504237611636 
1293	 0.265633198225007 
1294	 0.265734445914232 
1295	 0.2658260128748 
1296	 0.265913523985248 
1297	 0.265973086290371 
1298	 0.266049608648965 
1299	 0.266144354458878 
1300	 0.266221578833146 
1301	 0.266292374418558 
1302	 0.266361640065678 
1303	 0.266427106719089 
1304	 0.266474129606881 
1305	 0.266540885865075 
1306	 0.266600245887106 
1307	 0.266625158318049 
1308	 0.26665814599882 
1309	 0.266679371444716 
1310	 0.266676699021743 
1311	 0.266685262244135 
1312	 0.266698114227537 
1313	 0.266707105970202 
1314	 0.266715420089023 
1315	 0.266716273327538 
1316	 0.266716638692408 
1317	 0.266710966603408 
1318	 0.266695441933265 
1319	 0.266680499664 
1320	 0.26665778383715 
1321	 0.266643303974081 
1322	 0.266619010140795 
1323	 0.266617651006604 
1324	 0.266637885422973 
1325	 0.266637203941391 
1326	 0.266643715186808 
1327	 0.266622791033373 
1328	 0.266560785331486 
1329	 0.266515606480759 
1330	 0.266470772859138 
1331	 0.266421590287867 
1332	 0.266369458601029 
1333	 0.266327572253417 
1334	 0.266269826676351 
1335	 0.266188059280822 
1336	 0.266130664637662 
1337	 0.266071758129043 
1338	 0.266030741828499 
1339	 0.266020842319643 
1340	 0.265985202190579 
1341	 0.265948805432651 
1342	 0.265908591215836 
1343	 0.265856371437983 
1344	 0.265800680619667 
1345	 0.265745376631052 
1346	 0.26570446494736 
1347	 0.265659177023788 
1348	 0.265596430683434 
1349	 0.265534709028111 
1350	 0.265476526214308 
1351	 0.26543217088614 
1352	 0.265402975177066 
1353	 0.265350795240294 
1354	 0.265306035315291 
1355	 0.265239887513214 
1356	 0.265135614022598 
1357	 0.265067127602995 
1358	 0.264998900062588 
1359	 0.26495380346796 
1360	 0.264931029924121 
1361	 0.264904067054106 
1362	 0.264908223571844 
1363	 0.264885251131815 
1364	 0.264838858573367 
1365	 0.264809583710288 
1366	 0.264777154467664 
1367	 0.264740164783266 
1368	 0.264735976649445 
1369	 0.264729632346734 
1370	 0.264703481211388 
1371	 0.264662717817577 
1372	 0.264602189382399 
1373	 0.26454456573411 
1374	 0.264475898838892 
1375	 0.264403388272519 
1376	 0.264318807147569 
1377	 0.264231095156413 
1378	 0.2641124817181 
1379	 0.263972057940252 
1380	 0.263834486487815 
1381	 0.263664614815298 
1382	 0.263514531677218 
1383	 0.263395266445019 
1384	 0.263237767850905 
1385	 0.263080330115005 
1386	 0.262889165281708 
1387	 0.262654382336653 
1388	 0.262422498545767 
1389	 0.262177695546152 
1390	 0.261922105393038 
1391	 0.261659553110958 
1392	 0.261386817045397 
1393	 0.261066935335098 
1394	 0.260733335055578 
1395	 0.260378210814289 
1396	 0.260001920128705 
1397	 0.259625489706945 
1398	 0.259241727175284 
1399	 0.258843637867682 
1400	 0.258433870319063 
1401	 0.258017185744877 
1402	 0.257569469442602 
1403	 0.257157607986899 
1404	 0.256748261251491 
1405	 0.256364114189563 
1406	 0.25601422312977 
1407	 0.255651219354245 
1408	 0.255296162301646 
1409	 0.254939716674929 
1410	 0.254555847264145 
1411	 0.254221487405097 
1412	 0.253903213431121 
1413	 0.253608893267291 
1414	 0.25338107563431 
1415	 0.253168825396331 
1416	 0.252960598632727 
1417	 0.252774164415816 
1418	 0.252549827886141 
1419	 0.252333585997337 
1420	 0.25215929549154 
1421	 0.251979004535513 
1422	 0.251827171604242 
1423	 0.251700643267858 
1424	 0.251552618941387 
1425	 0.251388319064119 
1426	 0.251253669588679 
1427	 0.251117170587033 
1428	 0.251003333312278 
1429	 0.250920065563046 
1430	 0.250832276327797 
1431	 0.250760359401121 
1432	 0.250675511610712 
1433	 0.25058646095637 
1434	 0.250505829986274 
1435	 0.250406131353155 
1436	 0.250338353378505 
1437	 0.250296281562155 
1438	 0.250250868527713 
1439	 0.250220069272805 
1440	 0.250198314192494 
1441	 0.250145442498668 
1442	 0.250096214169708 
1443	 0.250047395101084 
1444	 0.249998342909739 
1445	 0.249962725051644 
1446	 0.249936330322961 
1447	 0.249911932701166 
1448	 0.249869100540642 
1449	 0.249817579745253 
1450	 0.249761370937832 
1451	 0.249703274338439 
1452	 0.249627885207177 
1453	 0.249571546284244 
1454	 0.249523343897221 
1455	 0.249476125767783 
1456	 0.249431878821196 
1457	 0.249392308737505 
1458	 0.249363176412517 
1459	 0.249323416479924 
1460	 0.249275724238427 
1461	 0.249242206147523 
1462	 0.249202008582325 
1463	 0.249178498627129 
1464	 0.24917579208498 
1465	 0.249170934319249 
1466	 0.249161875807502 
1467	 0.249175955465561 
1468	 0.249184300367563 
1469	 0.249230809696379 
1470	 0.249305357003084 
1471	 0.249405798514679 
1472	 0.249521822717811 
1473	 0.249661621543577 
1474	 0.249803082720275 
1475	 0.249936408724124 
1476	 0.250059138908151 
1477	 0.25017967499354 
1478	 0.25029992869457 
1479	 0.250422171278883 
1480	 0.250555241897082 
1481	 0.250681867277425 
1482	 0.250798418796321 
1483	 0.250904838858423 
1484	 0.251011802444828 
1485	 0.251105512163257 
1486	 0.25121843212325 
1487	 0.251332019647247 
1488	 0.251458638058486 
1489	 0.251613294367597 
1490	 0.251740450960629 
1491	 0.251867278080148 
1492	 0.251980798668999 
1493	 0.252064724963438 
1494	 0.252169192022972 
1495	 0.252283085231966 
1496	 0.25238835870891 
1497	 0.252498194549587 
1498	 0.252600698020317 
1499	 0.252700125911957 
1500	 0.252790062564208 
1501	 0.252870204684951 
1502	 0.25295197853537 
1503	 0.25302891919442 
1504	 0.253094308761452 
1505	 0.253173011420834 
1506	 0.25326215606352 
1507	 0.253347149309844 
1508	 0.253430982836837 
1509	 0.253511099317981 
1510	 0.253585398199422 
1511	 0.253663342370327 
1512	 0.253740004661101 
1513	 0.253798026598266 
1514	 0.253869528698984 
1515	 0.253957992648561 
1516	 0.25404496331938 
1517	 0.254121523742111 
1518	 0.254205745714263 
1519	 0.254280545140718 
1520	 0.254332067940145 
1521	 0.254405225349624 
1522	 0.254493350612914 
1523	 0.254574937607181 
1524	 0.254653568947532 
1525	 0.254739028386489 
1526	 0.254829289057651 
1527	 0.254919873946333 
1528	 0.255026588732295 
1529	 0.255108731207306 
1530	 0.255183240407251 
1531	 0.255245437295078 
1532	 0.255279579549949 
1533	 0.255328033155742 
1534	 0.255380137291203 
1535	 0.255429175923087 
1536	 0.255471113240394 
1537	 0.255529563496186 
1538	 0.255589610254971 
1539	 0.255651316004032 
1540	 0.255732962322656 
1541	 0.25580645845757 
1542	 0.255877741096757 
1543	 0.255944815723915 
1544	 0.25601373126092 
1545	 0.256074047869434 
1546	 0.256128190770204 
1547	 0.256172124854305 
1548	 0.256214974157964 
1549	 0.256253347641861 
1550	 0.256292442125993 
1551	 0.256349707397046 
1552	 0.256404511425502 
1553	 0.256462917951962 
1554	 0.256526651108539 
1555	 0.256573783129863 
1556	 0.256625802169993 
1557	 0.256670340062974 
1558	 0.25671086243624 
1559	 0.256753593392256 
1560	 0.256784366164756 
1561	 0.256812871503895 
1562	 0.256830397373111 
1563	 0.256827522772215 
1564	 0.256846558873931 
1565	 0.256861948091336 
1566	 0.256897811275867 
1567	 0.25696188885869 
1568	 0.256996814452411 
1569	 0.257031121613024 
1570	 0.257057075425388 
1571	 0.257058797202189 
1572	 0.257083266425692 
1573	 0.25711895420763 
1574	 0.25715240764557 
1575	 0.257201696844604 
1576	 0.257222330813498 
1577	 0.257217202895202 
1578	 0.257236937169961 
1579	 0.257248970320849 
1580	 0.257277038755055 
1581	 0.257338089420784 
1582	 0.257375442568688 
1583	 0.257406878347215 
1584	 0.257431265475199 
1585	 0.257446160229587 
1586	 0.257464998387769 
1587	 0.257474569677742 
1588	 0.25749085057855 
1589	 0.257510900906377 
1590	 0.257530312468239 
1591	 0.257562068284928 
1592	 0.257576918188624 
1593	 0.257571407071759 
1594	 0.257584443957373 
1595	 0.257595928602539 
1596	 0.257612136430817 
1597	 0.257649173405155 
1598	 0.257675748978267 
1599	 0.257705301693117 
1600	 0.257716801764356 
1601	 0.257715278573566 
1602	 0.25771648803225 
1603	 0.25769319843874 
1604	 0.257687511504508 
1605	 0.25769000470139 
1606	 0.257700298253793 
1607	 0.257728784293126 
1608	 0.257751484698407 
1609	 0.25775991876065 
1610	 0.257779929325043 
1611	 0.257775663891377 
1612	 0.257756477332511 
1613	 0.257759484233033 
1614	 0.257765389183619 
1615	 0.257757105763762 
1616	 0.257756530065833 
1617	 0.257747532713393 
1618	 0.25772909927554 
1619	 0.257725206536215 
1620	 0.257738162665512 
1621	 0.257757539936049 
1622	 0.257792558869188 
1623	 0.257806437475947 
1624	 0.257827832588304 
1625	 0.257824851402344 
1626	 0.257796401984413 
1627	 0.257780337697665 
1628	 0.257756966105754 
1629	 0.257749231348995 
1630	 0.257749439074642 
1631	 0.257745815187015 
1632	 0.257749708954311 
1633	 0.257744212557936 
1634	 0.257730023372507 
1635	 0.257723734297108 
1636	 0.257724517639942 
1637	 0.257711149636153 
1638	 0.257682628229437 
1639	 0.25768469694288 
1640	 0.257685795237072 
1641	 0.257707747525963 
1642	 0.257774786733427 
1643	 0.257795012367063 
1644	 0.257793052751976 
1645	 0.257812595317688 
1646	 0.257830496911966 
1647	 0.257838270160142 
1648	 0.257867373986033 
1649	 0.257857517421092 
1650	 0.257803408261643 
1651	 0.257780604445299 
1652	 0.257759665744257 
1653	 0.25773636688495 
1654	 0.257722265627487 
1655	 0.257701649213983 
1656	 0.257674667598248 
1657	 0.257645607762759 
1658	 0.25761517061802 
1659	 0.257587738814732 
1660	 0.257560526077844 
1661	 0.257523637638062 
1662	 0.25748778789768 
1663	 0.257446420822639 
1664	 0.257379744583328 
1665	 0.2573459239413 
1666	 0.257329515068366 
1667	 0.257310396397531 
1668	 0.257315585380643 
1669	 0.257293303460737 
1670	 0.257250661170592 
1671	 0.257225131400921 
1672	 0.257193323823987 
1673	 0.257172221100206 
1674	 0.257171611378201 
1675	 0.257154795625656 
1676	 0.257128256261587 
1677	 0.257110743708653 
1678	 0.25709737215718 
1679	 0.25707495048847 
1680	 0.257051221525781 
1681	 0.257029696989687 
1682	 0.256989532711642 
1683	 0.256979782889843 
1684	 0.256996051776987 
1685	 0.256996688914069 
1686	 0.257025369565973 
1687	 0.257003613610426 
1688	 0.256945409125329 
1689	 0.256897672511705 
1690	 0.256815328423833 
1691	 0.256766301154732 
1692	 0.256741720536459 
1693	 0.256702771920004 
1694	 0.256665278066462 
1695	 0.25663144578984 
1696	 0.256579763206087 
1697	 0.256566028564247 
1698	 0.256590118611969 
1699	 0.256583018521251 
1700	 0.256596903122661 
1701	 0.256570304925406 
1702	 0.256486446531325 
1703	 0.256453255432434 
1704	 0.256436724245066 
1705	 0.256400483176846 
1706	 0.256379578503057 
1707	 0.256347807481713 
1708	 0.256292606136143 
1709	 0.256245828290918 
1710	 0.256210531444449 
1711	 0.256165543441207 
1712	 0.256103209737839 
1713	 0.256054740405881 
1714	 0.2560179160831 
1715	 0.255972815202533 
1716	 0.255928745144447 
1717	 0.255879020048 
1718	 0.255816211595121 
1719	 0.255768913682239 
1720	 0.255735265215658 
1721	 0.255681462672293 
1722	 0.255630392239289 
1723	 0.255568416783531 
1724	 0.255485476037284 
1725	 0.255410377563078 
1726	 0.255339566095388 
1727	 0.255255966730806 
1728	 0.255157988272488 
1729	 0.255073274786979 
1730	 0.254988046099174 
1731	 0.254908630676784 
1732	 0.254837745096882 
1733	 0.254769528725398 
1734	 0.25470944214481 
1735	 0.254634073676862 
1736	 0.254550605615697 
1737	 0.254480410966744 
1738	 0.25440457409412 
1739	 0.254331181809177 
1740	 0.254274666431644 
1741	 0.254210323604734 
1742	 0.254144929625877 
1743	 0.254053872042013 
1744	 0.253955380046896 
1745	 0.253858229721272 
1746	 0.253726241065044 
1747	 0.253638482415666 
1748	 0.253574492124599 
1749	 0.253516915570062 
1750	 0.253458843322221 
1751	 0.25339240868617 
1752	 0.253312983319384 
1753	 0.253221677932804 
1754	 0.253144154906156 
1755	 0.2530860612375 
1756	 0.253020764134685 
1757	 0.252954306308227 
1758	 0.25289438596026 
1759	 0.252816378675753 
1760	 0.252755806325071 
1761	 0.252719633553049 
1762	 0.252639055800324 
1763	 0.252545949395783 
1764	 0.252445956985939 
1765	 0.252316257430209 
1766	 0.252198634973135 
1767	 0.252091904411293 
1768	 0.2519951383142 
1769	 0.251902627327344 
1770	 0.251806952883602 
1771	 0.251754471285305 
1772	 0.251739841451428 
1773	 0.251700531314346 
1774	 0.251680844255935 
1775	 0.251662136583663 
1776	 0.25157937126094 
1777	 0.251519114229626 
1778	 0.25147727033961 
1779	 0.251392039313923 
1780	 0.251310820734517 
1781	 0.251229121639485 
1782	 0.251141790729205 
1783	 0.251068365533106 
1784	 0.251023630158528 
1785	 0.251020208518144 
1786	 0.25099714973403 
1787	 0.251008337695205 
1788	 0.250980261691547 
1789	 0.250904205947003 
1790	 0.250846831752908 
1791	 0.250764373826917 
1792	 0.250719230940968 
1793	 0.250721548392714 
1794	 0.250689687362578 
1795	 0.250656002406897 
1796	 0.250614235605036 
1797	 0.250530430938123 
1798	 0.250479492824157 
1799	 0.250473194736742 
1800	 0.25042358377434 
1801	 0.246080715653432 
1802	 0.246239254458964 
1803	 0.246431774875253 
1804	 0.246693296165966 
1805	 0.246931326930013 
1806	 0.247116901932035 
1807	 0.247356698661961 
1808	 0.24755994919311 
1809	 0.247775438187296 
1810	 0.247922777163457 
1811	 0.248048042766171 
1812	 0.248119905224867 
1813	 0.248177515256137 
1814	 0.248225578806727 
1815	 0.248292677292856 
1816	 0.248353824682786 
1817	 0.248371454463917 
1818	 0.248328468605034 
1819	 0.248334051050509 
1820	 0.248336034711429 
1821	 0.248332771389446 
1822	 0.248373157601145 
1823	 0.248406759201374 
1824	 0.248424538224085 
1825	 0.248441637208275 
1826	 0.248429623147897 
1827	 0.24840721199789 
1828	 0.248369581801873 
1829	 0.248295807567599 
1830	 0.248238433094741 
1831	 0.248181342783337 
1832	 0.248124503744923 
1833	 0.248058719339727 
1834	 0.247980327665116 
1835	 0.247869310648433 
1836	 0.247746381036664 
1837	 0.247650227040956 
1838	 0.247558651406645 
1839	 0.247477637066436 
1840	 0.247424824967637 
1841	 0.247368588776962 
1842	 0.247274353713712 
1843	 0.247207669189907 
1844	 0.24714450857528 
1845	 0.247055072981891 
1846	 0.246978631415043 
1847	 0.246906207796642 
1848	 0.246849757974983 
1849	 0.246826565204194 
1850	 0.246805729095295 
1851	 0.246818426610257 
1852	 0.24680966261559 
1853	 0.246785275080883 
1854	 0.24675990624781 
1855	 0.246709429154136 
1856	 0.246650106265064 
1857	 0.246573415442673 
1858	 0.246476665801298 
1859	 0.246383590352273 
1860	 0.246277444232636 
1861	 0.246167002526709 
1862	 0.246040989679572 
1863	 0.245891498585651 
1864	 0.245734658349648 
1865	 0.245570865339146 
1866	 0.245385882666306 
1867	 0.245197245407211 
1868	 0.244974649647676 
1869	 0.244718210124575 
1870	 0.244452724596076 
1871	 0.244166779052577 
1872	 0.243856617260172 
1873	 0.243554625991754 
1874	 0.243220631017017 
1875	 0.242841885786342 
1876	 0.242457086992131 
1877	 0.241993382118307 
1878	 0.241473075625933 
1879	 0.240924757900481 
1880	 0.240302111245721 
1881	 0.239606951234334 
1882	 0.238870855421608 
1883	 0.238090612416209 
1884	 0.237219320933411 
1885	 0.236321859620622 
1886	 0.235358796002947 
1887	 0.234296923642516 
1888	 0.233205466257693 
1889	 0.232040353410319 
1890	 0.230835154674938 
1891	 0.229610878776917 
1892	 0.22834591072729 
1893	 0.227057872306383 
1894	 0.22575314665299 
1895	 0.224399729190859 
1896	 0.222998332629048 
1897	 0.221611724106956 
1898	 0.220172021867568 
1899	 0.218744019026995 
1900	 0.217361394701692 
1901	 0.215980767358388 
1902	 0.214651626865371 
1903	 0.213372572900814 
1904	 0.212123948450007 
1905	 0.210897210801161 
1906	 0.209723704206507 
1907	 0.208621773640411 
1908	 0.207574945768304 
1909	 0.20658448721951 
1910	 0.205639805878614 
1911	 0.204733112076142 
1912	 0.203874725537149 
1913	 0.203051417792428 
1914	 0.202250079197257 
1915	 0.201527281660647 
1916	 0.200859651946786 
1917	 0.200241073038399 
1918	 0.199686080149109 
1919	 0.199157330446661 
1920	 0.198641836425269 
1921	 0.198142173966562 
1922	 0.197678153979345 
1923	 0.1972723235419 
1924	 0.196911222241217 
1925	 0.196613494345395 
1926	 0.19633667974741 
1927	 0.196097496508022 
1928	 0.195885348488252 
1929	 0.195715477270302 
1930	 0.195588685402813 
1931	 0.19549344309677 
1932	 0.19544411358563 
1933	 0.19541064961032 
1934	 0.195370157694784 
1935	 0.19535276865708 
1936	 0.195335994680378 
1937	 0.19535918149873 
1938	 0.19541008145769 
1939	 0.195480917345998 
1940	 0.195581509373733 
1941	 0.195697189063575 
1942	 0.195833428771552 
1943	 0.195990343802569 
1944	 0.196148825419475 
1945	 0.1963342043255 
1946	 0.196514537574406 
1947	 0.196688798009787 
1948	 0.196882552409733 
1949	 0.197085856826914 
1950	 0.197299286048235 
1951	 0.197519419480902 
1952	 0.197768765418236 
1953	 0.198009076261457 
1954	 0.198276390132476 
1955	 0.198554487548375 
1956	 0.198831724256037 
1957	 0.199118040140907 
1958	 0.199410521164727 
1959	 0.199715272605056 
1960	 0.200035959058056 
1961	 0.200350133752827 
1962	 0.200672972737495 
1963	 0.201000959719655 
1964	 0.201325224138792 
1965	 0.201648317022088 
1966	 0.202005396758786 
1967	 0.202370796999555 
1968	 0.202722807100872 
1969	 0.203086906796632 
1970	 0.203426183560904 
1971	 0.203733682770907 
1972	 0.204071815546753 
1973	 0.204415073446122 
1974	 0.204759767352784 
1975	 0.205117814985402 
1976	 0.205474154626792 
1977	 0.205838765049747 
1978	 0.206196831128495 
1979	 0.20656455089071 
1980	 0.206923994259114 
1981	 0.207270890479579 
1982	 0.2075964285401 
1983	 0.20793382207979 
1984	 0.208255748576748 
1985	 0.208604061806697 
1986	 0.208962121533242 
1987	 0.20932560233344 
1988	 0.209703567033906 
1989	 0.210100498405672 
1990	 0.210472321497025 
1991	 0.210839739075866 
1992	 0.211198759197819 
1993	 0.211542858793173 
1994	 0.211891882471599 
1995	 0.212237667825224 
1996	 0.212581065981638 
1997	 0.212927108877113 
1998	 0.213262056562799 
1999	 0.213577936807887 
2000	 0.213914162674508 
2001	 0.214239219565424 
2002	 0.214598909891591 
2003	 0.214966937452007 
2004	 0.215312681971346 
2005	 0.215664752843684 
2006	 0.21601819560084 
2007	 0.21635388426056 
2008	 0.216680958425052 
2009	 0.217013230276909 
2010	 0.217338238601699 
2011	 0.217660830053199 
2012	 0.217987080130218 
2013	 0.218308514758969 
2014	 0.218624964881671 
2015	 0.21892855805619 
2016	 0.219247218311222 
2017	 0.219550158296916 
2018	 0.219863945890373 
2019	 0.220184961704902 
2020	 0.220493416853179 
2021	 0.220794284174828 
2022	 0.221106062290225 
2023	 0.221417954775108 
2024	 0.221726989904871 
2025	 0.222048240146827 
2026	 0.22235762939894 
2027	 0.222661315342283 
2028	 0.222952216142961 
2029	 0.223240045657384 
2030	 0.223525025570844 
2031	 0.223799693255781 
2032	 0.224059160750927 
2033	 0.224326237620009 
2034	 0.224599666613939 
2035	 0.22485310117495 
2036	 0.225094963534279 
2037	 0.225339922595809 
2038	 0.225575963782379 
2039	 0.225805866447574 
2040	 0.226042019348761 
2041	 0.22626291546827 
2042	 0.226474461425512 
2043	 0.2266836092286 
2044	 0.226891302496749 
2045	 0.227092552662302 
2046	 0.227308701971143 
2047	 0.227526957014243 
2048	 0.227747323883158 
2049	 0.227999733778273 
2050	 0.228209884545638 
2051	 0.228392708438323 
2052	 0.228581289769413 
2053	 0.228748193191071 
2054	 0.228922405964144 
2055	 0.229104280283443 
2056	 0.22928417842054 
2057	 0.229456085402447 
2058	 0.22961790897982 
2059	 0.229787310060832 
2060	 0.229955088540389 
2061	 0.230125709655661 
2062	 0.230297905333346 
2063	 0.230472684135635 
2064	 0.230665434557824 
2065	 0.230828400049625 
2066	 0.230963554871357 
2067	 0.231122158083787 
2068	 0.23127207572502 
2069	 0.231429124372192 
2070	 0.231590486950873 
2071	 0.231775171258536 
2072	 0.231949054704945 
2073	 0.232108373972833 
2074	 0.23228631811034 
2075	 0.232490397532003 
2076	 0.232666201051228 
2077	 0.232833085466149 
2078	 0.233001089124512 
2079	 0.233155437207362 
2080	 0.233314027972208 
2081	 0.233481446734403 
2082	 0.233639405189809 
2083	 0.233778964963353 
2084	 0.233936556845933 
2085	 0.234092616481144 
2086	 0.234250188876163 
2087	 0.234405333323018 
2088	 0.234567830708969 
2089	 0.234720588551586 
2090	 0.234873652469414 
2091	 0.23500817224244 
2092	 0.235128406396667 
2093	 0.23525420707816 
2094	 0.23535866349532 
2095	 0.235480993799432 
2096	 0.235617837077871 
2097	 0.23575133240362 
2098	 0.235881624531279 
2099	 0.236026833340748 
2100	 0.23616793017195 
2101	 0.236309307449536 
2102	 0.236454913585508 
2103	 0.236601024406194 
2104	 0.23676037563815 
2105	 0.236924151585729 
2106	 0.237095013995738 
2107	 0.237282988654187 
2108	 0.237462425994543 
2109	 0.23765024734645 
2110	 0.237826434668263 
2111	 0.237997478071475 
2112	 0.238164837058192 
2113	 0.23832089565352 
2114	 0.238480452802848 
2115	 0.238635028632664 
2116	 0.238788978323422 
2117	 0.238932734567603 
2118	 0.239064211478837 
2119	 0.239208434864825 
2120	 0.239355150138838 
2121	 0.239497619801523 
2122	 0.239646183635443 
2123	 0.239787711591964 
2124	 0.239940023106788 
2125	 0.240055534966963 
2126	 0.240154694277813 
2127	 0.240245309311122 
2128	 0.240280633006107 
2129	 0.240350313173177 
2130	 0.240446657891021 
2131	 0.240530079741601 
2132	 0.240602458335638 
2133	 0.240697435829035 
2134	 0.240734773277792 
2135	 0.240719109509643 
2136	 0.240736889179102 
2137	 0.240743724285299 
2138	 0.240747322589606 
2139	 0.240775989458526 
2140	 0.240768863326047 
2141	 0.240732565033979 
2142	 0.240693676487866 
2143	 0.240642994303618 
2144	 0.240581432932929 
2145	 0.240503585474897 
2146	 0.24042657055711 
2147	 0.24033215641797 
2148	 0.240250563992616 
2149	 0.240162824388678 
2150	 0.240076640239808 
2151	 0.239979495324849 
2152	 0.239883590133355 
2153	 0.239769372727624 
2154	 0.239650038583661 
2155	 0.239508594698877 
2156	 0.239347937713376 
2157	 0.239180489076305 
2158	 0.239003081518731 
2159	 0.238804490138273 
2160	 0.238579030054033 
2161	 0.238361495431614 
2162	 0.238118353972558 
2163	 0.237892859365365 
2164	 0.237680172772787 
2165	 0.237470494039705 
2166	 0.237264999532272 
2167	 0.237065636543921 
2168	 0.236861568574876 
2169	 0.23665538933863 
2170	 0.236463308297676 
2171	 0.236283754322903 
2172	 0.23608839210686 
2173	 0.235899372086101 
2174	 0.235700030798768 
2175	 0.235485540990986 
2176	 0.235268813847264 
2177	 0.235061806078635 
2178	 0.234832500666498 
2179	 0.234569947312299 
2180	 0.234327160410279 
2181	 0.234080124448695 
2182	 0.233836657955292 
2183	 0.233606419186437 
2184	 0.233373691954889 
2185	 0.233144026452661 
2186	 0.232904797754961 
2187	 0.232694821153876 
2188	 0.232510550238655 
2189	 0.232302765047647 
2190	 0.232082326578575 
2191	 0.23189747960116 
2192	 0.23171668084735 
2193	 0.231542342762216 
2194	 0.231405094357678 
2195	 0.231256646514638 
2196	 0.231096014369052 
2197	 0.230944382315499 
2198	 0.23078720983082 
2199	 0.230662838961323 
2200	 0.230567022716144 
2201	 0.230456766269761 
2202	 0.230367442461758 
2203	 0.230276982596976 
2204	 0.230177990727076 
2205	 0.230049018252794 
2206	 0.229958012637214 
2207	 0.229881957050517 
2208	 0.229818557984408 
2209	 0.229757653892888 
2210	 0.229735952280139 
2211	 0.22975800949968 
2212	 0.229754592949058 
2213	 0.229784108136273 
2214	 0.229777607620148 
2215	 0.229732031458765 
2216	 0.229704868429156 
2217	 0.2296567126793 
2218	 0.22964339194773 
2219	 0.229664495815759 
2220	 0.229671685180198 
2221	 0.229705336740509 
2222	 0.229708230448067 
2223	 0.229725557524929 
2224	 0.229726369753613 
2225	 0.229717939010084 
2226	 0.229714693914233 
2227	 0.229693024809639 
2228	 0.229632904725948 
2229	 0.22961204395611 
2230	 0.22961318359806 
2231	 0.229586570008496 
2232	 0.229558066385116 
2233	 0.229534272307077 
2234	 0.229506693685616 
2235	 0.229463993990323 
2236	 0.229431382164629 
2237	 0.229371562785357 
2238	 0.229285183447341 
2239	 0.229184401266338 
2240	 0.229085534402849 
2241	 0.228953637778578 
2242	 0.22876146477709 
2243	 0.228601508022276 
2244	 0.228456121824551 
2245	 0.228277375302552 
2246	 0.228107229726384 
2247	 0.227916645805118 
2248	 0.227690629397614 
2249	 0.227411193442581 
2250	 0.227153477004336 
2251	 0.226889569799919 
2252	 0.226611010677351 
2253	 0.226294194921909 
2254	 0.226040627275558 
2255	 0.225785164211988 
2256	 0.225579843084097 
2257	 0.225433510498917 
2258	 0.225297261434659 
2259	 0.225168787495958 
2260	 0.225088034612007 
2261	 0.225071636812745 
2262	 0.225030896389985 
2263	 0.225004801188904 
2264	 0.224994561884154 
2265	 0.22497659579904 
2266	 0.224981910499883 
2267	 0.225038095763368 
2268	 0.22507603455764 
2269	 0.225091694815227 
2270	 0.225136884049994 
2271	 0.225222579242076 
2272	 0.2252995572899 
2273	 0.225459500050387 
2274	 0.225646928841554 
2275	 0.225813866943459 
2276	 0.225998336014974 
2277	 0.22617881459332 
2278	 0.226346511962255 
2279	 0.226520440531753 
2280	 0.226705857259534 
2281	 0.226884247607086 
2282	 0.227045863997586 
2283	 0.22724343607178 
2284	 0.227477733543587 
2285	 0.227673880926677 
2286	 0.227887224999975 
2287	 0.228056894931022 
2288	 0.228187957142567 
2289	 0.228302340011399 
2290	 0.228392013398267 
2291	 0.228475525921445 
2292	 0.228517426182206 
2293	 0.228589589540656 
2294	 0.228683161544995 
2295	 0.228744226380446 
2296	 0.228787196316248 
2297	 0.228851769195903 
2298	 0.228902799748279 
2299	 0.228957635577687 
2300	 0.229035068216834 
2301	 0.229069496733371 
2302	 0.229065771716801 
2303	 0.229092061199027 
2304	 0.229138968527168 
2305	 0.229188206270057 
2306	 0.229223562367962 
2307	 0.229255159830067 
2308	 0.22930855600247 
2309	 0.229361067592217 
2310	 0.229415840296293 
2311	 0.229528652947608 
2312	 0.229528799231504 
2313	 0.229432285705884 
2314	 0.229423765637678 
2315	 0.229397500856645 
2316	 0.229395076847637 
2317	 0.229474848607761 
2318	 0.229491627960734 
2319	 0.229472278809583 
2320	 0.229448714006872 
2321	 0.229416175626771 
2322	 0.229368659724052 
2323	 0.229282857249322 
2324	 0.229218574421133 
2325	 0.229138970246575 
2326	 0.229094543071473 
2327	 0.229081305178924 
2328	 0.229065137809207 
2329	 0.229037826604152 
2330	 0.229031029101646 
2331	 0.228994819785136 
2332	 0.228968691869742 
2333	 0.228983697601596 
2334	 0.228993413367736 
2335	 0.228977671137749 
2336	 0.228920355823538 
2337	 0.228831195293619 
2338	 0.228727814525273 
2339	 0.228643211694019 
2340	 0.228580680712055 
2341	 0.22849505314738 
2342	 0.228390019670699 
2343	 0.228264241941081 
2344	 0.228103597769958 
2345	 0.227977539417748 
2346	 0.227862891106668 
2347	 0.227738762890415 
2348	 0.227643934064808 
2349	 0.227509349512778 
2350	 0.227356665804275 
2351	 0.227175511715696 
2352	 0.226952226507557 
2353	 0.226756297758678 
2354	 0.226538116606192 
2355	 0.226337910871218 
2356	 0.226170358925641 
2357	 0.225977966536234 
2358	 0.225759544076746 
2359	 0.225569241825701 
2360	 0.225373573658334 
2361	 0.225215636612769 
2362	 0.225120639422761 
2363	 0.224986154250032 
2364	 0.224857886087204 
2365	 0.224697785251022 
2366	 0.224509742120265 
2367	 0.224288287743511 
2368	 0.224045709484321 
2369	 0.223802610262938 
2370	 0.223511343308217 
2371	 0.22325338657072 
2372	 0.223020663372971 
2373	 0.222733436672684 
2374	 0.222468698879239 
2375	 0.222208082917569 
2376	 0.221910838871061 
2377	 0.221646196461431 
2378	 0.221402097666159 
2379	 0.221089549643789 
2380	 0.220840739730422 
2381	 0.22068155717592 
2382	 0.220528219990729 
2383	 0.220385255647062 
2384	 0.220124045700965 
2385	 0.219792613649923 
2386	 0.219408117641068 
2387	 0.21897249692908 
2388	 0.218651181010094 
2389	 0.218351734702805 
2390	 0.218000150738271 
2391	 0.217688115530093 
2392	 0.217361194585241 
2393	 0.216992466764719 
2394	 0.216669378067394 
2395	 0.21637039604795 
2396	 0.216055833176754 
2397	 0.215702354135648 
2398	 0.215401385929984 
2399	 0.215192580433379 
2400	 0.215023479653072 
2401	 0.214834729426385 
2402	 0.214437394699141 
2403	 0.214022937067111 
2404	 0.213713423162215 
2405	 0.213366411297202 
2406	 0.213119334445165 
2407	 0.212897129672805 
2408	 0.212555407940553 
2409	 0.212224866656669 
2410	 0.211941510600859 
2411	 0.211679133370531 
2412	 0.211429156493128 
2413	 0.211121482190136 
2414	 0.210832706400035 
2415	 0.21064431206283 
2416	 0.21040871695675 
2417	 0.210164576674663 
2418	 0.209900700553305 
2419	 0.209606516034585 
2420	 0.20933506570411 
2421	 0.209019786274719 
2422	 0.208771543713049 
2423	 0.208666165877 
2424	 0.208395208010898 
2425	 0.208063432115161 
2426	 0.207689843148027 
2427	 0.207196117547326 
2428	 0.206801866397358 
2429	 0.206409682700488 
2430	 0.206050499378799 
2431	 0.205737253457244 
2432	 0.205354413537345 
2433	 0.204928888967664 
2434	 0.204581001816099 
2435	 0.204290259072663 
2436	 0.203987072822159 
2437	 0.203724644697267 
2438	 0.203429206108709 
2439	 0.203068115924525 
2440	 0.202720432956688 
2441	 0.202429645936344 
2442	 0.202095997756721 
2443	 0.20174748096001 
2444	 0.20137595239625 
2445	 0.200842920978775 
2446	 0.200487903708103 
2447	 0.200296545867247 
2448	 0.199951774457264 
2449	 0.19967322267273 
2450	 0.199397387335245 
2451	 0.198972902864349 
2452	 0.198635696761268 
2453	 0.198381449328532 
2454	 0.19807549901343 
2455	 0.197764273467125 
2456	 0.197392425376877 
2457	 0.196999921726914 
2458	 0.196706137465216 
2459	 0.196359632568216 
2460	 0.196053383607581 
2461	 0.195910715682604 
2462	 0.195583144848059 
2463	 0.195097692429316 
2464	 0.194772909083332 
2465	 0.194524370514291 
2466	 0.19417772489743 
2467	 0.193824641403492 
2468	 0.193514991403085 
2469	 0.193095633190931 
2470	 0.192879538820809 
2471	 0.192596659417185 
2472	 0.192276498780975 
2473	 0.192202262898151 
2474	 0.192025250199467 
2475	 0.191895182381975 
2476	 0.191791111765173 
2477	 0.191473665225555 
2478	 0.191126500054865 
2479	 0.190798103483333 
2480	 0.19049286676859 
2481	 0.190206993272798 
2482	 0.189985644944691 
2483	 0.189835336894619 
2484	 0.189681328106253 
2485	 0.189308388437488 
2486	 0.188961186104378 
2487	 0.188747388910278 
2488	 0.18837736747293 
2489	 0.188256896686053 
2490	 0.188221431933855 
2491	 0.187759433083806 
2492	 0.187208574868935 
2493	 0.186778777991691 
2494	 0.186373320462661 
2495	 0.186096480856382 
2496	 0.186103467689407 
2497	 0.186110667462233 
2498	 0.185698559857913 
2499	 0.185400687436197 
2500	 0.185194943301225 
