Wavelength	mm2400010.asd
350	 5.17128943835969E-02 
351	 5.08417793782866E-02 
352	 4.44807309407808E-02 
353	 3.66598893768418E-02 
354	 4.47466702960917E-02 
355	 4.89492781167057E-02 
356	 4.59829076740362E-02 
357	 4.03288762999252E-02 
358	 4.71833494717073E-02 
359	 4.36587954680485E-02 
360	 3.45285249945743E-02 
361	 4.03703522064929E-02 
362	 4.31683999447571E-02 
363	 4.25530700948447E-02 
364	 4.16872619437299E-02 
365	 4.61030876087507E-02 
366	 4.32129128992529E-02 
367	 0.0405184406981 
368	 4.61347088222057E-02 
369	 4.87027663373565E-02 
370	 4.69956819452742E-02 
371	 4.56854781264827E-02 
372	 0.051606057749582 
373	 5.01920697545592E-02 
374	 4.72723640951695E-02 
375	 4.75751693430908E-02 
376	 0.049671231303444 
377	 4.65782683084365E-02 
378	 4.45458620643992E-02 
379	 4.94400018271415E-02 
380	 4.72131896113935E-02 
381	 0.046005450615772 
382	 4.79807817028887E-02 
383	 0.050040424059628 
384	 4.96403869654452E-02 
385	 4.86332206253923E-02 
386	 4.89422072249842E-02 
387	 5.14381967772965E-02 
388	 5.32518763611124E-02 
389	 5.29995796054963E-02 
390	 5.09728901615235E-02 
391	 0.05234507227855 
392	 0.052776775760044 
393	 5.28436899304147E-02 
394	 5.69845079937756E-02 
395	 5.71252887214326E-02 
396	 5.61469051500613E-02 
397	 5.71985594709881E-02 
398	 6.04574757365067E-02 
399	 6.14740857398454E-02 
400	 6.14650701918671E-02 
401	 6.30729874624089E-02 
402	 6.36323841781705E-02 
403	 0.064071137706721 
404	 6.48836737357141E-02 
405	 6.58895336291641E-02 
406	 0.065581728602091 
407	 0.066380252000355 
408	 6.90922275675213E-02 
409	 6.84734502323394E-02 
410	 6.79377439537828E-02 
411	 6.79129375893302E-02 
412	 6.76593834763688E-02 
413	 6.88904288884399E-02 
414	 6.97465378554749E-02 
415	 6.96975117713081E-02 
416	 7.02844892816171E-02 
417	 6.98817504150833E-02 
418	 6.95214955694648E-02 
419	 7.01498840477677E-02 
420	 7.03802167883471E-02 
421	 6.95774712621115E-02 
422	 6.87568533776451E-02 
423	 6.96153269282015E-02 
424	 0.069004917902607 
425	 6.84309408896678E-02 
426	 6.87063769176403E-02 
427	 0.068366392500756 
428	 6.75403603298275E-02 
429	 6.67448954670935E-02 
430	 6.64681585566525E-02 
431	 6.62119435180718E-02 
432	 6.60734632830063E-02 
433	 0.066095104552962 
434	 6.62334904368424E-02 
435	 6.62501511984816E-02 
436	 6.61999544375157E-02 
437	 6.61874382913189E-02 
438	 0.066247983446636 
439	 6.65342401849008E-02 
440	 6.70676072100267E-02 
441	 0.067719586528164 
442	 6.77894719973981E-02 
443	 6.79771116076078E-02 
444	 6.85921983031981E-02 
445	 6.91709320221154E-02 
446	 6.96580921517011E-02 
447	 6.99556619206955E-02 
448	 7.01256903432245E-02 
449	 7.08611942617605E-02 
450	 7.15820484166236E-02 
451	 7.20096947929518E-02 
452	 7.21872908410999E-02 
453	 7.24538812126101E-02 
454	 7.27661460838861E-02 
455	 7.30778629825742E-02 
456	 7.35511425249375E-02 
457	 7.38971435231057E-02 
458	 7.40974053477602E-02 
459	 7.42647674841291E-02 
460	 7.44646786721047E-02 
461	 7.45076315683256E-02 
462	 7.44882856235773E-02 
463	 7.49340553975143E-02 
464	 7.50506681340585E-02 
465	 7.51362560271447E-02 
466	 7.55570192940075E-02 
467	 7.56753076144441E-02 
468	 7.57613487694985E-02 
469	 7.58283957031232E-02 
470	 7.57041565137175E-02 
471	 0.075944542651337 
472	 7.62839139042995E-02 
473	 7.64260962933923E-02 
474	 7.63240040759311E-02 
475	 7.62033250318696E-02 
476	 7.62227670688074E-02 
477	 0.076441018838819 
478	 7.64878839729622E-02 
479	 7.65641893504187E-02 
480	 7.67269623400842E-02 
481	 0.076763034018188 
482	 7.68887692461494E-02 
483	 7.70536042498481E-02 
484	 7.71342249687676E-02 
485	 7.70039579350194E-02 
486	 7.70360498713931E-02 
487	 7.72430307921575E-02 
488	 7.73302160330993E-02 
489	 7.72427330755093E-02 
490	 7.72148202202942E-02 
491	 7.73831002795376E-02 
492	 7.75442590509504E-02 
493	 7.75390988579393E-02 
494	 7.74635021357101E-02 
495	 7.75297663771513E-02 
496	 7.77680763208869E-02 
497	 7.78222989270832E-02 
498	 7.76761041796047E-02 
499	 7.78703116878589E-02 
500	 7.78737447848102E-02 
501	 7.77955039421471E-02 
502	 0.077856815328428 
503	 7.78887193606581E-02 
504	 7.80343668590257E-02 
505	 0.078217646656907 
506	 7.81739871796483E-02 
507	 7.81262644906424E-02 
508	 7.81496986905501E-02 
509	 7.82329578496898E-02 
510	 7.82172111999256E-02 
511	 7.82133551601713E-02 
512	 7.82179467572034E-02 
513	 7.81825697946993E-02 
514	 7.82291320163079E-02 
515	 7.82961488090079E-02 
516	 7.83435292550866E-02 
517	 7.84001202110412E-02 
518	 7.85178138690781E-02 
519	 7.85957963867477E-02 
520	 0.078542937658119 
521	 7.85719009007823E-02 
522	 7.87613701784165E-02 
523	 7.89594221920808E-02 
524	 7.87991036753156E-02 
525	 7.88062594597151E-02 
526	 7.88626990629701E-02 
527	 7.88158061042595E-02 
528	 7.88973721605235E-02 
529	 7.88980138082779E-02 
530	 7.88747719681727E-02 
531	 7.90342926240245E-02 
532	 7.91377459082157E-02 
533	 0.079192828611022 
534	 7.92435471210333E-02 
535	 7.93469403326982E-02 
536	 7.93121276841573E-02 
537	 7.92706726252306E-02 
538	 7.94269407897406E-02 
539	 7.95422949685825E-02 
540	 7.95637000642229E-02 
541	 7.95400462885193E-02 
542	 7.96298889997653E-02 
543	 7.97457150232495E-02 
544	 7.98609352036282E-02 
545	 7.99708375594964E-02 
546	 8.01132516608397E-02 
547	 8.01471849598244E-02 
548	 8.01202492781379E-02 
549	 8.02307007297812E-02 
550	 8.03206005439092E-02 
551	 8.04196472882925E-02 
552	 8.05643153707534E-02 
553	 8.07333835019872E-02 
554	 8.08137163877476E-02 
555	 8.08975284138876E-02 
556	 8.11532866175697E-02 
557	 8.13619502631257E-02 
558	 8.15103526065988E-02 
559	 8.16461180111185E-02 
560	 8.18847553927115E-02 
561	 8.20621017670326E-02 
562	 8.22329792659638E-02 
563	 8.24955081790302E-02 
564	 8.27382020766015E-02 
565	 8.29958926202721E-02 
566	 8.32759399659783E-02 
567	 8.35467609086934E-02 
568	 8.38340578245248E-02 
569	 8.41819790699945E-02 
570	 8.46003862692917E-02 
571	 8.49695310447587E-02 
572	 0.085411778485058 
573	 8.58870716940567E-02 
574	 8.62547603708777E-02 
575	 8.66708925492416E-02 
576	 8.71522226358856E-02 
577	 8.76574843452875E-02 
578	 8.80563575328523E-02 
579	 8.85143150688094E-02 
580	 8.90443846381227E-02 
581	 8.96002809107356E-02 
582	 9.02206490616147E-02 
583	 9.08396448931499E-02 
584	 9.14194604937661E-02 
585	 9.19735543130667E-02 
586	 9.25992200741474E-02 
587	 9.32404104319066E-02 
588	 9.38367409960093E-02 
589	 9.45312668013273E-02 
590	 9.52370485322853E-02 
591	 9.59256880368301E-02 
592	 9.66303940087744E-02 
593	 9.73249181570027E-02 
594	 9.80106549497928E-02 
595	 9.86983952909102E-02 
596	 9.94188354333565E-02 
597	 0.100097665175228 
598	 0.10072014578192 
599	 0.101317234525362 
600	 0.101983794804672 
601	 0.102614193861528 
602	 0.103167968908712 
603	 0.103765697484852 
604	 0.104375029089342 
605	 0.10495294918926 
606	 0.105479022964597 
607	 0.106097159803795 
608	 0.106681775299658 
609	 0.107190058006034 
610	 0.1076921496507 
611	 0.108182755494365 
612	 0.10868473430626 
613	 0.109178671941693 
614	 0.109488029768578 
615	 0.109804265217383 
616	 0.110166290437051 
617	 0.110504769546633 
618	 0.110881798602282 
619	 0.111186322022875 
620	 0.111387002941027 
621	 0.111675936786723 
622	 0.111934607407598 
623	 0.112170825456597 
624	 0.112426567154125 
625	 0.112627340651307 
626	 0.11284617915776 
627	 0.11309806822237 
628	 0.11330693715784 
629	 0.113507287689165 
630	 0.113721533657132 
631	 0.113952491383457 
632	 0.114137401092126 
633	 0.114301881682903 
634	 0.114469219903845 
635	 0.114657501882705 
636	 0.114853494610828 
637	 0.115051445366676 
638	 0.115244683386338 
639	 0.115419800915671 
640	 0.115602680811146 
641	 0.115794569043502 
642	 0.115986013745248 
643	 0.116185031015384 
644	 0.116388892576217 
645	 0.116592097605926 
646	 0.116786113748163 
647	 0.11698110849727 
648	 0.117182190632734 
649	 0.117392294227358 
650	 0.117614950863005 
651	 0.117818572589018 
652	 0.118022831813573 
653	 0.118288104602347 
654	 0.118571120196844 
655	 0.118793172100121 
656	 0.118949624052672 
657	 0.119235917029808 
658	 0.119499158834055 
659	 0.119745275563628 
660	 0.120040946861781 
661	 0.120309430591588 
662	 0.120597539521287 
663	 0.12091102364036 
664	 0.121178755711804 
665	 0.121467446965851 
666	 0.121802489592668 
667	 0.122175873611397 
668	 0.122505204321328 
669	 0.122807724115231 
670	 0.123108731725503 
671	 0.123436924154461 
672	 0.123807316371693 
673	 0.124198635084531 
674	 0.124588546549413 
675	 0.124967254031669 
676	 0.125354329625873 
677	 0.125762711985084 
678	 0.126195289935306 
679	 0.126609913082085 
680	 0.127028490522556 
681	 0.127455879700308 
682	 0.127866724992417 
683	 0.128347590829445 
684	 0.128834174572149 
685	 0.129262704715235 
686	 0.129718033423478 
687	 0.130226826323675 
688	 0.130751102023471 
689	 0.131217615171974 
690	 0.131728356166993 
691	 0.132256715906423 
692	 0.132771694499827 
693	 0.133270805909233 
694	 0.133777933067917 
695	 0.134318966484519 
696	 0.1349023562606 
697	 0.135448266746595 
698	 0.135973468400004 
699	 0.136494581452195 
700	 0.137021585142582 
701	 0.137609757687824 
702	 0.138214001099906 
703	 0.138789692657804 
704	 0.139355391059588 
705	 0.139948554443555 
706	 0.140542467371752 
707	 0.141084875346891 
708	 0.141622818950932 
709	 0.142200798515551 
710	 0.142811849959119 
711	 0.143378722645788 
712	 0.143944350573946 
713	 0.144492630928801 
714	 0.145014134991741 
715	 0.145583206258429 
716	 0.146124063004898 
717	 0.146626532138332 
718	 0.147132506905192 
719	 0.147667341931344 
720	 0.148175547161987 
721	 0.148633331970035 
722	 0.149099451383668 
723	 0.149608014472237 
724	 0.150084686029273 
725	 0.150460415648627 
726	 0.150902811252078 
727	 0.151300379049169 
728	 0.151640610090035 
729	 0.152010743810227 
730	 0.15236251865933 
731	 0.152702637808248 
732	 0.153032440524005 
733	 0.153315150079911 
734	 0.153614391862274 
735	 0.153862179106657 
736	 0.153981345272288 
737	 0.154186264255419 
738	 0.154412916184371 
739	 0.154599340915035 
740	 0.154712177001554 
741	 0.154793606989942 
742	 0.154852608882072 
743	 0.15489587843356 
744	 0.154949493548505 
745	 0.15495067454046 
746	 0.154916706611022 
747	 0.154895292550363 
748	 0.154852926019822 
749	 0.154739760797923 
750	 0.154585683998254 
751	 0.154513309492117 
752	 0.154392943949382 
753	 0.154223171624523 
754	 0.154032438424032 
755	 0.153841511659663 
756	 0.153660440078425 
757	 0.153442857513874 
758	 0.153134598117086 
759	 0.152845204833568 
760	 0.152575445364794 
761	 0.152309676139721 
762	 0.152026179686056 
763	 0.151710290798571 
764	 0.151383429718213 
765	 0.151061399746222 
766	 0.150709960741409 
767	 0.15038074056112 
768	 0.15004555562867 
769	 0.149648259768525 
770	 0.149247010356149 
771	 0.148854942985482 
772	 0.148463223719169 
773	 0.148043738132315 
774	 0.147660961343266 
775	 0.147284415056225 
776	 0.146882390056016 
777	 0.146480183771023 
778	 0.146082502065225 
779	 0.145684418056906 
780	 0.145275059308568 
781	 0.144841215461273 
782	 0.144421029416418 
783	 0.144017435433116 
784	 0.143596002471309 
785	 0.143213298300822 
786	 0.142811859174557 
787	 0.142369730500024 
788	 0.142004263623508 
789	 0.141635679528478 
790	 0.141219537732365 
791	 0.140752358061984 
792	 0.140358354316698 
793	 0.139993381745409 
794	 0.139613898721031 
795	 0.139191421982724 
796	 0.138765457083543 
797	 0.138397442854244 
798	 0.138091973297927 
799	 0.137750442476128 
800	 0.137392020704654 
801	 0.137010530179994 
802	 0.136611384068445 
803	 0.136254740602961 
804	 0.135950134027283 
805	 0.135649640476304 
806	 0.135287729573529 
807	 0.134974168898157 
808	 0.134630566203933 
809	 0.134268940596173 
810	 0.134036623695231 
811	 0.133749633704824 
812	 0.133409493680656 
813	 0.13307243521722 
814	 0.132823545860412 
815	 0.132545635678283 
816	 0.132238762004745 
817	 0.131947236096817 
818	 0.131647470215507 
819	 0.131435095062667 
820	 0.131264277254707 
821	 0.130982616493457 
822	 0.130735540022541 
823	 0.130464683450124 
824	 0.130173971876016 
825	 0.130014825580728 
826	 0.129833206038876 
827	 0.129625474189507 
828	 0.129416439806107 
829	 0.129177156742778 
830	 0.128952552389774 
831	 0.128757612471178 
832	 0.128591877864062 
833	 0.12848196742244 
834	 0.128308771592133 
835	 0.1280774319877 
836	 0.127913333023931 
837	 0.127789186727948 
838	 0.127680103976517 
839	 0.127557013699962 
840	 0.127387369769384 
841	 0.127218247592924 
842	 0.12708337555414 
843	 0.126992692665122 
844	 0.126905373272906 
845	 0.126797869998829 
846	 0.126667899272018 
847	 0.126538123599802 
848	 0.126486609337987 
849	 0.126460911553857 
850	 0.12640802602484 
851	 0.126294410030584 
852	 0.126195938885734 
853	 0.126124446066171 
854	 0.126081928147795 
855	 0.126069950939217 
856	 0.126019232560011 
857	 0.125965891244693 
858	 0.125946086483797 
859	 0.125927256506712 
860	 0.125914795502373 
861	 0.125889870797404 
862	 0.125846130793489 
863	 0.125858148281691 
864	 0.125899815098099 
865	 0.125923313722558 
866	 0.125889471917131 
867	 0.125893081268567 
868	 0.125931235776335 
869	 0.125975331112627 
870	 0.125989320651757 
871	 0.126071609581395 
872	 0.126141376287693 
873	 0.126159161266956 
874	 0.126198520338089 
875	 0.126282526336465 
876	 0.126359846554349 
877	 0.126409951321513 
878	 0.126547553565968 
879	 0.126702406794781 
880	 0.126800616422274 
881	 0.126824035498853 
882	 0.126977084118569 
883	 0.127112957823292 
884	 0.127196223316342 
885	 0.127270385760756 
886	 0.127398241513983 
887	 0.127585035019555 
888	 0.127760467200591 
889	 0.127828060902059 
890	 0.128024096863651 
891	 0.128223394284802 
892	 0.128381350984823 
893	 0.128605592698999 
894	 0.128780745908457 
895	 0.128927794663336 
896	 0.129098892853166 
897	 0.129349597171921 
898	 0.1295983862905 
899	 0.129821522213383 
900	 0.130021164419909 
901	 0.130213942785735 
902	 0.130477597422821 
903	 0.130758106647086 
904	 0.130982766899275 
905	 0.131199126735824 
906	 0.131448187700849 
907	 0.131742897143639 
908	 0.132075327787738 
909	 0.132438144985863 
910	 0.132729819930587 
911	 0.132965117577898 
912	 0.133229026114968 
913	 0.13347428716267 
914	 0.133803541227556 
915	 0.134190041285722 
916	 0.134502695996856 
917	 0.134851105812536 
918	 0.135214012834226 
919	 0.135569272861606 
920	 0.135914292571201 
921	 0.136281528515273 
922	 0.136684013646442 
923	 0.137099210709704 
924	 0.137467302030869 
925	 0.137880490003947 
926	 0.138332067960056 
927	 0.138775183452296 
928	 0.139133978937357 
929	 0.139629330984733 
930	 0.140144628635884 
931	 0.140556164267673 
932	 0.140933240074009 
933	 0.141383793087128 
934	 0.141938617686052 
935	 0.142537764709974 
936	 0.142964202539793 
937	 0.143332420744045 
938	 0.143765922305252 
939	 0.144342963078898 
940	 0.144991079619914 
941	 0.145580315530197 
942	 0.146102271212599 
943	 0.146616790059491 
944	 0.147199384605517 
945	 0.147781232551548 
946	 0.148392634243562 
947	 0.149047329599597 
948	 0.14946949333078 
949	 0.150053713030404 
950	 0.150769208077413 
951	 0.151388514852457 
952	 0.151972443508706 
953	 0.152614497155867 
954	 0.153303686011667 
955	 0.153968675893839 
956	 0.154579241377223 
957	 0.155267962711634 
958	 0.156010237309977 
959	 0.156697297584758 
960	 0.15737804385328 
961	 0.158066512030977 
962	 0.158782198519685 
963	 0.159521933364834 
964	 0.160144270728216 
965	 0.160872354824176 
966	 0.161665585892672 
967	 0.162344145881489 
968	 0.163133896375436 
969	 0.163942027525525 
970	 0.164689227856315 
971	 0.165356158506016 
972	 0.166102596090486 
973	 0.166941381091865 
974	 0.167790184418489 
975	 0.168553985820699 
976	 0.169421584857562 
977	 0.170180189489218 
978	 0.170831224815408 
979	 0.171544435365543 
980	 0.172471824385603 
981	 0.173286647651801 
982	 0.174005720436316 
983	 0.17484087815686 
984	 0.175689328398523 
985	 0.176425910610407 
986	 0.177150864343785 
987	 0.178034694498823 
988	 0.178915997863134 
989	 0.179777269023531 
990	 0.180607601789903 
991	 0.181421865232321 
992	 0.182325615794333 
993	 0.183043743128887 
994	 0.183797843321287 
995	 0.184837108976932 
996	 0.185557790184543 
997	 0.186370064915265 
998	 0.187199327192188 
999	 0.187889328897566 
1000	 0.188725398995637 
1001	 0.189392956123019 
1002	 0.190022984623017 
1003	 0.190704704268843 
1004	 0.191405102816484 
1005	 0.192175497566162 
1006	 0.192902201675584 
1007	 0.193629591771712 
1008	 0.194322587816156 
1009	 0.194982716872172 
1010	 0.195644800447274 
1011	 0.196359781667894 
1012	 0.196995228998018 
1013	 0.197652631276673 
1014	 0.198372219857707 
1015	 0.199050118518485 
1016	 0.199727870008915 
1017	 0.200351402334072 
1018	 0.200943132159231 
1019	 0.201512676431396 
1020	 0.202102839412583 
1021	 0.202702480233999 
1022	 0.20335343842871 
1023	 0.203981409540325 
1024	 0.204544068804199 
1025	 0.205110343862778 
1026	 0.205694140599569 
1027	 0.206240189393301 
1028	 0.206782947342481 
1029	 0.207350606718978 
1030	 0.207918641133359 
1031	 0.208454755888674 
1032	 0.20898857848251 
1033	 0.209507456035416 
1034	 0.210037892680509 
1035	 0.21055890708529 
1036	 0.211080537458328 
1037	 0.211617967223458 
1038	 0.212083878777163 
1039	 0.212511707711823 
1040	 0.213018660411542 
1041	 0.213532849259686 
1042	 0.214024662455207 
1043	 0.21453526957013 
1044	 0.215028728955084 
1045	 0.215489868691346 
1046	 0.215956227139108 
1047	 0.216436936189872 
1048	 0.216892910973909 
1049	 0.217328016956013 
1050	 0.217776029123409 
1051	 0.218239674943898 
1052	 0.218680688777043 
1053	 0.219155249466431 
1054	 0.219614564770213 
1055	 0.220067549865122 
1056	 0.22058636118467 
1057	 0.221043831576915 
1058	 0.221432222869101 
1059	 0.221896346922679 
1060	 0.222384237264832 
1061	 0.222827468997267 
1062	 0.223334242696105 
1063	 0.223870740490354 
1064	 0.224292346802381 
1065	 0.224693223514107 
1066	 0.22510349002159 
1067	 0.225496643294583 
1068	 0.225918528404204 
1069	 0.226348616265978 
1070	 0.226779192682715 
1071	 0.227209640626502 
1072	 0.227646576455412 
1073	 0.228106376308278 
1074	 0.228539479097668 
1075	 0.228984104933692 
1076	 0.229356965058294 
1077	 0.229707209954191 
1078	 0.230098497140783 
1079	 0.230490541819189 
1080	 0.230896108428053 
1081	 0.231288999065603 
1082	 0.231632222075202 
1083	 0.232007766967375 
1084	 0.232364864081818 
1085	 0.232742458416787 
1086	 0.233164422663255 
1087	 0.23354858917991 
1088	 0.233918789772123 
1089	 0.234266229063704 
1090	 0.234601791417855 
1091	 0.234941172100235 
1092	 0.235272625086223 
1093	 0.235610162913205 
1094	 0.235966820119486 
1095	 0.236315411216593 
1096	 0.236626779093154 
1097	 0.236910404552396 
1098	 0.237227024495109 
1099	 0.237559662419624 
1100	 0.237860979576685 
1101	 0.238159292186508 
1102	 0.238470878354286 
1103	 0.238776352627983 
1104	 0.239051583973737 
1105	 0.239351776033977 
1106	 0.239682746382414 
1107	 0.239972064735283 
1108	 0.240233690486346 
1109	 0.240509096139307 
1110	 0.240765139907676 
1111	 0.241044407243368 
1112	 0.241344994989457 
1113	 0.241610344038321 
1114	 0.241870635391994 
1115	 0.242136878084526 
1116	 0.242363376267413 
1117	 0.242629124216807 
1118	 0.242931912950231 
1119	 0.243220948615063 
1120	 0.243496932961711 
1121	 0.243765653861566 
1122	 0.244004393434488 
1123	 0.244264098455675 
1124	 0.244545809651157 
1125	 0.244856400804957 
1126	 0.24513126614159 
1127	 0.245414180119981 
1128	 0.245674111021174 
1129	 0.245897736495905 
1130	 0.246142517171068 
1131	 0.246400509101664 
1132	 0.246643631477774 
1133	 0.246872131403196 
1134	 0.247112305414693 
1135	 0.247351077801827 
1136	 0.247598448687345 
1137	 0.247838418271041 
1138	 0.248060816924525 
1139	 0.248275808558162 
1140	 0.248456094240833 
1141	 0.248675480363947 
1142	 0.248914166277718 
1143	 0.249135927831191 
1144	 0.249368816550336 
1145	 0.249589391930086 
1146	 0.249797064203923 
1147	 0.250000773165276 
1148	 0.250206619517081 
1149	 0.25040385022862 
1150	 0.250597118755978 
1151	 0.250771365975563 
1152	 0.250934079432666 
1153	 0.251112448929526 
1154	 0.251289706744207 
1155	 0.251451363602385 
1156	 0.251646750241206 
1157	 0.251872930093535 
1158	 0.252070114797064 
1159	 0.25228500657556 
1160	 0.252470526160118 
1161	 0.25261174790068 
1162	 0.252786819513742 
1163	 0.25298600671029 
1164	 0.253150974008791 
1165	 0.253302664618405 
1166	 0.253468965536465 
1167	 0.253607507743491 
1168	 0.253760221866005 
1169	 0.253924224709702 
1170	 0.254114617323112 
1171	 0.254288822754827 
1172	 0.254467800938824 
1173	 0.254627328809216 
1174	 0.254778590217723 
1175	 0.254932420904519 
1176	 0.255070604656969 
1177	 0.255216117073904 
1178	 0.255375681702493 
1179	 0.255521564787354 
1180	 0.255650831875284 
1181	 0.255792664308075 
1182	 0.255937023341318 
1183	 0.256082227848042 
1184	 0.256224209099972 
1185	 0.256380743635366 
1186	 0.256506203566311 
1187	 0.256605273337494 
1188	 0.256728110066034 
1189	 0.256840123889025 
1190	 0.256969402240908 
1191	 0.257131134161259 
1192	 0.257265242395319 
1193	 0.257392965411133 
1194	 0.257515949336511 
1195	 0.25761694696809 
1196	 0.257732243769144 
1197	 0.257857747360754 
1198	 0.257976086558637 
1199	 0.258093763682982 
1200	 0.258213250500081 
1201	 0.25833527541268 
1202	 0.258450573563016 
1203	 0.258576439597743 
1204	 0.258715332975571 
1205	 0.258844742655827 
1206	 0.25897991546643 
1207	 0.259099425941885 
1208	 0.259216577091263 
1209	 0.259319666406235 
1210	 0.259397339956094 
1211	 0.259490066004886 
1212	 0.259580939995887 
1213	 0.259672573517546 
1214	 0.25976839380274 
1215	 0.25986782987138 
1216	 0.25996865841952 
1217	 0.260067099347172 
1218	 0.260169858814572 
1219	 0.260286009922007 
1220	 0.260382229871099 
1221	 0.260467771719368 
1222	 0.260558023871403 
1223	 0.260635251101031 
1224	 0.260728009949613 
1225	 0.260847747278564 
1226	 0.26093342512293 
1227	 0.26099950413654 
1228	 0.261078018833143 
1229	 0.261133603966225 
1230	 0.261207383952464 
1231	 0.261310099346963 
1232	 0.261400166141993 
1233	 0.261487758057775 
1234	 0.261576384987174 
1235	 0.261656168586074 
1236	 0.261727594466991 
1237	 0.261803733336949 
1238	 0.261880527413574 
1239	 0.261947328868844 
1240	 0.262000295766241 
1241	 0.262075899257685 
1242	 0.262169650081802 
1243	 0.262235502255497 
1244	 0.2622974663785 
1245	 0.262364401996267 
1246	 0.262405493963841 
1247	 0.262460345165979 
1248	 0.26252552744657 
1249	 0.262611050685788 
1250	 0.262684731954249 
1251	 0.262745011127481 
1252	 0.2628070814608 
1253	 0.262868439425399 
1254	 0.262931817220033 
1255	 0.262989529787272 
1256	 0.263050999399685 
1257	 0.263122660274365 
1258	 0.263184220848738 
1259	 0.26324424102462 
1260	 0.263295114494877 
1261	 0.263341888462475 
1262	 0.263379012561056 
1263	 0.26339887192001 
1264	 0.263425944907463 
1265	 0.263443077922945 
1266	 0.263473341265274 
1267	 0.26351380013573 
1268	 0.263552425822402 
1269	 0.263598588085447 
1270	 0.263653065896367 
1271	 0.263709912324238 
1272	 0.263773645412747 
1273	 0.263830571531509 
1274	 0.263888115587915 
1275	 0.263945755765292 
1276	 0.263992163796951 
1277	 0.264058105973366 
1278	 0.264132596034183 
1279	 0.264215860207124 
1280	 0.264313023168986 
1281	 0.264409314804563 
1282	 0.264513610488361 
1283	 0.264617282853933 
1284	 0.264721728977144 
1285	 0.264831323549275 
1286	 0.264935237623079 
1287	 0.265035688046878 
1288	 0.26515435811052 
1289	 0.265282094253366 
1290	 0.26540389724095 
1291	 0.265550434047242 
1292	 0.265656653575959 
1293	 0.265732778998038 
1294	 0.265823481349178 
1295	 0.265903945369001 
1296	 0.265986344768619 
1297	 0.266080900237907 
1298	 0.266159845936837 
1299	 0.266223207282223 
1300	 0.266286201977952 
1301	 0.2663331750661 
1302	 0.266400203822891 
1303	 0.266479136144508 
1304	 0.266555729834853 
1305	 0.266631336369066 
1306	 0.266689869656253 
1307	 0.26670576883863 
1308	 0.266724372183075 
1309	 0.266744421426394 
1310	 0.266759975752438 
1311	 0.266762483364104 
1312	 0.266765110113554 
1313	 0.266758348199879 
1314	 0.266726206960562 
1315	 0.266718441075744 
1316	 0.266726077336609 
1317	 0.266717093695954 
1318	 0.266701050325524 
1319	 0.266695941841948 
1320	 0.266685356954267 
1321	 0.266679430407943 
1322	 0.266684563538666 
1323	 0.266702099757645 
1324	 0.266682506338652 
1325	 0.266639277300809 
1326	 0.266612689620803 
1327	 0.266575919263884 
1328	 0.266526914128496 
1329	 0.266504753690985 
1330	 0.266469204581237 
1331	 0.266420199474881 
1332	 0.26637239458667 
1333	 0.266333324658593 
1334	 0.266282116678015 
1335	 0.266213824499013 
1336	 0.266158259862477 
1337	 0.266095938495051 
1338	 0.266055274761952 
1339	 0.266037156032795 
1340	 0.266002196911874 
1341	 0.265971518922155 
1342	 0.26594118928706 
1343	 0.26590246298554 
1344	 0.265864052205982 
1345	 0.265828940513458 
1346	 0.265788008792422 
1347	 0.265746364187537 
1348	 0.26569503011322 
1349	 0.26563911722199 
1350	 0.265590059399819 
1351	 0.26553963132953 
1352	 0.265476880215152 
1353	 0.265431346166333 
1354	 0.265412111383882 
1355	 0.265358914155751 
1356	 0.265288940700971 
1357	 0.26523457879595 
1358	 0.265165561652478 
1359	 0.265104860630311 
1360	 0.265061373191112 
1361	 0.265014947362525 
1362	 0.264958868942333 
1363	 0.264912508462872 
1364	 0.264878225553218 
1365	 0.264841002389302 
1366	 0.26479123537844 
1367	 0.26476983491127 
1368	 0.264761743058236 
1369	 0.26474813392005 
1370	 0.264729659608305 
1371	 0.264699313054984 
1372	 0.264643151585586 
1373	 0.264579110890637 
1374	 0.264520996765903 
1375	 0.264477184865393 
1376	 0.264387308125084 
1377	 0.264288939309111 
1378	 0.264158374836025 
1379	 0.263972238434942 
1380	 0.263815796214697 
1381	 0.263649784941164 
1382	 0.263493200818024 
1383	 0.263364471751589 
1384	 0.263197883492408 
1385	 0.263027381686803 
1386	 0.262832865371215 
1387	 0.262606164898443 
1388	 0.26237605341006 
1389	 0.262137195123747 
1390	 0.261882673393811 
1391	 0.261617094281591 
1392	 0.2613288941843 
1393	 0.261000557852873 
1394	 0.260644469073026 
1395	 0.260255596778875 
1396	 0.25985578124582 
1397	 0.259466135368134 
1398	 0.25907254499897 
1399	 0.25867152878747 
1400	 0.258279348693037 
1401	 0.257862896697886 
1402	 0.257416143237763 
1403	 0.256998736907087 
1404	 0.256571917238564 
1405	 0.256173625576259 
1406	 0.255808130988698 
1407	 0.255423317341418 
1408	 0.255029654841215 
1409	 0.25466249642176 
1410	 0.25428636873893 
1411	 0.253949511317143 
1412	 0.253641638514755 
1413	 0.253357656027834 
1414	 0.253114112612404 
1415	 0.25286542905725 
1416	 0.252630600045754 
1417	 0.252433239210134 
1418	 0.252201268975527 
1419	 0.251981536274925 
1420	 0.251811392660384 
1421	 0.251632613474171 
1422	 0.251488795319847 
1423	 0.251370887204951 
1424	 0.251222326776827 
1425	 0.251061405319784 
1426	 0.250911783540915 
1427	 0.250736665814754 
1428	 0.250608530756711 
1429	 0.250505258110913 
1430	 0.25041030966178 
1431	 0.250350646656765 
1432	 0.250273152360558 
1433	 0.250196745792522 
1434	 0.250123355030961 
1435	 0.250036664119939 
1436	 0.249972095751259 
1437	 0.249920089046857 
1438	 0.249874583468901 
1439	 0.249849489331369 
1440	 0.249817207736675 
1441	 0.249776271587558 
1442	 0.249733141431593 
1443	 0.249670162319221 
1444	 0.249623609391511 
1445	 0.249594691717284 
1446	 0.249563340246942 
1447	 0.249560489488986 
1448	 0.249540481252516 
1449	 0.249463390300989 
1450	 0.249397353728087 
1451	 0.249331728031279 
1452	 0.249225222208945 
1453	 0.249177292567125 
1454	 0.249168680443796 
1455	 0.24914390851592 
1456	 0.249148292198882 
1457	 0.24911562710943 
1458	 0.24906010856748 
1459	 0.249019989425151 
1460	 0.248958848274189 
1461	 0.248921976469458 
1462	 0.248913151197047 
1463	 0.24889260544206 
1464	 0.248863055172729 
1465	 0.248853221400393 
1466	 0.248836696625275 
1467	 0.248846122822485 
1468	 0.248875138355291 
1469	 0.248925607524701 
1470	 0.248990272759492 
1471	 0.24908466728846 
1472	 0.249212964191068 
1473	 0.249345675396998 
1474	 0.249499240186432 
1475	 0.249653598719288 
1476	 0.24977920326631 
1477	 0.24991995573417 
1478	 0.250045052210937 
1479	 0.250168120166298 
1480	 0.250319443554845 
1481	 0.250452708869529 
1482	 0.250580868832141 
1483	 0.250711493933906 
1484	 0.250831179051715 
1485	 0.25092794550531 
1486	 0.251045928298709 
1487	 0.251170131943815 
1488	 0.251296408275149 
1489	 0.251438240257392 
1490	 0.251561176616219 
1491	 0.251682077527063 
1492	 0.251791680744697 
1493	 0.251873008444158 
1494	 0.251980694827165 
1495	 0.252102356511854 
1496	 0.252210798448337 
1497	 0.252333252232413 
1498	 0.252437627576405 
1499	 0.252522749906992 
1500	 0.252607551000554 
1501	 0.252685723277849 
1502	 0.252764089849559 
1503	 0.252836878743677 
1504	 0.252905218059453 
1505	 0.252990172963634 
1506	 0.25307844514549 
1507	 0.253175360777726 
1508	 0.253270918526453 
1509	 0.253364465295996 
1510	 0.253447612162357 
1511	 0.25351233295353 
1512	 0.253588719543016 
1513	 0.253655899601325 
1514	 0.253726135508366 
1515	 0.253820337924311 
1516	 0.253908370622306 
1517	 0.253989789707207 
1518	 0.254068141532511 
1519	 0.254156063403489 
1520	 0.254242306088644 
1521	 0.254323784663054 
1522	 0.254409983728829 
1523	 0.254495161938727 
1524	 0.254564796631186 
1525	 0.254660911414432 
1526	 0.254787249370326 
1527	 0.254879750343003 
1528	 0.254974040325279 
1529	 0.255047839292935 
1530	 0.255089427667832 
1531	 0.255150367839216 
1532	 0.2552137434774 
1533	 0.255266691875148 
1534	 0.255317007500658 
1535	 0.255369348682567 
1536	 0.255409436325986 
1537	 0.25546058314495 
1538	 0.255515486806431 
1539	 0.255580720467558 
1540	 0.255659259647243 
1541	 0.255732369267614 
1542	 0.255813432623339 
1543	 0.255889926361529 
1544	 0.255968942646225 
1545	 0.256033139416391 
1546	 0.256094012112727 
1547	 0.256141682841419 
1548	 0.256189953187472 
1549	 0.256235774342484 
1550	 0.256280813833043 
1551	 0.256337198490853 
1552	 0.256381182977029 
1553	 0.25643013645926 
1554	 0.256497283239706 
1555	 0.256559952584451 
1556	 0.256611019062517 
1557	 0.256655693447836 
1558	 0.256713171133339 
1559	 0.256762971624991 
1560	 0.256798166100389 
1561	 0.256834573805815 
1562	 0.256864038943376 
1563	 0.256869951147446 
1564	 0.256891439370623 
1565	 0.2569239077731 
1566	 0.256945867068005 
1567	 0.256954795043395 
1568	 0.25698028589601 
1569	 0.257017316919575 
1570	 0.257045872518164 
1571	 0.257078740612431 
1572	 0.257107063558448 
1573	 0.257118779485668 
1574	 0.257154540850886 
1575	 0.257211291881691 
1576	 0.257247380717608 
1577	 0.257290726459075 
1578	 0.257318577477929 
1579	 0.257313833678617 
1580	 0.257338661130854 
1581	 0.257382635608369 
1582	 0.257410893349746 
1583	 0.257447834718172 
1584	 0.257471516094683 
1585	 0.257469699732609 
1586	 0.257484307479934 
1587	 0.257500974299689 
1588	 0.257527914425247 
1589	 0.257572006381552 
1590	 0.257601282052097 
1591	 0.257639359633417 
1592	 0.25765553508506 
1593	 0.257637328535039 
1594	 0.257646971057155 
1595	 0.257668524619532 
1596	 0.257678421793094 
1597	 0.25769639066983 
1598	 0.257711280496376 
1599	 0.257712050056723 
1600	 0.257713146444694 
1601	 0.257722679735358 
1602	 0.257727562401513 
1603	 0.257721267550227 
1604	 0.257718599963047 
1605	 0.257709481805992 
1606	 0.257714791005671 
1607	 0.257725481505295 
1608	 0.257743389949628 
1609	 0.25778424470849 
1610	 0.257807207209698 
1611	 0.257823067360239 
1612	 0.257845416432668 
1613	 0.25784041618357 
1614	 0.257843896682672 
1615	 0.257843152047887 
1616	 0.257832180803096 
1617	 0.257828060896581 
1618	 0.257826805113646 
1619	 0.257843505543498 
1620	 0.257859006933503 
1621	 0.257870925566905 
1622	 0.257894447404953 
1623	 0.257900959299964 
1624	 0.257895451434587 
1625	 0.257887119684611 
1626	 0.257874676277858 
1627	 0.257859969856166 
1628	 0.257829128406821 
1629	 0.257825664327609 
1630	 0.257832633645344 
1631	 0.257841447823644 
1632	 0.257868516254793 
1633	 0.257877258136806 
1634	 0.25788681670554 
1635	 0.257875819089165 
1636	 0.257850079080748 
1637	 0.25782571587332 
1638	 0.257773725194435 
1639	 0.257765776316191 
1640	 0.25778253022196 
1641	 0.257783492403574 
1642	 0.257797196220732 
1643	 0.257809370754556 
1644	 0.257808857269927 
1645	 0.257822233993992 
1646	 0.257862858122141 
1647	 0.257869637751984 
1648	 0.257860888324432 
1649	 0.257851720402645 
1650	 0.257831793873787 
1651	 0.25780693023505 
1652	 0.257767529379145 
1653	 0.257751478783552 
1654	 0.257738867706632 
1655	 0.257725726812766 
1656	 0.257737127262283 
1657	 0.25772212750621 
1658	 0.257689970355756 
1659	 0.257657240982574 
1660	 0.257618655363061 
1661	 0.257575575520032 
1662	 0.25751802691664 
1663	 0.257475135526738 
1664	 0.257428827111856 
1665	 0.257399184996046 
1666	 0.257377204716422 
1667	 0.257372461542364 
1668	 0.257402553999768 
1669	 0.257392742442446 
1670	 0.257385325849374 
1671	 0.257356583193004 
1672	 0.257273709067728 
1673	 0.257244740920585 
1674	 0.257240537009938 
1675	 0.257224320983724 
1676	 0.257222549822397 
1677	 0.257219878007982 
1678	 0.257217831107133 
1679	 0.257200383619175 
1680	 0.257185337910092 
1681	 0.257165783160436 
1682	 0.257117534592858 
1683	 0.257094973488308 
1684	 0.257097791044511 
1685	 0.257080384119949 
1686	 0.257062471759632 
1687	 0.257034232690912 
1688	 0.256985471599422 
1689	 0.256956224998731 
1690	 0.25693521499793 
1691	 0.256906263889479 
1692	 0.256882938150286 
1693	 0.256853749090858 
1694	 0.256810899079598 
1695	 0.256782066503499 
1696	 0.256761011451965 
1697	 0.256740596489464 
1698	 0.256727844100113 
1699	 0.256705577619921 
1700	 0.256678553145996 
1701	 0.256656823044612 
1702	 0.256639689713269 
1703	 0.256609419840033 
1704	 0.256582757479109 
1705	 0.256537508498297 
1706	 0.256466030391517 
1707	 0.256409293026248 
1708	 0.256350268902188 
1709	 0.256296341489207 
1710	 0.256246561441802 
1711	 0.256203534510779 
1712	 0.256166960351637 
1713	 0.256120441092687 
1714	 0.256075949537755 
1715	 0.256031487965644 
1716	 0.255979823322526 
1717	 0.255930770203873 
1718	 0.255891324852439 
1719	 0.255836008026789 
1720	 0.255769642140951 
1721	 0.255703961308655 
1722	 0.255625844511852 
1723	 0.255571530613389 
1724	 0.255541187072821 
1725	 0.255468871963843 
1726	 0.255385799679368 
1727	 0.255308267494335 
1728	 0.255191104843782 
1729	 0.255122774529793 
1730	 0.255098441746786 
1731	 0.25503770076509 
1732	 0.254979519935983 
1733	 0.254909291546647 
1734	 0.254824685517296 
1735	 0.25473492651359 
1736	 0.25462856594294 
1737	 0.254547090312136 
1738	 0.25446201755522 
1739	 0.254391699959186 
1740	 0.254349309884286 
1741	 0.254289595209895 
1742	 0.254237800337103 
1743	 0.254155674823972 
1744	 0.254064407981242 
1745	 0.253961314325473 
1746	 0.253813518404988 
1747	 0.253697603865147 
1748	 0.253615542305425 
1749	 0.253543156531033 
1750	 0.253503438152707 
1751	 0.253457031456086 
1752	 0.253365994870601 
1753	 0.253287314551581 
1754	 0.253211540534391 
1755	 0.253141776246215 
1756	 0.253103584490123 
1757	 0.253044002283904 
1758	 0.252961187134184 
1759	 0.252874403828139 
1760	 0.252792550162321 
1761	 0.252720889598041 
1762	 0.25265725802642 
1763	 0.252591536214744 
1764	 0.252502906873576 
1765	 0.252386201872143 
1766	 0.252261340691456 
1767	 0.25215242578014 
1768	 0.252050007276067 
1769	 0.251963051967423 
1770	 0.251902399808235 
1771	 0.251849244344505 
1772	 0.251795401997559 
1773	 0.251737431939415 
1774	 0.251691508206929 
1775	 0.251661251538183 
1776	 0.251602907371466 
1777	 0.251550279002245 
1778	 0.251506971931475 
1779	 0.251411453631704 
1780	 0.251341972209301 
1781	 0.25130348594792 
1782	 0.251224393379673 
1783	 0.251164090647368 
1784	 0.251110744208925 
1785	 0.251053875004077 
1786	 0.251003453621675 
1787	 0.25096595326398 
1788	 0.25093282516179 
1789	 0.250903792199973 
1790	 0.250872847705725 
1791	 0.250846312095285 
1792	 0.250797443170828 
1793	 0.250730939692 
1794	 0.250686339792755 
1795	 0.250646305792095 
1796	 0.250614265785918 
1797	 0.25059818925774 
1798	 0.250568322332604 
1799	 0.250532442822436 
1800	 0.250484145734496 
1801	 0.246150337146985 
1802	 0.246306686301231 
1803	 0.246513244950599 
1804	 0.246744669963774 
1805	 0.246998330468867 
1806	 0.247252900872527 
1807	 0.24747496449651 
1808	 0.247667785638407 
1809	 0.247846519376469 
1810	 0.247998881255946 
1811	 0.24811901940736 
1812	 0.248231744600709 
1813	 0.248314674024097 
1814	 0.248332980428934 
1815	 0.248354067789934 
1816	 0.248350676522588 
1817	 0.248344148763918 
1818	 0.248331924177976 
1819	 0.248329193608464 
1820	 0.248310259839714 
1821	 0.248299920154435 
1822	 0.248322937403288 
1823	 0.248340014344006 
1824	 0.248362782111785 
1825	 0.24838058248327 
1826	 0.248392560504027 
1827	 0.248364199819501 
1828	 0.248318323327861 
1829	 0.248232047904952 
1830	 0.248175752741811 
1831	 0.24811023987092 
1832	 0.248050556757111 
1833	 0.248001681658732 
1834	 0.247944818395836 
1835	 0.247874102318266 
1836	 0.247785910325752 
1837	 0.247705307510253 
1838	 0.247622455911866 
1839	 0.247542496404663 
1840	 0.247452036393201 
1841	 0.247393706116346 
1842	 0.247329900712508 
1843	 0.24725352073709 
1844	 0.247198355099559 
1845	 0.247129503484571 
1846	 0.247047935962682 
1847	 0.246993935902705 
1848	 0.2469448050919 
1849	 0.246884137176189 
1850	 0.24684034204386 
1851	 0.24681874003679 
1852	 0.246796224456367 
1853	 0.246759795306914 
1854	 0.246728393338047 
1855	 0.246687395248456 
1856	 0.246608254607399 
1857	 0.246510914441641 
1858	 0.246422218066342 
1859	 0.246327974943523 
1860	 0.246219976559099 
1861	 0.246114450922093 
1862	 0.245998436266645 
1863	 0.24584158820577 
1864	 0.245653875185462 
1865	 0.245456004987165 
1866	 0.245245486471347 
1867	 0.245027474040854 
1868	 0.244802287699435 
1869	 0.244560272685797 
1870	 0.244284027880755 
1871	 0.243985483831809 
1872	 0.243663868345878 
1873	 0.243328441362365 
1874	 0.24294972019663 
1875	 0.242548019646295 
1876	 0.242118072604676 
1877	 0.241625750597935 
1878	 0.241091596436163 
1879	 0.240516083258807 
1880	 0.239874702034421 
1881	 0.23918266607857 
1882	 0.23842157664477 
1883	 0.23760193523598 
1884	 0.236701704686157 
1885	 0.235750038255617 
1886	 0.234730119273268 
1887	 0.233650207889294 
1888	 0.232522444279263 
1889	 0.231311365646724 
1890	 0.230060220094517 
1891	 0.228793419891641 
1892	 0.227473472704829 
1893	 0.226132003070602 
1894	 0.224769099400267 
1895	 0.22339621864469 
1896	 0.221950430680411 
1897	 0.220514530458116 
1898	 0.219064623248608 
1899	 0.217613407887366 
1900	 0.216195038420813 
1901	 0.214761020852721 
1902	 0.213412264425505 
1903	 0.212135386347072 
1904	 0.210875396211182 
1905	 0.209643236595185 
1906	 0.208498931109808 
1907	 0.20737217663662 
1908	 0.206261765059341 
1909	 0.205241909937915 
1910	 0.204294221730393 
1911	 0.203402072397498 
1912	 0.202540498676799 
1913	 0.201718014277007 
1914	 0.200923810951316 
1915	 0.200186656778772 
1916	 0.199481816327706 
1917	 0.198852483559902 
1918	 0.198283703069379 
1919	 0.197740415816367 
1920	 0.197224852951289 
1921	 0.196741541653386 
1922	 0.196281696070294 
1923	 0.195853965439626 
1924	 0.195487270498594 
1925	 0.195179394357595 
1926	 0.194904820592731 
1927	 0.194676715633106 
1928	 0.194491555496655 
1929	 0.194328543484975 
1930	 0.194188339411864 
1931	 0.194091792801832 
1932	 0.194017710535201 
1933	 0.193967881074674 
1934	 0.193960378778862 
1935	 0.193952633273371 
1936	 0.193939425300578 
1937	 0.193976130294869 
1938	 0.194044487016526 
1939	 0.194123847475215 
1940	 0.194236394149134 
1941	 0.194368350516424 
1942	 0.194496704393889 
1943	 0.194651331193615 
1944	 0.194797096684495 
1945	 0.194980730184629 
1946	 0.195180216527459 
1947	 0.195401893288644 
1948	 0.195618907494959 
1949	 0.195861421989862 
1950	 0.196091338077465 
1951	 0.196302063199293 
1952	 0.196545468639251 
1953	 0.19679104219236 
1954	 0.197075791647529 
1955	 0.197379338618619 
1956	 0.19768147281288 
1957	 0.197974472881747 
1958	 0.198258469815458 
1959	 0.198559673124008 
1960	 0.198856633925208 
1961	 0.199170832091175 
1962	 0.199512305583547 
1963	 0.199849422174217 
1964	 0.200188024719278 
1965	 0.200521251843401 
1966	 0.20089079625065 
1967	 0.201274895920022 
1968	 0.201642932569049 
1969	 0.202028120127861 
1970	 0.202394836993643 
1971	 0.202731974635112 
1972	 0.203090554044426 
1973	 0.203473058121566 
1974	 0.20382970936888 
1975	 0.204171961600046 
1976	 0.204518602964925 
1977	 0.204883801079209 
1978	 0.205230912903371 
1979	 0.205584120765421 
1980	 0.205971009469689 
1981	 0.206335351842084 
1982	 0.206675127208836 
1983	 0.20703833518887 
1984	 0.207408474659049 
1985	 0.207784072406305 
1986	 0.208174009417638 
1987	 0.208557447304717 
1988	 0.208947768499815 
1989	 0.209336200623414 
1990	 0.209702856020038 
1991	 0.210081837418902 
1992	 0.210457721105594 
1993	 0.210841283396966 
1994	 0.211198488590385 
1995	 0.211545684100329 
1996	 0.211887166893568 
1997	 0.212191998125826 
1998	 0.212530989104415 
1999	 0.212887947528607 
2000	 0.213242834199071 
2001	 0.213617141717965 
2002	 0.213979158873807 
2003	 0.214325423537624 
2004	 0.214671574595248 
2005	 0.21501415743526 
2006	 0.215352223618081 
2007	 0.21568284237972 
2008	 0.215999018124797 
2009	 0.216330257485647 
2010	 0.216661829622032 
2011	 0.21699193146946 
2012	 0.217341121531655 
2013	 0.217677066629899 
2014	 0.218009400425246 
2015	 0.218321863292269 
2016	 0.218631852276961 
2017	 0.218936077891725 
2018	 0.219251147217084 
2019	 0.219558710534357 
2020	 0.219884999336144 
2021	 0.220248537658563 
2022	 0.220565931819682 
2023	 0.220863341886953 
2024	 0.221166575305774 
2025	 0.221447229672351 
2026	 0.221734797747429 
2027	 0.222027272466369 
2028	 0.222328867525529 
2029	 0.222621899304574 
2030	 0.222900720058009 
2031	 0.223194303557973 
2032	 0.223503537161932 
2033	 0.223797099671169 
2034	 0.224097935175926 
2035	 0.224374730082895 
2036	 0.224637741306265 
2037	 0.224890292877298 
2038	 0.225115347884502 
2039	 0.225351989904039 
2040	 0.225602357103009 
2041	 0.225822158250942 
2042	 0.226027131581235 
2043	 0.226243293641381 
2044	 0.226449263345555 
2045	 0.226617601243923 
2046	 0.226839884917169 
2047	 0.22710394276857 
2048	 0.227332839005117 
2049	 0.227581882676172 
2050	 0.227801944139416 
2051	 0.227984937601945 
2052	 0.228175822102997 
2053	 0.22835894588484 
2054	 0.228544306488166 
2055	 0.228721811769938 
2056	 0.228908470577336 
2057	 0.229092885676113 
2058	 0.22927974795702 
2059	 0.229466320542947 
2060	 0.229661746861851 
2061	 0.229836696470208 
2062	 0.230002434180516 
2063	 0.230168251959503 
2064	 0.230313402961442 
2065	 0.230474208153376 
2066	 0.23064737240915 
2067	 0.230814909524871 
2068	 0.230989567114603 
2069	 0.231154137447743 
2070	 0.231311006583977 
2071	 0.231450548985984 
2072	 0.231619985719303 
2073	 0.231790797479305 
2074	 0.231973328175536 
2075	 0.232192148914175 
2076	 0.232377500574262 
2077	 0.232548388496782 
2078	 0.232721732341326 
2079	 0.232887224081504 
2080	 0.23305044772865 
2081	 0.233209642316767 
2082	 0.233373317721893 
2083	 0.233526436473478 
2084	 0.233693895850886 
2085	 0.233860366793591 
2086	 0.23404040912092 
2087	 0.234198792049729 
2088	 0.234353722077956 
2089	 0.234495419264939 
2090	 0.234616199201734 
2091	 0.234748019918464 
2092	 0.234880096743965 
2093	 0.235007597454647 
2094	 0.235147388182942 
2095	 0.235262813587341 
2096	 0.235338774585714 
2097	 0.235447809259985 
2098	 0.235563905436967 
2099	 0.235664222981415 
2100	 0.235815035122932 
2101	 0.236008984956626 
2102	 0.236187315709053 
2103	 0.236389400573436 
2104	 0.236571991634168 
2105	 0.236748176376916 
2106	 0.236926560744687 
2107	 0.237104343080808 
2108	 0.237278055755318 
2109	 0.237453339728134 
2110	 0.237621066957511 
2111	 0.237780962275539 
2112	 0.237939339976926 
2113	 0.238093305784605 
2114	 0.23824627461938 
2115	 0.238397533916853 
2116	 0.238551822838348 
2117	 0.238686657727041 
2118	 0.238805761134357 
2119	 0.238941500510472 
2120	 0.239062418534112 
2121	 0.239207908967043 
2122	 0.239391291184345 
2123	 0.239538629064084 
2124	 0.239683526847774 
2125	 0.239813313598495 
2126	 0.239918380941515 
2127	 0.240025908035003 
2128	 0.2401371568849 
2129	 0.240229312687184 
2130	 0.240301357698883 
2131	 0.240376066509593 
2132	 0.240446633975888 
2133	 0.240507313749404 
2134	 0.240565024876887 
2135	 0.240636684992735 
2136	 0.240668196076315 
2137	 0.240680060041621 
2138	 0.240673896651268 
2139	 0.240626676731889 
2140	 0.240600039225369 
2141	 0.240569468562927 
2142	 0.240533816494123 
2143	 0.240522600788023 
2144	 0.24047154178159 
2145	 0.240380271897118 
2146	 0.240300899784816 
2147	 0.240201301988968 
2148	 0.240105390061588 
2149	 0.240017438794354 
2150	 0.239944477874705 
2151	 0.239858708942205 
2152	 0.239778436861954 
2153	 0.239675028969848 
2154	 0.239574576366687 
2155	 0.239434571721478 
2156	 0.239262837243266 
2157	 0.239085744714995 
2158	 0.238876844319401 
2159	 0.238675472508586 
2160	 0.238475843945849 
2161	 0.238258803043966 
2162	 0.238005146436429 
2163	 0.237787445804754 
2164	 0.237585406115145 
2165	 0.237375718957099 
2166	 0.237167270248245 
2167	 0.236983677035244 
2168	 0.23677498301434 
2169	 0.236532871397884 
2170	 0.236329312841894 
2171	 0.23614364001229 
2172	 0.235955032240435 
2173	 0.235788645457987 
2174	 0.235597595363795 
2175	 0.235396623509237 
2176	 0.235194532542212 
2177	 0.234995439684161 
2178	 0.234770237269878 
2179	 0.234523781596246 
2180	 0.23428333239329 
2181	 0.234020384232542 
2182	 0.233763865294957 
2183	 0.233508504649455 
2184	 0.23326615259743 
2185	 0.233025126444965 
2186	 0.232766958996753 
2187	 0.23255835897852 
2188	 0.232378783352566 
2189	 0.232199457481484 
2190	 0.232062352731296 
2191	 0.231888198602021 
2192	 0.231690739539197 
2193	 0.231518119294751 
2194	 0.231341429507974 
2195	 0.231176515868777 
2196	 0.231035513426149 
2197	 0.230887383924474 
2198	 0.230722347649302 
2199	 0.230585826999725 
2200	 0.23047414204121 
2201	 0.2303581640065 
2202	 0.230261050318079 
2203	 0.230157788250091 
2204	 0.230056473446971 
2205	 0.229935442589017 
2206	 0.229861436414339 
2207	 0.229805259384355 
2208	 0.229765645870859 
2209	 0.229773090093204 
2210	 0.229742404583376 
2211	 0.229701883264315 
2212	 0.229674606541239 
2213	 0.229624007106847 
2214	 0.229613194006096 
2215	 0.229644183791798 
2216	 0.229654019453858 
2217	 0.229687190985863 
2218	 0.229690767347776 
2219	 0.229646187893018 
2220	 0.229644831456796 
2221	 0.22966382098335 
2222	 0.229671083444283 
2223	 0.229686000275596 
2224	 0.229713933734974 
2225	 0.229712981534936 
2226	 0.229682713044147 
2227	 0.229657158661857 
2228	 0.229627874362972 
2229	 0.22959778126128 
2230	 0.229552115049836 
2231	 0.229524587417761 
2232	 0.229518296125394 
2233	 0.229483041593599 
2234	 0.229446766911379 
2235	 0.229390019990999 
2236	 0.229313342759005 
2237	 0.229224791555916 
2238	 0.229104871279853 
2239	 0.229007703500729 
2240	 0.228913262457758 
2241	 0.228815327992316 
2242	 0.228756101206778 
2243	 0.228645161332649 
2244	 0.228534708685109 
2245	 0.228349381843362 
2246	 0.228093576175664 
2247	 0.227852033708746 
2248	 0.227607852223613 
2249	 0.227335277046738 
2250	 0.227056352824101 
2251	 0.226783048796878 
2252	 0.226502150670663 
2253	 0.226164481235371 
2254	 0.225908688746141 
2255	 0.225689348028145 
2256	 0.225493956386142 
2257	 0.225331214699023 
2258	 0.225194576974033 
2259	 0.225088734781388 
2260	 0.225000748848071 
2261	 0.224949257424873 
2262	 0.224903908784094 
2263	 0.224885081043019 
2264	 0.224863536331875 
2265	 0.224843759907801 
2266	 0.224843553156855 
2267	 0.224826799707145 
2268	 0.224864935987329 
2269	 0.224955083612686 
2270	 0.225051353946158 
2271	 0.225162450318434 
2272	 0.225289926359385 
2273	 0.225393775247554 
2274	 0.22551089973207 
2275	 0.225644685113626 
2276	 0.225789463420696 
2277	 0.225962377065746 
2278	 0.226162390366325 
2279	 0.226348124944377 
2280	 0.226556245289998 
2281	 0.22675953996489 
2282	 0.226946127349645 
2283	 0.227156586316454 
2284	 0.227408014517219 
2285	 0.227602957834023 
2286	 0.227823961114197 
2287	 0.227953117244114 
2288	 0.227962575372229 
2289	 0.228054801061486 
2290	 0.22813739555706 
2291	 0.228209114373905 
2292	 0.228324553956122 
2293	 0.228419460441541 
2294	 0.228482961131155 
2295	 0.228533083262078 
2296	 0.228571842630422 
2297	 0.228636045359076 
2298	 0.228662826420289 
2299	 0.228677501341845 
2300	 0.228755806582524 
2301	 0.228833703720385 
2302	 0.228894911590762 
2303	 0.228991580689109 
2304	 0.229090936280073 
2305	 0.22916677656287 
2306	 0.229210924573021 
2307	 0.229242675846164 
2308	 0.229257491654631 
2309	 0.229203220206105 
2310	 0.229219239306492 
2311	 0.22928670157441 
2312	 0.229300018470399 
2313	 0.229317160227957 
2314	 0.229319542861711 
2315	 0.22926606171494 
2316	 0.229249880956943 
2317	 0.229274258635973 
2318	 0.229249752167784 
2319	 0.229200359898196 
2320	 0.229167241950311 
2321	 0.229127389186424 
2322	 0.229064833063898 
2323	 0.228991942149845 
2324	 0.228937969407797 
2325	 0.228862416387581 
2326	 0.228795211068887 
2327	 0.228738695506346 
2328	 0.228714528414174 
2329	 0.228674059508402 
2330	 0.228666403847056 
2331	 0.228715613621498 
2332	 0.228716347075373 
2333	 0.228674579452094 
2334	 0.228658136819597 
2335	 0.228606098116566 
2336	 0.228532385694801 
2337	 0.228500337404926 
2338	 0.228418085492843 
2339	 0.228375684166501 
2340	 0.228298913139504 
2341	 0.228121022806649 
2342	 0.227982029031579 
2343	 0.227777336141539 
2344	 0.2275842127001 
2345	 0.227452750743968 
2346	 0.227389397196533 
2347	 0.227271341533134 
2348	 0.227199502400329 
2349	 0.227055877080108 
2350	 0.226837277571853 
2351	 0.226658557451829 
2352	 0.226474779287502 
2353	 0.22626254178028 
2354	 0.226032822429153 
2355	 0.225845515579343 
2356	 0.225664738545917 
2357	 0.225463976518238 
2358	 0.225272477380575 
2359	 0.225097549653057 
2360	 0.224901352473653 
2361	 0.224726926331145 
2362	 0.22460967803118 
2363	 0.224466231472337 
2364	 0.224316477256539 
2365	 0.224125642028289 
2366	 0.223906151688665 
2367	 0.223701925826805 
2368	 0.223481112744215 
2369	 0.22324519681995 
2370	 0.222996331955578 
2371	 0.222793717029665 
2372	 0.222545923605567 
2373	 0.222268958836429 
2374	 0.222059097454418 
2375	 0.221785276955149 
2376	 0.221484570841052 
2377	 0.22121925992633 
2378	 0.220951935616938 
2379	 0.220684909824589 
2380	 0.220399742494223 
2381	 0.220157391789777 
2382	 0.219933440175813 
2383	 0.219655851069066 
2384	 0.219364791419875 
2385	 0.219041071598141 
2386	 0.218631093674541 
2387	 0.218218899629725 
2388	 0.217870856452868 
2389	 0.217542994098968 
2390	 0.217192286514077 
2391	 0.216832183865013 
2392	 0.216479896363169 
2393	 0.216165483425189 
2394	 0.215942661986353 
2395	 0.215699338891889 
2396	 0.215417679026254 
2397	 0.215196725793955 
2398	 0.214878092722861 
2399	 0.214552261986383 
2400	 0.214369174577946 
2401	 0.214051240337217 
2402	 0.213694739756741 
2403	 0.213456144185119 
2404	 0.213126466038714 
2405	 0.212748847846048 
2406	 0.212402747311941 
2407	 0.212099408898428 
2408	 0.211820142373942 
2409	 0.211538094338092 
2410	 0.211294105889087 
2411	 0.211033805971871 
2412	 0.210775395724416 
2413	 0.210555971614713 
2414	 0.210351628062692 
2415	 0.210132809959306 
2416	 0.20987005476331 
2417	 0.209528054011544 
2418	 0.20925659182046 
2419	 0.209037956892299 
2420	 0.208736617907601 
2421	 0.208419180851277 
2422	 0.208111678475418 
2423	 0.207716197750556 
2424	 0.20738109186349 
2425	 0.207117995226001 
2426	 0.206813411473659 
2427	 0.20650085641814 
2428	 0.206181121544421 
2429	 0.205865832384522 
2430	 0.20553323400769 
2431	 0.205186410868888 
2432	 0.204787602699729 
2433	 0.204313249810236 
2434	 0.203946631432837 
2435	 0.203608788087671 
2436	 0.20330164600019 
2437	 0.203083476902525 
2438	 0.202795379294943 
2439	 0.202487247684104 
2440	 0.202107932963894 
2441	 0.201681518182488 
2442	 0.201335458145688 
2443	 0.200946385860011 
2444	 0.200618893870895 
2445	 0.200379890632019 
2446	 0.200086908657221 
2447	 0.199799459544861 
2448	 0.199496653197546 
2449	 0.199205227331382 
2450	 0.198868274937104 
2451	 0.198506469145446 
2452	 0.198063382069059 
2453	 0.19753041673292 
2454	 0.197066426519548 
2455	 0.196513330313536 
2456	 0.196145021058499 
2457	 0.195954625400612 
2458	 0.195629002448585 
2459	 0.195326080911527 
2460	 0.194989844389528 
2461	 0.194547133705237 
2462	 0.194257011412721 
2463	 0.194113623420845 
2464	 0.193832437895183 
2465	 0.193517627270803 
2466	 0.193238279255897 
2467	 0.192938751864471 
2468	 0.192538218733711 
2469	 0.192051154016285 
2470	 0.191742775168325 
2471	 0.191341166374851 
2472	 0.191087791015992 
2473	 0.191143241673284 
2474	 0.191059445970742 
2475	 0.190919875884138 
2476	 0.190954354488618 
2477	 0.190890231945125 
2478	 0.19054053715699 
2479	 0.190220414425598 
2480	 0.189896067722516 
2481	 0.189455452180914 
2482	 0.189121512499036 
2483	 0.188852353221131 
2484	 0.188496248976808 
2485	 0.188020232101822 
2486	 0.187648766374245 
2487	 0.18736167303526 
2488	 0.186966185679373 
2489	 0.186711430511803 
2490	 0.186499232089596 
2491	 0.186044305049717 
2492	 0.185732056752454 
2493	 0.18554380103035 
2494	 0.18523573880529 
2495	 0.185131670154078 
2496	 0.185168896261165 
2497	 0.184929160344412 
2498	 0.184562623587939 
2499	 0.184407682780969 
2500	 0.18417712610053 
