Wavelength	mm2400008.asd
350	 4.53388801580861E-02 
351	 0.049448005120573 
352	 4.94477119175576E-02 
353	 4.33724591506755E-02 
354	 3.76965565172957E-02 
355	 4.07112350630764E-02 
356	 0.044501241297984 
357	 4.18014008078588E-02 
358	 4.49765822609878E-02 
359	 4.42132191525096E-02 
360	 3.95380472190048E-02 
361	 3.76387391261923E-02 
362	 4.06356408274781E-02 
363	 4.26336096852289E-02 
364	 4.14627886917488E-02 
365	 4.21505241065118E-02 
366	 4.24994619157428E-02 
367	 4.37052448705723E-02 
368	 0.04642859948915 
369	 4.61967261687479E-02 
370	 0.044226582684504 
371	 4.31443321292273E-02 
372	 4.57303725015538E-02 
373	 4.70660791262152E-02 
374	 4.60519629641701E-02 
375	 4.40959836618888E-02 
376	 4.59977633927924E-02 
377	 4.61882973953231E-02 
378	 4.60981070653235E-02 
379	 4.77093701509522E-02 
380	 4.58482820868642E-02 
381	 4.55755034749072E-02 
382	 4.78205703043851E-02 
383	 5.01304378399509E-02 
384	 5.26616843452426E-02 
385	 5.29947854678381E-02 
386	 5.08143483134671E-02 
387	 5.00116207813538E-02 
388	 5.20502147207178E-02 
389	 5.42110771448407E-02 
390	 5.34995091557629E-02 
391	 5.28323351672066E-02 
392	 5.34231560145624E-02 
393	 5.44787190604337E-02 
394	 5.39001385465686E-02 
395	 5.59415551845986E-02 
396	 5.82786047950021E-02 
397	 5.92115480805395E-02 
398	 6.08815794388808E-02 
399	 6.10006479017883E-02 
400	 6.09710216430337E-02 
401	 6.26628173484802E-02 
402	 6.24290929020763E-02 
403	 6.30940512459389E-02 
404	 6.49262964789684E-02 
405	 6.53657329108444E-02 
406	 6.50012926437682E-02 
407	 6.59542023082949E-02 
408	 6.84214357473773E-02 
409	 0.066790285874248 
410	 6.63367819395711E-02 
411	 6.73695733222816E-02 
412	 6.79789051355307E-02 
413	 6.89063863394696E-02 
414	 6.85222552711713E-02 
415	 6.73817546387105E-02 
416	 6.90026327743173E-02 
417	 0.069217280945762 
418	 6.85585345939421E-02 
419	 6.82421994735592E-02 
420	 6.74549617115813E-02 
421	 6.76749825573709E-02 
422	 6.87261585264438E-02 
423	 6.93443035356268E-02 
424	 6.90393128766977E-02 
425	 6.85334054397167E-02 
426	 6.81831298864066E-02 
427	 6.73373286797634E-02 
428	 6.67874571635434E-02 
429	 6.64898709435839E-02 
430	 6.61893251196384E-02 
431	 6.61213472568427E-02 
432	 6.56852979036754E-02 
433	 6.49791825082083E-02 
434	 6.47717049736634E-02 
435	 6.52272536779348E-02 
436	 0.06564267200655 
437	 6.55343338438006E-02 
438	 6.53492694353478E-02 
439	 6.56838627621577E-02 
440	 6.63244414255111E-02 
441	 6.66788296208316E-02 
442	 6.68464781158905E-02 
443	 6.70946688399928E-02 
444	 6.75485767276518E-02 
445	 0.068103583714661 
446	 6.86655828726683E-02 
447	 6.92205895037175E-02 
448	 6.97316031553477E-02 
449	 6.99014010606354E-02 
450	 7.02589850002186E-02 
451	 7.08902627444389E-02 
452	 7.14743384524745E-02 
453	 7.17096607934203E-02 
454	 7.19086529773525E-02 
455	 7.23210000700276E-02 
456	 7.27821416654209E-02 
457	 7.31432264162533E-02 
458	 0.073323216065625 
459	 7.33486848220531E-02 
460	 7.37010519651776E-02 
461	 7.38899517854832E-02 
462	 7.38585778303068E-02 
463	 7.42777971922922E-02 
464	 7.44839016465205E-02 
465	 7.46179505470784E-02 
466	 7.49231339101451E-02 
467	 7.51196684005427E-02 
468	 0.075341472652317 
469	 7.54763103539267E-02 
470	 7.52636413527289E-02 
471	 7.54764221968326E-02 
472	 7.56501003981081E-02 
473	 7.54968947256406E-02 
474	 7.56719463604483E-02 
475	 7.56377064775528E-02 
476	 7.55625564878053E-02 
477	 0.075815512650816 
478	 7.58318467095546E-02 
479	 7.59344121531084E-02 
480	 0.076213799136968 
481	 7.63418661818417E-02 
482	 7.63674080093682E-02 
483	 7.64166775170709E-02 
484	 7.65501231475375E-02 
485	 7.64343705341793E-02 
486	 0.076391565228626 
487	 7.64993005824422E-02 
488	 7.66161341534982E-02 
489	 7.67031636964781E-02 
490	 0.076831971794247 
491	 0.077018317387648 
492	 7.71155148836748E-02 
493	 7.69213090110357E-02 
494	 7.67451800470038E-02 
495	 7.70269828031067E-02 
496	 7.71464979579719E-02 
497	 7.71856919681215E-02 
498	 7.72211992557849E-02 
499	 7.72121265894406E-02 
500	 7.72616601939443E-02 
501	 7.73138968165335E-02 
502	 7.73177406333875E-02 
503	 7.74904532413014E-02 
504	 7.74978675534718E-02 
505	 7.73740640522138E-02 
506	 7.74832098954164E-02 
507	 0.077559119834824 
508	 7.76518664801504E-02 
509	 7.77658746482846E-02 
510	 7.76065487084861E-02 
511	 7.74699825124256E-02 
512	 7.74899811510418E-02 
513	 7.76672512598402E-02 
514	 7.76722752543972E-02 
515	 7.76906026572856E-02 
516	 7.78340682172608E-02 
517	 7.80073560110373E-02 
518	 7.79511824617946E-02 
519	 7.78643320934552E-02 
520	 7.80087846524112E-02 
521	 7.80920397117888E-02 
522	 7.81641341018199E-02 
523	 7.82215363891209E-02 
524	 7.81887634554971E-02 
525	 7.81926270954754E-02 
526	 7.82616564062284E-02 
527	 7.83611987332446E-02 
528	 7.83361046366193E-02 
529	 7.83276990731971E-02 
530	 7.84031623335495E-02 
531	 7.85600758932987E-02 
532	 7.86133035031849E-02 
533	 0.07864223458616 
534	 7.87023420382175E-02 
535	 7.87075980547642E-02 
536	 0.078757487131532 
537	 7.88374669998759E-02 
538	 7.88893849392724E-02 
539	 7.88992473408489E-02 
540	 7.88773937929176E-02 
541	 7.88741433530383E-02 
542	 7.89877819990546E-02 
543	 0.079161316618142 
544	 7.93163038163955E-02 
545	 7.94074632332475E-02 
546	 7.95572289247816E-02 
547	 7.96156538889232E-02 
548	 7.96350666230321E-02 
549	 7.98222455480198E-02 
550	 7.98020302479934E-02 
551	 7.98162501445072E-02 
552	 8.00408473195203E-02 
553	 8.01968877726319E-02 
554	 8.02852905264732E-02 
555	 8.03857412979507E-02 
556	 0.080601274752189 
557	 8.07737076683937E-02 
558	 8.09182522932547E-02 
559	 8.10820939815342E-02 
560	 8.13369105882329E-02 
561	 8.15769153189843E-02 
562	 8.17776580778616E-02 
563	 8.19609381583068E-02 
564	 8.22285065404104E-02 
565	 8.24572986921882E-02 
566	 8.26572090752777E-02 
567	 8.29969383443543E-02 
568	 8.33822758121952E-02 
569	 8.37757093905477E-02 
570	 0.084150331998672 
571	 0.084460719196174 
572	 8.48459100195956E-02 
573	 8.53217965020357E-02 
574	 8.58090293213313E-02 
575	 0.086245760481759 
576	 8.66682450932318E-02 
577	 8.71103121414202E-02 
578	 8.75528607498242E-02 
579	 8.80652780306988E-02 
580	 8.86364530582054E-02 
581	 8.92189650370513E-02 
582	 8.97944810851049E-02 
583	 9.03583342872848E-02 
584	 9.09281172429934E-02 
585	 0.091550674906768 
586	 9.22702157112677E-02 
587	 9.29622901600647E-02 
588	 9.35271172607635E-02 
589	 9.42035501203356E-02 
590	 9.48735836458463E-02 
591	 9.55414931371655E-02 
592	 9.63242337895171E-02 
593	 9.70266726360277E-02 
594	 9.76990270223762E-02 
595	 9.83990550737085E-02 
596	 9.90731773963093E-02 
597	 9.97205459342567E-02 
598	 0.100340863832297 
599	 0.100946331039835 
600	 0.10162001654437 
601	 0.102300859143146 
602	 0.102938804217895 
603	 0.103538624011036 
604	 0.104090195340518 
605	 0.104646473893004 
606	 0.105253543840332 
607	 0.105783124805282 
608	 0.10634481053123 
609	 0.106932310482392 
610	 0.107396904657479 
611	 0.107873954483019 
612	 0.108356001602419 
613	 0.10880424877233 
614	 0.109205254195604 
615	 0.109545841104266 
616	 0.109848763467112 
617	 0.110161882815377 
618	 0.110540202834217 
619	 0.110857480174494 
620	 0.111066811154621 
621	 0.111349983264856 
622	 0.111600393650765 
623	 0.111828008176041 
624	 0.112080270843018 
625	 0.112341802845218 
626	 0.112577389155294 
627	 0.112783624592649 
628	 0.11299962395816 
629	 0.113229468076715 
630	 0.113437626615826 
631	 0.113598237746534 
632	 0.113760228756007 
633	 0.113961843562363 
634	 0.114182192000136 
635	 0.114358438812938 
636	 0.114573996655255 
637	 0.114787460673046 
638	 0.11495045351089 
639	 0.115029010954149 
640	 0.115257970986925 
641	 0.115526583599429 
642	 0.115613430408981 
643	 0.115834717189253 
644	 0.116058589959461 
645	 0.116225493595397 
646	 0.116441058628456 
647	 0.116674393588324 
648	 0.116878637782854 
649	 0.117035256716397 
650	 0.117266596268234 
651	 0.117513359056456 
652	 0.117748940669628 
653	 0.117980888211117 
654	 0.11821201133612 
655	 0.118447504091439 
656	 0.118690440161333 
657	 0.118935939548457 
658	 0.119192929985522 
659	 0.119462732003822 
660	 0.119742266625925 
661	 0.12003046034731 
662	 0.120317631721125 
663	 0.120603442132922 
664	 0.120901721471654 
665	 0.121194301705392 
666	 0.121491970045369 
667	 0.121809519343379 
668	 0.122143256482571 
669	 0.122478573139037 
670	 0.122819949015332 
671	 0.123184953822424 
672	 0.123538986250045 
673	 0.123901026331241 
674	 0.124287023184738 
675	 0.12468421483815 
676	 0.12508756497676 
677	 0.125491774662904 
678	 0.125896183930785 
679	 0.126322747474684 
680	 0.126769206841853 
681	 0.127215816178597 
682	 0.127623285582746 
683	 0.128084543279167 
684	 0.128559538465304 
685	 0.129005419296314 
686	 0.129507785178775 
687	 0.13000819171874 
688	 0.130492154502586 
689	 0.130978323338421 
690	 0.131470553125613 
691	 0.131984609530953 
692	 0.132521727883793 
693	 0.13305699510583 
694	 0.133557784958458 
695	 0.134077065559121 
696	 0.134672052825584 
697	 0.135233948989643 
698	 0.135770261116414 
699	 0.136295244240114 
700	 0.13682276384883 
701	 0.137402948583631 
702	 0.138005089262766 
703	 0.138594245299938 
704	 0.139181715928087 
705	 0.13973826703022 
706	 0.140288526099016 
707	 0.140876489286854 
708	 0.141454307737603 
709	 0.142047202191759 
710	 0.142651557005354 
711	 0.143213259045702 
712	 0.143784775771639 
713	 0.144338262398386 
714	 0.144853876106177 
715	 0.145424635801246 
716	 0.145996495720943 
717	 0.146530398900132 
718	 0.147013372431996 
719	 0.147575007771565 
720	 0.148103323238262 
721	 0.148542265016293 
722	 0.149012775627428 
723	 0.149481719706641 
724	 0.149943412007846 
725	 0.15039714899496 
726	 0.150841972676562 
727	 0.151218584323932 
728	 0.151546114413672 
729	 0.151914425685554 
730	 0.152300792668252 
731	 0.152642769309792 
732	 0.152920123522103 
733	 0.153230730745049 
734	 0.153532147049555 
735	 0.153775506875889 
736	 0.15393532149775 
737	 0.154151600884391 
738	 0.154346568991042 
739	 0.154492706676104 
740	 0.154633743060964 
741	 0.154724255222634 
742	 0.154775146404291 
743	 0.154808834015857 
744	 0.154844852527801 
745	 0.154866321913519 
746	 0.154860460725248 
747	 0.154819794617335 
748	 0.15476438106166 
749	 0.154639012935259 
750	 0.1544786336196 
751	 0.154428368864587 
752	 0.154319639191938 
753	 0.154154908515121 
754	 0.153970307910658 
755	 0.15377540012741 
756	 0.153567355721531 
757	 0.153320300678054 
758	 0.153017343333186 
759	 0.152791857304099 
760	 0.152555426395001 
761	 0.152257852079729 
762	 0.151924896966569 
763	 0.151591327289532 
764	 0.151284547882606 
765	 0.150993950379053 
766	 0.150603848808261 
767	 0.150246103877796 
768	 0.149911677115594 
769	 0.149526048787043 
770	 0.149106602280871 
771	 0.148727554049535 
772	 0.148377176113768 
773	 0.147939898059942 
774	 0.147511926711967 
775	 0.14711491629499 
776	 0.146738436733381 
777	 0.146330355489349 
778	 0.145951258410806 
779	 0.145567643649171 
780	 0.145120266412249 
781	 0.144679340155273 
782	 0.144254527996464 
783	 0.143826320044966 
784	 0.143357285934278 
785	 0.142984116853735 
786	 0.142622852531188 
787	 0.142205505977833 
788	 0.141807250746771 
789	 0.141425994993179 
790	 0.141016108812475 
791	 0.140547248555319 
792	 0.140161171811808 
793	 0.139775961831995 
794	 0.139382846229124 
795	 0.139034430364062 
796	 0.138576276142796 
797	 0.138159671049938 
798	 0.137856866242651 
799	 0.137512210440023 
800	 0.137137354210916 
801	 0.136759183453267 
802	 0.136405055696184 
803	 0.136066903737639 
804	 0.135735840003057 
805	 0.135392135072289 
806	 0.135022034407622 
807	 0.134708995318377 
808	 0.134389119457884 
809	 0.134052523984754 
810	 0.133776828092429 
811	 0.133462086406929 
812	 0.133121230025279 
813	 0.132799943584138 
814	 0.132565085258169 
815	 0.132294098649606 
816	 0.131981705845267 
817	 0.131678033933516 
818	 0.131422383725236 
819	 0.131193489875055 
820	 0.130960307955015 
821	 0.130693803979091 
822	 0.130438674306802 
823	 0.130179725000438 
824	 0.129921245928694 
825	 0.129711560266928 
826	 0.129554430450431 
827	 0.129365678358323 
828	 0.129099397797952 
829	 0.128908228907369 
830	 0.12870132593872 
831	 0.128483983415886 
832	 0.12830842422626 
833	 0.128215630017963 
834	 0.128043386049817 
835	 0.127801016479495 
836	 0.127659759225989 
837	 0.127519209239828 
838	 0.127367359658988 
839	 0.127211901169113 
840	 0.127071371420858 
841	 0.126911279471864 
842	 0.126778200708515 
843	 0.126705466492787 
844	 0.126621279507825 
845	 0.126506609937212 
846	 0.126373660153951 
847	 0.126258482698406 
848	 0.126222000057364 
849	 0.126172181129571 
850	 0.126076886859565 
851	 0.125970062687811 
852	 0.125909092675287 
853	 0.125854991612347 
854	 0.125791531865048 
855	 0.125756517733552 
856	 0.125737524732351 
857	 0.125696168196919 
858	 0.125622776369567 
859	 0.125593596668161 
860	 0.125575991904872 
861	 0.125573073914675 
862	 0.125586383829037 
863	 0.125560857799668 
864	 0.125559622380524 
865	 0.125582601552646 
866	 0.125592462180835 
867	 0.125606549632822 
868	 0.125629284855699 
869	 0.125662272292265 
870	 0.125706948594361 
871	 0.125804764204014 
872	 0.125856212457869 
873	 0.125845351628905 
874	 0.12592197050368 
875	 0.125985756361954 
876	 0.126045413096677 
877	 0.126127007357846 
878	 0.126227716961766 
879	 0.126399015738925 
880	 0.12652995695877 
881	 0.126537004319623 
882	 0.126690158931076 
883	 0.126814896211598 
884	 0.126909633887586 
885	 0.127063025811595 
886	 0.127247191145372 
887	 0.127396531811536 
888	 0.127500635283384 
889	 0.127603480409793 
890	 0.127749012788177 
891	 0.127913866162444 
892	 0.12809364521829 
893	 0.128314448118339 
894	 0.128466669690876 
895	 0.128611449264939 
896	 0.128822190108271 
897	 0.12912978461951 
898	 0.129331520035753 
899	 0.129535466863943 
900	 0.129824312549473 
901	 0.129973000915271 
902	 0.130208778004323 
903	 0.130500686916791 
904	 0.130746863151267 
905	 0.130934012380494 
906	 0.131230344381423 
907	 0.131549392549159 
908	 0.131755418374145 
909	 0.132154284350773 
910	 0.132501689061617 
911	 0.132737383306845 
912	 0.132955121114902 
913	 0.133236186939251 
914	 0.133582673230968 
915	 0.133971915992009 
916	 0.134362826160782 
917	 0.134680571526904 
918	 0.134988318552208 
919	 0.135328058510762 
920	 0.13569261942635 
921	 0.136107717700339 
922	 0.136493711091367 
923	 0.136849600290805 
924	 0.137306236559529 
925	 0.137749375144777 
926	 0.138188388930789 
927	 0.138612798720409 
928	 0.138930223224641 
929	 0.139357242571919 
930	 0.139840995189491 
931	 0.140297004671461 
932	 0.14074281339681 
933	 0.14124227194671 
934	 0.141758281979575 
935	 0.142251376946065 
936	 0.142777759698914 
937	 0.143195945762565 
938	 0.143650468969731 
939	 0.144276464267038 
940	 0.144835099680051 
941	 0.145404126707644 
942	 0.145997912872252 
943	 0.146589761766899 
944	 0.147083534973882 
945	 0.147638002866232 
946	 0.148287808648544 
947	 0.1489728152108 
948	 0.14954498071227 
949	 0.150077291073412 
950	 0.150641506351543 
951	 0.151284581391339 
952	 0.151980027215949 
953	 0.152549192500375 
954	 0.153097048113447 
955	 0.153836763437993 
956	 0.154618172306784 
957	 0.155335057365319 
958	 0.155984785617242 
959	 0.156641111788543 
960	 0.157389714204666 
961	 0.158088013982124 
962	 0.158751956567469 
963	 0.159480127159449 
964	 0.16014921408532 
965	 0.160877498941412 
966	 0.16166419393053 
967	 0.162418602290686 
968	 0.163097569252624 
969	 0.163807165252358 
970	 0.164619174583948 
971	 0.165516039274243 
972	 0.166213850964536 
973	 0.166967242522536 
974	 0.167798671762123 
975	 0.168571242988843 
976	 0.16938277578891 
977	 0.170200648172922 
978	 0.170981163151504 
979	 0.171714283109306 
980	 0.172574283387571 
981	 0.173412325457396 
982	 0.174189528023033 
983	 0.174957248937881 
984	 0.175748144233569 
985	 0.176608269584518 
986	 0.177473163605705 
987	 0.178250296329536 
988	 0.179035541026523 
989	 0.179859995267511 
990	 0.180715744196784 
991	 0.181585761807322 
992	 0.182519408727255 
993	 0.183342003037162 
994	 0.18410827172897 
995	 0.18492821417368 
996	 0.185652063060248 
997	 0.186460517012577 
998	 0.187250532938336 
999	 0.187940109245435 
1000	 0.188935394953152 
1001	 0.189458622308595 
1002	 0.190206795707916 
1003	 0.191024167021374 
1004	 0.19180060335176 
1005	 0.19264213217452 
1006	 0.193393005860505 
1007	 0.194074510899467 
1008	 0.194737378438482 
1009	 0.195450169563794 
1010	 0.196171892681357 
1011	 0.196858480350492 
1012	 0.197514284472358 
1013	 0.198172601748928 
1014	 0.198821709389685 
1015	 0.199446220135853 
1016	 0.200105885707718 
1017	 0.200764898837256 
1018	 0.201412212713815 
1019	 0.20202379755897 
1020	 0.202673781373581 
1021	 0.203313103225036 
1022	 0.203893831416384 
1023	 0.204499489273313 
1024	 0.205113478857606 
1025	 0.205696283222009 
1026	 0.206268015908308 
1027	 0.206780772405047 
1028	 0.207279119760568 
1029	 0.207811310841209 
1030	 0.208364024301514 
1031	 0.208913807292854 
1032	 0.209491201296794 
1033	 0.210058628308765 
1034	 0.210584723346782 
1035	 0.211100005607179 
1036	 0.21162675754211 
1037	 0.212135074932234 
1038	 0.21264487699054 
1039	 0.213115929190293 
1040	 0.213565734031405 
1041	 0.214070753118443 
1042	 0.214548567602381 
1043	 0.214988299170453 
1044	 0.215454714000283 
1045	 0.21593858466736 
1046	 0.21636576179893 
1047	 0.216793575589815 
1048	 0.217324140863564 
1049	 0.217809584541598 
1050	 0.218275783498648 
1051	 0.218805744616672 
1052	 0.219246769689811 
1053	 0.219671658060389 
1054	 0.220173598758635 
1055	 0.220634959197874 
1056	 0.22107922071055 
1057	 0.221529671470578 
1058	 0.221991777455076 
1059	 0.222406000877583 
1060	 0.222757488456315 
1061	 0.223198394451893 
1062	 0.223701068367198 
1063	 0.224164277702058 
1064	 0.224666316392027 
1065	 0.225159632855853 
1066	 0.225546104689079 
1067	 0.225962872266846 
1068	 0.226440232080421 
1069	 0.226902298131122 
1070	 0.227338843461805 
1071	 0.22776055987905 
1072	 0.228185225838641 
1073	 0.22858075810189 
1074	 0.228990021491526 
1075	 0.229401009186877 
1076	 0.229860072079068 
1077	 0.230268951665182 
1078	 0.230617112262426 
1079	 0.231008190387928 
1080	 0.231400502298273 
1081	 0.231760088193131 
1082	 0.232175208398715 
1083	 0.232559915129172 
1084	 0.232901336988255 
1085	 0.233281103451063 
1086	 0.233699629656132 
1087	 0.234062268821644 
1088	 0.234400856077983 
1089	 0.234774591264082 
1090	 0.235114320038797 
1091	 0.235456601657951 
1092	 0.23579362102893 
1093	 0.236087624077015 
1094	 0.236414370998049 
1095	 0.23677559236749 
1096	 0.237146267985308 
1097	 0.237517633246733 
1098	 0.237863514868795 
1099	 0.238185470679546 
1100	 0.238484143594478 
1101	 0.238753028778904 
1102	 0.239039010858329 
1103	 0.239313515798124 
1104	 0.239583142042176 
1105	 0.239851667431895 
1106	 0.24015624611134 
1107	 0.240478293903367 
1108	 0.240759934347876 
1109	 0.241036036321872 
1110	 0.241360880511447 
1111	 0.241651894661933 
1112	 0.241915682340783 
1113	 0.242187909811794 
1114	 0.242446188336855 
1115	 0.242731544892488 
1116	 0.243039720244839 
1117	 0.243330039956778 
1118	 0.24363431164903 
1119	 0.243934468559142 
1120	 0.244177135721929 
1121	 0.244416304279567 
1122	 0.244651573730804 
1123	 0.244863770405679 
1124	 0.24512056117794 
1125	 0.245410383967752 
1126	 0.245662149492687 
1127	 0.245917981889452 
1128	 0.2461730302962 
1129	 0.246395626591584 
1130	 0.246645701052765 
1131	 0.246943730096565 
1132	 0.247191914529192 
1133	 0.247401433503198 
1134	 0.247638991532949 
1135	 0.247871901364567 
1136	 0.248095365651428 
1137	 0.248368353807679 
1138	 0.248625188721297 
1139	 0.248851058625819 
1140	 0.249059585214375 
1141	 0.249269722439616 
1142	 0.249440464715271 
1143	 0.249653247044687 
1144	 0.249898233148668 
1145	 0.25010266303006 
1146	 0.250302714487822 
1147	 0.250505015288228 
1148	 0.250676409321771 
1149	 0.250870917261407 
1150	 0.251090204289088 
1151	 0.251302666655363 
1152	 0.251503812639587 
1153	 0.251690400511104 
1154	 0.251874410647793 
1155	 0.252039396478685 
1156	 0.252224884018938 
1157	 0.252421113782384 
1158	 0.252603563063796 
1159	 0.252790493881139 
1160	 0.25296977250692 
1161	 0.253128203085086 
1162	 0.253302400048235 
1163	 0.253494034683335 
1164	 0.2536682503101 
1165	 0.253824323703477 
1166	 0.254006761180597 
1167	 0.254193983328046 
1168	 0.254358355795101 
1169	 0.254521375298785 
1170	 0.25469059929546 
1171	 0.254851015242155 
1172	 0.254990546975936 
1173	 0.255144087789321 
1174	 0.255313280066502 
1175	 0.255462441130051 
1176	 0.255601689617445 
1177	 0.255742778312413 
1178	 0.255870497924717 
1179	 0.256010564472914 
1180	 0.256151831961854 
1181	 0.256299686581871 
1182	 0.25645879088906 
1183	 0.256621299763241 
1184	 0.256766556062949 
1185	 0.256915622970656 
1186	 0.257043556723296 
1187	 0.257143976226526 
1188	 0.25726544357638 
1189	 0.257373663435167 
1190	 0.257511368916867 
1191	 0.257685654664437 
1192	 0.25782579030808 
1193	 0.257972972504916 
1194	 0.258102264284563 
1195	 0.258192621100082 
1196	 0.258305005208547 
1197	 0.258424581710418 
1198	 0.25854241480454 
1199	 0.258662344455738 
1200	 0.258791837326227 
1201	 0.258905779715076 
1202	 0.259010312333318 
1203	 0.259124161025096 
1204	 0.25922996107625 
1205	 0.259350738818897 
1206	 0.259490297839511 
1207	 0.259613376982067 
1208	 0.259742768312515 
1209	 0.259856164629316 
1210	 0.25995483003271 
1211	 0.260052767733635 
1212	 0.260134043930554 
1213	 0.260228196149572 
1214	 0.260324815555175 
1215	 0.260423561813583 
1216	 0.260526357314795 
1217	 0.260645201709596 
1218	 0.260737415335168 
1219	 0.260814975012953 
1220	 0.260906517754075 
1221	 0.260992737562061 
1222	 0.261079990022447 
1223	 0.261177141737727 
1224	 0.261269237569967 
1225	 0.26134922638013 
1226	 0.261438927898379 
1227	 0.261543577422 
1228	 0.261635709251995 
1229	 0.261724880401381 
1230	 0.261810278194319 
1231	 0.261889077701559 
1232	 0.261965021477696 
1233	 0.262038131581825 
1234	 0.262111207083061 
1235	 0.262176325295285 
1236	 0.262230901224049 
1237	 0.262297137153209 
1238	 0.262361287485925 
1239	 0.262430584536676 
1240	 0.262501439633514 
1241	 0.262584244530355 
1242	 0.262683684101724 
1243	 0.262765598890965 
1244	 0.262855166230806 
1245	 0.262934122468592 
1246	 0.262988523242919 
1247	 0.263054953928562 
1248	 0.263128980984433 
1249	 0.263200458062501 
1250	 0.263264513044511 
1251	 0.263317097228753 
1252	 0.263379376213849 
1253	 0.263440289759035 
1254	 0.263494535177143 
1255	 0.263548843257229 
1256	 0.263608723814609 
1257	 0.263665402071666 
1258	 0.263714836159041 
1259	 0.263774124519832 
1260	 0.263822081043496 
1261	 0.263845400034954 
1262	 0.263886244348623 
1263	 0.263941188394016 
1264	 0.263983144213935 
1265	 0.264015838348024 
1266	 0.26406015299748 
1267	 0.264109415155819 
1268	 0.264149743806904 
1269	 0.264197369693669 
1270	 0.264259546041136 
1271	 0.264307774563063 
1272	 0.264349174591905 
1273	 0.264390320538991 
1274	 0.2644232196213 
1275	 0.264466760593511 
1276	 0.264491724546258 
1277	 0.264561518158793 
1278	 0.264669863201274 
1279	 0.264761045536867 
1280	 0.264883563493662 
1281	 0.264979748273057 
1282	 0.265033773064104 
1283	 0.26512326203364 
1284	 0.265228516335548 
1285	 0.265333635326643 
1286	 0.265427370537907 
1287	 0.265544210938863 
1288	 0.265668873244645 
1289	 0.26579204072266 
1290	 0.265912702580274 
1291	 0.266064694001467 
1292	 0.266178206046033 
1293	 0.266260333172975 
1294	 0.266357223450696 
1295	 0.266453372981096 
1296	 0.266542675569654 
1297	 0.266636018070944 
1298	 0.26671112726369 
1299	 0.266762534763672 
1300	 0.266832674785887 
1301	 0.266890524260257 
1302	 0.266961305776232 
1303	 0.267049270513474 
1304	 0.267148977862598 
1305	 0.267216873310691 
1306	 0.267282962215348 
1307	 0.267326199506064 
1308	 0.26734143558421 
1309	 0.267370003297912 
1310	 0.267404179330219 
1311	 0.267411820563 
1312	 0.267406563993525 
1313	 0.267399007609168 
1314	 0.267362617543689 
1315	 0.267346198814894 
1316	 0.267343453200435 
1317	 0.267334464464292 
1318	 0.267323497801175 
1319	 0.267312915757572 
1320	 0.267295820095684 
1321	 0.26728849204059 
1322	 0.267286393596186 
1323	 0.267290878411863 
1324	 0.267289080531609 
1325	 0.267281857289658 
1326	 0.267249671928804 
1327	 0.267201164638036 
1328	 0.267151004770385 
1329	 0.267111842306863 
1330	 0.267070648875827 
1331	 0.267041794789497 
1332	 0.266986439068477 
1333	 0.26691572233343 
1334	 0.266854341003545 
1335	 0.266774836318026 
1336	 0.266724003449973 
1337	 0.266689455036174 
1338	 0.266653792972829 
1339	 0.266636764805464 
1340	 0.266601787554231 
1341	 0.266569691164851 
1342	 0.266524672875375 
1343	 0.266455243208611 
1344	 0.266402357521671 
1345	 0.266362646387231 
1346	 0.266314043428003 
1347	 0.266286126201547 
1348	 0.266247301457086 
1349	 0.266184441436146 
1350	 0.266126694047704 
1351	 0.266083750043819 
1352	 0.266050284688861 
1353	 0.266008863529527 
1354	 0.265982269872272 
1355	 0.2659362951977 
1356	 0.265873103215869 
1357	 0.265814133941115 
1358	 0.265743464893419 
1359	 0.265688997953749 
1360	 0.265633539948014 
1361	 0.265591512759834 
1362	 0.265581320482079 
1363	 0.265546051603236 
1364	 0.265496964840451 
1365	 0.265461286799626 
1366	 0.265424156672385 
1367	 0.26536823985417 
1368	 0.265372390510822 
1369	 0.265369200563642 
1370	 0.265334422536037 
1371	 0.265319865963957 
1372	 0.265264304629233 
1373	 0.265186596245152 
1374	 0.265118164132028 
1375	 0.265050987562341 
1376	 0.264967155974042 
1377	 0.264886986284374 
1378	 0.264771918333437 
1379	 0.2646301907951 
1380	 0.26449263702123 
1381	 0.264329913036754 
1382	 0.264176669009007 
1383	 0.264032027794901 
1384	 0.26386974471307 
1385	 0.263711245160755 
1386	 0.26352489156029 
1387	 0.263332859749482 
1388	 0.263113552732071 
1389	 0.262863798868816 
1390	 0.262598995747778 
1391	 0.262337156376059 
1392	 0.262045398836947 
1393	 0.26172990448737 
1394	 0.261405645524956 
1395	 0.26103639233276 
1396	 0.260647217321998 
1397	 0.260269937311368 
1398	 0.259882880399191 
1399	 0.259498114085321 
1400	 0.259123588920879 
1401	 0.258728385261779 
1402	 0.258313726012742 
1403	 0.25791798744279 
1404	 0.257512508748098 
1405	 0.257127603523428 
1406	 0.256759164123022 
1407	 0.256392406771233 
1408	 0.256033824460807 
1409	 0.255679294063517 
1410	 0.255313528336235 
1411	 0.254987872705214 
1412	 0.254675128299416 
1413	 0.254386250017657 
1414	 0.254155850099552 
1415	 0.253933224747673 
1416	 0.253703638707029 
1417	 0.253494161398791 
1418	 0.253277676464283 
1419	 0.253066853765313 
1420	 0.252906575842666 
1421	 0.252764392808702 
1422	 0.252614494828431 
1423	 0.252479182641462 
1424	 0.252332021007952 
1425	 0.252163560346583 
1426	 0.252022747187632 
1427	 0.251889607693689 
1428	 0.251771545768448 
1429	 0.251666631396664 
1430	 0.251571860111109 
1431	 0.251499463428662 
1432	 0.25141212397696 
1433	 0.251326646755177 
1434	 0.251247650256419 
1435	 0.251149061736681 
1436	 0.25108511422014 
1437	 0.251050456875844 
1438	 0.251007128537744 
1439	 0.25097918122638 
1440	 0.250955380175497 
1441	 0.250890064377793 
1442	 0.250838858597438 
1443	 0.250785374191864 
1444	 0.25072031576428 
1445	 0.250699073717641 
1446	 0.25067767625191 
1447	 0.250666353772058 
1448	 0.250663351281621 
1449	 0.250612086889356 
1450	 0.250546147500731 
1451	 0.250488880457656 
1452	 0.250403748287352 
1453	 0.250351541450141 
1454	 0.250320646094275 
1455	 0.250285153772953 
1456	 0.250267892295796 
1457	 0.250222399648094 
1458	 0.250167765437836 
1459	 0.250117568228172 
1460	 0.250036353131613 
1461	 0.249991161752196 
1462	 0.249972936307637 
1463	 0.249943518842612 
1464	 0.249917138847414 
1465	 0.249901958929657 
1466	 0.249876591065714 
1467	 0.249878902735011 
1468	 0.249891277379869 
1469	 0.249941005057619 
1470	 0.250024147675748 
1471	 0.250112149796409 
1472	 0.250235493836579 
1473	 0.250364910763475 
1474	 0.250479334439759 
1475	 0.25061203652725 
1476	 0.250742303269719 
1477	 0.250873284268558 
1478	 0.251007806397136 
1479	 0.251124101059269 
1480	 0.251257149708169 
1481	 0.25138287916893 
1482	 0.251498461628716 
1483	 0.251611943540584 
1484	 0.251727236031373 
1485	 0.251823546835675 
1486	 0.251944658803603 
1487	 0.252084228253555 
1488	 0.252207356260447 
1489	 0.252337599124385 
1490	 0.252453929409113 
1491	 0.252557217994848 
1492	 0.252662005484159 
1493	 0.252756731331592 
1494	 0.252862352687996 
1495	 0.252973308693265 
1496	 0.253076051336339 
1497	 0.253186542906536 
1498	 0.253287174456193 
1499	 0.253383004823564 
1500	 0.253469011042054 
1501	 0.253541401450405 
1502	 0.253617558724261 
1503	 0.253692081962334 
1504	 0.253746315366517 
1505	 0.253820539428152 
1506	 0.253909602197973 
1507	 0.254003263558353 
1508	 0.25410519506633 
1509	 0.254205991308346 
1510	 0.254290694056112 
1511	 0.254346341766609 
1512	 0.254398226449218 
1513	 0.254452541813552 
1514	 0.254522469775856 
1515	 0.254604308848113 
1516	 0.254680890326932 
1517	 0.254751869259886 
1518	 0.254809325804734 
1519	 0.254882996287392 
1520	 0.254966769928352 
1521	 0.255045314014594 
1522	 0.255129091296723 
1523	 0.255208701456867 
1524	 0.255278626025196 
1525	 0.255352775522383 
1526	 0.255432636197918 
1527	 0.255510602589348 
1528	 0.255585736890558 
1529	 0.255667137011124 
1530	 0.255763416821443 
1531	 0.255832076408869 
1532	 0.255883773613788 
1533	 0.25594626532543 
1534	 0.255993552764558 
1535	 0.256051557246907 
1536	 0.256124450755766 
1537	 0.256192898803313 
1538	 0.256258516338831 
1539	 0.256325679819553 
1540	 0.256402218553191 
1541	 0.256468905305434 
1542	 0.25652898153483 
1543	 0.256583318576786 
1544	 0.256631989963545 
1545	 0.256680026361606 
1546	 0.256721536059069 
1547	 0.25676527436257 
1548	 0.256814146150995 
1549	 0.256842249113062 
1550	 0.256870336298718 
1551	 0.256920665339831 
1552	 0.2569610926719 
1553	 0.25702355043778 
1554	 0.257110375574162 
1555	 0.257161248954105 
1556	 0.257204841259267 
1557	 0.257258212149041 
1558	 0.257305479461912 
1559	 0.257348393788328 
1560	 0.257389476195233 
1561	 0.257443644078494 
1562	 0.257472369431463 
1563	 0.257483428856622 
1564	 0.257499734776004 
1565	 0.257505961880372 
1566	 0.257518926840941 
1567	 0.257525578261178 
1568	 0.257546494962719 
1569	 0.257570151263747 
1570	 0.257608603232266 
1571	 0.257670515511717 
1572	 0.257713081760671 
1573	 0.257758139724979 
1574	 0.2578016541479 
1575	 0.257839763912546 
1576	 0.257867743231701 
1577	 0.257894730596453 
1578	 0.257914198403541 
1579	 0.257906860166601 
1580	 0.257926168380222 
1581	 0.257964896832339 
1582	 0.257990680128036 
1583	 0.258020476667793 
1584	 0.258050149773296 
1585	 0.25807535748846 
1586	 0.258095143932382 
1587	 0.258114320942055 
1588	 0.2581333892588 
1589	 0.258144808436393 
1590	 0.258155983185426 
1591	 0.258172883000979 
1592	 0.258187620070902 
1593	 0.258191255970341 
1594	 0.258204151684878 
1595	 0.258230486829948 
1596	 0.25824313186737 
1597	 0.258244764748796 
1598	 0.258259127024376 
1599	 0.258280717958337 
1600	 0.258288900002526 
1601	 0.258302198814718 
1602	 0.258307898787485 
1603	 0.25828486662833 
1604	 0.258282145828587 
1605	 0.258300227503383 
1606	 0.258303548614477 
1607	 0.258299924380422 
1608	 0.258304065844308 
1609	 0.258324138818899 
1610	 0.258334549670835 
1611	 0.258354436510765 
1612	 0.258377669631317 
1613	 0.258371617029822 
1614	 0.258358567514893 
1615	 0.258347500883296 
1616	 0.258347635087874 
1617	 0.258351505177255 
1618	 0.258339197131746 
1619	 0.258322889154522 
1620	 0.258321039062684 
1621	 0.258334023629305 
1622	 0.258358749109287 
1623	 0.258373939249467 
1624	 0.258409964002531 
1625	 0.258408662223528 
1626	 0.258376529690535 
1627	 0.258371976035963 
1628	 0.258366978620254 
1629	 0.258363464823118 
1630	 0.258370956669663 
1631	 0.258372533331481 
1632	 0.258368114817443 
1633	 0.258363954348738 
1634	 0.258366213205203 
1635	 0.258358315223818 
1636	 0.258343503376273 
1637	 0.258323709151421 
1638	 0.258289852286298 
1639	 0.258281306352581 
1640	 0.258275517465031 
1641	 0.258279143928968 
1642	 0.258305184829793 
1643	 0.258321392831711 
1644	 0.258333440540888 
1645	 0.258349874411185 
1646	 0.258376171208696 
1647	 0.258389962243099 
1648	 0.258405348871049 
1649	 0.258401495319786 
1650	 0.258384057202051 
1651	 0.258365470779193 
1652	 0.258327975950833 
1653	 0.258305953900328 
1654	 0.258293098172566 
1655	 0.258268038683697 
1656	 0.258245957232818 
1657	 0.258210945494942 
1658	 0.258151544531076 
1659	 0.258120700284269 
1660	 0.258112018929073 
1661	 0.258068113014598 
1662	 0.258015635154412 
1663	 0.257972755707358 
1664	 0.25789171265986 
1665	 0.257861261580599 
1666	 0.257877775301738 
1667	 0.257872093274775 
1668	 0.257882294443319 
1669	 0.257869308486996 
1670	 0.257839415811228 
1671	 0.257817396117599 
1672	 0.257790341549078 
1673	 0.257760227837657 
1674	 0.257726862891727 
1675	 0.257702829467079 
1676	 0.257675303933887 
1677	 0.257654127937787 
1678	 0.257651833707654 
1679	 0.257631265350831 
1680	 0.257596183761247 
1681	 0.257573856258276 
1682	 0.257548689286517 
1683	 0.25753265386266 
1684	 0.257521849424517 
1685	 0.257523040796066 
1686	 0.257546366293271 
1687	 0.257541454836977 
1688	 0.257542468799604 
1689	 0.257519300843095 
1690	 0.257458704809423 
1691	 0.257418920788328 
1692	 0.257380392946594 
1693	 0.257339936133007 
1694	 0.257296433015447 
1695	 0.257263708319431 
1696	 0.25722922802721 
1697	 0.257207715792763 
1698	 0.25720822761656 
1699	 0.25719177640073 
1700	 0.257178138613276 
1701	 0.257151551532397 
1702	 0.257111277510124 
1703	 0.257077106758706 
1704	 0.257037333507429 
1705	 0.2570002460657 
1706	 0.256969392739159 
1707	 0.256927223474772 
1708	 0.256878057851572 
1709	 0.256830750262972 
1710	 0.256771546672899 
1711	 0.256730450539843 
1712	 0.256703397074175 
1713	 0.256665528819405 
1714	 0.256633834653869 
1715	 0.256595208892047 
1716	 0.256549735647869 
1717	 0.256498499384191 
1718	 0.256443942296988 
1719	 0.256386673250607 
1720	 0.256320167906039 
1721	 0.256256197355023 
1722	 0.256191073544106 
1723	 0.256137135993878 
1724	 0.256092637959565 
1725	 0.25602767064264 
1726	 0.255970076800002 
1727	 0.255880794778005 
1728	 0.255740810325617 
1729	 0.255656193912785 
1730	 0.255597787411062 
1731	 0.25551365810184 
1732	 0.255441398142395 
1733	 0.255369307669425 
1734	 0.255265809141276 
1735	 0.255193150304348 
1736	 0.255152231140482 
1737	 0.255098421938039 
1738	 0.255049356105891 
1739	 0.254976341115445 
1740	 0.254900867395215 
1741	 0.254819428575175 
1742	 0.254713744985013 
1743	 0.254624789924136 
1744	 0.254547898447184 
1745	 0.254454744668119 
1746	 0.254346684353229 
1747	 0.254259324474496 
1748	 0.25416932243925 
1749	 0.254112320478968 
1750	 0.254080958866811 
1751	 0.254017625329477 
1752	 0.253957059248026 
1753	 0.253889486216264 
1754	 0.253788790985184 
1755	 0.253700082902478 
1756	 0.253623315022084 
1757	 0.253525199641243 
1758	 0.253442971124381 
1759	 0.253391189698239 
1760	 0.253320763107698 
1761	 0.253255751398569 
1762	 0.253198969152948 
1763	 0.253116417599137 
1764	 0.253027246027013 
1765	 0.252918648464889 
1766	 0.252775830886429 
1767	 0.252635293920166 
1768	 0.252517977584519 
1769	 0.252439227171458 
1770	 0.252387558560653 
1771	 0.252344049014566 
1772	 0.25230988129993 
1773	 0.252261290428017 
1774	 0.252232114292044 
1775	 0.252208586371946 
1776	 0.252136302741233 
1777	 0.252079779886212 
1778	 0.252006313874074 
1779	 0.251910319521196 
1780	 0.25185267633015 
1781	 0.251789726157032 
1782	 0.251738447580273 
1783	 0.251687013124031 
1784	 0.251651175564172 
1785	 0.251632963812221 
1786	 0.251594030166842 
1787	 0.251563824804307 
1788	 0.251526656717119 
1789	 0.251470027527272 
1790	 0.251422764051849 
1791	 0.251394290433022 
1792	 0.251338634084077 
1793	 0.25124792800488 
1794	 0.25119370799984 
1795	 0.251137218744039 
1796	 0.251090490379402 
1797	 0.251089973833608 
1798	 0.251055075787362 
1799	 0.250995730059534 
1800	 0.250954116434714 
1801	 0.246531114090476 
1802	 0.24670193175367 
1803	 0.246909077539315 
1804	 0.24717100129284 
1805	 0.247474922071511 
1806	 0.247727706237447 
1807	 0.247968528409698 
1808	 0.248178109306184 
1809	 0.248354705129105 
1810	 0.248502571721815 
1811	 0.248638379619836 
1812	 0.248742662569163 
1813	 0.248787081918481 
1814	 0.248824345781174 
1815	 0.248846815712743 
1816	 0.248852911683003 
1817	 0.24886135655057 
1818	 0.248850373097573 
1819	 0.248861151162874 
1820	 0.248871163435458 
1821	 0.248899158461163 
1822	 0.248955199395572 
1823	 0.248984810103185 
1824	 0.249002696200336 
1825	 0.249007810557487 
1826	 0.248974253589631 
1827	 0.248944449587397 
1828	 0.248893713104065 
1829	 0.248815959824097 
1830	 0.248750083443796 
1831	 0.248674711670743 
1832	 0.248594864393605 
1833	 0.248534975118315 
1834	 0.24845865121131 
1835	 0.248378479208482 
1836	 0.248320396422787 
1837	 0.248250583837667 
1838	 0.248185635585235 
1839	 0.24812884252319 
1840	 0.24809258407208 
1841	 0.248012469232659 
1842	 0.247922966893859 
1843	 0.247853763673849 
1844	 0.247755819701745 
1845	 0.24766255872254 
1846	 0.247600094292952 
1847	 0.247559814671711 
1848	 0.247537335472698 
1849	 0.247507525959583 
1850	 0.247478802409424 
1851	 0.247460347684955 
1852	 0.247432542086701 
1853	 0.247377900314593 
1854	 0.247338239570634 
1855	 0.247308788204221 
1856	 0.247245880678862 
1857	 0.247174766028079 
1858	 0.247117804355549 
1859	 0.247036674979432 
1860	 0.246927551159664 
1861	 0.246790736507184 
1862	 0.246662933536649 
1863	 0.246538379837818 
1864	 0.24638359432618 
1865	 0.246228848366295 
1866	 0.246058378194161 
1867	 0.245833422741331 
1868	 0.245604365586911 
1869	 0.245374390048799 
1870	 0.245116269352507 
1871	 0.244843773555567 
1872	 0.244559014675913 
1873	 0.244251518134693 
1874	 0.243915149553282 
1875	 0.243567124652514 
1876	 0.243196616765991 
1877	 0.242764231820589 
1878	 0.242254433162911 
1879	 0.241702529068559 
1880	 0.241089318480247 
1881	 0.240392217153002 
1882	 0.239669524005063 
1883	 0.238931053733226 
1884	 0.238078036108695 
1885	 0.237164938163427 
1886	 0.236191544449183 
1887	 0.23512901386818 
1888	 0.234061517133487 
1889	 0.232943791051942 
1890	 0.231783662758212 
1891	 0.230584066195998 
1892	 0.229325132896062 
1893	 0.228035151228202 
1894	 0.226704678177674 
1895	 0.225344333538316 
1896	 0.223947695631086 
1897	 0.222570045575751 
1898	 0.221170451305883 
1899	 0.219764208147116 
1900	 0.218402918683665 
1901	 0.217048085248936 
1902	 0.215737000774499 
1903	 0.214473739759862 
1904	 0.213244462526763 
1905	 0.212034142011723 
1906	 0.210879736980017 
1907	 0.209787749998352 
1908	 0.20873100306873 
1909	 0.207723542025055 
1910	 0.206761087557531 
1911	 0.205850179020939 
1912	 0.204988767244711 
1913	 0.20418108967599 
1914	 0.203437367926131 
1915	 0.202731162945747 
1916	 0.202073078029588 
1917	 0.201459918664351 
1918	 0.200879622416967 
1919	 0.20030490574026 
1920	 0.199778713065522 
1921	 0.199278644244116 
1922	 0.198806423809395 
1923	 0.19839801740006 
1924	 0.198029531788852 
1925	 0.197698652252897 
1926	 0.19742026863452 
1927	 0.197200553085086 
1928	 0.197004562528051 
1929	 0.19685724974491 
1930	 0.196728369434063 
1931	 0.196616961712012 
1932	 0.19654583725183 
1933	 0.196488841015108 
1934	 0.196438534134004 
1935	 0.196423368210011 
1936	 0.196441870330111 
1937	 0.196467357216134 
1938	 0.196503094814849 
1939	 0.196581173109881 
1940	 0.196696005127054 
1941	 0.196799325197079 
1942	 0.196947509484542 
1943	 0.197130165768794 
1944	 0.197271147881326 
1945	 0.197434029424353 
1946	 0.197602925343805 
1947	 0.197766464892188 
1948	 0.197945067272895 
1949	 0.19813553840287 
1950	 0.198341953315203 
1951	 0.198557278397191 
1952	 0.198795436679229 
1953	 0.199040396989911 
1954	 0.199294225744292 
1955	 0.199552635926679 
1956	 0.199834445037256 
1957	 0.200127803097312 
1958	 0.200454831587714 
1959	 0.200752968079825 
1960	 0.201053171120656 
1961	 0.201347446963588 
1962	 0.201606747789318 
1963	 0.201907730914643 
1964	 0.202220156356442 
1965	 0.202557728492719 
1966	 0.202920394103769 
1967	 0.203278319557745 
1968	 0.203641862961813 
1969	 0.204022972699256 
1970	 0.204381389364764 
1971	 0.204734859869976 
1972	 0.205088391524149 
1973	 0.205426296054292 
1974	 0.205775814468426 
1975	 0.206131978244414 
1976	 0.206489670496601 
1977	 0.206843634868607 
1978	 0.207179803551225 
1979	 0.207510651648572 
1980	 0.207850960894907 
1981	 0.208178348004016 
1982	 0.208487524246212 
1983	 0.208824803511821 
1984	 0.209162636356454 
1985	 0.209507878964799 
1986	 0.209876653186206 
1987	 0.210244386169738 
1988	 0.210608857066421 
1989	 0.210986211457198 
1990	 0.211368097848445 
1991	 0.21175142303048 
1992	 0.212111187307099 
1993	 0.212458018946437 
1994	 0.212797648145394 
1995	 0.21310995675222 
1996	 0.213445232844041 
1997	 0.213791710583405 
1998	 0.214121305982202 
1999	 0.214442598559976 
2000	 0.214779265024478 
2001	 0.215102324877098 
2002	 0.215447989310755 
2003	 0.215820221157893 
2004	 0.216174363307914 
2005	 0.216506558640639 
2006	 0.216818614833963 
2007	 0.217135082636272 
2008	 0.217425417662034 
2009	 0.217736630095997 
2010	 0.218049010749763 
2011	 0.218376980515824 
2012	 0.218746596286476 
2013	 0.219072452320369 
2014	 0.219385838074738 
2015	 0.219693272061836 
2016	 0.2199881991673 
2017	 0.220251514941302 
2018	 0.220553267056761 
2019	 0.220891017984981 
2020	 0.221198602233553 
2021	 0.221500925032043 
2022	 0.221804797818748 
2023	 0.222101856236752 
2024	 0.222391636255838 
2025	 0.222667656870379 
2026	 0.222965315354735 
2027	 0.223268560999735 
2028	 0.223574647342507 
2029	 0.223870450958097 
2030	 0.224192433993732 
2031	 0.224464672121673 
2032	 0.224681078799961 
2033	 0.224955804012929 
2034	 0.225246619568356 
2035	 0.225518475722925 
2036	 0.225829053635107 
2037	 0.226091171629265 
2038	 0.226301552912416 
2039	 0.226528704658928 
2040	 0.226757892499992 
2041	 0.226966125573432 
2042	 0.227171777140641 
2043	 0.227380421056447 
2044	 0.227582425395887 
2045	 0.227763451027512 
2046	 0.227975317290233 
2047	 0.228206274208232 
2048	 0.228422593174049 
2049	 0.228659633809658 
2050	 0.228867856091716 
2051	 0.229040968385288 
2052	 0.229234802987352 
2053	 0.229441750783812 
2054	 0.229627774135624 
2055	 0.229805781899059 
2056	 0.229987680668945 
2057	 0.230164931879779 
2058	 0.230319450145982 
2059	 0.230490944125271 
2060	 0.230677073028571 
2061	 0.230856687011905 
2062	 0.231033127463969 
2063	 0.231208184344605 
2064	 0.231386154109293 
2065	 0.231560337520563 
2066	 0.23173587697335 
2067	 0.231903325372275 
2068	 0.23207454392156 
2069	 0.23222291733215 
2070	 0.232380408665357 
2071	 0.232523214109944 
2072	 0.232685022760435 
2073	 0.232863693533357 
2074	 0.233025299788099 
2075	 0.233184431463075 
2076	 0.233346912782122 
2077	 0.233504192957481 
2078	 0.233658820807032 
2079	 0.233824876775696 
2080	 0.233975092467296 
2081	 0.234086604907192 
2082	 0.234236649951263 
2083	 0.234408008662616 
2084	 0.234576514009131 
2085	 0.234739595730678 
2086	 0.234928716028735 
2087	 0.235085061327546 
2088	 0.235207543778081 
2089	 0.235355986056996 
2090	 0.235522441216772 
2091	 0.235658885518933 
2092	 0.23577918078571 
2093	 0.235910312387771 
2094	 0.23602556335538 
2095	 0.23614856431064 
2096	 0.2362907610605 
2097	 0.236423790823443 
2098	 0.23654578686751 
2099	 0.23666589533868 
2100	 0.236801313500114 
2101	 0.236939245638831 
2102	 0.237090197855587 
2103	 0.237267871781471 
2104	 0.237413291527568 
2105	 0.237538584770143 
2106	 0.237694420062887 
2107	 0.237846562524756 
2108	 0.238008179169135 
2109	 0.238208307113355 
2110	 0.238385510617609 
2111	 0.23854426889974 
2112	 0.238709354608693 
2113	 0.238880006758056 
2114	 0.239044033822428 
2115	 0.239203384800692 
2116	 0.239359833265802 
2117	 0.239514343736771 
2118	 0.239659957604151 
2119	 0.239813449313346 
2120	 0.239974687372832 
2121	 0.240122253326684 
2122	 0.240276446335508 
2123	 0.240408471304942 
2124	 0.240519538101625 
2125	 0.240631586078381 
2126	 0.240737831375233 
2127	 0.240831252137565 
2128	 0.240911022539831 
2129	 0.240993423400808 
2130	 0.241062588830934 
2131	 0.241142312747596 
2132	 0.241199588642998 
2133	 0.241256520505462 
2134	 0.241298930156528 
2135	 0.241315534294698 
2136	 0.241341173393521 
2137	 0.241377938218209 
2138	 0.241384472858554 
2139	 0.2413747728152 
2140	 0.241361660239322 
2141	 0.241326201109263 
2142	 0.241292539700819 
2143	 0.241280474222563 
2144	 0.241224422208998 
2145	 0.241128261598773 
2146	 0.241043106923674 
2147	 0.240937586249854 
2148	 0.24082327831138 
2149	 0.240722486416484 
2150	 0.240630778772728 
2151	 0.240544973675428 
2152	 0.24048453590268 
2153	 0.240367145530026 
2154	 0.240245530241933 
2155	 0.240093029975098 
2156	 0.239865745704808 
2157	 0.239686801252266 
2158	 0.239541295615683 
2159	 0.239353400520023 
2160	 0.239152432259358 
2161	 0.238951161445031 
2162	 0.23870450174916 
2163	 0.238486437938974 
2164	 0.238295031364934 
2165	 0.238100482916574 
2166	 0.23789311394881 
2167	 0.23768985933351 
2168	 0.237470447235378 
2169	 0.237221993588491 
2170	 0.237007384822411 
2171	 0.236793248484363 
2172	 0.236598118298729 
2173	 0.236453036738736 
2174	 0.23625268270237 
2175	 0.236030425576834 
2176	 0.235813984161283 
2177	 0.235556625137484 
2178	 0.235329647631303 
2179	 0.23514984231934 
2180	 0.234930212815804 
2181	 0.234691800723622 
2182	 0.23445599543081 
2183	 0.234196755756911 
2184	 0.233939065242149 
2185	 0.233690513961044 
2186	 0.233439763056748 
2187	 0.233222568111379 
2188	 0.233030725323465 
2189	 0.23281603662267 
2190	 0.232603943209157 
2191	 0.232417007310501 
2192	 0.232214531745105 
2193	 0.232043487206649 
2194	 0.231930291716664 
2195	 0.231790139349721 
2196	 0.231638469734752 
2197	 0.231498682221955 
2198	 0.231357836473128 
2199	 0.231229211448201 
2200	 0.231117324811654 
2201	 0.231002254710196 
2202	 0.230894965313418 
2203	 0.230783056819376 
2204	 0.230683308776061 
2205	 0.230582570193213 
2206	 0.230497592554042 
2207	 0.230426738280932 
2208	 0.230361446829995 
2209	 0.230290790812278 
2210	 0.230257513537981 
2211	 0.230261062714814 
2212	 0.230242842004916 
2213	 0.230245079933642 
2214	 0.230235742499456 
2215	 0.230197606558814 
2216	 0.230184059954765 
2217	 0.230187864152232 
2218	 0.230190867538715 
2219	 0.230200520602239 
2220	 0.230214492764754 
2221	 0.230239874445571 
2222	 0.230257442201032 
2223	 0.230271871499954 
2224	 0.230279477744258 
2225	 0.230284941395807 
2226	 0.230288212398663 
2227	 0.230267485310028 
2228	 0.230232157892555 
2229	 0.23020495403273 
2230	 0.230152133997081 
2231	 0.23012895239143 
2232	 0.230140288290278 
2233	 0.230115414121445 
2234	 0.230095078853437 
2235	 0.230040798862585 
2236	 0.229950206182391 
2237	 0.229867995056595 
2238	 0.229768617246523 
2239	 0.229668160318892 
2240	 0.229583303973543 
2241	 0.229467918269674 
2242	 0.22933241050916 
2243	 0.229187454893636 
2244	 0.229044682351622 
2245	 0.228841110244555 
2246	 0.228660369412291 
2247	 0.228439974841583 
2248	 0.228205293747143 
2249	 0.227947485268031 
2250	 0.227682797477386 
2251	 0.22739452383267 
2252	 0.227111412170163 
2253	 0.226812287100002 
2254	 0.226528388704092 
2255	 0.22620794758102 
2256	 0.22597200078054 
2257	 0.225754854254195 
2258	 0.225607355094989 
2259	 0.225566265885411 
2260	 0.225491600948263 
2261	 0.225438362916132 
2262	 0.225402715289913 
2263	 0.225367613667554 
2264	 0.225347839452078 
2265	 0.225363693092892 
2266	 0.225384278347605 
2267	 0.225403857577227 
2268	 0.225446514134439 
2269	 0.225521871847948 
2270	 0.225580586043617 
2271	 0.225681029319763 
2272	 0.225783372437097 
2273	 0.225895149216723 
2274	 0.226049370568686 
2275	 0.226191010567503 
2276	 0.226337206333241 
2277	 0.226494519336782 
2278	 0.226637395295867 
2279	 0.226845420681871 
2280	 0.22710969633026 
2281	 0.227331368110174 
2282	 0.227593455540632 
2283	 0.227810114059071 
2284	 0.227979775815519 
2285	 0.228154481988319 
2286	 0.228327330217113 
2287	 0.228493649686939 
2288	 0.228671530231544 
2289	 0.228791618476626 
2290	 0.228865719582595 
2291	 0.228953201179746 
2292	 0.228994995032975 
2293	 0.229047079371404 
2294	 0.229124816803821 
2295	 0.229191501801003 
2296	 0.229218857299588 
2297	 0.229280454802711 
2298	 0.229395166331151 
2299	 0.229496461510006 
2300	 0.229614966633354 
2301	 0.229709100362465 
2302	 0.229746851927927 
2303	 0.229768646741269 
2304	 0.229798017876807 
2305	 0.229829202931117 
2306	 0.229861334320562 
2307	 0.22990126221444 
2308	 0.229940549244978 
2309	 0.229982037724899 
2310	 0.23000801530311 
2311	 0.230041390456535 
2312	 0.230049728365466 
2313	 0.230015922582228 
2314	 0.23002430779617 
2315	 0.230053450030182 
2316	 0.230054086530612 
2317	 0.230075017876414 
2318	 0.230062655310486 
2319	 0.229992406025178 
2320	 0.229953001197593 
2321	 0.229929248468773 
2322	 0.229886781203801 
2323	 0.229845714423277 
2324	 0.229800452468047 
2325	 0.229719070967584 
2326	 0.229673991121771 
2327	 0.229660279479336 
2328	 0.229628344729381 
2329	 0.229559206869655 
2330	 0.229507542615961 
2331	 0.229487056626746 
2332	 0.229482375868104 
2333	 0.229509634321538 
2334	 0.229535374497235 
2335	 0.229478923409376 
2336	 0.229391369702478 
2337	 0.229363881265313 
2338	 0.229340642035644 
2339	 0.229281695425127 
2340	 0.229168349058349 
2341	 0.22902069143774 
2342	 0.228913685482671 
2343	 0.228771049231358 
2344	 0.228664581645161 
2345	 0.228570231270861 
2346	 0.228477497286021 
2347	 0.228356995353233 
2348	 0.228265936871192 
2349	 0.228135579686594 
2350	 0.22796940663557 
2351	 0.227802068317852 
2352	 0.227617329356929 
2353	 0.227445063860461 
2354	 0.22724754108921 
2355	 0.227053953066478 
2356	 0.226901312538384 
2357	 0.226706278355395 
2358	 0.22645775528904 
2359	 0.226276181322534 
2360	 0.226112594993245 
2361	 0.225919052602328 
2362	 0.225743344632454 
2363	 0.225591738957384 
2364	 0.225454579963184 
2365	 0.225258986912862 
2366	 0.225062478919266 
2367	 0.224847840851573 
2368	 0.224565789700711 
2369	 0.224316422582334 
2370	 0.224091869527128 
2371	 0.223862656793851 
2372	 0.223639447082094 
2373	 0.223348072288831 
2374	 0.223104407916337 
2375	 0.222859134988128 
2376	 0.222556069866725 
2377	 0.222306380616063 
2378	 0.222075361804958 
2379	 0.221832520298667 
2380	 0.221547921254663 
2381	 0.221277765160543 
2382	 0.221070417844229 
2383	 0.220797016512806 
2384	 0.220519749956018 
2385	 0.220277909374083 
2386	 0.219889286064557 
2387	 0.219535556079304 
2388	 0.219323071364779 
2389	 0.219037336959909 
2390	 0.218805746355537 
2391	 0.218556190474462 
2392	 0.218194805440397 
2393	 0.217862997518259 
2394	 0.21750354616711 
2395	 0.217176202807709 
2396	 0.216922501364885 
2397	 0.2167012442562 
2398	 0.216442393785545 
2399	 0.216141591719645 
2400	 0.215873986866306 
2401	 0.215549341365746 
2402	 0.215181813006692 
2403	 0.214883928309669 
2404	 0.214582498664368 
2405	 0.214239030217279 
2406	 0.213994894299718 
2407	 0.213806576782113 
2408	 0.213495040695929 
2409	 0.213109780559134 
2410	 0.212729070107184 
2411	 0.212320171674458 
2412	 0.212046741661649 
2413	 0.211943572982521 
2414	 0.211796286817395 
2415	 0.211640682507153 
2416	 0.211408675789946 
2417	 0.211017200843732 
2418	 0.210734260250019 
2419	 0.210493999964175 
2420	 0.210203836860434 
2421	 0.209951416078166 
2422	 0.209678839811316 
2423	 0.209312148888922 
2424	 0.209023890377249 
2425	 0.208810255989424 
2426	 0.208477195326293 
2427	 0.208158007375742 
2428	 0.207770014885952 
2429	 0.207229971634326 
2430	 0.206859955784235 
2431	 0.206520566157216 
2432	 0.206165054439893 
2433	 0.205899342212866 
2434	 0.205590902629938 
2435	 0.205232554717066 
2436	 0.2049505159984 
2437	 0.20476036151294 
2438	 0.204454242081589 
2439	 0.20409781282225 
2440	 0.203738143749672 
2441	 0.203288365778402 
2442	 0.202930395330647 
2443	 0.202637073796862 
2444	 0.202299173356478 
2445	 0.202001201910159 
2446	 0.201630120769994 
2447	 0.201194727253119 
2448	 0.200841437033269 
2449	 0.200432145784094 
2450	 0.200168848180678 
2451	 0.200049613460221 
2452	 0.199779100063225 
2453	 0.199598265722915 
2454	 0.199230556248247 
2455	 0.198678698091391 
2456	 0.198214819891171 
2457	 0.197639366386445 
2458	 0.19720276274408 
2459	 0.196760987420888 
2460	 0.19650167303664 
2461	 0.196505347050464 
2462	 0.196314268277339 
2463	 0.196230317063416 
2464	 0.195957525573977 
2465	 0.195406376988417 
2466	 0.194977908602131 
2467	 0.19449543294871 
2468	 0.194127010989457 
2469	 0.193879470547459 
2470	 0.193621172833489 
2471	 0.193378262243331 
2472	 0.193183535794563 
2473	 0.192984523941147 
2474	 0.192811618243274 
2475	 0.192830933896451 
2476	 0.192644492772255 
2477	 0.192153551166996 
2478	 0.191868523825165 
2479	 0.191456313363625 
2480	 0.191079300672409 
2481	 0.190809683623656 
2482	 0.190360369924109 
2483	 0.190073152491128 
2484	 0.189939255484085 
2485	 0.189865968634617 
2486	 0.189829937462953 
2487	 0.189627967568054 
2488	 0.189115301065435 
2489	 0.188573456124227 
2490	 0.188230651271181 
2491	 0.18802977273018 
2492	 0.18793115969794 
2493	 0.187699903008606 
2494	 0.18730538092685 
2495	 0.186866458309908 
2496	 0.186367447264788 
2497	 0.186039876344249 
2498	 0.186041816175285 
2499	 0.185746483675591 
2500	 0.185385852062216 
