Wavelength	mm2400011.asd
350	 0.043719059005363 
351	 5.08353800003876E-02 
352	 4.62695616868629E-02 
353	 3.23081259379177E-02 
354	 4.80699338417936E-02 
355	 5.25846604489166E-02 
356	 4.78025315218361E-02 
357	 4.52630293561229E-02 
358	 4.58585940631115E-02 
359	 4.33247257730157E-02 
360	 4.20046397086336E-02 
361	 5.05336647353264E-02 
362	 4.52157098133784E-02 
363	 4.12555454914091E-02 
364	 0.045249666666091 
365	 4.32047160926206E-02 
366	 4.13965855224094E-02 
367	 4.05643283689738E-02 
368	 4.02095211851947E-02 
369	 4.07891186647538E-02 
370	 4.17873773109988E-02 
371	 4.40560864504288E-02 
372	 4.86547713398679E-02 
373	 4.80589228547423E-02 
374	 4.78236946684326E-02 
375	 4.99916401341953E-02 
376	 4.75793760998285E-02 
377	 0.045131185536697 
378	 4.52623780219071E-02 
379	 4.87538845708907E-02 
380	 5.22269689738914E-02 
381	 4.94396430229326E-02 
382	 4.57174527471386E-02 
383	 5.30490904301379E-02 
384	 5.32123348038895E-02 
385	 5.15488874993571E-02 
386	 5.27456984257752E-02 
387	 5.37587775214042E-02 
388	 5.24350282967745E-02 
389	 5.18153040961543E-02 
390	 5.47410274556149E-02 
391	 5.42405460297101E-02 
392	 5.56129391957456E-02 
393	 5.86354753347568E-02 
394	 5.83323365812167E-02 
395	 5.78132334177303E-02 
396	 5.71963284946977E-02 
397	 5.70272851247264E-02 
398	 6.02802494091077E-02 
399	 6.09809651269493E-02 
400	 6.07052630635114E-02 
401	 6.28599014308186E-02 
402	 6.42015908737462E-02 
403	 6.34882630291811E-02 
404	 6.23727001145824E-02 
405	 6.49438317629757E-02 
406	 6.68285664142089E-02 
407	 6.76726231312206E-02 
408	 6.79237609906077E-02 
409	 6.77116579638923E-02 
410	 6.78422124295062E-02 
411	 6.80675393758334E-02 
412	 6.79399036616009E-02 
413	 6.97692912604324E-02 
414	 0.070433567936484 
415	 6.94086809968547E-02 
416	 6.99938917097123E-02 
417	 7.00122315679013E-02 
418	 7.00953866155371E-02 
419	 7.08551321498436E-02 
420	 7.06330012526521E-02 
421	 6.99390224883117E-02 
422	 6.95426864668104E-02 
423	 7.01205673106884E-02 
424	 6.96785452587296E-02 
425	 6.92013495357895E-02 
426	 6.90929249360639E-02 
427	 6.78827052298987E-02 
428	 6.76584145603691E-02 
429	 6.78395735315542E-02 
430	 0.067323829946056 
431	 6.70506595908883E-02 
432	 0.066826656094193 
433	 0.066526142722196 
434	 6.61505535258781E-02 
435	 6.59179907813403E-02 
436	 6.61128587612224E-02 
437	 6.66553133758039E-02 
438	 6.64889834791905E-02 
439	 6.65235332697489E-02 
440	 6.69644758418389E-02 
441	 6.75971944928064E-02 
442	 6.79438511602002E-02 
443	 6.82933084313139E-02 
444	 0.068747296593287 
445	 6.89924517211705E-02 
446	 6.94786179513395E-02 
447	 7.00246216660652E-02 
448	 7.03913633488079E-02 
449	 0.070915521181304 
450	 7.14581942625692E-02 
451	 7.19942075005959E-02 
452	 7.25886636142561E-02 
453	 7.28424859473626E-02 
454	 7.31676506991751E-02 
455	 7.37497320085768E-02 
456	 7.38413295365919E-02 
457	 7.41317755279382E-02 
458	 7.44945292191325E-02 
459	 7.45169882351363E-02 
460	 7.46098012896159E-02 
461	 7.47712592890059E-02 
462	 7.49619233233415E-02 
463	 7.51479080023965E-02 
464	 7.52188529752992E-02 
465	 7.53050132483986E-02 
466	 7.55713325681993E-02 
467	 7.60838382263629E-02 
468	 0.076273650123529 
469	 7.61242738686127E-02 
470	 7.60808189470146E-02 
471	 7.62975442056782E-02 
472	 7.64090046194422E-02 
473	 7.62548891553086E-02 
474	 7.63617546014905E-02 
475	 7.66296661420397E-02 
476	 7.67943207791673E-02 
477	 7.66104387652305E-02 
478	 7.65935760816849E-02 
479	 7.67807998237604E-02 
480	 0.07701317860278 
481	 7.69286242524998E-02 
482	 7.69859859501314E-02 
483	 7.71089284625645E-02 
484	 7.71572967140801E-02 
485	 7.74056382016615E-02 
486	 7.74007372110579E-02 
487	 0.077274176458781 
488	 7.76058263421496E-02 
489	 7.78373504183071E-02 
490	 7.77968961237245E-02 
491	 7.75803047219582E-02 
492	 7.77849497865241E-02 
493	 7.77047511795893E-02 
494	 7.75003479760004E-02 
495	 7.76565444471616E-02 
496	 7.77648380559388E-02 
497	 7.77984337297102E-02 
498	 7.78015640054051E-02 
499	 7.78654759748562E-02 
500	 7.79451962545014E-02 
501	 7.80104239366322E-02 
502	 7.80733585834373E-02 
503	 7.83413835016189E-02 
504	 7.84405886311249E-02 
505	 7.84044934386847E-02 
506	 7.86249800173576E-02 
507	 7.86317563934551E-02 
508	 7.85348966354445E-02 
509	 0.07847428693072 
510	 7.83294438471362E-02 
511	 7.83745308229742E-02 
512	 7.85298628754992E-02 
513	 7.85447909449966E-02 
514	 7.85083715423244E-02 
515	 7.85052928983011E-02 
516	 7.85773707558563E-02 
517	 7.87012244489421E-02 
518	 7.88288987425229E-02 
519	 7.88460615829113E-02 
520	 7.87080619957355E-02 
521	 7.88067490106395E-02 
522	 7.88955511810093E-02 
523	 7.89230140925599E-02 
524	 7.90738498112779E-02 
525	 7.90818911499455E-02 
526	 7.90603791275712E-02 
527	 7.91216467274738E-02 
528	 7.90824903543012E-02 
529	 7.91289605988504E-02 
530	 0.079234600499299 
531	 7.92491325448171E-02 
532	 7.93436264761468E-02 
533	 7.94529733674158E-02 
534	 7.94980413948068E-02 
535	 7.94145201987267E-02 
536	 7.94560833165127E-02 
537	 7.95632551752479E-02 
538	 7.95856374569914E-02 
539	 7.97160420259393E-02 
540	 7.97672158688659E-02 
541	 7.97269438646847E-02 
542	 7.98487030832834E-02 
543	 7.99937628227028E-02 
544	 8.01243189434297E-02 
545	 8.02240564909225E-02 
546	 8.02558427880951E-02 
547	 8.02869475809257E-02 
548	 8.03762320086204E-02 
549	 8.05609498820718E-02 
550	 8.06659655776979E-02 
551	 8.06980070592264E-02 
552	 8.07306958086674E-02 
553	 0.08092251015951 
554	 8.10728542162023E-02 
555	 8.11855113083566E-02 
556	 8.13612313417478E-02 
557	 8.15233167353737E-02 
558	 8.16803076115712E-02 
559	 8.18676340065452E-02 
560	 8.21678240202761E-02 
561	 8.22911577635462E-02 
562	 8.24020973128575E-02 
563	 0.082739126321921 
564	 8.30009448047041E-02 
565	 8.32328565541991E-02 
566	 8.34771254224573E-02 
567	 0.083749602278976 
568	 8.40696096104778E-02 
569	 8.44158910947861E-02 
570	 8.47810059873662E-02 
571	 0.085251465292364 
572	 8.56970212232843E-02 
573	 0.086094753640588 
574	 8.65015314123233E-02 
575	 8.69278477222325E-02 
576	 8.73643399963966E-02 
577	 0.087802196959174 
578	 8.82382137130891E-02 
579	 8.87148660278187E-02 
580	 8.92359484432556E-02 
581	 8.97922357642685E-02 
582	 0.090424928922011 
583	 9.10254355515919E-02 
584	 9.15841607774116E-02 
585	 9.22529770159841E-02 
586	 9.28846506098134E-02 
587	 9.34863032539974E-02 
588	 9.41049025408547E-02 
589	 0.094750324608828 
590	 9.54234103674549E-02 
591	 9.61192977881667E-02 
592	 9.68288784951481E-02 
593	 9.75002405072879E-02 
594	 9.81602878483188E-02 
595	 0.098847838947326 
596	 9.96076880079626E-02 
597	 0.100262764946769 
598	 0.100840884982753 
599	 0.101475650129049 
600	 0.102105189677855 
601	 0.102771396889298 
602	 0.103448336053359 
603	 0.103964667855229 
604	 0.104524586369365 
605	 0.105148724946417 
606	 0.105779575943749 
607	 0.10632523122244 
608	 0.106844981154847 
609	 0.107364778529869 
610	 0.10786259025257 
611	 0.108362210674276 
612	 0.108847278380322 
613	 0.10929159258581 
614	 0.109678906023044 
615	 0.110007674654441 
616	 0.110308630896052 
617	 0.110631787352467 
618	 0.110995417750824 
619	 0.111327100318433 
620	 0.111590627091799 
621	 0.111848870988242 
622	 0.112130280182932 
623	 0.112404469522699 
624	 0.112628062606786 
625	 0.112866131880121 
626	 0.113093439338334 
627	 0.113306919469609 
628	 0.113541794007115 
629	 0.113745019685199 
630	 0.113927029164196 
631	 0.114119350976997 
632	 0.114368397144988 
633	 0.114555429853527 
634	 0.11466778988318 
635	 0.114788139194733 
636	 0.115007023172798 
637	 0.115244114430262 
638	 0.115427651113403 
639	 0.115575686278003 
640	 0.115806905650536 
641	 0.116067318486044 
642	 0.116235630734635 
643	 0.116379298788591 
644	 0.116556079579171 
645	 0.116769061094469 
646	 0.116943315484053 
647	 0.117133710187049 
648	 0.117332193224294 
649	 0.117527787265788 
650	 0.117776269849477 
651	 0.118021542708266 
652	 0.118243858408705 
653	 0.118461371000304 
654	 0.11872918670363 
655	 0.118973736435833 
656	 0.119160911665576 
657	 0.119412523254215 
658	 0.1196741843028 
659	 0.119950840471072 
660	 0.120261492206558 
661	 0.120528844316652 
662	 0.120791477120131 
663	 0.121076879503023 
664	 0.121379062843665 
665	 0.12170095789206 
666	 0.122016560472689 
667	 0.122310028068687 
668	 0.12264052254302 
669	 0.122972577456132 
670	 0.123307347385939 
671	 0.123673066188954 
672	 0.123993178404077 
673	 0.124361046980271 
674	 0.124810265846718 
675	 0.125159906781411 
676	 0.125539933327934 
677	 0.125966538634336 
678	 0.126403229845371 
679	 0.126809802932177 
680	 0.127207262022623 
681	 0.127621701233869 
682	 0.128077323274985 
683	 0.12854097516199 
684	 0.128999850220466 
685	 0.129452622082615 
686	 0.129914426018383 
687	 0.130413277867224 
688	 0.130927293564567 
689	 0.131404487656123 
690	 0.131898116413172 
691	 0.132392481010795 
692	 0.132885201317992 
693	 0.13342427883096 
694	 0.133949029687698 
695	 0.134492750661469 
696	 0.135094591863785 
697	 0.135626653699451 
698	 0.136167024332699 
699	 0.136722225944094 
700	 0.137215506155819 
701	 0.137789910508985 
702	 0.13839316001548 
703	 0.13896550692585 
704	 0.139555822281612 
705	 0.140106390636807 
706	 0.140635147212627 
707	 0.141196713658933 
708	 0.141793714115637 
709	 0.142384987016467 
710	 0.142952094871738 
711	 0.143518251854278 
712	 0.144065066820394 
713	 0.144611143042366 
714	 0.14517856866938 
715	 0.145764299743828 
716	 0.146332071002005 
717	 0.146853612153324 
718	 0.14731942873089 
719	 0.147843812877769 
720	 0.148366358029739 
721	 0.148835843007509 
722	 0.149267115358534 
723	 0.149743351663506 
724	 0.150220623723514 
725	 0.150637992439044 
726	 0.151105650448423 
727	 0.151502166821264 
728	 0.151824078646712 
729	 0.152183680482276 
730	 0.152567945867045 
731	 0.152915181868833 
732	 0.153201246238881 
733	 0.153517396736144 
734	 0.153803636784725 
735	 0.154020944603685 
736	 0.154164399501295 
737	 0.154376706675715 
738	 0.154568370084648 
739	 0.154709283381489 
740	 0.15485155936679 
741	 0.154933506840864 
742	 0.154999005574402 
743	 0.155079670619143 
744	 0.155115739974814 
745	 0.155100056776397 
746	 0.155074616165298 
747	 0.1550843175419 
748	 0.155015498212221 
749	 0.154871452302785 
750	 0.154720075074914 
751	 0.154686833064666 
752	 0.154553124266343 
753	 0.154367822114691 
754	 0.154202357388737 
755	 0.153996493714609 
756	 0.153797254914936 
757	 0.153581847358827 
758	 0.153308499979632 
759	 0.153079406643752 
760	 0.152815989605911 
761	 0.152492975566486 
762	 0.152172256658925 
763	 0.15185932496179 
764	 0.151553788062578 
765	 0.151243991337795 
766	 0.150892427912154 
767	 0.150545854634829 
768	 0.150209899702175 
769	 0.149862296514153 
770	 0.149452151393466 
771	 0.149041342009075 
772	 0.148646250288753 
773	 0.148218259033734 
774	 0.147830601503884 
775	 0.147454700026953 
776	 0.147051365302956 
777	 0.14660935408837 
778	 0.146228272137442 
779	 0.145874600750911 
780	 0.145463857798 
781	 0.14503280009442 
782	 0.144591002878131 
783	 0.144151573872268 
784	 0.143733992407522 
785	 0.143375197518552 
786	 0.142991230538582 
787	 0.142545783307046 
788	 0.14217240828629 
789	 0.141804708023892 
790	 0.141392538026574 
791	 0.140922133959545 
792	 0.14053102680859 
793	 0.140160596595143 
794	 0.139782429858706 
795	 0.139401023513117 
796	 0.138961268134146 
797	 0.138567851395693 
798	 0.138261221643744 
799	 0.137923930985801 
800	 0.137560983204208 
801	 0.137185068950511 
802	 0.136817156428878 
803	 0.136480532738142 
804	 0.136179418206559 
805	 0.135861965292906 
806	 0.135465070206467 
807	 0.135129646096199 
808	 0.134817549627379 
809	 0.134504562079526 
810	 0.134209917723562 
811	 0.133905233702098 
812	 0.13357844053059 
813	 0.133249354807738 
814	 0.133015878976896 
815	 0.132759579044249 
816	 0.132457831601982 
817	 0.1321395572321 
818	 0.131855438482954 
819	 0.131623309857084 
820	 0.13140894033263 
821	 0.131145037656336 
822	 0.130895984525471 
823	 0.130636043160309 
824	 0.130373187785417 
825	 0.130189513828654 
826	 0.130015437907766 
827	 0.129802055799666 
828	 0.12954266334801 
829	 0.129336699634193 
830	 0.129146039007728 
831	 0.128958287891303 
832	 0.128775674131787 
833	 0.12861851524771 
834	 0.128437284038977 
835	 0.128242587992916 
836	 0.128100310674149 
837	 0.127972120418063 
838	 0.127846036052559 
839	 0.127711606229948 
840	 0.127554669873964 
841	 0.127391073477383 
842	 0.127259609055252 
843	 0.127181921136809 
844	 0.127119380809173 
845	 0.127004502523016 
846	 0.126863880073741 
847	 0.126762268358711 
848	 0.126681102230794 
849	 0.126639548526485 
850	 0.126585983795508 
851	 0.12643124839842 
852	 0.126353721473238 
853	 0.126311931660575 
854	 0.126262946957365 
855	 0.126210618496949 
856	 0.126188603533205 
857	 0.126162889198535 
858	 0.126115172187607 
859	 0.126111349839765 
860	 0.126088210083684 
861	 0.126072590903044 
862	 0.12609284202029 
863	 0.126035094427766 
864	 0.126025682042757 
865	 0.126066543102568 
866	 0.126082934747126 
867	 0.126086587734713 
868	 0.126106904509419 
869	 0.126149145833115 
870	 0.126192572463287 
871	 0.126248970771569 
872	 0.126295922990119 
873	 0.12632865488993 
874	 0.126377621668081 
875	 0.126467317120755 
876	 0.126552934602345 
877	 0.126601808091363 
878	 0.126648075707094 
879	 0.126830536093303 
880	 0.127012640618729 
881	 0.127044908411591 
882	 0.127162870550051 
883	 0.12729764614913 
884	 0.127415558162024 
885	 0.127513547748997 
886	 0.127623391513603 
887	 0.127783575046476 
888	 0.127969386529934 
889	 0.128108813116441 
890	 0.128213274727606 
891	 0.128364987472998 
892	 0.128580719605286 
893	 0.128783622194354 
894	 0.128915904690211 
895	 0.129088903062381 
896	 0.129344652675471 
897	 0.129541293784226 
898	 0.12976897938145 
899	 0.130006739269064 
900	 0.13022418312103 
901	 0.130441918706506 
902	 0.130654189502909 
903	 0.130893276023239 
904	 0.131168038345199 
905	 0.131352196366973 
906	 0.131605232497054 
907	 0.131918096324181 
908	 0.132213703572373 
909	 0.132547772502067 
910	 0.132858432501461 
911	 0.133139464657763 
912	 0.13342262907757 
913	 0.133692791825249 
914	 0.133993479169105 
915	 0.134335742913414 
916	 0.134698295806472 
917	 0.135094551767988 
918	 0.135445723489348 
919	 0.135746599165353 
920	 0.13608355560581 
921	 0.136445622454223 
922	 0.136860116447218 
923	 0.137299600417004 
924	 0.137662325714583 
925	 0.13806055510248 
926	 0.138496816448102 
927	 0.138939800476968 
928	 0.139342050220487 
929	 0.139877816854884 
930	 0.140386058073734 
931	 0.140734345248298 
932	 0.141049227147088 
933	 0.141584175786539 
934	 0.142189392562484 
935	 0.142675056511144 
936	 0.143126671114523 
937	 0.143545646918536 
938	 0.144006320020073 
939	 0.14457351837035 
940	 0.145219220312783 
941	 0.145778299754868 
942	 0.146321564272076 
943	 0.14694982755944 
944	 0.147459590171032 
945	 0.148021542352057 
946	 0.148635329812341 
947	 0.149212425322831 
948	 0.149666876274852 
949	 0.150269074406326 
950	 0.150970814846425 
951	 0.151593382004551 
952	 0.152250088585698 
953	 0.152896635984682 
954	 0.153517104726112 
955	 0.154132732751016 
956	 0.154834657312057 
957	 0.155574734401013 
958	 0.156282682968605 
959	 0.156907158318868 
960	 0.157522606209231 
961	 0.158204773893214 
962	 0.158958261721033 
963	 0.15972622353487 
964	 0.160431137869848 
965	 0.161112786896107 
966	 0.161824475330571 
967	 0.162599296036833 
968	 0.163349642233878 
969	 0.164087130596716 
970	 0.164808812176128 
971	 0.165508806381965 
972	 0.166246285693391 
973	 0.167114608958559 
974	 0.167990376270892 
975	 0.168683494189589 
976	 0.169510457232255 
977	 0.170306791003749 
978	 0.17105391946907 
979	 0.171838952342243 
980	 0.172642392227602 
981	 0.173433775336194 
982	 0.174247317897381 
983	 0.175124529694358 
984	 0.175924998552884 
985	 0.176717062834728 
986	 0.177567038693054 
987	 0.178488050312431 
988	 0.179313734892527 
989	 0.180101011066744 
990	 0.180855362798961 
991	 0.181590646621587 
992	 0.182496836622905 
993	 0.183251346955377 
994	 0.183966542620437 
995	 0.184846579859745 
996	 0.185562518520959 
997	 0.186428381586019 
998	 0.187264177284606 
999	 0.187894740093331 
1000	 0.188888712768412 
1001	 0.189540447844731 
1002	 0.190283060282273 
1003	 0.190873037432796 
1004	 0.191575009648438 
1005	 0.192358906007954 
1006	 0.193072175465971 
1007	 0.193755107560262 
1008	 0.194547983738163 
1009	 0.195271919175088 
1010	 0.195861750430193 
1011	 0.196510981963311 
1012	 0.197173170043224 
1013	 0.197791384091527 
1014	 0.198476982315205 
1015	 0.1991884199162 
1016	 0.199834797435639 
1017	 0.200502160795985 
1018	 0.201170838095798 
1019	 0.201845219325698 
1020	 0.202496179512885 
1021	 0.203152408443776 
1022	 0.203760403083179 
1023	 0.20434417028292 
1024	 0.204943782419617 
1025	 0.205472368202189 
1026	 0.205999166883614 
1027	 0.206547125854612 
1028	 0.207060491861425 
1029	 0.207645007487383 
1030	 0.208232514601396 
1031	 0.208768240856877 
1032	 0.209265707046729 
1033	 0.209773711945527 
1034	 0.210240801308153 
1035	 0.21069402785171 
1036	 0.211209853080559 
1037	 0.211737457287132 
1038	 0.21226773635896 
1039	 0.212770736304973 
1040	 0.213260228975717 
1041	 0.21373995592898 
1042	 0.214183835829172 
1043	 0.214649882721174 
1044	 0.215123365472694 
1045	 0.215617979763166 
1046	 0.216071985278608 
1047	 0.216499242088066 
1048	 0.217001897220814 
1049	 0.217487569147839 
1050	 0.217903461414372 
1051	 0.218428991216756 
1052	 0.218911078737922 
1053	 0.219334063004009 
1054	 0.219852635932112 
1055	 0.220329789829054 
1056	 0.220774751581224 
1057	 0.221230232349593 
1058	 0.221692708992493 
1059	 0.222151767993152 
1060	 0.222606902964252 
1061	 0.223050060725393 
1062	 0.223509232839919 
1063	 0.22393899843354 
1064	 0.224331863571909 
1065	 0.224771357115912 
1066	 0.22520323666584 
1067	 0.225636178436564 
1068	 0.226088842395986 
1069	 0.2264805103961 
1070	 0.226898021920499 
1071	 0.22731604117227 
1072	 0.227750855092514 
1073	 0.228214834235047 
1074	 0.22864132719267 
1075	 0.229057203348868 
1076	 0.229446522182391 
1077	 0.229840429368333 
1078	 0.230238043463648 
1079	 0.230664462867633 
1080	 0.231077864318341 
1081	 0.231490721537338 
1082	 0.231859310817578 
1083	 0.232230188420749 
1084	 0.232597329296637 
1085	 0.23297766270079 
1086	 0.233353381760602 
1087	 0.233723223305328 
1088	 0.234111228169488 
1089	 0.234444014683407 
1090	 0.234820639758023 
1091	 0.235151774759031 
1092	 0.235474930021897 
1093	 0.23585195731818 
1094	 0.236168854623448 
1095	 0.23650741617443 
1096	 0.236863564532764 
1097	 0.23715990162504 
1098	 0.237464163392756 
1099	 0.237740976409562 
1100	 0.238041184089857 
1101	 0.2383567630782 
1102	 0.238657585364463 
1103	 0.238963708324947 
1104	 0.239252090727335 
1105	 0.239524953298629 
1106	 0.239795920130632 
1107	 0.240073040194267 
1108	 0.240358608885045 
1109	 0.240665131739521 
1110	 0.240960976890138 
1111	 0.241246329080304 
1112	 0.241533122536808 
1113	 0.24180869080309 
1114	 0.242061775580281 
1115	 0.242330729765527 
1116	 0.242598980496383 
1117	 0.242876708604754 
1118	 0.243166462568634 
1119	 0.243441345731508 
1120	 0.243740580843645 
1121	 0.244034037118697 
1122	 0.244300316074859 
1123	 0.244589905080048 
1124	 0.24486380183756 
1125	 0.245125091945744 
1126	 0.245382712541699 
1127	 0.245640913222189 
1128	 0.245887186851289 
1129	 0.246117396719864 
1130	 0.246359554364432 
1131	 0.246598811636161 
1132	 0.246842100419512 
1133	 0.247092842952845 
1134	 0.247338646985026 
1135	 0.247578884885666 
1136	 0.247829126668457 
1137	 0.248078770004815 
1138	 0.24832130264003 
1139	 0.248547853074389 
1140	 0.248768740961532 
1141	 0.248976540506441 
1142	 0.249155329768431 
1143	 0.249357780108462 
1144	 0.249561103892822 
1145	 0.249768286261499 
1146	 0.24999546466119 
1147	 0.250204259089818 
1148	 0.250407505645436 
1149	 0.250604130862879 
1150	 0.250785497159354 
1151	 0.25097104661608 
1152	 0.251172746863384 
1153	 0.251364501268602 
1154	 0.251546625106114 
1155	 0.251718336705833 
1156	 0.251908591596425 
1157	 0.252107110789003 
1158	 0.252286498660943 
1159	 0.252474485098577 
1160	 0.252654896884217 
1161	 0.25280034372827 
1162	 0.252968446407855 
1163	 0.253167149316488 
1164	 0.253344201864268 
1165	 0.253519153466512 
1166	 0.25367767258198 
1167	 0.253846621670224 
1168	 0.254003349853157 
1169	 0.25415682627287 
1170	 0.25430277828395 
1171	 0.25446914482227 
1172	 0.254639976208261 
1173	 0.254799954949401 
1174	 0.254978583250357 
1175	 0.255136646452241 
1176	 0.255267830129991 
1177	 0.255412034556096 
1178	 0.255555466140771 
1179	 0.255704497801141 
1180	 0.25586198599675 
1181	 0.256010176282769 
1182	 0.256157771287177 
1183	 0.256308624543235 
1184	 0.256449243313687 
1185	 0.256573849405642 
1186	 0.256717673522173 
1187	 0.256872158812625 
1188	 0.257011983471857 
1189	 0.257152528767241 
1190	 0.257291795074282 
1191	 0.257428241771323 
1192	 0.25755380125574 
1193	 0.257672042131319 
1194	 0.257796196084516 
1195	 0.257914486107957 
1196	 0.25802866082572 
1197	 0.258140322253635 
1198	 0.258263131898563 
1199	 0.258387970660805 
1200	 0.258504982072535 
1201	 0.258632940950693 
1202	 0.258787953810433 
1203	 0.258904067419177 
1204	 0.258997707705844 
1205	 0.259105157741662 
1206	 0.259200021668263 
1207	 0.25930438198129 
1208	 0.259427329091107 
1209	 0.259532738958452 
1210	 0.259626675930035 
1211	 0.259723584810981 
1212	 0.259809680273341 
1213	 0.259906065249768 
1214	 0.26001821921693 
1215	 0.260115866226025 
1216	 0.260209265049581 
1217	 0.260302537877209 
1218	 0.260392101292211 
1219	 0.260462846598587 
1220	 0.260558864176933 
1221	 0.260671919253472 
1222	 0.26077165774572 
1223	 0.260882093400495 
1224	 0.260976294244597 
1225	 0.261056610622 
1226	 0.261138233171801 
1227	 0.261210679305985 
1228	 0.261289051854641 
1229	 0.261363922729103 
1230	 0.261445472405656 
1231	 0.261535632690042 
1232	 0.26162262847581 
1233	 0.261710197227411 
1234	 0.261803122333088 
1235	 0.261885189091158 
1236	 0.261962180504287 
1237	 0.262040500636721 
1238	 0.262118635085389 
1239	 0.262187669747915 
1240	 0.262254287750996 
1241	 0.262315400980444 
1242	 0.262355595179414 
1243	 0.262417183317571 
1244	 0.262488872308045 
1245	 0.262558567346652 
1246	 0.262636621436803 
1247	 0.26271443240605 
1248	 0.262799361959099 
1249	 0.262870871853123 
1250	 0.262931109180906 
1251	 0.263007638014127 
1252	 0.263075055386514 
1253	 0.263132129085606 
1254	 0.263192317780777 
1255	 0.26325725213788 
1256	 0.263320051080474 
1257	 0.26338007361857 
1258	 0.263436311245943 
1259	 0.263503423542545 
1260	 0.263546801127231 
1261	 0.263563334758302 
1262	 0.263596823512215 
1263	 0.263623026962295 
1264	 0.263656888453519 
1265	 0.263704049970886 
1266	 0.263748246575196 
1267	 0.263791196860965 
1268	 0.263836276005256 
1269	 0.263880183090171 
1270	 0.263921652850326 
1271	 0.263972678546109 
1272	 0.264022354398864 
1273	 0.264084089612327 
1274	 0.264164294269514 
1275	 0.264232646176443 
1276	 0.264300378066873 
1277	 0.264369221616754 
1278	 0.264431962681991 
1279	 0.264499934299062 
1280	 0.264565766551128 
1281	 0.264646971607887 
1282	 0.264732918635991 
1283	 0.264829915013033 
1284	 0.264951268085814 
1285	 0.265060775716379 
1286	 0.265169419656602 
1287	 0.265277888932431 
1288	 0.265389704826396 
1289	 0.265499077799054 
1290	 0.265611875092842 
1291	 0.265729364438361 
1292	 0.265847404806888 
1293	 0.265977239957546 
1294	 0.266079329829985 
1295	 0.266172101591638 
1296	 0.266261543908796 
1297	 0.266332939594406 
1298	 0.266400468284042 
1299	 0.266472683100244 
1300	 0.266531041724498 
1301	 0.26655154251408 
1302	 0.26660516185457 
1303	 0.266673946314015 
1304	 0.266737618342428 
1305	 0.266828703571881 
1306	 0.266910110471036 
1307	 0.266962783671571 
1308	 0.266994269684473 
1309	 0.267004823407362 
1310	 0.266974397018817 
1311	 0.266971037051957 
1312	 0.266958988781404 
1313	 0.266962371555752 
1314	 0.266987659020824 
1315	 0.266988509971077 
1316	 0.26697342335876 
1317	 0.266970617764175 
1318	 0.26697170835713 
1319	 0.266963020890919 
1320	 0.266957193518314 
1321	 0.266948338689441 
1322	 0.266925497856419 
1323	 0.266907168052265 
1324	 0.266894361150139 
1325	 0.266885389610106 
1326	 0.26687294393649 
1327	 0.26684658849428 
1328	 0.266810841755702 
1329	 0.266758478132801 
1330	 0.26670733821655 
1331	 0.266636766865056 
1332	 0.266587204353753 
1333	 0.266551566256986 
1334	 0.266501170931931 
1335	 0.266441286831031 
1336	 0.266400870818031 
1337	 0.266357980164849 
1338	 0.26632541875991 
1339	 0.266334980644972 
1340	 0.26629727849435 
1341	 0.266225957742862 
1342	 0.266175396146715 
1343	 0.266115904885534 
1344	 0.266052482205179 
1345	 0.266018801669255 
1346	 0.265978401956763 
1347	 0.265926224988081 
1348	 0.265877155242902 
1349	 0.265801582745413 
1350	 0.265739410403054 
1351	 0.265689961049016 
1352	 0.26563860314939 
1353	 0.265600945154649 
1354	 0.265596043897844 
1355	 0.265555593592684 
1356	 0.265505643205538 
1357	 0.265449086572833 
1358	 0.265366670487348 
1359	 0.265310190074993 
1360	 0.265261044862085 
1361	 0.26521091203173 
1362	 0.265175572292261 
1363	 0.265129987301569 
1364	 0.265059918027793 
1365	 0.265024586263869 
1366	 0.265006642185736 
1367	 0.264992102765281 
1368	 0.264999393517832 
1369	 0.2649971310451 
1370	 0.264967879689931 
1371	 0.264915256578572 
1372	 0.264850642121938 
1373	 0.264795568631465 
1374	 0.264721714657294 
1375	 0.264638882094978 
1376	 0.264546300423634 
1377	 0.264451369034065 
1378	 0.264323977171781 
1379	 0.264166140940585 
1380	 0.264027796190118 
1381	 0.263882271272977 
1382	 0.26371682366046 
1383	 0.263561183067272 
1384	 0.263385515070605 
1385	 0.263187580456589 
1386	 0.262976287889684 
1387	 0.262755649722499 
1388	 0.262522768146842 
1389	 0.262276210256734 
1390	 0.262004641062798 
1391	 0.261734820607707 
1392	 0.261449749078996 
1393	 0.261112237619035 
1394	 0.260769654667928 
1395	 0.260385627359573 
1396	 0.259978311401208 
1397	 0.25958741443927 
1398	 0.259192930532241 
1399	 0.258780089913876 
1400	 0.258375596266143 
1401	 0.257945437419789 
1402	 0.257467131086837 
1403	 0.257041318912148 
1404	 0.256619269838684 
1405	 0.256217408570916 
1406	 0.255853486270168 
1407	 0.255475647482698 
1408	 0.25509464677562 
1409	 0.254728990088948 
1410	 0.254352109030849 
1411	 0.254016629909541 
1412	 0.253706395695242 
1413	 0.253407905790979 
1414	 0.253153949895027 
1415	 0.252926225417548 
1416	 0.252700150899263 
1417	 0.252485104991609 
1418	 0.252256982723371 
1419	 0.252033710109121 
1420	 0.251835012976717 
1421	 0.251647751504593 
1422	 0.251488945999493 
1423	 0.251347985071108 
1424	 0.251199824375069 
1425	 0.251058561670061 
1426	 0.250917328592652 
1427	 0.250762929646602 
1428	 0.250641223138127 
1429	 0.250533142672156 
1430	 0.250438063712511 
1431	 0.25037869537329 
1432	 0.250296938304154 
1433	 0.250209541143925 
1434	 0.250129964752899 
1435	 0.250038620566689 
1436	 0.249969396495792 
1437	 0.249918198546307 
1438	 0.249866278966413 
1439	 0.249823359204055 
1440	 0.249784609696816 
1441	 0.249749361555008 
1442	 0.249709580843338 
1443	 0.249659836431891 
1444	 0.249616290178426 
1445	 0.249578812391144 
1446	 0.249543539629812 
1447	 0.249539714521206 
1448	 0.249527367027666 
1449	 0.249467811676218 
1450	 0.249398932774852 
1451	 0.249330052009422 
1452	 0.249217836402269 
1453	 0.249163949475533 
1454	 0.249142998005423 
1455	 0.249112706936578 
1456	 0.249109094417082 
1457	 0.249079787153287 
1458	 0.249038623011041 
1459	 0.249000802054062 
1460	 0.248944677517969 
1461	 0.248912687165892 
1462	 0.248887648521081 
1463	 0.248871741081311 
1464	 0.248876084034876 
1465	 0.248878861222395 
1466	 0.248878968252534 
1467	 0.248895889055039 
1468	 0.248900489128535 
1469	 0.248947957704498 
1470	 0.249025225758366 
1471	 0.249119143550126 
1472	 0.249246568017381 
1473	 0.249388568822269 
1474	 0.249512946611848 
1475	 0.24966108946882 
1476	 0.24980153006231 
1477	 0.249927885525353 
1478	 0.250071115126528 
1479	 0.250202604283864 
1480	 0.250316047080881 
1481	 0.250450593515316 
1482	 0.250585289002089 
1483	 0.250726755607613 
1484	 0.250847488320765 
1485	 0.2509597374647 
1486	 0.251085452703406 
1487	 0.251196887476022 
1488	 0.251324848635601 
1489	 0.251490053263378 
1490	 0.25162018814496 
1491	 0.251730154774276 
1492	 0.251848353662971 
1493	 0.251958928640458 
1494	 0.252065461339456 
1495	 0.25216753533411 
1496	 0.252277984067161 
1497	 0.252394596198949 
1498	 0.252498933522769 
1499	 0.252615381621418 
1500	 0.25270750765256 
1501	 0.252766468846871 
1502	 0.252837314373397 
1503	 0.252894979613085 
1504	 0.252969876094032 
1505	 0.253065666913317 
1506	 0.253152697536117 
1507	 0.253241869222971 
1508	 0.253333977510995 
1509	 0.253413582229442 
1510	 0.253497248926205 
1511	 0.253587840774818 
1512	 0.253669803932733 
1513	 0.253739445960101 
1514	 0.253822792142596 
1515	 0.253908414694293 
1516	 0.253986143444998 
1517	 0.254069064779685 
1518	 0.254158310781286 
1519	 0.254243030224227 
1520	 0.254320157158244 
1521	 0.254410703601099 
1522	 0.254511510510125 
1523	 0.254601745921138 
1524	 0.254695849225378 
1525	 0.254784823658376 
1526	 0.254868870161813 
1527	 0.254948016057464 
1528	 0.255025488564214 
1529	 0.255097001612877 
1530	 0.255156877544513 
1531	 0.255223432175361 
1532	 0.255296194200109 
1533	 0.255355816804574 
1534	 0.255404277510866 
1535	 0.255462701535241 
1536	 0.255507102272591 
1537	 0.255572237815597 
1538	 0.255660796803251 
1539	 0.255742867944115 
1540	 0.255838891991725 
1541	 0.255919365489376 
1542	 0.25599402446101 
1543	 0.256060675760344 
1544	 0.25611086013383 
1545	 0.256167837485619 
1546	 0.256231139517973 
1547	 0.256282117834161 
1548	 0.25631927484663 
1549	 0.256349054470744 
1550	 0.256372066338096 
1551	 0.256414031253199 
1552	 0.256485278011798 
1553	 0.256564752562885 
1554	 0.256636849551178 
1555	 0.256698453687041 
1556	 0.256744788961592 
1557	 0.256775117552806 
1558	 0.256820735726863 
1559	 0.256875073667307 
1560	 0.256915945213178 
1561	 0.256959857743163 
1562	 0.25699154910689 
1563	 0.25700356348125 
1564	 0.257035776722491 
1565	 0.257074469329201 
1566	 0.257106709585524 
1567	 0.257148060831999 
1568	 0.257174175185852 
1569	 0.257184867146625 
1570	 0.257207048332756 
1571	 0.257225688975 
1572	 0.257252175911423 
1573	 0.257285024784462 
1574	 0.257321371005408 
1575	 0.257364846416644 
1576	 0.25740343300627 
1577	 0.257451107549267 
1578	 0.257479817319721 
1579	 0.257488928984812 
1580	 0.257518314929186 
1581	 0.257549924520023 
1582	 0.257577435823589 
1583	 0.257620659709393 
1584	 0.257647789841361 
1585	 0.257654431629561 
1586	 0.257672526151142 
1587	 0.257690100227286 
1588	 0.25771328921698 
1589	 0.257746629521736 
1590	 0.257771132182907 
1591	 0.257800120144905 
1592	 0.257819100952497 
1593	 0.257820274044867 
1594	 0.257831891718581 
1595	 0.257848446136718 
1596	 0.257857664585895 
1597	 0.257864360956319 
1598	 0.257878187931977 
1599	 0.257892387186295 
1600	 0.257901784396625 
1601	 0.257918069317756 
1602	 0.257928305223204 
1603	 0.25792621052092 
1604	 0.257927721942412 
1605	 0.257925997464822 
1606	 0.257933748419527 
1607	 0.257942269946331 
1608	 0.257959034466053 
1609	 0.257997864010336 
1610	 0.258022117189049 
1611	 0.2580366769481 
1612	 0.258049324263624 
1613	 0.258041774690927 
1614	 0.258025279178123 
1615	 0.258031544390741 
1616	 0.258035276628247 
1617	 0.258017323904063 
1618	 0.258014248239584 
1619	 0.258003732768526 
1620	 0.257995065593395 
1621	 0.258006359220151 
1622	 0.258048471985647 
1623	 0.258056355723341 
1624	 0.258060404709038 
1625	 0.258056567449818 
1626	 0.258039336663435 
1627	 0.258018785543828 
1628	 0.257981927068748 
1629	 0.257981285724536 
1630	 0.257994217621624 
1631	 0.257990118186826 
1632	 0.258000248045278 
1633	 0.258009433814743 
1634	 0.257998213219386 
1635	 0.258003098174433 
1636	 0.258044485231002 
1637	 0.258036340977752 
1638	 0.257993741822536 
1639	 0.257975643658839 
1640	 0.257936268398804 
1641	 0.257942419742088 
1642	 0.257985479797627 
1643	 0.258003854571461 
1644	 0.258037494584956 
1645	 0.25805493973919 
1646	 0.258056922358639 
1647	 0.258059104725993 
1648	 0.258064596118274 
1649	 0.258055781736731 
1650	 0.258026582745885 
1651	 0.258014561557405 
1652	 0.258007766236981 
1653	 0.257992387125231 
1654	 0.257979410453434 
1655	 0.257963961926924 
1656	 0.257944680259029 
1657	 0.257915406299417 
1658	 0.257889711931635 
1659	 0.257846820786488 
1660	 0.257772832438841 
1661	 0.257728611075735 
1662	 0.257695129658129 
1663	 0.257652597136587 
1664	 0.257611580064293 
1665	 0.257583720578218 
1666	 0.257550084765476 
1667	 0.257531414743051 
1668	 0.257545995972622 
1669	 0.257532114332357 
1670	 0.257502574376558 
1671	 0.257485221100122 
1672	 0.257469094605432 
1673	 0.257445001700717 
1674	 0.25742318923822 
1675	 0.257399357579771 
1676	 0.257353168887048 
1677	 0.257338840551638 
1678	 0.257355065546539 
1679	 0.257343820133835 
1680	 0.25733424115125 
1681	 0.257321006083598 
1682	 0.257282197891943 
1683	 0.25726750305036 
1684	 0.257277171906748 
1685	 0.257265127594184 
1686	 0.257255200864958 
1687	 0.257230669795389 
1688	 0.257177773745521 
1689	 0.257151007765531 
1690	 0.257139012011969 
1691	 0.257108765574523 
1692	 0.257080562012181 
1693	 0.257052342599406 
1694	 0.2570067086889 
1695	 0.256967625849046 
1696	 0.256937171135585 
1697	 0.256908696553511 
1698	 0.256871483493879 
1699	 0.256852381450658 
1700	 0.256858704843415 
1701	 0.256839104649952 
1702	 0.256811292538132 
1703	 0.256788017487456 
1704	 0.256759478926981 
1705	 0.256725683940831 
1706	 0.256699875893386 
1707	 0.256656918424843 
1708	 0.256596856540385 
1709	 0.256535835384596 
1710	 0.25645971597191 
1711	 0.256402349770333 
1712	 0.256347760956053 
1713	 0.256294185017682 
1714	 0.256254586439824 
1715	 0.256207842912982 
1716	 0.25615309141427 
1717	 0.256106016073317 
1718	 0.256068810588186 
1719	 0.256020232009721 
1720	 0.255967240566195 
1721	 0.255910022864701 
1722	 0.255849386797762 
1723	 0.255784998138201 
1724	 0.25571645124962 
1725	 0.255645683861302 
1726	 0.255565952842592 
1727	 0.2554928562786 
1728	 0.255423918470791 
1729	 0.255350785875932 
1730	 0.255283545316832 
1731	 0.255199510069227 
1732	 0.255098893638552 
1733	 0.255013307600806 
1734	 0.254920184597284 
1735	 0.254842578822088 
1736	 0.254784481636745 
1737	 0.254718311338741 
1738	 0.254657072883128 
1739	 0.254579838134963 
1740	 0.254489047281243 
1741	 0.254412554976573 
1742	 0.25433731288325 
1743	 0.254262033822616 
1744	 0.254204901305757 
1745	 0.254112766505991 
1746	 0.253990353638092 
1747	 0.25388591164915 
1748	 0.253797719277897 
1749	 0.25372517934489 
1750	 0.253661738764477 
1751	 0.253579999629888 
1752	 0.253489552065355 
1753	 0.253418825610357 
1754	 0.253352236314761 
1755	 0.253303331512105 
1756	 0.253258790117682 
1757	 0.253193055756769 
1758	 0.253122640496731 
1759	 0.253036160534157 
1760	 0.252967843097398 
1761	 0.252927060354699 
1762	 0.252869075027297 
1763	 0.252795517487575 
1764	 0.252683690115821 
1765	 0.252548847394574 
1766	 0.252425495056801 
1767	 0.252304219139377 
1768	 0.252213070278186 
1769	 0.25212461421005 
1770	 0.252033049683637 
1771	 0.251976251276922 
1772	 0.25194045738772 
1773	 0.251907550712484 
1774	 0.251870219457399 
1775	 0.251832226421852 
1776	 0.251758121086708 
1777	 0.251684572452995 
1778	 0.251626837531541 
1779	 0.251546795482007 
1780	 0.251481072247819 
1781	 0.251419505271032 
1782	 0.251361647621168 
1783	 0.251297753678854 
1784	 0.251251370375316 
1785	 0.251221850230271 
1786	 0.251186108306244 
1787	 0.251179190045705 
1788	 0.251142432853804 
1789	 0.25107606543057 
1790	 0.25101686502711 
1791	 0.250938049340285 
1792	 0.250877040507673 
1793	 0.250826613941239 
1794	 0.250791341950968 
1795	 0.250773443193963 
1796	 0.250741144610402 
1797	 0.250717432581807 
1798	 0.250678164108623 
1799	 0.250619864535417 
1800	 0.250572233182016 
1801	 0.246243870892737 
1802	 0.246434962083111 
1803	 0.246638315019862 
1804	 0.246851050153342 
1805	 0.247092254345207 
1806	 0.247305342354475 
1807	 0.24748729716599 
1808	 0.247661073148861 
1809	 0.247827375651713 
1810	 0.247970394409029 
1811	 0.248096731344897 
1812	 0.2482134652695 
1813	 0.248313117960157 
1814	 0.24836080899165 
1815	 0.248389985053742 
1816	 0.248394641210101 
1817	 0.248393807149907 
1818	 0.248353353518916 
1819	 0.248355680654757 
1820	 0.248359711815042 
1821	 0.248379060667815 
1822	 0.248436559584923 
1823	 0.248471723924503 
1824	 0.248500594986807 
1825	 0.248521319732237 
1826	 0.248528531077465 
1827	 0.248496446217606 
1828	 0.24844044764353 
1829	 0.248340005535458 
1830	 0.248270568134699 
1831	 0.248180850798482 
1832	 0.248114668386942 
1833	 0.248058545496887 
1834	 0.247979269035028 
1835	 0.247925758299686 
1836	 0.247852346825434 
1837	 0.247766031062405 
1838	 0.24770822608613 
1839	 0.247646844229429 
1840	 0.247579236482677 
1841	 0.247502998911226 
1842	 0.24744006916287 
1843	 0.247373566159391 
1844	 0.247285813770888 
1845	 0.247198524394723 
1846	 0.247109381427669 
1847	 0.247024981236284 
1848	 0.246957349268635 
1849	 0.246893982735476 
1850	 0.246847161221354 
1851	 0.246822145623746 
1852	 0.246810202186066 
1853	 0.246796558403642 
1854	 0.246757543669488 
1855	 0.246705912268307 
1856	 0.246654670966763 
1857	 0.2465636308972 
1858	 0.246479407224694 
1859	 0.246400421195833 
1860	 0.246279925782592 
1861	 0.246124173366456 
1862	 0.245959300324172 
1863	 0.245784225709029 
1864	 0.245598369579542 
1865	 0.245413721199127 
1866	 0.245227926202167 
1867	 0.24502771514109 
1868	 0.244777638756853 
1869	 0.244527148660855 
1870	 0.244279112433464 
1871	 0.243985355322326 
1872	 0.243667482549059 
1873	 0.243330313679312 
1874	 0.242944884783119 
1875	 0.242515582038848 
1876	 0.242067135723346 
1877	 0.241588941711432 
1878	 0.241060728373091 
1879	 0.240484202766308 
1880	 0.239829561216347 
1881	 0.239101640254947 
1882	 0.238313935132209 
1883	 0.23746689066179 
1884	 0.236533209040883 
1885	 0.235554034029319 
1886	 0.234535174288892 
1887	 0.233431828839378 
1888	 0.232271709990969 
1889	 0.231039891682972 
1890	 0.229759114574453 
1891	 0.228462357870141 
1892	 0.227127895092884 
1893	 0.225757164641343 
1894	 0.224350342644584 
1895	 0.222919327615731 
1896	 0.221460379842127 
1897	 0.220015725466567 
1898	 0.218566669048944 
1899	 0.217122582088597 
1900	 0.215691860497766 
1901	 0.2142785501863 
1902	 0.212912089711708 
1903	 0.211584023749366 
1904	 0.210302537725562 
1905	 0.209057126257001 
1906	 0.207850062659087 
1907	 0.20673366577939 
1908	 0.205666078406059 
1909	 0.20463448899872 
1910	 0.203663577593987 
1911	 0.202710856233803 
1912	 0.201817418023501 
1913	 0.200993681838088 
1914	 0.200248758560327 
1915	 0.199534540026268 
1916	 0.198887328917825 
1917	 0.198261664785345 
1918	 0.197662858597695 
1919	 0.197091274575965 
1920	 0.196544102977012 
1921	 0.196059300220788 
1922	 0.19562793041923 
1923	 0.195210454464218 
1924	 0.19484804981273 
1925	 0.194541265813093 
1926	 0.194261132525329 
1927	 0.194000346672048 
1928	 0.193819391452707 
1929	 0.193672601973155 
1930	 0.193536159752079 
1931	 0.19347420671916 
1932	 0.193438383822898 
1933	 0.193396871435512 
1934	 0.193394835205765 
1935	 0.193393541629505 
1936	 0.193372459542885 
1937	 0.193403092501467 
1938	 0.193461509978073 
1939	 0.193551604460344 
1940	 0.193683150769087 
1941	 0.19383171951236 
1942	 0.193979766789148 
1943	 0.194133311307741 
1944	 0.194296038200509 
1945	 0.194473466335785 
1946	 0.194665298782938 
1947	 0.194889084677749 
1948	 0.195102412619767 
1949	 0.195304042336867 
1950	 0.195534797234564 
1951	 0.195775675063906 
1952	 0.196049313198567 
1953	 0.196305741992542 
1954	 0.196577853414089 
1955	 0.196856896488782 
1956	 0.197132280555187 
1957	 0.197435982190701 
1958	 0.197779117936616 
1959	 0.198100320222572 
1960	 0.198430694895927 
1961	 0.198753223881463 
1962	 0.199049799500435 
1963	 0.199384662656911 
1964	 0.199740112760539 
1965	 0.200087216291645 
1966	 0.200472983488193 
1967	 0.200871622924737 
1968	 0.201245190820007 
1969	 0.201619606423521 
1970	 0.201979487793717 
1971	 0.202304743286466 
1972	 0.202664156243344 
1973	 0.203036524007115 
1974	 0.203402395937089 
1975	 0.20378037096106 
1976	 0.204155899436722 
1977	 0.204530814917729 
1978	 0.204896395082945 
1979	 0.205270722226585 
1980	 0.205659890434117 
1981	 0.206018735799743 
1982	 0.206343145544201 
1983	 0.206700875729174 
1984	 0.207050035695226 
1985	 0.207422403433374 
1986	 0.207839972569004 
1987	 0.208229706489498 
1988	 0.208623540594325 
1989	 0.208996354450219 
1990	 0.209352386545084 
1991	 0.209711834845474 
1992	 0.210074186638189 
1993	 0.210431880722726 
1994	 0.210794282535495 
1995	 0.211170171584068 
1996	 0.211525083556839 
1997	 0.211867560086615 
1998	 0.212219658493846 
1999	 0.212555011360604 
2000	 0.212908308327367 
2001	 0.213281872938901 
2002	 0.213648994174252 
2003	 0.214018182257691 
2004	 0.214382506073903 
2005	 0.214726996531906 
2006	 0.215054476425512 
2007	 0.21538455764603 
2008	 0.215689620720281 
2009	 0.21601828981218 
2010	 0.21636091689435 
2011	 0.216695459757374 
2012	 0.217041531808464 
2013	 0.217379926876879 
2014	 0.217712620661839 
2015	 0.218037555903001 
2016	 0.218366674904357 
2017	 0.218683903938795 
2018	 0.2190136727665 
2019	 0.219355235647656 
2020	 0.219674180467653 
2021	 0.219990674202356 
2022	 0.220299505549823 
2023	 0.220580524926336 
2024	 0.220882290523635 
2025	 0.221196910399297 
2026	 0.22150644131995 
2027	 0.221813594493305 
2028	 0.222125881767075 
2029	 0.222444852559488 
2030	 0.222776295622004 
2031	 0.223076030235214 
2032	 0.223373870952806 
2033	 0.223657698683799 
2034	 0.223913437863175 
2035	 0.224173179216428 
2036	 0.224439920621252 
2037	 0.224688446638257 
2038	 0.224914860821748 
2039	 0.225145735921732 
2040	 0.225368074967323 
2041	 0.225590151094637 
2042	 0.225818349954829 
2043	 0.226035673328268 
2044	 0.226268806167712 
2045	 0.226514870799306 
2046	 0.226745402981851 
2047	 0.226981617333207 
2048	 0.22720836350111 
2049	 0.227422355610511 
2050	 0.227633581572742 
2051	 0.227847429570524 
2052	 0.228046551033348 
2053	 0.228223453855389 
2054	 0.228413290896683 
2055	 0.22859624937849 
2056	 0.228791219402341 
2057	 0.2289834545846 
2058	 0.229186005151671 
2059	 0.229375390509641 
2060	 0.229561847872648 
2061	 0.229740917597948 
2062	 0.229913702953323 
2063	 0.230083676814889 
2064	 0.230239121826887 
2065	 0.230405960878378 
2066	 0.230585066703275 
2067	 0.23074950148093 
2068	 0.230893204189071 
2069	 0.231067247318892 
2070	 0.23123809300482 
2071	 0.231398377249586 
2072	 0.231574411071655 
2073	 0.231768830853043 
2074	 0.231962159620547 
2075	 0.232174707183119 
2076	 0.232351657939185 
2077	 0.232517143216142 
2078	 0.232684519135394 
2079	 0.232821716324705 
2080	 0.232974733394052 
2081	 0.233140188444894 
2082	 0.233306852655572 
2083	 0.233477365539703 
2084	 0.233641325831429 
2085	 0.233802541056083 
2086	 0.233976066521604 
2087	 0.234124615084279 
2088	 0.234252862118896 
2089	 0.234387429757864 
2090	 0.23450887144461 
2091	 0.234642801838549 
2092	 0.234776275292766 
2093	 0.234917908013183 
2094	 0.23508482480767 
2095	 0.235222518987048 
2096	 0.235342090657642 
2097	 0.235474163975763 
2098	 0.235589394808801 
2099	 0.235708418996408 
2100	 0.235858168859967 
2101	 0.236035048755837 
2102	 0.236203176697385 
2103	 0.236394823327663 
2104	 0.236561405079132 
2105	 0.236706717354846 
2106	 0.236879898322439 
2107	 0.237061872340974 
2108	 0.237235710265577 
2109	 0.237429960930497 
2110	 0.237609106447158 
2111	 0.2377628430746 
2112	 0.237929155806882 
2113	 0.238107199638499 
2114	 0.23827881980791 
2115	 0.238437673935034 
2116	 0.238594892214827 
2117	 0.23874153815117 
2118	 0.238866231703975 
2119	 0.239009397658509 
2120	 0.239159696239872 
2121	 0.239300465009745 
2122	 0.239448192680557 
2123	 0.239580745544215 
2124	 0.239715510979047 
2125	 0.239821067172603 
2126	 0.239894463950932 
2127	 0.239980355617497 
2128	 0.240056474813353 
2129	 0.24012179413691 
2130	 0.24016692223251 
2131	 0.240251383104187 
2132	 0.240317891984414 
2133	 0.240375479871309 
2134	 0.240423045203024 
2135	 0.240481467558464 
2136	 0.240515056651625 
2137	 0.240525508927046 
2138	 0.240528926704864 
2139	 0.240530775379481 
2140	 0.240511515956857 
2141	 0.240458581553763 
2142	 0.240417291164875 
2143	 0.240374926100418 
2144	 0.240321761744145 
2145	 0.240279435849152 
2146	 0.240210432968709 
2147	 0.240114222987924 
2148	 0.240006224491021 
2149	 0.239917930565989 
2150	 0.239822380886045 
2151	 0.239732935355588 
2152	 0.239674199948049 
2153	 0.239571989973208 
2154	 0.239451049759666 
2155	 0.239316603475188 
2156	 0.239170169511379 
2157	 0.239000839119192 
2158	 0.238795149164678 
2159	 0.238605870345963 
2160	 0.238388283204816 
2161	 0.238198986361772 
2162	 0.238054778542721 
2163	 0.237877360006736 
2164	 0.237714805242791 
2165	 0.237504766328621 
2166	 0.237296721516232 
2167	 0.237048359095866 
2168	 0.23684071204985 
2169	 0.236641538154242 
2170	 0.236446784350606 
2171	 0.236273612058159 
2172	 0.236081941127085 
2173	 0.235885626264742 
2174	 0.235687397960836 
2175	 0.235491873841283 
2176	 0.235279171073542 
2177	 0.235052631221522 
2178	 0.234827724003765 
2179	 0.234596775663617 
2180	 0.23435452831811 
2181	 0.234099999402893 
2182	 0.233855426625715 
2183	 0.233588548920935 
2184	 0.233350846203078 
2185	 0.233112001656484 
2186	 0.232887817873879 
2187	 0.232658939719073 
2188	 0.232419695539751 
2189	 0.232215079498755 
2190	 0.232031666665962 
2191	 0.231843699965025 
2192	 0.231671384291225 
2193	 0.231503548077254 
2194	 0.231326710277897 
2195	 0.231175119975876 
2196	 0.231060318398029 
2197	 0.230924639552389 
2198	 0.230788415950669 
2199	 0.23065526040459 
2200	 0.230513733574296 
2201	 0.230380091796498 
2202	 0.230252188604369 
2203	 0.230124003862687 
2204	 0.230018167595682 
2205	 0.229908755589023 
2206	 0.22984355792441 
2207	 0.229818911103848 
2208	 0.229782400291099 
2209	 0.229779936393118 
2210	 0.229746298403359 
2211	 0.229684299289248 
2212	 0.229657167072163 
2213	 0.229631447046414 
2214	 0.229623420710022 
2215	 0.229646972575111 
2216	 0.229661821529463 
2217	 0.229696592478761 
2218	 0.22970294066479 
2219	 0.229684038825362 
2220	 0.229686327044984 
2221	 0.229684553854862 
2222	 0.229681131947776 
2223	 0.229688850949628 
2224	 0.229714637717505 
2225	 0.229713166853207 
2226	 0.229693911261823 
2227	 0.229678442912089 
2228	 0.229659359363364 
2229	 0.229638370437243 
2230	 0.229606481079442 
2231	 0.229585584957812 
2232	 0.229572791580499 
2233	 0.22954304874333 
2234	 0.229528191251018 
2235	 0.229478735280062 
2236	 0.229413940881209 
2237	 0.229324769663121 
2238	 0.22918031449335 
2239	 0.229068200496765 
2240	 0.228964224239842 
2241	 0.228840663289874 
2242	 0.228741224233961 
2243	 0.228611433170303 
2244	 0.22845807281293 
2245	 0.228272036984143 
2246	 0.228093238881334 
2247	 0.227877394569246 
2248	 0.227613809500307 
2249	 0.227284083754758 
2250	 0.227013516417325 
2251	 0.226718777058601 
2252	 0.226449771619455 
2253	 0.226221088949778 
2254	 0.225983142617081 
2255	 0.22571191689388 
2256	 0.225504608627992 
2257	 0.225322468717011 
2258	 0.225187671625731 
2259	 0.225109332498329 
2260	 0.225026546320494 
2261	 0.224995540874816 
2262	 0.224941834704072 
2263	 0.224856250090494 
2264	 0.224827206711997 
2265	 0.224823946033434 
2266	 0.224830517871309 
2267	 0.22487806438223 
2268	 0.22492911116303 
2269	 0.224983085691108 
2270	 0.225054205504804 
2271	 0.225132794011732 
2272	 0.225217880443521 
2273	 0.225326465233894 
2274	 0.225478408937923 
2275	 0.22563317416319 
2276	 0.225834227561839 
2277	 0.226003382268558 
2278	 0.226152475584154 
2279	 0.226331712602465 
2280	 0.226527638200468 
2281	 0.226726253086703 
2282	 0.226948439769984 
2283	 0.22715507412297 
2284	 0.227369931101311 
2285	 0.227548650370182 
2286	 0.227715597623502 
2287	 0.227865916893551 
2288	 0.227975718449274 
2289	 0.228098175370588 
2290	 0.228231415637859 
2291	 0.228330981606339 
2292	 0.228427234536024 
2293	 0.228492379166554 
2294	 0.228494604240342 
2295	 0.228530429359041 
2296	 0.228555428197477 
2297	 0.228594192252739 
2298	 0.228670952576439 
2299	 0.228735444833851 
2300	 0.228835527863165 
2301	 0.228917390797764 
2302	 0.228948563884831 
2303	 0.228990154004073 
2304	 0.22898511835048 
2305	 0.228984812600446 
2306	 0.22902388307541 
2307	 0.229105624147911 
2308	 0.229152743741889 
2309	 0.229215491373686 
2310	 0.229245648732467 
2311	 0.229251646392513 
2312	 0.229241328262388 
2313	 0.229205902511037 
2314	 0.229191063850961 
2315	 0.229167640337073 
2316	 0.229151075573222 
2317	 0.229160816451405 
2318	 0.229138270760635 
2319	 0.229084277527074 
2320	 0.229043363966464 
2321	 0.229000679178616 
2322	 0.228943834215621 
2323	 0.228882601392993 
2324	 0.22882834033581 
2325	 0.228742890348023 
2326	 0.228701093092743 
2327	 0.228722038790518 
2328	 0.228687877782879 
2329	 0.228574398101705 
2330	 0.228549358031026 
2331	 0.228498572062375 
2332	 0.228454107643811 
2333	 0.228505619116775 
2334	 0.228546903046241 
2335	 0.228558760935702 
2336	 0.228520319400629 
2337	 0.2284279586541 
2338	 0.228307276436972 
2339	 0.228191110060525 
2340	 0.228037418313857 
2341	 0.227903741875748 
2342	 0.227824853148947 
2343	 0.227719803713014 
2344	 0.227630917329764 
2345	 0.227508954273313 
2346	 0.227366197441664 
2347	 0.227248232365755 
2348	 0.227129292402748 
2349	 0.22698729193534 
2350	 0.226884597051227 
2351	 0.226702158622972 
2352	 0.226415468454965 
2353	 0.226210166622508 
2354	 0.225994491146682 
2355	 0.225826043276552 
2356	 0.225783304310132 
2357	 0.225578078996345 
2358	 0.22527451996252 
2359	 0.225045295339281 
2360	 0.224745886001843 
2361	 0.224504952969901 
2362	 0.224383656863628 
2363	 0.224202110794689 
2364	 0.223946153900778 
2365	 0.223745409379316 
2366	 0.223575477762183 
2367	 0.223383889371921 
2368	 0.223249250978825 
2369	 0.22304133236969 
2370	 0.222780785741683 
2371	 0.222535110942239 
2372	 0.22223594942692 
2373	 0.221889111718304 
2374	 0.221603056952459 
2375	 0.221317711894144 
2376	 0.220996568781156 
2377	 0.22072315505657 
2378	 0.220411651169709 
2379	 0.220091034408516 
2380	 0.219822624497682 
2381	 0.219557595664667 
2382	 0.219333698926482 
2383	 0.219094522469042 
2384	 0.218784745231134 
2385	 0.218544806178455 
2386	 0.218313948964005 
2387	 0.218012412708281 
2388	 0.217761684552571 
2389	 0.217426611252021 
2390	 0.217061858910101 
2391	 0.216799471828241 
2392	 0.216524786367277 
2393	 0.216195805286114 
2394	 0.215881266152273 
2395	 0.215592138584294 
2396	 0.215263101976619 
2397	 0.215015689270607 
2398	 0.214784525085943 
2399	 0.214421082726349 
2400	 0.214056097972711 
2401	 0.213791721794952 
2402	 0.213544736877379 
2403	 0.213275714317662 
2404	 0.213021687001639 
2405	 0.21271425177255 
2406	 0.212371461703474 
2407	 0.212034433570493 
2408	 0.211718412874489 
2409	 0.211415011841369 
2410	 0.211064990093121 
2411	 0.210748278020338 
2412	 0.210487269827905 
2413	 0.210198292611215 
2414	 0.209899802160672 
2415	 0.209690320333738 
2416	 0.209450731270922 
2417	 0.209179946732979 
2418	 0.208900869607959 
2419	 0.208644316899325 
2420	 0.208332968583146 
2421	 0.207954271778753 
2422	 0.207670837612341 
2423	 0.207450497272073 
2424	 0.207164619528413 
2425	 0.206889033957096 
2426	 0.206551060880451 
2427	 0.206142382654265 
2428	 0.205762219272733 
2429	 0.205368996891357 
2430	 0.205024761824127 
2431	 0.204665489952291 
2432	 0.204342281541348 
2433	 0.20408266101584 
2434	 0.203809610664697 
2435	 0.203556598641922 
2436	 0.203229922872987 
2437	 0.20288842941919 
2438	 0.20252293827473 
2439	 0.202105336146986 
2440	 0.201760264938781 
2441	 0.20144835246993 
2442	 0.20107649237092 
2443	 0.200692336447933 
2444	 0.200249289121123 
2445	 0.199709426967126 
2446	 0.199314459780419 
2447	 0.198973097378518 
2448	 0.198635640333013 
2449	 0.198404353208025 
2450	 0.198077135324453 
2451	 0.197652669724367 
2452	 0.197299170952178 
2453	 0.196991969037204 
2454	 0.196653598877283 
2455	 0.196293513914109 
2456	 0.195968238329905 
2457	 0.195671987832189 
2458	 0.195361109252889 
2459	 0.195135589849464 
2460	 0.194745546322005 
2461	 0.194185847971183 
2462	 0.193793469597606 
2463	 0.193280843934385 
2464	 0.192981146785552 
2465	 0.19298773430432 
2466	 0.192789562774454 
2467	 0.192627401486527 
2468	 0.192396871243516 
2469	 0.192034800965708 
2470	 0.191635458952979 
2471	 0.191277978922713 
2472	 0.19095293843116 
2473	 0.190742157380324 
2474	 0.190510325708997 
2475	 0.190176120582347 
2476	 0.18988955438512 
2477	 0.189625109094871 
2478	 0.1893169250657 
2479	 0.189196557631154 
2480	 0.189036310872492 
2481	 0.188578987989353 
2482	 0.188288365609431 
2483	 0.188109326889605 
2484	 0.187817909900572 
2485	 0.187606207202194 
2486	 0.187403677669224 
2487	 0.187126771499684 
2488	 0.186852618188876 
2489	 0.186585859528327 
2490	 0.186272759050747 
2491	 0.185946996355373 
2492	 0.18566484110675 
2493	 0.185413617943607 
2494	 0.185213739980968 
2495	 0.184896605911562 
2496	 0.1845726920196 
2497	 0.184402836530555 
2498	 0.184314291810981 
2499	 0.184240619862679 
2500	 0.184062220634701 
