Wavelength	mm2400016.asd
350	 4.64066704534672E-02 
351	 5.51193633874266E-02 
352	 5.29711789259588E-02 
353	 3.85464901372133E-02 
354	 4.54816205451047E-02 
355	 4.73299082139302E-02 
356	 4.45654716973256E-02 
357	 0.044280639198533 
358	 5.16173438874246E-02 
359	 4.76127480633285E-02 
360	 3.80814388949056E-02 
361	 4.24701768333886E-02 
362	 0.041079588120886 
363	 4.12918119383759E-02 
364	 4.55080425688476E-02 
365	 4.33947558371271E-02 
366	 4.11293429072312E-02 
367	 4.16876900810551E-02 
368	 0.0450768644717 
369	 4.39257515637385E-02 
370	 4.31289471431268E-02 
371	 4.43671317881434E-02 
372	 4.65609214786545E-02 
373	 4.67090524417224E-02 
374	 4.78793469796869E-02 
375	 5.06947552990428E-02 
376	 5.03339265941284E-02 
377	 4.74755522665277E-02 
378	 4.61133848698952E-02 
379	 4.91574463813104E-02 
380	 5.06611769162088E-02 
381	 5.01438992750216E-02 
382	 4.91659457092026E-02 
383	 0.050303934978377 
384	 0.050670896751843 
385	 4.93651369907526E-02 
386	 4.75682323340295E-02 
387	 4.97530128682059E-02 
388	 0.05326541969712 
389	 5.48683265420516E-02 
390	 5.29473652347802E-02 
391	 5.40965797846133E-02 
392	 5.63667990466119E-02 
393	 0.058049054602931 
394	 5.80841847639355E-02 
395	 5.64262057260657E-02 
396	 5.59329379289266E-02 
397	 5.76653182904519E-02 
398	 0.057849011869377 
399	 5.96758684356037E-02 
400	 6.20633387127608E-02 
401	 0.062815128337386 
402	 6.25624418697431E-02 
403	 6.36167888598098E-02 
404	 6.55485776252951E-02 
405	 6.53049935240307E-02 
406	 6.58093682018707E-02 
407	 6.74501605492992E-02 
408	 6.93554647803144E-02 
409	 6.87481656328595E-02 
410	 6.82448682363851E-02 
411	 6.83193126516174E-02 
412	 6.85351863511522E-02 
413	 7.00192775245412E-02 
414	 7.08149796841864E-02 
415	 7.04201310808281E-02 
416	 7.04712653378301E-02 
417	 6.98033704290006E-02 
418	 6.97078683305118E-02 
419	 7.10492974662826E-02 
420	 7.15422399620053E-02 
421	 0.071094825443087 
422	 7.05020802479352E-02 
423	 7.08965509974721E-02 
424	 7.07208910796114E-02 
425	 7.01726475765131E-02 
426	 6.95356456179969E-02 
427	 0.068738828836778 
428	 6.85592182349831E-02 
429	 6.85486635233927E-02 
430	 6.80821748975622E-02 
431	 6.79011527393518E-02 
432	 6.73087373383288E-02 
433	 6.66006946484676E-02 
434	 6.69938822326242E-02 
435	 6.72500147630684E-02 
436	 6.70531854265587E-02 
437	 6.65426864122714E-02 
438	 0.066422995481192 
439	 6.70211420489791E-02 
440	 6.77701888112069E-02 
441	 6.78387859659211E-02 
442	 6.83508953839217E-02 
443	 0.068899476723661 
444	 6.92562131040697E-02 
445	 6.96862669099681E-02 
446	 7.00721348498703E-02 
447	 7.06053210902369E-02 
448	 7.13895919130058E-02 
449	 7.18463514047473E-02 
450	 7.21368444515159E-02 
451	 7.24303057390934E-02 
452	 7.28659139716996E-02 
453	 7.32821134898389E-02 
454	 7.35889113115917E-02 
455	 7.37925525142707E-02 
456	 0.074082953236979 
457	 7.44303923829208E-02 
458	 7.47740491677704E-02 
459	 7.50625726952709E-02 
460	 0.075521776654635 
461	 7.56872782008113E-02 
462	 7.55077416148747E-02 
463	 7.55705825126882E-02 
464	 7.58871479420555E-02 
465	 7.63349432256985E-02 
466	 7.66927744988458E-02 
467	 7.65706097667074E-02 
468	 0.076604256059182 
469	 7.68258529823882E-02 
470	 7.67844551437121E-02 
471	 0.076765504453604 
472	 7.68921230123905E-02 
473	 7.71384712201597E-02 
474	 7.71977357228993E-02 
475	 7.72736277189994E-02 
476	 0.077291070225908 
477	 7.71268903346078E-02 
478	 7.71684470613493E-02 
479	 7.74399544841595E-02 
480	 7.77406137610886E-02 
481	 7.76109843579501E-02 
482	 7.76721029800819E-02 
483	 0.077894073432732 
484	 7.80597255399565E-02 
485	 7.79964714714088E-02 
486	 0.077919787831472 
487	 7.79023588228654E-02 
488	 7.78948677714065E-02 
489	 7.80552149250398E-02 
490	 7.82086457252473E-02 
491	 7.82437681153935E-02 
492	 7.83508453593761E-02 
493	 7.83954456288875E-02 
494	 7.83700813671599E-02 
495	 7.83537059626654E-02 
496	 7.86258007858767E-02 
497	 7.86609148905744E-02 
498	 7.84404551175248E-02 
499	 7.88159638018612E-02 
500	 7.88589961900009E-02 
501	 7.87203573749207E-02 
502	 7.87600308447824E-02 
503	 7.87637267199247E-02 
504	 7.87928845913561E-02 
505	 7.88204206338993E-02 
506	 0.078745965136388 
507	 7.88499266262867E-02 
508	 7.89902145974334E-02 
509	 7.90200570354661E-02 
510	 7.89941564135729E-02 
511	 7.90572353595848E-02 
512	 7.90869166649198E-02 
513	 7.88933267571112E-02 
514	 7.90936438644009E-02 
515	 7.92826969445924E-02 
516	 7.92453230237415E-02 
517	 7.92780394303778E-02 
518	 7.93444808347925E-02 
519	 7.93915673165289E-02 
520	 7.93850424833026E-02 
521	 7.94612561727299E-02 
522	 7.95315118585887E-02 
523	 7.95464083635464E-02 
524	 7.95130968739596E-02 
525	 7.95900846614454E-02 
526	 7.97233194032573E-02 
527	 7.98133548548499E-02 
528	 7.97754380508727E-02 
529	 7.97980682745613E-02 
530	 7.98685114057733E-02 
531	 7.98549644755526E-02 
532	 7.99106401756723E-02 
533	 8.00260919245317E-02 
534	 8.01302067672702E-02 
535	 8.00547567584377E-02 
536	 8.00452872626513E-02 
537	 0.080136327701437 
538	 0.080257231485839 
539	 0.080255055692372 
540	 8.02968167049988E-02 
541	 8.04288022393191E-02 
542	 8.05046011569374E-02 
543	 8.06028759401907E-02 
544	 8.07067295415253E-02 
545	 8.07874688723037E-02 
546	 8.08733351740968E-02 
547	 8.09212961545216E-02 
548	 8.09815578024436E-02 
549	 8.11691287105479E-02 
550	 8.12364936609093E-02 
551	 8.13085977005566E-02 
552	 8.14825449134435E-02 
553	 8.16105287975029E-02 
554	 8.16486444421283E-02 
555	 8.16963825147397E-02 
556	 8.19050942236779E-02 
557	 8.21161685615752E-02 
558	 8.22813229200596E-02 
559	 0.082435736809018 
560	 8.27478073513952E-02 
561	 8.29424805763162E-02 
562	 8.31027884934631E-02 
563	 8.33866276700189E-02 
564	 0.083630117996594 
565	 8.38094371161537E-02 
566	 8.39955580142168E-02 
567	 8.43500198667244E-02 
568	 8.46743575214241E-02 
569	 0.085035000576263 
570	 8.54827576465499E-02 
571	 8.57905279175591E-02 
572	 8.61629221798438E-02 
573	 8.66203617422891E-02 
574	 8.70517764720002E-02 
575	 8.74792799218511E-02 
576	 8.79572030377617E-02 
577	 8.84665196451417E-02 
578	 0.088787482302243 
579	 8.92478735896501E-02 
580	 0.089830064496639 
581	 9.03873516778376E-02 
582	 0.091028916432242 
583	 9.16161864777835E-02 
584	 9.21234226858369E-02 
585	 9.27109865006175E-02 
586	 9.33869478006796E-02 
587	 9.40527935279169E-02 
588	 9.46268569372401E-02 
589	 9.52575108564778E-02 
590	 9.59476450117544E-02 
591	 9.66776710881439E-02 
592	 9.74127853301544E-02 
593	 9.81043864783285E-02 
594	 9.87801794981415E-02 
595	 9.94626565377281E-02 
596	 0.100110598918286 
597	 0.100796512722012 
598	 0.101487283282035 
599	 0.102104602061251 
600	 0.10270012090178 
601	 0.103316258357211 
602	 0.103956173575191 
603	 0.104560589739998 
604	 0.105142998696732 
605	 0.105732914388605 
606	 0.106348016376586 
607	 0.106901791664825 
608	 0.107424296051015 
609	 0.107933668125103 
610	 0.108427172607025 
611	 0.108917821495488 
612	 0.109405043865662 
613	 0.109867924832652 
614	 0.110235694682965 
615	 0.110577927425959 
616	 0.110926242812068 
617	 0.111279643506359 
618	 0.111626311759005 
619	 0.111923351009899 
620	 0.112165438761282 
621	 0.112431060755124 
622	 0.112707274840638 
623	 0.112973677004048 
624	 0.113212813210074 
625	 0.113469061084523 
626	 0.113711258859821 
627	 0.113922402322388 
628	 0.114110548766575 
629	 0.114329467499327 
630	 0.1145673282051 
631	 0.114787276505508 
632	 0.114929082347889 
633	 0.115110970907428 
634	 0.115336603558912 
635	 0.115517025395576 
636	 0.115705425310344 
637	 0.115904715555883 
638	 0.116101754985045 
639	 0.116258659374165 
640	 0.116461156078605 
641	 0.116666186521841 
642	 0.116796580696105 
643	 0.117017658075424 
644	 0.117239616623543 
645	 0.117416023909505 
646	 0.117597537676042 
647	 0.117789734862162 
648	 0.117988108409837 
649	 0.118192499581184 
650	 0.118448103222233 
651	 0.118662069574104 
652	 0.118849697558146 
653	 0.119115929623142 
654	 0.119367696389833 
655	 0.119579200740971 
656	 0.119774473036815 
657	 0.120074495805378 
658	 0.120341491989973 
659	 0.120601779951029 
660	 0.120933378294837 
661	 0.121166076502768 
662	 0.121424427523131 
663	 0.121750288947939 
664	 0.12202436944252 
665	 0.122343872046642 
666	 0.122685851322113 
667	 0.122999861932644 
668	 0.123260151225834 
669	 0.123593427218905 
670	 0.123994190273615 
671	 0.124345903533609 
672	 0.124660419401341 
673	 0.125009451053311 
674	 0.125432847442711 
675	 0.125881517914067 
676	 0.126255685161391 
677	 0.126614574701355 
678	 0.127062885714493 
679	 0.127457687909771 
680	 0.127844979651817 
681	 0.128255973653528 
682	 0.128680698460453 
683	 0.129175425609894 
684	 0.129672687817102 
685	 0.130114996807052 
686	 0.130602531532384 
687	 0.131116831214932 
688	 0.131633698298866 
689	 0.132125341160904 
690	 0.132564688281361 
691	 0.133062122810373 
692	 0.133646641118258 
693	 0.134151778508956 
694	 0.134611416553858 
695	 0.135118047560135 
696	 0.13574204611805 
697	 0.136286526511827 
698	 0.136814887093323 
699	 0.137361695828856 
700	 0.137913466899683 
701	 0.13846113091958 
702	 0.139041543699986 
703	 0.139656340578403 
704	 0.140178326801573 
705	 0.140726110848641 
706	 0.141287332606748 
707	 0.141799984011351 
708	 0.142404473139166 
709	 0.143019985520169 
710	 0.143599804671403 
711	 0.144182304354792 
712	 0.144751816379468 
713	 0.145297988682622 
714	 0.145825668262434 
715	 0.146387958446812 
716	 0.146947146038629 
717	 0.147484723696431 
718	 0.148001865215517 
719	 0.148538286224892 
720	 0.149039746957956 
721	 0.149489503520245 
722	 0.149970682578157 
723	 0.150455350926288 
724	 0.150897800235249 
725	 0.151277126849903 
726	 0.15173236836859 
727	 0.152157834408552 
728	 0.15251447348019 
729	 0.152840154065141 
730	 0.153207205809497 
731	 0.153564375825709 
732	 0.153865276772692 
733	 0.154127374150303 
734	 0.154419712332303 
735	 0.15468430025842 
736	 0.154842602603896 
737	 0.15505260090678 
738	 0.15523487646152 
739	 0.155366646086443 
740	 0.155503940741043 
741	 0.155603326642577 
742	 0.155673986561822 
743	 0.155729320355264 
744	 0.155766092612696 
745	 0.155757545281784 
746	 0.155730156151447 
747	 0.155722147925039 
748	 0.155662326045848 
749	 0.155545457028058 
750	 0.155407166552673 
751	 0.155321210116351 
752	 0.155201575246964 
753	 0.155043938719272 
754	 0.15486158748229 
755	 0.154655021265996 
756	 0.154471334523354 
757	 0.154261568418004 
758	 0.153953318182041 
759	 0.153694449777599 
760	 0.153427725862266 
761	 0.15313029867367 
762	 0.152846166724369 
763	 0.152548139575885 
764	 0.152237515989121 
765	 0.151915102156464 
766	 0.151554728961553 
767	 0.151215302491024 
768	 0.150879618093113 
769	 0.150498405869971 
770	 0.15009991557167 
771	 0.149711553902261 
772	 0.149320213217049 
773	 0.148868120467153 
774	 0.148455672869519 
775	 0.148086718315912 
776	 0.147727857215976 
777	 0.147307948499819 
778	 0.146904721123602 
779	 0.146516856496335 
780	 0.146109950127211 
781	 0.14569452641341 
782	 0.14526977446344 
783	 0.144844646776332 
784	 0.144438977060986 
785	 0.144044706147554 
786	 0.14364091999516 
787	 0.14322153683995 
788	 0.14281812770563 
789	 0.142450158050086 
790	 0.142058454202528 
791	 0.141593502367432 
792	 0.141219571696383 
793	 0.140851019018993 
794	 0.140456357058789 
795	 0.140061436349563 
796	 0.139640372322146 
797	 0.139251073144174 
798	 0.138919656374357 
799	 0.138596970286867 
800	 0.138222763187937 
801	 0.13782184717074 
802	 0.137446010686628 
803	 0.137126931878723 
804	 0.136818671566918 
805	 0.136489676587116 
806	 0.136129157712655 
807	 0.135789550903251 
808	 0.135460233357641 
809	 0.135138353694221 
810	 0.134838957762815 
811	 0.134529403245258 
812	 0.13420894883678 
813	 0.133896528153041 
814	 0.133644192312863 
815	 0.133392383110575 
816	 0.133117731635289 
817	 0.132822601357807 
818	 0.132546564604741 
819	 0.132301491541804 
820	 0.132067268470264 
821	 0.131803691077408 
822	 0.131549162485635 
823	 0.131292341726679 
824	 0.131035103370017 
825	 0.130810111435832 
826	 0.130647836150842 
827	 0.130474938797437 
828	 0.130232926039709 
829	 0.130000581440673 
830	 0.129795573019446 
831	 0.129601466855076 
832	 0.129400209517048 
833	 0.129296010140754 
834	 0.129147216759003 
835	 0.128935146992849 
836	 0.128770441711719 
837	 0.128652292007287 
838	 0.128523975435133 
839	 0.128357791541218 
840	 0.128192808816606 
841	 0.128036780596907 
842	 0.127918002489309 
843	 0.127847585331316 
844	 0.127783087376901 
845	 0.127663432990392 
846	 0.127512449677526 
847	 0.127391995239035 
848	 0.127302466973563 
849	 0.127267062492113 
850	 0.127227382128613 
851	 0.127079810679871 
852	 0.126999134287966 
853	 0.126959477952334 
854	 0.126934202408767 
855	 0.12693837331401 
856	 0.126905247620011 
857	 0.126836465134682 
858	 0.126766424862645 
859	 0.12676590878938 
860	 0.126757670806295 
861	 0.126736405541836 
862	 0.126716109846454 
863	 0.126665373027559 
864	 0.126679531511044 
865	 0.126726667264329 
866	 0.126712986480676 
867	 0.126726615072453 
868	 0.12676197413361 
869	 0.126808413277677 
870	 0.126859334503375 
871	 0.126929893490484 
872	 0.126965498594011 
873	 0.12696823897886 
874	 0.127044230234992 
875	 0.127129475881878 
876	 0.127165426613679 
877	 0.127166780950349 
878	 0.127332172044713 
879	 0.127540347937545 
880	 0.127671957336251 
881	 0.127685286673411 
882	 0.127842846167483 
883	 0.127959245572987 
884	 0.128039471536969 
885	 0.128179585636919 
886	 0.128290818058152 
887	 0.128429060558608 
888	 0.128589559571309 
889	 0.12871578779061 
890	 0.128853188244862 
891	 0.129015138500449 
892	 0.129216767208228 
893	 0.129473090942479 
894	 0.12966749965667 
895	 0.129816655909051 
896	 0.129972604150713 
897	 0.130194914851006 
898	 0.130397050771852 
899	 0.130619283964196 
900	 0.130891571747419 
901	 0.131129100330846 
902	 0.131350375904257 
903	 0.131588574698464 
904	 0.131854126464946 
905	 0.132043751910155 
906	 0.132305831158025 
907	 0.132614480946173 
908	 0.132887696837116 
909	 0.133248320772357 
910	 0.133546348866181 
911	 0.133794763620466 
912	 0.134100587426257 
913	 0.134347322124515 
914	 0.134666609232907 
915	 0.135051544743497 
916	 0.135370770278204 
917	 0.135707110087543 
918	 0.136047716461076 
919	 0.136391402324567 
920	 0.136760175578789 
921	 0.137159203261388 
922	 0.137526743554487 
923	 0.137875243435308 
924	 0.138330987796395 
925	 0.138710738266839 
926	 0.139114158625783 
927	 0.139585572121591 
928	 0.139958915284382 
929	 0.140461152083873 
930	 0.140970200632427 
931	 0.141362689519174 
932	 0.141719155964603 
933	 0.142211782964933 
934	 0.142772816576167 
935	 0.143285393964498 
936	 0.143727740531215 
937	 0.144179844523521 
938	 0.144692850376099 
939	 0.145272404667013 
940	 0.145829506712944 
941	 0.146338973603422 
942	 0.146871219723118 
943	 0.147485397663101 
944	 0.148033699596031 
945	 0.148592543283121 
946	 0.149202248041233 
947	 0.149843062090827 
948	 0.15032763373052 
949	 0.1509194077646 
950	 0.151592038821733 
951	 0.152199583264805 
952	 0.152867779347618 
953	 0.153441590938128 
954	 0.154020847702313 
955	 0.154788723707726 
956	 0.155535727599723 
957	 0.156215845350051 
958	 0.156859720513302 
959	 0.157527821105325 
960	 0.158172138085351 
961	 0.158805156729957 
962	 0.15951791821944 
963	 0.16037498542889 
964	 0.161044322062938 
965	 0.161700384915471 
966	 0.162455091242862 
967	 0.163296343109402 
968	 0.163935196955949 
969	 0.164608280071657 
970	 0.165337990335588 
971	 0.16601050999313 
972	 0.166806651149105 
973	 0.167695264242504 
974	 0.168600001683603 
975	 0.169438698422497 
976	 0.170221419874149 
977	 0.170978912155627 
978	 0.171732543125943 
979	 0.172490787220354 
980	 0.17324215350094 
981	 0.174042299888859 
982	 0.174906031584837 
983	 0.175796106434815 
984	 0.176585907343304 
985	 0.177344217606606 
986	 0.178095797481517 
987	 0.178862812943098 
988	 0.179837734096941 
989	 0.180643410513557 
990	 0.181384386286946 
991	 0.182318133935451 
992	 0.18310920282072 
993	 0.183765789938112 
994	 0.184556177816836 
995	 0.185642551646005 
996	 0.186344348780188 
997	 0.187133948951066 
998	 0.187911027833801 
999	 0.188535985463193 
1000	 0.189592457353805 
1001	 0.190042106623319 
1002	 0.190755188678526 
1003	 0.191468383090594 
1004	 0.19221258159524 
1005	 0.193039042423566 
1006	 0.193802125027769 
1007	 0.194555993994533 
1008	 0.195291475236885 
1009	 0.195941313204441 
1010	 0.196540868152854 
1011	 0.197208311326459 
1012	 0.197847097278863 
1013	 0.198545527000792 
1014	 0.199312915771104 
1015	 0.199943598843565 
1016	 0.200528804870835 
1017	 0.201159314932648 
1018	 0.2017832237476 
1019	 0.202387364274993 
1020	 0.203042459343805 
1021	 0.203728848856644 
1022	 0.204331518827687 
1023	 0.204860659268196 
1024	 0.205404992459472 
1025	 0.205963732684642 
1026	 0.206507157561663 
1027	 0.207069028906694 
1028	 0.207717499256715 
1029	 0.208314242537546 
1030	 0.208883985745185 
1031	 0.209461466956239 
1032	 0.210069056916382 
1033	 0.210553919634282 
1034	 0.211049954558432 
1035	 0.211560265759767 
1036	 0.212017778297619 
1037	 0.212484384723328 
1038	 0.212982786044202 
1039	 0.213516656585471 
1040	 0.214018935507649 
1041	 0.214524124644973 
1042	 0.215026741394512 
1043	 0.215453220183499 
1044	 0.215909788700617 
1045	 0.216389142046174 
1046	 0.216867483513488 
1047	 0.217258550796969 
1048	 0.217714377730223 
1049	 0.218174362317442 
1050	 0.218630641857397 
1051	 0.219182755009386 
1052	 0.21966567628434 
1053	 0.220116020610637 
1054	 0.220556025226224 
1055	 0.22095149520851 
1056	 0.221441602265609 
1057	 0.221916823510116 
1058	 0.222420848100798 
1059	 0.222895915424628 
1060	 0.223376723092742 
1061	 0.223818175652821 
1062	 0.224255597116349 
1063	 0.22470134275535 
1064	 0.225137043432999 
1065	 0.225555450514035 
1066	 0.225924668291506 
1067	 0.22634420655132 
1068	 0.226824371671378 
1069	 0.227258177546572 
1070	 0.227703956525081 
1071	 0.228203556415745 
1072	 0.228641787958473 
1073	 0.229031747780073 
1074	 0.229438440371565 
1075	 0.229825423977617 
1076	 0.230216463423276 
1077	 0.230663677156772 
1078	 0.23107226380467 
1079	 0.23144761224333 
1080	 0.231803788427499 
1081	 0.232138125525884 
1082	 0.232502002542283 
1083	 0.232855763305269 
1084	 0.233210752614421 
1085	 0.233617239308827 
1086	 0.23405314616867 
1087	 0.234435701117 
1088	 0.234846245211062 
1089	 0.235232963500138 
1090	 0.235532656956745 
1091	 0.235869785139767 
1092	 0.236264823887657 
1093	 0.236640464812418 
1094	 0.236983184780117 
1095	 0.237286291065121 
1096	 0.237564871189839 
1097	 0.2378591306677 
1098	 0.238169165207935 
1099	 0.238518494198103 
1100	 0.238842020173742 
1101	 0.239152629350002 
1102	 0.239463417352798 
1103	 0.239780570531121 
1104	 0.24007898477497 
1105	 0.240356560462603 
1106	 0.240663019727357 
1107	 0.240960501242049 
1108	 0.241236188063419 
1109	 0.241530102828333 
1110	 0.241823898853047 
1111	 0.242103346360575 
1112	 0.242375865770362 
1113	 0.242649658548784 
1114	 0.242901916450045 
1115	 0.243179881810264 
1116	 0.243487044033143 
1117	 0.243759487590051 
1118	 0.244023717712056 
1119	 0.244284602158079 
1120	 0.24454279065715 
1121	 0.244814067301167 
1122	 0.245091796702788 
1123	 0.245392107042027 
1124	 0.245668757017543 
1125	 0.245927661295582 
1126	 0.246188410255435 
1127	 0.246450565496071 
1128	 0.246706930841949 
1129	 0.246958559841144 
1130	 0.247210456722442 
1131	 0.247457829053042 
1132	 0.247701304096406 
1133	 0.247951494593076 
1134	 0.248187180847712 
1135	 0.24841825347079 
1136	 0.248633613045971 
1137	 0.248834655177793 
1138	 0.249038101247085 
1139	 0.249263533501428 
1140	 0.249497609378753 
1141	 0.249731868800784 
1142	 0.250002415136767 
1143	 0.250222249574457 
1144	 0.250414625482593 
1145	 0.250616481481859 
1146	 0.250794880000059 
1147	 0.250983687155983 
1148	 0.251187116543605 
1149	 0.251378141780995 
1150	 0.251549554244142 
1151	 0.251736983920056 
1152	 0.251955425178498 
1153	 0.252161360381857 
1154	 0.252361255920797 
1155	 0.25257442681159 
1156	 0.25277345051585 
1157	 0.252948512214691 
1158	 0.253139030980036 
1159	 0.253356535036668 
1160	 0.253540468650497 
1161	 0.253702031575302 
1162	 0.253869327504834 
1163	 0.254014078528989 
1164	 0.254175225312737 
1165	 0.254335623296592 
1166	 0.254524763439014 
1167	 0.254711226883876 
1168	 0.254878370948768 
1169	 0.255041307467246 
1170	 0.255197381632079 
1171	 0.255349699108758 
1172	 0.255490383795842 
1173	 0.255639857344506 
1174	 0.25578746012684 
1175	 0.255939027257133 
1176	 0.256087050116258 
1177	 0.256248722951915 
1178	 0.256441165989562 
1179	 0.256597977947323 
1180	 0.256750061066741 
1181	 0.256890671993687 
1182	 0.256994501281171 
1183	 0.257097913799498 
1184	 0.25724175134415 
1185	 0.257404153082511 
1186	 0.257565547965714 
1187	 0.257766962328419 
1188	 0.257920158202079 
1189	 0.258051793379692 
1190	 0.258187513154032 
1191	 0.258305817108281 
1192	 0.258429892951094 
1193	 0.258558748397719 
1194	 0.258679376143397 
1195	 0.258787296752635 
1196	 0.258904889739816 
1197	 0.259019170647064 
1198	 0.259142512867648 
1199	 0.259271983033251 
1200	 0.259413954304602 
1201	 0.259542447295217 
1202	 0.259676321075029 
1203	 0.259793936636004 
1204	 0.259896423258277 
1205	 0.260007032464899 
1206	 0.260106899390252 
1207	 0.260222529535423 
1208	 0.260356669667412 
1209	 0.260472294820384 
1210	 0.260589627606474 
1211	 0.26069875125161 
1212	 0.260794830399114 
1213	 0.260888784498722 
1214	 0.260977268835578 
1215	 0.261067469126917 
1216	 0.261155678224394 
1217	 0.261235297504993 
1218	 0.261326168815951 
1219	 0.261416646964465 
1220	 0.261522846146954 
1221	 0.261650406170679 
1222	 0.261751846858913 
1223	 0.261858513082397 
1224	 0.261950742935241 
1225	 0.262014526308537 
1226	 0.262092663373619 
1227	 0.262173285685967 
1228	 0.262255284086742 
1229	 0.262344810843296 
1230	 0.262424736211136 
1231	 0.262503694027537 
1232	 0.262577582930287 
1233	 0.262646160046468 
1234	 0.262697950325791 
1235	 0.26277555290416 
1236	 0.262857781787555 
1237	 0.262949302317504 
1238	 0.263066364324679 
1239	 0.263158364461421 
1240	 0.263249097401271 
1241	 0.263329175522133 
1242	 0.263390630935697 
1243	 0.26346014682493 
1244	 0.263528687202394 
1245	 0.263595712836244 
1246	 0.263661321718623 
1247	 0.263729698149016 
1248	 0.263798107566671 
1249	 0.263863783380976 
1250	 0.263944391008429 
1251	 0.264017110673894 
1252	 0.264081454044018 
1253	 0.264143247230401 
1254	 0.264198448594007 
1255	 0.264233476499778 
1256	 0.264290610612574 
1257	 0.26436260000516 
1258	 0.264419679916907 
1259	 0.264477432997073 
1260	 0.264536287687525 
1261	 0.264599941838483 
1262	 0.264636397048741 
1263	 0.264649730058435 
1264	 0.264685702043649 
1265	 0.264705499732636 
1266	 0.264739023944984 
1267	 0.264815887721645 
1268	 0.264861185598381 
1269	 0.264906624110377 
1270	 0.264932001444738 
1271	 0.264984698022422 
1272	 0.265049154455664 
1273	 0.265107469173379 
1274	 0.265182658769714 
1275	 0.265237989204861 
1276	 0.265261791581694 
1277	 0.265323444508671 
1278	 0.265395829483927 
1279	 0.265473350173387 
1280	 0.265572958449014 
1281	 0.265674212132224 
1282	 0.265777126750485 
1283	 0.265882577266637 
1284	 0.266013535995556 
1285	 0.266115209266632 
1286	 0.266210561634104 
1287	 0.266321954176984 
1288	 0.266430146146575 
1289	 0.266541099255365 
1290	 0.266649819205274 
1291	 0.266760755777445 
1292	 0.26686542030889 
1293	 0.266968688947276 
1294	 0.267061521876702 
1295	 0.267151002385528 
1296	 0.267233461254888 
1297	 0.267305549777369 
1298	 0.267377638456733 
1299	 0.26744273736994 
1300	 0.267508860849075 
1301	 0.267564951697927 
1302	 0.2676303122003 
1303	 0.267706204967602 
1304	 0.267779838091833 
1305	 0.267832737003509 
1306	 0.26788150688321 
1307	 0.26789826168868 
1308	 0.267908847367825 
1309	 0.267936244355744 
1310	 0.26797305343826 
1311	 0.267997128236566 
1312	 0.26803545812664 
1313	 0.26804437554817 
1314	 0.268024780439817 
1315	 0.268019006590086 
1316	 0.268011609505758 
1317	 0.267992641679993 
1318	 0.267966383647947 
1319	 0.26794806846045 
1320	 0.267909955100373 
1321	 0.267895711159884 
1322	 0.267900634936111 
1323	 0.267920573642442 
1324	 0.267901624724142 
1325	 0.26787129702667 
1326	 0.267864009677273 
1327	 0.267826884158151 
1328	 0.267793848183182 
1329	 0.267791094960963 
1330	 0.267749273288516 
1331	 0.267671272935014 
1332	 0.267610274141971 
1333	 0.267544473070313 
1334	 0.267481708193807 
1335	 0.267411681764511 
1336	 0.267359782054424 
1337	 0.267313483396377 
1338	 0.267277977676312 
1339	 0.267266987760339 
1340	 0.267235408401004 
1341	 0.267212141884025 
1342	 0.26716927465915 
1343	 0.267099492408563 
1344	 0.267043176237163 
1345	 0.266984475009095 
1346	 0.266920150044738 
1347	 0.266887297339476 
1348	 0.266845140131679 
1349	 0.266789926274643 
1350	 0.266737520610339 
1351	 0.266685215731755 
1352	 0.266623428599816 
1353	 0.26656852124395 
1354	 0.266526037110092 
1355	 0.266468231949851 
1356	 0.266402575398178 
1357	 0.266336783208831 
1358	 0.266255743723658 
1359	 0.26619321070818 
1360	 0.266127396380722 
1361	 0.266079834241045 
1362	 0.266062827912945 
1363	 0.266029213250697 
1364	 0.265995796491563 
1365	 0.265966143582854 
1366	 0.265928346791842 
1367	 0.265896779857321 
1368	 0.26587744669386 
1369	 0.265850066937521 
1370	 0.265810662836605 
1371	 0.265772702974309 
1372	 0.265725584900078 
1373	 0.265658987544678 
1374	 0.265586439990974 
1375	 0.265510783734715 
1376	 0.26540180458753 
1377	 0.265278227724785 
1378	 0.265138196249696 
1379	 0.264957692032907 
1380	 0.264800669635735 
1381	 0.264641200386629 
1382	 0.264476414916248 
1383	 0.264331091128125 
1384	 0.264152038372955 
1385	 0.263964091351504 
1386	 0.263750306031434 
1387	 0.263510925223389 
1388	 0.263256829573664 
1389	 0.262984816663679 
1390	 0.262694421317647 
1391	 0.262389698826381 
1392	 0.262068801191371 
1393	 0.261705053107808 
1394	 0.261317300917757 
1395	 0.260896151008747 
1396	 0.260462802049237 
1397	 0.260046497824183 
1398	 0.25963407890197 
1399	 0.259205376275768 
1400	 0.258786797177324 
1401	 0.258338447675359 
1402	 0.257848351588564 
1403	 0.257401267390039 
1404	 0.256947803561335 
1405	 0.256525723866096 
1406	 0.256141160093689 
1407	 0.255743201020967 
1408	 0.25534697033071 
1409	 0.254965520254341 
1410	 0.254583741889593 
1411	 0.254224898779583 
1412	 0.253877179465478 
1413	 0.253551638854449 
1414	 0.253269100466295 
1415	 0.252995882992782 
1416	 0.252761261772013 
1417	 0.252557644759611 
1418	 0.252312873763497 
1419	 0.252077729240009 
1420	 0.251889943847792 
1421	 0.251693774063812 
1422	 0.251538890119129 
1423	 0.25141854519956 
1424	 0.251262643875743 
1425	 0.251084841507435 
1426	 0.250930574191448 
1427	 0.250760626025831 
1428	 0.250629448380778 
1429	 0.250516950154233 
1430	 0.250424682782018 
1431	 0.250378686218709 
1432	 0.250301301863898 
1433	 0.250227988110783 
1434	 0.250150618263327 
1435	 0.250041593033605 
1436	 0.249969018958521 
1437	 0.249926818614253 
1438	 0.249867276220039 
1439	 0.249813011255442 
1440	 0.249759829853479 
1441	 0.249701894496456 
1442	 0.249649677489666 
1443	 0.249610642276316 
1444	 0.249576942892787 
1445	 0.249529399671955 
1446	 0.249493361132545 
1447	 0.249468947308297 
1448	 0.249436368693104 
1449	 0.249400074120222 
1450	 0.249348304614555 
1451	 0.249298485113445 
1452	 0.249226349633114 
1453	 0.249193185908627 
1454	 0.249183952212585 
1455	 0.249155718430124 
1456	 0.24914466042342 
1457	 0.249107651160561 
1458	 0.249040538470657 
1459	 0.248993863284982 
1460	 0.248944556173892 
1461	 0.248908486188526 
1462	 0.248881443631523 
1463	 0.248863449443867 
1464	 0.248851554005004 
1465	 0.248848926085867 
1466	 0.24884854773372 
1467	 0.24886483913818 
1468	 0.248871119461376 
1469	 0.248932114009835 
1470	 0.249030701884975 
1471	 0.249150839570986 
1472	 0.249297173940941 
1473	 0.249457179874549 
1474	 0.249605039984552 
1475	 0.24975384773355 
1476	 0.249891762997997 
1477	 0.250034689782278 
1478	 0.250177093628506 
1479	 0.250312760201097 
1480	 0.250467186203341 
1481	 0.250611964259775 
1482	 0.250747783355152 
1483	 0.250877658911169 
1484	 0.250999789061976 
1485	 0.251100066737401 
1486	 0.251234405313078 
1487	 0.251372826929739 
1488	 0.251522561675952 
1489	 0.251707354557019 
1490	 0.251860376607467 
1491	 0.252008361703574 
1492	 0.252145777186968 
1493	 0.252263354866552 
1494	 0.252389710581206 
1495	 0.252508401377325 
1496	 0.252635091525676 
1497	 0.252784594181873 
1498	 0.252900122100498 
1499	 0.253004840250627 
1500	 0.253100870382531 
1501	 0.25316200030871 
1502	 0.253239885442016 
1503	 0.253320357814008 
1504	 0.253402784442408 
1505	 0.253500553997238 
1506	 0.253587860383158 
1507	 0.253687157402836 
1508	 0.253790341639095 
1509	 0.253884364014176 
1510	 0.253992525317901 
1511	 0.254087960575791 
1512	 0.254168882904363 
1513	 0.254253247775977 
1514	 0.254337134376916 
1515	 0.254414724257155 
1516	 0.254505302755106 
1517	 0.254594985193968 
1518	 0.254681008614375 
1519	 0.254771453445743 
1520	 0.254874205928018 
1521	 0.254960884091689 
1522	 0.255033106519529 
1523	 0.255121295687764 
1524	 0.255211290081892 
1525	 0.255304566212498 
1526	 0.255414490862421 
1527	 0.255509130964349 
1528	 0.255594875920205 
1529	 0.255684032318716 
1530	 0.255773318360608 
1531	 0.255854425396813 
1532	 0.25593230963011 
1533	 0.256004427946895 
1534	 0.256066012764447 
1535	 0.256132415484034 
1536	 0.256196363618241 
1537	 0.256263683504391 
1538	 0.256329045893713 
1539	 0.256399641478021 
1540	 0.256479605350949 
1541	 0.256555509806954 
1542	 0.256635729300867 
1543	 0.256710947257849 
1544	 0.256782271368205 
1545	 0.256847060978227 
1546	 0.25691081943097 
1547	 0.256964423370239 
1548	 0.257011803775007 
1549	 0.257055856592692 
1550	 0.25709387459987 
1551	 0.257135734525587 
1552	 0.257188580911295 
1553	 0.257260465848275 
1554	 0.257340701593081 
1555	 0.257419937073872 
1556	 0.257475110141388 
1557	 0.257509862391762 
1558	 0.25756322705783 
1559	 0.257610041759359 
1560	 0.257650749793704 
1561	 0.257705655872035 
1562	 0.257734601403756 
1563	 0.257732091186446 
1564	 0.257755665403526 
1565	 0.257782001241681 
1566	 0.257809404167639 
1567	 0.257846546160387 
1568	 0.257876411335854 
1569	 0.257905085324961 
1570	 0.257929097528372 
1571	 0.257944479209687 
1572	 0.25797492006153 
1573	 0.258001258770987 
1574	 0.258043686342274 
1575	 0.258120443998295 
1576	 0.258156914152383 
1577	 0.25817948989932 
1578	 0.258205396235178 
1579	 0.258190206240942 
1580	 0.258227231479492 
1581	 0.258303943147233 
1582	 0.258361524938144 
1583	 0.258447172299201 
1584	 0.258499653566985 
1585	 0.258534410896992 
1586	 0.258557621232316 
1587	 0.258554576746773 
1588	 0.258564977790953 
1589	 0.258559963920142 
1590	 0.25856911041247 
1591	 0.258598300937776 
1592	 0.258619019708736 
1593	 0.258644757858666 
1594	 0.258661771658192 
1595	 0.258666914733842 
1596	 0.25867640028703 
1597	 0.258676434242914 
1598	 0.258691974053075 
1599	 0.258734887972113 
1600	 0.258749616412275 
1601	 0.258750581591006 
1602	 0.258760502728119 
1603	 0.25875664544886 
1604	 0.258754215959763 
1605	 0.258755160009997 
1606	 0.258765498285054 
1607	 0.258768775840164 
1608	 0.258787860906936 
1609	 0.258830211947505 
1610	 0.258859639113995 
1611	 0.258865146296768 
1612	 0.25887762360872 
1613	 0.258879697016035 
1614	 0.258877038168263 
1615	 0.258884271232041 
1616	 0.258882756253569 
1617	 0.258864071972491 
1618	 0.25886106660478 
1619	 0.258883444454311 
1620	 0.258906905201141 
1621	 0.258938619403698 
1622	 0.259007038574347 
1623	 0.259013155311396 
1624	 0.258993010359983 
1625	 0.25897712186107 
1626	 0.258929884881129 
1627	 0.258909109218595 
1628	 0.258899628662123 
1629	 0.258887595810594 
1630	 0.258872936308222 
1631	 0.258873219756288 
1632	 0.258883516750505 
1633	 0.258892425873005 
1634	 0.258916646454442 
1635	 0.258916995843516 
1636	 0.258906611164911 
1637	 0.258899875857407 
1638	 0.258885809147738 
1639	 0.258867176938379 
1640	 0.258840411181359 
1641	 0.258833399373865 
1642	 0.258820757930767 
1643	 0.25883055375312 
1644	 0.258872851826346 
1645	 0.258892644602512 
1646	 0.258910272457096 
1647	 0.258926866215474 
1648	 0.258947540177055 
1649	 0.25894611167375 
1650	 0.258934065169123 
1651	 0.258921724129834 
1652	 0.2588957848694 
1653	 0.258864581866022 
1654	 0.258826012590911 
1655	 0.258800470999243 
1656	 0.25876607092685 
1657	 0.258742299361812 
1658	 0.258740922921501 
1659	 0.258723962386577 
1660	 0.258701398463772 
1661	 0.258673592654862 
1662	 0.258639574704771 
1663	 0.258610599815333 
1664	 0.258573831893498 
1665	 0.258546324026894 
1666	 0.258518369446397 
1667	 0.258511536834302 
1668	 0.258534059056146 
1669	 0.258517842319575 
1670	 0.258500171798002 
1671	 0.258476278287819 
1672	 0.258420782893657 
1673	 0.258377843924547 
1674	 0.258341506604667 
1675	 0.25831241829471 
1676	 0.258276358607764 
1677	 0.258251992829043 
1678	 0.258250915439264 
1679	 0.25823431928315 
1680	 0.25821086923177 
1681	 0.258189330196035 
1682	 0.258157640509629 
1683	 0.25814789371087 
1684	 0.2581559277239 
1685	 0.258146440369496 
1686	 0.2581573881102 
1687	 0.258130516250493 
1688	 0.258049843995481 
1689	 0.258022567288573 
1690	 0.258006741625227 
1691	 0.257989876783402 
1692	 0.258020524268366 
1693	 0.257996912191023 
1694	 0.257927144285959 
1695	 0.257888039005855 
1696	 0.257829731669642 
1697	 0.257805924358587 
1698	 0.257827935520406 
1699	 0.257811785867961 
1700	 0.257789923119977 
1701	 0.257768826434325 
1702	 0.257728835389109 
1703	 0.257698264366824 
1704	 0.257687685658039 
1705	 0.257650213579558 
1706	 0.257602398196765 
1707	 0.257537374011254 
1708	 0.257437743370014 
1709	 0.257375864085873 
1710	 0.257311711626087 
1711	 0.257270168920118 
1712	 0.257267523078176 
1713	 0.257236846168704 
1714	 0.257207893684575 
1715	 0.257164740815878 
1716	 0.257107006476287 
1717	 0.257054103328264 
1718	 0.256993784157711 
1719	 0.256931683635681 
1720	 0.256871543210052 
1721	 0.256805079459104 
1722	 0.256731878015649 
1723	 0.256662639805277 
1724	 0.256590765021715 
1725	 0.256520351528192 
1726	 0.256456129053958 
1727	 0.256375061079689 
1728	 0.256286160663376 
1729	 0.256196892819353 
1730	 0.256094256269932 
1731	 0.256009813001701 
1732	 0.25592329099724 
1733	 0.255864626705743 
1734	 0.255825499576259 
1735	 0.255771319743872 
1736	 0.255745647771804 
1737	 0.255680401543292 
1738	 0.255583435479023 
1739	 0.255511045983223 
1740	 0.255430350268541 
1741	 0.255358142563078 
1742	 0.255307630889203 
1743	 0.255226898018972 
1744	 0.255137805574508 
1745	 0.255027863586385 
1746	 0.254889932960651 
1747	 0.254759209211068 
1748	 0.254651078963455 
1749	 0.254576052192151 
1750	 0.254500159001142 
1751	 0.254437242941674 
1752	 0.25437047435987 
1753	 0.25430726799517 
1754	 0.254241557967211 
1755	 0.254142512116727 
1756	 0.254059485624934 
1757	 0.253967353191429 
1758	 0.253870556714905 
1759	 0.253818989690592 
1760	 0.253758475860737 
1761	 0.253699571441089 
1762	 0.253632584254515 
1763	 0.253536053674844 
1764	 0.253450694379941 
1765	 0.253352418912314 
1766	 0.253232804128514 
1767	 0.253112592833831 
1768	 0.253005876513127 
1769	 0.252910520874179 
1770	 0.252837023028005 
1771	 0.252789838005812 
1772	 0.252724617902973 
1773	 0.25265800208583 
1774	 0.252605327255681 
1775	 0.25253920077094 
1776	 0.252488541543651 
1777	 0.252463316425234 
1778	 0.252407504159214 
1779	 0.252328710900848 
1780	 0.252264280219899 
1781	 0.252176936820044 
1782	 0.252098644843665 
1783	 0.252080199035572 
1784	 0.252054186613871 
1785	 0.252042915367417 
1786	 0.252022418944818 
1787	 0.252011915433668 
1788	 0.251985714589677 
1789	 0.251944188785906 
1790	 0.251900025400195 
1791	 0.251846275593408 
1792	 0.251786370081033 
1793	 0.251709380273266 
1794	 0.251663098615335 
1795	 0.251625003093332 
1796	 0.251590365091155 
1797	 0.251586661033633 
1798	 0.251553524414855 
1799	 0.251504053084969 
1800	 0.251464093704492 
1801	 0.24710212513513 
1802	 0.247272790791663 
1803	 0.247467469192055 
1804	 0.247680706683641 
1805	 0.24795466851263 
1806	 0.248196006736142 
1807	 0.248401262637748 
1808	 0.248585765482642 
1809	 0.248755381129157 
1810	 0.248884597673821 
1811	 0.248969385283889 
1812	 0.249070463472501 
1813	 0.249150758079988 
1814	 0.249220129089351 
1815	 0.249275421488587 
1816	 0.249298576478889 
1817	 0.249312028974754 
1818	 0.249282475009077 
1819	 0.249284326142032 
1820	 0.249287524673177 
1821	 0.249286185321675 
1822	 0.249335551886197 
1823	 0.249359365549014 
1824	 0.249367453789605 
1825	 0.249376235082141 
1826	 0.24936389657073 
1827	 0.249336780065096 
1828	 0.249288685695236 
1829	 0.24923254789992 
1830	 0.249167737436275 
1831	 0.249066976082425 
1832	 0.248982824346328 
1833	 0.248927414527627 
1834	 0.248849622735754 
1835	 0.248807890715124 
1836	 0.248740335636781 
1837	 0.248653295498404 
1838	 0.248575655766909 
1839	 0.248491105116088 
1840	 0.248396340764767 
1841	 0.248310629142868 
1842	 0.248214887774406 
1843	 0.248125188614943 
1844	 0.248063790875878 
1845	 0.247990765573995 
1846	 0.247916336247765 
1847	 0.247863524713074 
1848	 0.247805330265699 
1849	 0.247743045805616 
1850	 0.247690863030058 
1851	 0.24765364567903 
1852	 0.247612305573189 
1853	 0.24756730846723 
1854	 0.2475104557822 
1855	 0.247441448334326 
1856	 0.247380138696592 
1857	 0.247313288099576 
1858	 0.247245515093061 
1859	 0.247158633102082 
1860	 0.247043117285888 
1861	 0.246896255336161 
1862	 0.246745472480937 
1863	 0.246583598617127 
1864	 0.246398807555035 
1865	 0.246202338097304 
1866	 0.245978490611584 
1867	 0.245725105354364 
1868	 0.245448592765051 
1869	 0.245160990285164 
1870	 0.244836193884081 
1871	 0.244488391736397 
1872	 0.244104917203615 
1873	 0.243736018338521 
1874	 0.243318112534619 
1875	 0.242855896722507 
1876	 0.24236659327413 
1877	 0.241799824464894 
1878	 0.241202371568784 
1879	 0.240562118548013 
1880	 0.239845965930858 
1881	 0.239076299172294 
1882	 0.238236435920766 
1883	 0.237328240766484 
1884	 0.236340968982704 
1885	 0.23529710018617 
1886	 0.234172913039851 
1887	 0.232976974985777 
1888	 0.231739712684466 
1889	 0.230442319065314 
1890	 0.229095940883413 
1891	 0.22772414497571 
1892	 0.226289727162929 
1893	 0.224849146609987 
1894	 0.223380826618174 
1895	 0.221903107985544 
1896	 0.220389387509027 
1897	 0.218871105957446 
1898	 0.217327891438181 
1899	 0.215789102312083 
1900	 0.214293166667686 
1901	 0.212816469906371 
1902	 0.211408078373772 
1903	 0.21007801155622 
1904	 0.208763370223463 
1905	 0.207477319231001 
1906	 0.206257321168537 
1907	 0.205070220627034 
1908	 0.203928008661878 
1909	 0.20287462558849 
1910	 0.201880513362276 
1911	 0.200934085688427 
1912	 0.200043257201776 
1913	 0.199201269439499 
1914	 0.19841080383868 
1915	 0.19765915959534 
1916	 0.196956238079734 
1917	 0.196295664614878 
1918	 0.195682959307554 
1919	 0.195111471513399 
1920	 0.194598184142501 
1921	 0.194125796142201 
1922	 0.193686488228634 
1923	 0.193277374753921 
1924	 0.192917546256192 
1925	 0.192605588616709 
1926	 0.192330105483518 
1927	 0.1920952245004 
1928	 0.191893794740177 
1929	 0.19175562798355 
1930	 0.191647915662011 
1931	 0.191554024000165 
1932	 0.191516685970682 
1933	 0.191485316940523 
1934	 0.191448854169236 
1935	 0.191446001568932 
1936	 0.191466023599533 
1937	 0.19151401559544 
1938	 0.191585169202451 
1939	 0.191679493112383 
1940	 0.191799575606643 
1941	 0.191947815447794 
1942	 0.192131458738851 
1943	 0.192332396321287 
1944	 0.192527342817677 
1945	 0.192728419505846 
1946	 0.19294049776067 
1947	 0.193137675251345 
1948	 0.193362155965238 
1949	 0.193620839237956 
1950	 0.19387608764679 
1951	 0.19412882398501 
1952	 0.19440298538083 
1953	 0.194698688573288 
1954	 0.194962962256294 
1955	 0.195240979152539 
1956	 0.195535879320325 
1957	 0.195845790881734 
1958	 0.196172451630493 
1959	 0.196501456901899 
1960	 0.19685449383216 
1961	 0.197191723325812 
1962	 0.197507236831962 
1963	 0.197853665160865 
1964	 0.198204946353544 
1965	 0.198583280046691 
1966	 0.198975385788661 
1967	 0.199355880282822 
1968	 0.199746523917586 
1969	 0.200144896768552 
1970	 0.2005325465795 
1971	 0.200911455480864 
1972	 0.201314863876111 
1973	 0.20173524371154 
1974	 0.20213543629752 
1975	 0.202534861012493 
1976	 0.20295429970103 
1977	 0.203342047687224 
1978	 0.203718202074792 
1979	 0.204103776883605 
1980	 0.204476054667843 
1981	 0.204843203327865 
1982	 0.205183738577999 
1983	 0.205550684374249 
1984	 0.205917611233412 
1985	 0.206304410391996 
1986	 0.206714184610384 
1987	 0.207122277505329 
1988	 0.207554553182077 
1989	 0.207964118526047 
1990	 0.208363766285153 
1991	 0.208753609009844 
1992	 0.209149204892638 
1993	 0.209537737538075 
1994	 0.209924907936216 
1995	 0.210318666233661 
1996	 0.21070206895896 
1997	 0.211074710444471 
1998	 0.211445861137812 
1999	 0.21181223711817 
2000	 0.212184072881383 
2001	 0.212551834315088 
2002	 0.21291762184759 
2003	 0.213314488554853 
2004	 0.213680654157728 
2005	 0.214041328845832 
2006	 0.214394539347154 
2007	 0.214747479896977 
2008	 0.215078201952323 
2009	 0.21542766509727 
2010	 0.215792115809434 
2011	 0.216146221340664 
2012	 0.216501075280352 
2013	 0.216854758688178 
2014	 0.217206864963554 
2015	 0.217556030288734 
2016	 0.21789765367733 
2017	 0.218223543926688 
2018	 0.218560976726947 
2019	 0.218889996028387 
2020	 0.219227611562851 
2021	 0.219586789589791 
2022	 0.219920881015969 
2023	 0.220244024633129 
2024	 0.220566496010461 
2025	 0.220870835899347 
2026	 0.221185077510657 
2027	 0.221511501426631 
2028	 0.221824859354315 
2029	 0.222129672003446 
2030	 0.222433918298313 
2031	 0.222728411300574 
2032	 0.22300268040389 
2033	 0.223289303275622 
2034	 0.223585548883747 
2035	 0.223862229317272 
2036	 0.22412944410051 
2037	 0.224399043129196 
2038	 0.22466297052263 
2039	 0.224917827180026 
2040	 0.225164748941896 
2041	 0.225418620188125 
2042	 0.225660524635586 
2043	 0.225896444292887 
2044	 0.22614651388395 
2045	 0.226414538094015 
2046	 0.226661803224668 
2047	 0.226912275965597 
2048	 0.22714526389546 
2049	 0.227364124409913 
2050	 0.227575392117001 
2051	 0.227769334752919 
2052	 0.227969298000433 
2053	 0.228156311054985 
2054	 0.228354232764673 
2055	 0.228566615003872 
2056	 0.228767202785402 
2057	 0.228967299220368 
2058	 0.229168587749242 
2059	 0.229367377010373 
2060	 0.229565422220291 
2061	 0.229753007963412 
2062	 0.229936802921402 
2063	 0.230118339300647 
2064	 0.230283529136859 
2065	 0.230460127600934 
2066	 0.230651912817397 
2067	 0.230825637670441 
2068	 0.230988514219938 
2069	 0.231153933743874 
2070	 0.231323657581708 
2071	 0.231481837370431 
2072	 0.231662611373168 
2073	 0.231860090289505 
2074	 0.232052933142695 
2075	 0.232254560652378 
2076	 0.232449569127239 
2077	 0.232660285051428 
2078	 0.23283912472894 
2079	 0.232993232498133 
2080	 0.233157487230564 
2081	 0.233288816461345 
2082	 0.23345164891606 
2083	 0.233636690245776 
2084	 0.233832977187821 
2085	 0.234014424694596 
2086	 0.234209211632308 
2087	 0.234381363056847 
2088	 0.234535589273903 
2089	 0.234692491901761 
2090	 0.234841180357773 
2091	 0.234990991696869 
2092	 0.235136121859001 
2093	 0.235284562815634 
2094	 0.235434758787104 
2095	 0.235582821479965 
2096	 0.235736024490541 
2097	 0.235877729106653 
2098	 0.235992130063531 
2099	 0.236138286168652 
2100	 0.236289502906706 
2101	 0.236449298711775 
2102	 0.23659820333343 
2103	 0.236754682176611 
2104	 0.236914493227521 
2105	 0.237060758263921 
2106	 0.237220982410462 
2107	 0.237408379460054 
2108	 0.237577834957072 
2109	 0.237731395161095 
2110	 0.237898560684095 
2111	 0.23806158204926 
2112	 0.238239291191529 
2113	 0.238449487002562 
2114	 0.238632897967646 
2115	 0.238804581647313 
2116	 0.238977853431502 
2117	 0.239132647183316 
2118	 0.239249733060562 
2119	 0.239400466400081 
2120	 0.239559731321853 
2121	 0.239720304746203 
2122	 0.239887400121293 
2123	 0.240059546804403 
2124	 0.240265193426546 
2125	 0.240417108230631 
2126	 0.240557163484744 
2127	 0.240676340208777 
2128	 0.2407364901644 
2129	 0.240812500462383 
2130	 0.240869107391106 
2131	 0.240965928051 
2132	 0.241034775061872 
2133	 0.241102709289361 
2134	 0.241158014665852 
2135	 0.241218775761599 
2136	 0.241237295877456 
2137	 0.24122994083133 
2138	 0.241214584068373 
2139	 0.24114816622861 
2140	 0.241120025100301 
2141	 0.241115681728829 
2142	 0.241087942675285 
2143	 0.241077372351645 
2144	 0.241034516960193 
2145	 0.240961225932881 
2146	 0.240879725081355 
2147	 0.240776587488187 
2148	 0.240664304953105 
2149	 0.240566820104786 
2150	 0.240460183606215 
2151	 0.240373218868707 
2152	 0.240316171271851 
2153	 0.240224213744131 
2154	 0.240129153593053 
2155	 0.240017364046832 
2156	 0.239903928912912 
2157	 0.239749369383846 
2158	 0.239560276020745 
2159	 0.239375596168134 
2160	 0.239151268588167 
2161	 0.238939221964336 
2162	 0.238749390782244 
2163	 0.238536605098784 
2164	 0.238307650414825 
2165	 0.238062284894312 
2166	 0.237845182124203 
2167	 0.237626800339306 
2168	 0.237418955213016 
2169	 0.237229185251412 
2170	 0.237041147076485 
2171	 0.236855406051237 
2172	 0.236669895473944 
2173	 0.236510793889682 
2174	 0.236318630650758 
2175	 0.236119892056978 
2176	 0.23589504009991 
2177	 0.235630123999937 
2178	 0.235384982511372 
2179	 0.235109390751446 
2180	 0.234866833034885 
2181	 0.234673722594169 
2182	 0.234448180915539 
2183	 0.23419475842881 
2184	 0.233992695129197 
2185	 0.233755482508935 
2186	 0.233480821643287 
2187	 0.233252363908131 
2188	 0.233039245876405 
2189	 0.23283294414608 
2190	 0.23263967725589 
2191	 0.232461504767245 
2192	 0.232304443926317 
2193	 0.232138786937748 
2194	 0.231986082318289 
2195	 0.231829294093355 
2196	 0.231664952255454 
2197	 0.231505651293056 
2198	 0.231348201139134 
2199	 0.231199678551428 
2200	 0.231049662743717 
2201	 0.230909926298464 
2202	 0.230774976593595 
2203	 0.230659889173845 
2204	 0.230552062878694 
2205	 0.230447760123328 
2206	 0.230368432903119 
2207	 0.230299711925262 
2208	 0.23026322932959 
2209	 0.2302631040184 
2210	 0.230256399121033 
2211	 0.230277990253378 
2212	 0.230287569709128 
2213	 0.230285252926454 
2214	 0.230298075183388 
2215	 0.230338213242018 
2216	 0.230346542512915 
2217	 0.230340704842224 
2218	 0.230344772582066 
2219	 0.23031741636588 
2220	 0.23032386533325 
2221	 0.230384641756995 
2222	 0.23039816188751 
2223	 0.230403479724236 
2224	 0.230416674216638 
2225	 0.230441622455772 
2226	 0.230467466570536 
2227	 0.230462878995162 
2228	 0.230473516415894 
2229	 0.230453257546101 
2230	 0.230374407746283 
2231	 0.230337207420655 
2232	 0.230322429033696 
2233	 0.230286271579184 
2234	 0.230260602774379 
2235	 0.230194534108885 
2236	 0.230117739711685 
2237	 0.230007212058915 
2238	 0.229835540387393 
2239	 0.229693316260549 
2240	 0.229520432571318 
2241	 0.229389433969035 
2242	 0.22932020105501 
2243	 0.22920241266398 
2244	 0.22909111732578 
2245	 0.228962750288854 
2246	 0.228782151079839 
2247	 0.228531145431489 
2248	 0.22828471957193 
2249	 0.228005374121903 
2250	 0.227722673161492 
2251	 0.227407612192771 
2252	 0.227129443986998 
2253	 0.226832857459694 
2254	 0.226590310024326 
2255	 0.226379315860698 
2256	 0.226188411636548 
2257	 0.226028344089016 
2258	 0.225892092448233 
2259	 0.225778106156097 
2260	 0.225689101346546 
2261	 0.225644404638005 
2262	 0.225588772666183 
2263	 0.225549311986103 
2264	 0.225515289529847 
2265	 0.225483911311536 
2266	 0.225459707889514 
2267	 0.225420074393634 
2268	 0.225431614395183 
2269	 0.225462934548383 
2270	 0.225529301089836 
2271	 0.225646760725254 
2272	 0.225741438579318 
2273	 0.225862700747817 
2274	 0.226006047602031 
2275	 0.226157363671413 
2276	 0.22634147859652 
2277	 0.226509032492906 
2278	 0.226677271242989 
2279	 0.22684673540337 
2280	 0.227012303146654 
2281	 0.227184803827256 
2282	 0.227358221180506 
2283	 0.227541478955909 
2284	 0.227736806898838 
2285	 0.227929335586872 
2286	 0.228154644686332 
2287	 0.228318882992203 
2288	 0.228448282866044 
2289	 0.228581645422766 
2290	 0.228680390390768 
2291	 0.228785929625998 
2292	 0.228911887692802 
2293	 0.229000073403448 
2294	 0.229063192598942 
2295	 0.22910934419273 
2296	 0.229121584511296 
2297	 0.22914973888984 
2298	 0.229124661828149 
2299	 0.229093587735062 
2300	 0.229123723550063 
2301	 0.229132995865195 
2302	 0.229192175149019 
2303	 0.229290382604996 
2304	 0.2293566430115 
2305	 0.229427796512917 
2306	 0.229464562633166 
2307	 0.229478762219489 
2308	 0.229501107796229 
2309	 0.22950053252393 
2310	 0.229498160421692 
2311	 0.229511028326003 
2312	 0.229498618585398 
2313	 0.229439766357881 
2314	 0.229433246412018 
2315	 0.229461254899585 
2316	 0.229452381811362 
2317	 0.229465906103556 
2318	 0.22943309875675 
2319	 0.229326524700401 
2320	 0.22926416148002 
2321	 0.229213402172303 
2322	 0.229156484586457 
2323	 0.229130666680235 
2324	 0.229076273530818 
2325	 0.228969330684358 
2326	 0.228910088262458 
2327	 0.228886357575209 
2328	 0.22881386849187 
2329	 0.22877023581411 
2330	 0.228713102547366 
2331	 0.22863919474319 
2332	 0.228648931970611 
2333	 0.228683399410698 
2334	 0.228702704680272 
2335	 0.228725806232392 
2336	 0.228679460577541 
2337	 0.228577885010695 
2338	 0.228536063879434 
2339	 0.228482007604998 
2340	 0.228359317630839 
2341	 0.228287440013765 
2342	 0.228208314551313 
2343	 0.228043930310367 
2344	 0.227906618804005 
2345	 0.227788824801786 
2346	 0.227667816191184 
2347	 0.227532356976203 
2348	 0.227452888955417 
2349	 0.22727972499503 
2350	 0.227019964797061 
2351	 0.226801765851823 
2352	 0.22655022947978 
2353	 0.226335630281967 
2354	 0.226156225047767 
2355	 0.225962232870269 
2356	 0.225772457438172 
2357	 0.225576880401039 
2358	 0.225367006684219 
2359	 0.225172888660444 
2360	 0.224997200707401 
2361	 0.224808094351665 
2362	 0.224597043857657 
2363	 0.224441568333786 
2364	 0.224332264521629 
2365	 0.224165369992486 
2366	 0.224059272478478 
2367	 0.223849735342074 
2368	 0.223491877400613 
2369	 0.223204190959039 
2370	 0.222902945812909 
2371	 0.222613549165075 
2372	 0.222394095424047 
2373	 0.222167705393431 
2374	 0.221894597418693 
2375	 0.221650240733401 
2376	 0.221372563938172 
2377	 0.221076146188386 
2378	 0.220901121860269 
2379	 0.220668895559175 
2380	 0.220362264317169 
2381	 0.220143771051338 
2382	 0.219811848165645 
2383	 0.21944017712914 
2384	 0.219116080051056 
2385	 0.218801553941332 
2386	 0.218511228155436 
2387	 0.21814691037746 
2388	 0.217801417310101 
2389	 0.217461016860633 
2390	 0.217106850082935 
2391	 0.216809018856815 
2392	 0.216478559848248 
2393	 0.216145784688331 
2394	 0.21587365516433 
2395	 0.215596991968661 
2396	 0.215337057976569 
2397	 0.215110419673321 
2398	 0.214770588235001 
2399	 0.214414514364997 
2400	 0.214189829045145 
2401	 0.213920541302433 
2402	 0.213580967308226 
2403	 0.213272755189232 
2404	 0.212855229520802 
2405	 0.212349716232762 
2406	 0.212021430005246 
2407	 0.211796826174239 
2408	 0.211520370701387 
2409	 0.211241645224686 
2410	 0.210953899124768 
2411	 0.210675266518747 
2412	 0.210405456741306 
2413	 0.210193741986635 
2414	 0.209939569391684 
2415	 0.20957078913445 
2416	 0.209298374835934 
2417	 0.209095322083114 
2418	 0.208779261421844 
2419	 0.208440055454002 
2420	 0.208138016245246 
2421	 0.207762610735299 
2422	 0.207488877689845 
2423	 0.207358816560783 
2424	 0.207074538844329 
2425	 0.206742954268741 
2426	 0.206381172941207 
2427	 0.205913143383181 
2428	 0.205519054935673 
2429	 0.205111012571754 
2430	 0.204741767046814 
2431	 0.204465276246378 
2432	 0.204116220046427 
2433	 0.203732197748746 
2434	 0.203397177960073 
2435	 0.203018089409496 
2436	 0.202695257129523 
2437	 0.202510204995126 
2438	 0.202177460002994 
2439	 0.201714490486163 
2440	 0.201346055860033 
2441	 0.201025014214384 
2442	 0.200640399642179 
2443	 0.200303656136193 
2444	 0.199939520571563 
2445	 0.199420075108259 
2446	 0.198959498916999 
2447	 0.198566227743925 
2448	 0.198155689679901 
2449	 0.19774586044266 
2450	 0.197348594559577 
2451	 0.196928417688418 
2452	 0.196535407530061 
2453	 0.196143682360453 
2454	 0.195810871520933 
2455	 0.195605650349299 
2456	 0.195311370737732 
2457	 0.194998098607344 
2458	 0.194646678116092 
2459	 0.194194876273907 
2460	 0.19378726380186 
2461	 0.193409679871266 
2462	 0.193045069734191 
2463	 0.192652223047181 
2464	 0.192308020542454 
2465	 0.191990653729292 
2466	 0.191740707156935 
2467	 0.191594121163421 
2468	 0.191358535383326 
2469	 0.19114489712764 
2470	 0.190748250549086 
2471	 0.19039930413255 
2472	 0.190137821592178 
2473	 0.189873381594607 
2474	 0.189610769033216 
2475	 0.189304848716472 
2476	 0.188948582959892 
2477	 0.188751960277607 
2478	 0.188707251939741 
2479	 0.188512615686143 
2480	 0.188268141086013 
2481	 0.18802161398508 
2482	 0.18764080599864 
2483	 0.187364181671664 
2484	 0.18716775720872 
2485	 0.186771988900727 
2486	 0.186286222730419 
2487	 0.186064385613753 
2488	 0.185882826437852 
2489	 0.18546749542834 
2490	 0.185226564576142 
2491	 0.184996672842677 
2492	 0.184558233344003 
2493	 0.184279132562756 
2494	 0.184057068460722 
2495	 0.183746732450598 
2496	 0.18345814501305 
2497	 0.18318139955654 
2498	 0.182898519719673 
2499	 0.182564465710971 
2500	 0.182272855769299 
