Wavelength	mm2400012.asd
350	 4.60395999439403E-02 
351	 4.95287270796125E-02 
352	 4.21175133268073E-02 
353	 2.78051354209755E-02 
354	 3.83161541644869E-02 
355	 4.61892610153301E-02 
356	 5.04306607853139E-02 
357	 5.47147729697133E-02 
358	 5.10232900759725E-02 
359	 0.042176269105736 
360	 0.037538771148957 
361	 4.74025408009284E-02 
362	 4.88637300312704E-02 
363	 4.80859435437023E-02 
364	 4.87321336402045E-02 
365	 4.44226143614667E-02 
366	 4.21147739400887E-02 
367	 4.36231001441953E-02 
368	 4.74924571453278E-02 
369	 4.70915152658359E-02 
370	 4.34867381996697E-02 
371	 4.06022411800226E-02 
372	 4.31889497670313E-02 
373	 4.42433868981569E-02 
374	 4.48289806578573E-02 
375	 4.64053613654124E-02 
376	 4.95719402315971E-02 
377	 4.72237556804417E-02 
378	 4.48299354384788E-02 
379	 4.83378524419083E-02 
380	 4.87016132764235E-02 
381	 4.66938149459408E-02 
382	 4.60754161306492E-02 
383	 5.13565408010199E-02 
384	 5.07999306451247E-02 
385	 4.91348741089129E-02 
386	 5.00421242494627E-02 
387	 5.04645037861612E-02 
388	 5.15327268257377E-02 
389	 5.27731587124815E-02 
390	 5.33330372557021E-02 
391	 5.26047539260751E-02 
392	 5.40832214076111E-02 
393	 5.66158497438283E-02 
394	 5.55050133912805E-02 
395	 5.64872573094038E-02 
396	 5.79168076341613E-02 
397	 0.058617847365973 
398	 6.14366174795953E-02 
399	 6.18433725304808E-02 
400	 6.12422301310247E-02 
401	 6.26024693685947E-02 
402	 0.064325986250293 
403	 6.52484515259025E-02 
404	 0.065223757702242 
405	 6.51166379982432E-02 
406	 6.67391710821032E-02 
407	 6.86618566083145E-02 
408	 6.90843531674319E-02 
409	 6.64887917100651E-02 
410	 6.61264816001893E-02 
411	 6.78201886763505E-02 
412	 6.89664238838817E-02 
413	 7.05383331569876E-02 
414	 7.04895467896669E-02 
415	 6.91549880167042E-02 
416	 7.01174848794407E-02 
417	 6.95593071759678E-02 
418	 6.92471049592692E-02 
419	 0.070766225755843 
420	 7.05310810149843E-02 
421	 6.98426111148827E-02 
422	 6.96328847931286E-02 
423	 7.03024067720096E-02 
424	 6.97241146258208E-02 
425	 6.90873410312427E-02 
426	 6.90232613897623E-02 
427	 6.83647161824011E-02 
428	 6.77854612191394E-02 
429	 6.72974215315651E-02 
430	 6.68035191369084E-02 
431	 6.66923038928404E-02 
432	 6.68565505432414E-02 
433	 6.68953866675388E-02 
434	 6.62171440291615E-02 
435	 0.065889840719829 
436	 6.60815456911649E-02 
437	 6.65895749204016E-02 
438	 6.67726945479205E-02 
439	 6.71562202298441E-02 
440	 6.76002822437773E-02 
441	 6.77314452806801E-02 
442	 6.81615270374225E-02 
443	 6.86412908647368E-02 
444	 6.90147568357986E-02 
445	 6.93879442295229E-02 
446	 6.99080321704859E-02 
447	 7.03644050639765E-02 
448	 7.05900633144009E-02 
449	 7.10338394147274E-02 
450	 7.17530254317425E-02 
451	 0.072421131088642 
452	 7.24823807734071E-02 
453	 7.30400347374571E-02 
454	 7.35810441114168E-02 
455	 0.073706135996543 
456	 7.39832599706701E-02 
457	 7.43492207677929E-02 
458	 7.47298806447972E-02 
459	 7.50263291850147E-02 
460	 7.51360966250766E-02 
461	 7.52861336443622E-02 
462	 7.54732185198663E-02 
463	 7.53230885149457E-02 
464	 7.55237436643986E-02 
465	 7.59195325044947E-02 
466	 7.61524447413233E-02 
467	 0.076066151197794 
468	 7.61703201882253E-02 
469	 7.64570333666734E-02 
470	 7.65022250618792E-02 
471	 7.64044197043326E-02 
472	 7.65212489170408E-02 
473	 7.68841196859634E-02 
474	 7.66077885371052E-02 
475	 7.66540225520517E-02 
476	 7.69718849288243E-02 
477	 7.71038119262506E-02 
478	 7.71618384432968E-02 
479	 7.72449351515075E-02 
480	 7.73316814987033E-02 
481	 7.72250431871382E-02 
482	 7.74232484026846E-02 
483	 7.77041963722339E-02 
484	 7.77557666621386E-02 
485	 7.77922524297704E-02 
486	 7.77206888061918E-02 
487	 7.76711360904825E-02 
488	 7.79210871475857E-02 
489	 7.79301341671324E-02 
490	 7.78787660120362E-02 
491	 7.79629321202621E-02 
492	 7.81228898913297E-02 
493	 0.07808399313349 
494	 0.077950284573126 
495	 7.79922248305018E-02 
496	 7.82066735478245E-02 
497	 7.82701151724938E-02 
498	 7.81636873515644E-02 
499	 7.83678548250449E-02 
500	 0.078337144974205 
501	 7.82894635284641E-02 
502	 7.84918098052163E-02 
503	 7.83842540220601E-02 
504	 7.83618123618182E-02 
505	 7.85265265289266E-02 
506	 7.86815498953744E-02 
507	 7.86760928231853E-02 
508	 7.86748842856839E-02 
509	 7.87666443189215E-02 
510	 0.078636314072615 
511	 7.86126421434422E-02 
512	 7.87158115548522E-02 
513	 7.87959026511072E-02 
514	 7.87968847078094E-02 
515	 7.87611280753564E-02 
516	 0.07878149813813 
517	 7.90320570773787E-02 
518	 7.91855842337254E-02 
519	 7.91560481428453E-02 
520	 7.90078131578044E-02 
521	 7.90781167218143E-02 
522	 7.91674564227919E-02 
523	 7.92301959806699E-02 
524	 7.94094185334826E-02 
525	 7.94105695839734E-02 
526	 7.93658470895366E-02 
527	 7.94299504098788E-02 
528	 7.95171330886203E-02 
529	 7.95588091659749E-02 
530	 7.95671378985065E-02 
531	 0.07960262252872 
532	 7.95889724039825E-02 
533	 7.96544091512928E-02 
534	 7.98188498782093E-02 
535	 7.98148852625931E-02 
536	 0.079833422617298 
537	 7.99214470261057E-02 
538	 8.00509565523063E-02 
539	 8.00882702321625E-02 
540	 8.00906412364147E-02 
541	 8.01185210766698E-02 
542	 8.02122348223946E-02 
543	 8.04124160788999E-02 
544	 8.05318648465953E-02 
545	 8.04510806269686E-02 
546	 0.080574070158144 
547	 8.06722086098295E-02 
548	 8.07179862803375E-02 
549	 8.08586613112182E-02 
550	 8.09296785151012E-02 
551	 8.10283405563247E-02 
552	 8.12100414529794E-02 
553	 8.13004411206488E-02 
554	 8.13443020873094E-02 
555	 8.14559191957947E-02 
556	 8.17460538612326E-02 
557	 0.081917606560972 
558	 0.082042955500695 
559	 0.082209489295705 
560	 8.24630422737453E-02 
561	 8.26125407788545E-02 
562	 0.082771522324579 
563	 0.083094146109155 
564	 8.33321055748194E-02 
565	 8.35188846810069E-02 
566	 8.37320686470729E-02 
567	 8.40753398317449E-02 
568	 8.44446699035625E-02 
569	 8.47919943496677E-02 
570	 8.51176670117168E-02 
571	 8.55367349657506E-02 
572	 8.59473228569031E-02 
573	 8.63618023647073E-02 
574	 8.68610251450116E-02 
575	 8.72892081623949E-02 
576	 8.76941725217614E-02 
577	 8.81303029982401E-02 
578	 8.85956759997959E-02 
579	 8.90507269475983E-02 
580	 8.95528104832195E-02 
581	 9.01747643835758E-02 
582	 9.07779586524349E-02 
583	 9.13754152634597E-02 
584	 9.19782456461533E-02 
585	 9.25778593617173E-02 
586	 9.31740025980427E-02 
587	 9.37922927241479E-02 
588	 9.44560623171694E-02 
589	 9.51515925937598E-02 
590	 9.58447823498152E-02 
591	 9.65221449270426E-02 
592	 9.71942026151329E-02 
593	 9.79025947313628E-02 
594	 9.86158326011567E-02 
595	 9.92954956166789E-02 
596	 9.99211637212248E-02 
597	 0.100576023140228 
598	 0.101244006949396 
599	 0.101866429224327 
600	 0.102517170606778 
601	 0.103161209216409 
602	 0.103772158748719 
603	 0.104362227826521 
604	 0.104968187720086 
605	 0.105561398082636 
606	 0.106108407256428 
607	 0.106693300813361 
608	 0.107258894104641 
609	 0.107768966405229 
610	 0.10822322444259 
611	 0.108724105391548 
612	 0.109218468531055 
613	 0.109642993080179 
614	 0.110047119518857 
615	 0.11041529725715 
616	 0.11076102538289 
617	 0.111113425455247 
618	 0.111464445317389 
619	 0.111751761893245 
620	 0.111968146514077 
621	 0.112235445226883 
622	 0.112533752205546 
623	 0.112787357109158 
624	 0.112940580123527 
625	 0.113262000587211 
626	 0.113537275566862 
627	 0.113699597075437 
628	 0.113924933823528 
629	 0.11415388709811 
630	 0.114365247853846 
631	 0.114552134705423 
632	 0.114729463385928 
633	 0.11491158941557 
634	 0.11509982172434 
635	 0.115286520341405 
636	 0.115502687119399 
637	 0.115727172695762 
638	 0.115927059613816 
639	 0.11605520587765 
640	 0.116221241559936 
641	 0.116426456069253 
642	 0.116619505964613 
643	 0.116782304834634 
644	 0.116971061521252 
645	 0.117201725579276 
646	 0.117423803186941 
647	 0.117573754738133 
648	 0.117723865495342 
649	 0.117958089671285 
650	 0.11822401314445 
651	 0.118473547699008 
652	 0.118690348129592 
653	 0.118891042085915 
654	 0.119152046909454 
655	 0.119383369373137 
656	 0.119544493482393 
657	 0.119789528857339 
658	 0.120089820599972 
659	 0.120418064420324 
660	 0.120737155448792 
661	 0.120978458875872 
662	 0.121232728098249 
663	 0.121538542077302 
664	 0.121836121882885 
665	 0.122150868835246 
666	 0.122458604824863 
667	 0.122745811217951 
668	 0.123099911137695 
669	 0.123434570467762 
670	 0.123752908992439 
671	 0.124129260782618 
672	 0.124479208189511 
673	 0.12486086259941 
674	 0.125301419718245 
675	 0.12570474800506 
676	 0.126046453430438 
677	 0.126398977365507 
678	 0.126853069034681 
679	 0.127279668433702 
680	 0.127674323796658 
681	 0.128070639244422 
682	 0.128536148105396 
683	 0.128976143720303 
684	 0.12942794910089 
685	 0.12993099739629 
686	 0.130403927885814 
687	 0.130894380125028 
688	 0.131405306797747 
689	 0.131905956503022 
690	 0.132382719424933 
691	 0.132880382949312 
692	 0.133418286552641 
693	 0.133952645404219 
694	 0.134458547890357 
695	 0.134992372899585 
696	 0.135604974360026 
697	 0.136135681275141 
698	 0.13665382540105 
699	 0.1371804076403 
700	 0.137674437139157 
701	 0.138275154591293 
702	 0.138899131545051 
703	 0.139460785969082 
704	 0.140003212193037 
705	 0.140589148045997 
706	 0.141186119419126 
707	 0.141721664258579 
708	 0.142258131092322 
709	 0.142850082851339 
710	 0.14348686650772 
711	 0.144069630743707 
712	 0.144631496722775 
713	 0.145162751152888 
714	 0.145671072060941 
715	 0.146264616649428 
716	 0.146839867038879 
717	 0.147361217304749 
718	 0.147852916542363 
719	 0.148372699899148 
720	 0.148886786660621 
721	 0.149370296473556 
722	 0.149845396140517 
723	 0.150318082325525 
724	 0.150770488299251 
725	 0.151189154527903 
726	 0.151631286503155 
727	 0.152032294521384 
728	 0.15237405181164 
729	 0.15269228945912 
730	 0.153109391188806 
731	 0.15348438042306 
732	 0.153740678562308 
733	 0.154077930379729 
734	 0.154365946990535 
735	 0.154578469834903 
736	 0.154743714836299 
737	 0.154947316243898 
738	 0.155119071319424 
739	 0.155253717161763 
740	 0.155425223360887 
741	 0.155503066490954 
742	 0.155544352945847 
743	 0.155609226024663 
744	 0.155656883551817 
745	 0.155648946417554 
746	 0.155615768035419 
747	 0.155606311661279 
748	 0.155540259033065 
749	 0.155419162774379 
750	 0.155288356493053 
751	 0.155232319977122 
752	 0.15512500819193 
753	 0.154959923691192 
754	 0.154760813415347 
755	 0.154544158897675 
756	 0.154350371810843 
757	 0.154136605110728 
758	 0.153841865671645 
759	 0.153620446506803 
760	 0.153362121674198 
761	 0.15302744848919 
762	 0.152696074354824 
763	 0.152403031781795 
764	 0.152105805113244 
765	 0.151765945887078 
766	 0.151418315750995 
767	 0.151055927772617 
768	 0.15069030784708 
769	 0.150336297166783 
770	 0.149972358811235 
771	 0.149568609080041 
772	 0.149138731911713 
773	 0.148746485702637 
774	 0.148358664040225 
775	 0.147959756400742 
776	 0.147550758471687 
777	 0.147168614006911 
778	 0.14678483647346 
779	 0.146393568619818 
780	 0.145996418515156 
781	 0.145575810383455 
782	 0.145132272321708 
783	 0.144684300755872 
784	 0.144267100739308 
785	 0.14387341313645 
786	 0.143484615877269 
787	 0.143087146404638 
788	 0.142683539821308 
789	 0.142303711287464 
790	 0.141892606280727 
791	 0.141405894545859 
792	 0.14102084058749 
793	 0.140671524695666 
794	 0.140309121361795 
795	 0.139912054222106 
796	 0.139444630883742 
797	 0.1390485755375 
798	 0.138768228772146 
799	 0.138427224900685 
800	 0.1380437570543 
801	 0.137647016849865 
802	 0.137273820098757 
803	 0.136952651141069 
804	 0.136652158909405 
805	 0.136332361825919 
806	 0.135964446371373 
807	 0.135635954072926 
808	 0.135317146472032 
809	 0.134991870852599 
810	 0.134677900794555 
811	 0.134357131250735 
812	 0.134029518093106 
813	 0.133713715388614 
814	 0.133470231492264 
815	 0.133226863255801 
816	 0.132941233291582 
817	 0.13261180129105 
818	 0.132360476834165 
819	 0.132155317556292 
820	 0.131929791981285 
821	 0.131615356105061 
822	 0.131376995708196 
823	 0.131132448172562 
824	 0.130853819393919 
825	 0.130662520804571 
826	 0.130472015619297 
827	 0.130261176695186 
828	 0.130037864025553 
829	 0.129844403918608 
830	 0.129619982906687 
831	 0.129385371096192 
832	 0.129200219702148 
833	 0.129098087077647 
834	 0.128953082391349 
835	 0.128741718860995 
836	 0.12855082832964 
837	 0.128436277063751 
838	 0.128315283158354 
839	 0.12814523275393 
840	 0.12799322644063 
841	 0.127841440619403 
842	 0.127718879715354 
843	 0.127639511179095 
844	 0.127539794907444 
845	 0.127436110181034 
846	 0.127322722190716 
847	 0.127201366385984 
848	 0.12716631668841 
849	 0.127120183033979 
850	 0.12702746126159 
851	 0.126921078199637 
852	 0.126841564636925 
853	 0.126781642580617 
854	 0.12673149727592 
855	 0.126690031189314 
856	 0.126667727704146 
857	 0.126632139356188 
858	 0.126570786320688 
859	 0.126546067224949 
860	 0.126524792291352 
861	 0.126508360283156 
862	 0.126502847475934 
863	 0.12647778689379 
864	 0.126504424345743 
865	 0.126566000293335 
866	 0.126593082574204 
867	 0.126580214969565 
868	 0.126572449694101 
869	 0.126599230835006 
870	 0.126663661172493 
871	 0.126731935147483 
872	 0.126803592404871 
873	 0.126861907943571 
874	 0.126856344527146 
875	 0.126920929932594 
876	 0.126985524444062 
877	 0.127003724511883 
878	 0.127127529145428 
879	 0.127319732840117 
880	 0.127464449845221 
881	 0.127490484226472 
882	 0.127628434206016 
883	 0.127759668966593 
884	 0.127854436330277 
885	 0.127947099880442 
886	 0.128103504082473 
887	 0.128260286743474 
888	 0.128385921488807 
889	 0.128494588655509 
890	 0.128667998526985 
891	 0.128833083055878 
892	 0.128990113499352 
893	 0.129244587011168 
894	 0.129431078107215 
895	 0.129592786053535 
896	 0.129791233623094 
897	 0.130042721185291 
898	 0.130265689048898 
899	 0.130457697788248 
900	 0.130638543840917 
901	 0.130810261330091 
902	 0.131111059288051 
903	 0.131429822845148 
904	 0.131635030796103 
905	 0.131873521091836 
906	 0.132129253551231 
907	 0.132399056517841 
908	 0.132691566732056 
909	 0.133060803001784 
910	 0.133345923273589 
911	 0.133556967047799 
912	 0.133823062049349 
913	 0.134187064111156 
914	 0.134530635674144 
915	 0.134829414361511 
916	 0.135156293784647 
917	 0.135520789136268 
918	 0.135870453604232 
919	 0.136194741049228 
920	 0.136542113078128 
921	 0.136974102459756 
922	 0.137399149791443 
923	 0.137764719386903 
924	 0.138118771707988 
925	 0.138476794803765 
926	 0.138906245190782 
927	 0.139386512674293 
928	 0.139727469998917 
929	 0.140283424695374 
930	 0.1408228382628 
931	 0.141152345221135 
932	 0.141511154760762 
933	 0.142068258576308 
934	 0.142683526205713 
935	 0.143188976828488 
936	 0.143646478073647 
937	 0.144046626587047 
938	 0.144500142574867 
939	 0.145089136678607 
940	 0.145681350499108 
941	 0.14620522700446 
942	 0.146731773287287 
943	 0.147334454743913 
944	 0.147833111020524 
945	 0.14842072365204 
946	 0.14906917344383 
947	 0.14966058165306 
948	 0.150189575261616 
949	 0.150796725264494 
950	 0.151441445005514 
951	 0.152030054590147 
952	 0.152732963183533 
953	 0.153336688577275 
954	 0.153902723200819 
955	 0.154622489709033 
956	 0.155441599223377 
957	 0.156112669526424 
958	 0.156716017997178 
959	 0.157469805162605 
960	 0.158091806817728 
961	 0.158737604641868 
962	 0.159458802116261 
963	 0.160202080730431 
964	 0.160862003569689 
965	 0.161572252726543 
966	 0.162337069073461 
967	 0.163071358844237 
968	 0.163792143911149 
969	 0.164555832423307 
970	 0.165294722437049 
971	 0.165917670044699 
972	 0.16672090762446 
973	 0.16762989731713 
974	 0.16851064805679 
975	 0.169261828458035 
976	 0.170087153124788 
977	 0.170852158640724 
978	 0.171557998516175 
979	 0.172309516651457 
980	 0.173168854919978 
981	 0.173998258733716 
982	 0.174796638528264 
983	 0.175641577621536 
984	 0.1764802898486 
985	 0.177330594929765 
986	 0.178117777355516 
987	 0.178802363371351 
988	 0.179776173595652 
989	 0.180646241895954 
990	 0.181362211797422 
991	 0.18210100360249 
992	 0.183038786235797 
993	 0.183935424998719 
994	 0.184735127844957 
995	 0.185479597583512 
996	 0.18615694085634 
997	 0.187016354762253 
998	 0.187867924578397 
999	 0.188516750913221 
1000	 0.189401541244583 
1001	 0.189970663608991 
1002	 0.190736738932845 
1003	 0.191478119010098 
1004	 0.192245530396992 
1005	 0.193077602585893 
1006	 0.193805545438423 
1007	 0.194477743347916 
1008	 0.195204905004043 
1009	 0.195863231232415 
1010	 0.196456047356883 
1011	 0.1971592001794 
1012	 0.197838611995341 
1013	 0.19848179437208 
1014	 0.199196512073895 
1015	 0.199871623543846 
1016	 0.200507018467346 
1017	 0.201189233474469 
1018	 0.201897500816342 
1019	 0.202589381603846 
1020	 0.203247086020775 
1021	 0.203885719542248 
1022	 0.204481142543587 
1023	 0.205003653642718 
1024	 0.205517122542182 
1025	 0.206099804088168 
1026	 0.206676795872957 
1027	 0.207263259797859 
1028	 0.207862356008941 
1029	 0.208403864253902 
1030	 0.208907425917696 
1031	 0.209414839732741 
1032	 0.20989860547624 
1033	 0.210392813236722 
1034	 0.210907136127195 
1035	 0.211462421419873 
1036	 0.212015222243227 
1037	 0.212535019048138 
1038	 0.213088124583866 
1039	 0.213582819255521 
1040	 0.214007280641152 
1041	 0.214491755925111 
1042	 0.214952280033332 
1043	 0.21543382239238 
1044	 0.215917600020686 
1045	 0.216447869041797 
1046	 0.216900293747202 
1047	 0.21732750104409 
1048	 0.217753702395114 
1049	 0.218198375570823 
1050	 0.218713824042965 
1051	 0.21923221618945 
1052	 0.219701930847388 
1053	 0.220154188848102 
1054	 0.220605811959178 
1055	 0.221075508696182 
1056	 0.221523518351157 
1057	 0.221995954331334 
1058	 0.222507470473 
1059	 0.222968365698461 
1060	 0.223405766364895 
1061	 0.223863556905061 
1062	 0.224282368868859 
1063	 0.224675807781714 
1064	 0.225116780950472 
1065	 0.225574026584954 
1066	 0.226013154627119 
1067	 0.226435490959669 
1068	 0.226882158746513 
1069	 0.22732284859554 
1070	 0.227757264028791 
1071	 0.228217492656341 
1072	 0.228662046501485 
1073	 0.229064349100464 
1074	 0.22948912895318 
1075	 0.229946964118473 
1076	 0.230366068308672 
1077	 0.230741301521511 
1078	 0.231131172335675 
1079	 0.231490586347102 
1080	 0.23183485332087 
1081	 0.232241267467781 
1082	 0.232688692291151 
1083	 0.233071907443287 
1084	 0.233436027427072 
1085	 0.233815800569346 
1086	 0.23415597422548 
1087	 0.23451338131092 
1088	 0.234890057970845 
1089	 0.23527613608857 
1090	 0.235664497482732 
1091	 0.236019992219447 
1092	 0.236363093523714 
1093	 0.236735262631236 
1094	 0.237051980031881 
1095	 0.237323180310983 
1096	 0.23765787091293 
1097	 0.238010160861965 
1098	 0.238332618167567 
1099	 0.238668678923764 
1100	 0.238986621999977 
1101	 0.239262960868061 
1102	 0.239559276399795 
1103	 0.239866682503269 
1104	 0.240174806369296 
1105	 0.240465283418291 
1106	 0.240741165715727 
1107	 0.241011745959714 
1108	 0.241302384837335 
1109	 0.241609523848607 
1110	 0.241911696502368 
1111	 0.242209851922416 
1112	 0.242527098152068 
1113	 0.242810837175125 
1114	 0.243068949942495 
1115	 0.24332836189973 
1116	 0.243552906887302 
1117	 0.243811870538414 
1118	 0.244068264584122 
1119	 0.244374766833978 
1120	 0.244672028999086 
1121	 0.244950907784627 
1122	 0.245237104193471 
1123	 0.245523764322629 
1124	 0.245799518374175 
1125	 0.246084494527571 
1126	 0.24634524032809 
1127	 0.246573108802088 
1128	 0.246824430782487 
1129	 0.247089380676154 
1130	 0.247339225709856 
1131	 0.247588058389575 
1132	 0.247832964174745 
1133	 0.248057486043697 
1134	 0.248293950601203 
1135	 0.248535185670173 
1136	 0.248782244193677 
1137	 0.249043815782638 
1138	 0.249286341799528 
1139	 0.249508964762903 
1140	 0.249716861332806 
1141	 0.249931974219359 
1142	 0.250124982359371 
1143	 0.25033257787976 
1144	 0.25055597432079 
1145	 0.250771910389262 
1146	 0.250982082261021 
1147	 0.251190346753372 
1148	 0.251408092063998 
1149	 0.251608053232554 
1150	 0.251783521137478 
1151	 0.251985122122659 
1152	 0.252171584851791 
1153	 0.252346786753293 
1154	 0.252539138659852 
1155	 0.252739294422609 
1156	 0.252937915135 
1157	 0.253153353306637 
1158	 0.253344015939946 
1159	 0.253520119791148 
1160	 0.253701327902004 
1161	 0.253878675081638 
1162	 0.254046817756958 
1163	 0.254215707390231 
1164	 0.254380758143656 
1165	 0.254524645821934 
1166	 0.254680728695995 
1167	 0.254858292716775 
1168	 0.255033451796369 
1169	 0.255210090507774 
1170	 0.255402949430626 
1171	 0.255572074858665 
1172	 0.25573111901851 
1173	 0.255889972632219 
1174	 0.256035277006819 
1175	 0.256188260428158 
1176	 0.256353757039672 
1177	 0.256497576758627 
1178	 0.256622391650615 
1179	 0.256765315051622 
1180	 0.256904457925967 
1181	 0.25704436775427 
1182	 0.257194575434851 
1183	 0.257350586632861 
1184	 0.257496005382317 
1185	 0.257626942213777 
1186	 0.25777502387173 
1187	 0.257938346849519 
1188	 0.258079403566882 
1189	 0.258215682441492 
1190	 0.258352245833888 
1191	 0.25848186532674 
1192	 0.25860377012754 
1193	 0.258720402129807 
1194	 0.258842263322851 
1195	 0.258959558064494 
1196	 0.259070792960949 
1197	 0.259177322244417 
1198	 0.259296005378413 
1199	 0.259416808330556 
1200	 0.259526298988377 
1201	 0.259657437195597 
1202	 0.259816860670075 
1203	 0.259948056506311 
1204	 0.260082589490069 
1205	 0.26019352703956 
1206	 0.260269876844849 
1207	 0.260379029073434 
1208	 0.260492472237176 
1209	 0.260603000923774 
1210	 0.260744888937538 
1211	 0.260854103288168 
1212	 0.260926485719734 
1213	 0.261019204381921 
1214	 0.261103117437829 
1215	 0.261199310915607 
1216	 0.261304859302197 
1217	 0.261436578530115 
1218	 0.261531443946605 
1219	 0.26161564171988 
1220	 0.261704937900474 
1221	 0.261771739685897 
1222	 0.26186219286644 
1223	 0.261978503829171 
1224	 0.262071677241092 
1225	 0.262153033001919 
1226	 0.262245900028059 
1227	 0.262343052855962 
1228	 0.262428719639408 
1229	 0.262517256298663 
1230	 0.262602704594161 
1231	 0.262668531589732 
1232	 0.262743923614928 
1233	 0.262823868181161 
1234	 0.262911572277087 
1235	 0.262998797007043 
1236	 0.263094068690295 
1237	 0.263176358989037 
1238	 0.263265710009046 
1239	 0.263330694125157 
1240	 0.263369783655464 
1241	 0.263423265030885 
1242	 0.263459961583788 
1243	 0.263519483753978 
1244	 0.26359677822502 
1245	 0.263671769899011 
1246	 0.263762036014995 
1247	 0.263841165869544 
1248	 0.263924829697841 
1249	 0.263988368383591 
1250	 0.264059307887758 
1251	 0.264136055060539 
1252	 0.26420731392147 
1253	 0.264286631549246 
1254	 0.2643484463814 
1255	 0.264394662790491 
1256	 0.264451254417342 
1257	 0.264509986824393 
1258	 0.264555777805942 
1259	 0.264597513165522 
1260	 0.264641903721499 
1261	 0.264671279580434 
1262	 0.26470958763633 
1263	 0.264764963255777 
1264	 0.26480761348165 
1265	 0.264835371148908 
1266	 0.264876144055982 
1267	 0.26492811922619 
1268	 0.264962272606809 
1269	 0.26500834896898 
1270	 0.26506145293079 
1271	 0.265114589429337 
1272	 0.265170059732058 
1273	 0.265220543713945 
1274	 0.265271679879902 
1275	 0.26532724402392 
1276	 0.26537234468368 
1277	 0.265434365645268 
1278	 0.265508355577878 
1279	 0.265586694894819 
1280	 0.265671496201373 
1281	 0.265762244937673 
1282	 0.265865100756382 
1283	 0.265962875794928 
1284	 0.266048856465729 
1285	 0.266170524313559 
1286	 0.266269235742275 
1287	 0.266354859818262 
1288	 0.266474512862393 
1289	 0.266608972418684 
1290	 0.266733402471621 
1291	 0.266887370047723 
1292	 0.267006848057796 
1293	 0.26710386298172 
1294	 0.267195513651614 
1295	 0.267277827324564 
1296	 0.267354193163147 
1297	 0.267407072526332 
1298	 0.267482189553748 
1299	 0.267562136036305 
1300	 0.26764097854951 
1301	 0.267736932249111 
1302	 0.267817376846015 
1303	 0.26789521072275 
1304	 0.267962257853694 
1305	 0.268011418175083 
1306	 0.268047713036253 
1307	 0.268059545163488 
1308	 0.268081534931335 
1309	 0.268097087023081 
1310	 0.268106628008061 
1311	 0.268113864292901 
1312	 0.268119219520513 
1313	 0.268119543665802 
1314	 0.268116070745564 
1315	 0.268111317098205 
1316	 0.268102344601903 
1317	 0.268092101459406 
1318	 0.268078167624006 
1319	 0.268065514165997 
1320	 0.268047932480195 
1321	 0.26804010428076 
1322	 0.268041695831701 
1323	 0.268036214894607 
1324	 0.268026849354747 
1325	 0.268004924708154 
1326	 0.267992347908237 
1327	 0.267973661214076 
1328	 0.267932107160359 
1329	 0.267917293018137 
1330	 0.267884891178774 
1331	 0.267831875212101 
1332	 0.267781935384995 
1333	 0.267744528350535 
1334	 0.267685542686494 
1335	 0.267592458498984 
1336	 0.267537965146192 
1337	 0.267493785491057 
1338	 0.26744980460843 
1339	 0.267435331272678 
1340	 0.267397737085871 
1341	 0.267345568890217 
1342	 0.267296887763881 
1343	 0.267244359104862 
1344	 0.267184794645777 
1345	 0.267136912154931 
1346	 0.267087851147361 
1347	 0.267038879629095 
1348	 0.267010924233495 
1349	 0.266963436209671 
1350	 0.266900186660808 
1351	 0.266852640500904 
1352	 0.266798926561769 
1353	 0.266749386994369 
1354	 0.266717333657408 
1355	 0.266672826256957 
1356	 0.266623493017829 
1357	 0.266569510309431 
1358	 0.266504940149649 
1359	 0.266450641492049 
1360	 0.26639053642567 
1361	 0.266338536730967 
1362	 0.266301296803468 
1363	 0.266261614853295 
1364	 0.266217944064508 
1365	 0.266182185570469 
1366	 0.26615497183647 
1367	 0.26611669964819 
1368	 0.266112674399121 
1369	 0.26610494114541 
1370	 0.266073084768551 
1371	 0.26605780625853 
1372	 0.265997790400407 
1373	 0.265907359248559 
1374	 0.265830447322738 
1375	 0.26575432692928 
1376	 0.265651822182488 
1377	 0.265554566843894 
1378	 0.265419549182566 
1379	 0.265236963008687 
1380	 0.265078337082723 
1381	 0.264901813926274 
1382	 0.264737295501638 
1383	 0.264598572518755 
1384	 0.264430643363743 
1385	 0.264265640319269 
1386	 0.264070858322451 
1387	 0.263855079785116 
1388	 0.263622087763459 
1389	 0.263368715431559 
1390	 0.263098631791839 
1391	 0.262811437128452 
1392	 0.262496518195828 
1393	 0.262157220423414 
1394	 0.26180639925097 
1395	 0.261417100446127 
1396	 0.261022003792292 
1397	 0.260632496867153 
1398	 0.260238030817337 
1399	 0.25981966233751 
1400	 0.259403267353901 
1401	 0.25896860971656 
1402	 0.258486964591447 
1403	 0.258049138758964 
1404	 0.257613870877032 
1405	 0.257201446602631 
1406	 0.256823750168164 
1407	 0.256430132855415 
1408	 0.256034139809574 
1409	 0.255659395568538 
1410	 0.255270386656164 
1411	 0.25492003964247 
1412	 0.254597033275091 
1413	 0.254293615789354 
1414	 0.254032942494946 
1415	 0.253791875445435 
1416	 0.253566248735359 
1417	 0.253353229938129 
1418	 0.253120006722291 
1419	 0.252910515496989 
1420	 0.252735192790224 
1421	 0.252576066474604 
1422	 0.252433599214613 
1423	 0.252286170501353 
1424	 0.252131373385618 
1425	 0.25195892150206 
1426	 0.251809227304975 
1427	 0.25166050394362 
1428	 0.251532984185389 
1429	 0.251416304570966 
1430	 0.251319614676627 
1431	 0.251252587129034 
1432	 0.251168961885597 
1433	 0.251097702621973 
1434	 0.25101821062964 
1435	 0.250909340155141 
1436	 0.250839957938148 
1437	 0.250792309947549 
1438	 0.250746479659817 
1439	 0.250726815837302 
1440	 0.250699579943368 
1441	 0.250655638562033 
1442	 0.250602086972011 
1443	 0.250530694063678 
1444	 0.250468679811919 
1445	 0.250430835174536 
1446	 0.250402412606977 
1447	 0.250395654806769 
1448	 0.250381792172274 
1449	 0.250335719101842 
1450	 0.250285099757487 
1451	 0.250234292406353 
1452	 0.250163747650545 
1453	 0.250118070262661 
1454	 0.250083177028775 
1455	 0.250046288285605 
1456	 0.25002592577313 
1457	 0.249985656808098 
1458	 0.249933896222956 
1459	 0.249889462507444 
1460	 0.24982706539073 
1461	 0.249792636741633 
1462	 0.249774994477813 
1463	 0.249759719848138 
1464	 0.249761908309905 
1465	 0.24975890996433 
1466	 0.249742490045564 
1467	 0.249756048978595 
1468	 0.24976323990739 
1469	 0.249818155541723 
1470	 0.249915502039991 
1471	 0.250024352848314 
1472	 0.250153557464287 
1473	 0.250290007150931 
1474	 0.250418163438366 
1475	 0.250563491358493 
1476	 0.250714322325306 
1477	 0.250862926344843 
1478	 0.250998987184185 
1479	 0.251129048349035 
1480	 0.25126567422692 
1481	 0.251399701798686 
1482	 0.251528780863621 
1483	 0.251660728249566 
1484	 0.251780894400419 
1485	 0.251881364268303 
1486	 0.252003989754509 
1487	 0.252128564200138 
1488	 0.252266163811069 
1489	 0.252429624924994 
1490	 0.252567443045214 
1491	 0.252705143065637 
1492	 0.252831108064925 
1493	 0.252934637740018 
1494	 0.253051858427184 
1495	 0.253173197767732 
1496	 0.253283359863646 
1497	 0.253401319999237 
1498	 0.253499852663204 
1499	 0.253582019970599 
1500	 0.253662174434731 
1501	 0.253715212962501 
1502	 0.253791718991208 
1503	 0.253872319747024 
1504	 0.253967803336404 
1505	 0.254063356275644 
1506	 0.254159567444857 
1507	 0.254253181391371 
1508	 0.254332625129919 
1509	 0.254415090094975 
1510	 0.254507238620927 
1511	 0.254587125433079 
1512	 0.254658556579918 
1513	 0.254747690748923 
1514	 0.254833985937783 
1515	 0.254916441429089 
1516	 0.25501641811483 
1517	 0.255102881545992 
1518	 0.255180122947564 
1519	 0.255262536529589 
1520	 0.255343413207757 
1521	 0.255428780039338 
1522	 0.255512857069121 
1523	 0.255604047244421 
1524	 0.255706823366543 
1525	 0.255797902282594 
1526	 0.255890815099572 
1527	 0.255975641376245 
1528	 0.256049856035462 
1529	 0.256127575284282 
1530	 0.256207049143328 
1531	 0.256277756058488 
1532	 0.256342153652716 
1533	 0.256404015622099 
1534	 0.256460459981506 
1535	 0.256518429409547 
1536	 0.25656750383808 
1537	 0.256632777061682 
1538	 0.25670322262619 
1539	 0.256772795078673 
1540	 0.256856616834705 
1541	 0.256934982284472 
1542	 0.257006130113195 
1543	 0.257083508200804 
1544	 0.257181460131774 
1545	 0.257249942811583 
1546	 0.257302096657632 
1547	 0.257352188724022 
1548	 0.257399506765333 
1549	 0.257441527373749 
1550	 0.2575011119144 
1551	 0.257565398928004 
1552	 0.257595821351661 
1553	 0.257629426494987 
1554	 0.257694191581953 
1555	 0.257756352617836 
1556	 0.257825917797244 
1557	 0.257896833155503 
1558	 0.25792958234083 
1559	 0.257967145814664 
1560	 0.258011179344535 
1561	 0.258059051920865 
1562	 0.258091806790603 
1563	 0.258125497863382 
1564	 0.258150615225577 
1565	 0.258160834466633 
1566	 0.258179057377719 
1567	 0.258193632651665 
1568	 0.258219607814197 
1569	 0.258243294965326 
1570	 0.258278556344884 
1571	 0.258339648331956 
1572	 0.258375639491921 
1573	 0.258400894920452 
1574	 0.258436831848224 
1575	 0.258467350799972 
1576	 0.258495324682322 
1577	 0.25853982275824 
1578	 0.258559929259407 
1579	 0.258543311540858 
1580	 0.258566739254284 
1581	 0.25860005606236 
1582	 0.258634942503164 
1583	 0.258705137490639 
1584	 0.258747089091226 
1585	 0.258772108619441 
1586	 0.258796870895553 
1587	 0.258815101023191 
1588	 0.258827179304169 
1589	 0.258826387583236 
1590	 0.258836816030243 
1591	 0.258846573526549 
1592	 0.258858926375464 
1593	 0.258881589522549 
1594	 0.25889851754763 
1595	 0.258913378989767 
1596	 0.25892526397917 
1597	 0.258936292320702 
1598	 0.258944221476008 
1599	 0.258937008222838 
1600	 0.258946549094054 
1601	 0.258972880422128 
1602	 0.258987377021459 
1603	 0.25900259591779 
1604	 0.259020334585656 
1605	 0.259029039395311 
1606	 0.259040794057495 
1607	 0.259062423570276 
1608	 0.259079503105987 
1609	 0.259096310624083 
1610	 0.259113244139286 
1611	 0.259119944063077 
1612	 0.2591251364125 
1613	 0.259109137566678 
1614	 0.2590836917801 
1615	 0.259072574170204 
1616	 0.259067100111141 
1617	 0.259077149083639 
1618	 0.259097952813802 
1619	 0.259103339669075 
1620	 0.259107664076298 
1621	 0.259126858169746 
1622	 0.259151194526947 
1623	 0.259165983736258 
1624	 0.25919683866076 
1625	 0.259201373555835 
1626	 0.259183342514526 
1627	 0.259173790029987 
1628	 0.259161727874303 
1629	 0.259141596609029 
1630	 0.259110691370993 
1631	 0.259097351112507 
1632	 0.25908456148682 
1633	 0.259076227581095 
1634	 0.259089773682005 
1635	 0.259070327586968 
1636	 0.259023528718168 
1637	 0.259013243902412 
1638	 0.259003612722798 
1639	 0.259004211745324 
1640	 0.259032522845488 
1641	 0.259046966348062 
1642	 0.259054299773985 
1643	 0.259063001425285 
1644	 0.259077570862078 
1645	 0.259089845863807 
1646	 0.259090813861824 
1647	 0.259108846394857 
1648	 0.259148833975246 
1649	 0.259158766016538 
1650	 0.25917228687503 
1651	 0.259156370059108 
1652	 0.259101902465558 
1653	 0.259070950763079 
1654	 0.259036775207858 
1655	 0.258999467755013 
1656	 0.258960420499664 
1657	 0.258934943449339 
1658	 0.258913118956977 
1659	 0.258884987179389 
1660	 0.258875905855839 
1661	 0.258842121080457 
1662	 0.25877472872017 
1663	 0.258739128842831 
1664	 0.258709374316225 
1665	 0.258686875276501 
1666	 0.258688211894454 
1667	 0.25866953531377 
1668	 0.258647707446906 
1669	 0.258618944880138 
1670	 0.258573137811026 
1671	 0.258545095673904 
1672	 0.258521860032898 
1673	 0.258497467790531 
1674	 0.258485330171693 
1675	 0.258462178260963 
1676	 0.258427952439722 
1677	 0.258402216071538 
1678	 0.258381819711472 
1679	 0.258352984163734 
1680	 0.258316887961122 
1681	 0.258294303180895 
1682	 0.258265646071435 
1683	 0.258254711318954 
1684	 0.258263478430984 
1685	 0.258269658597237 
1686	 0.258296227247276 
1687	 0.25829237785183 
1688	 0.258276800571989 
1689	 0.258259154319139 
1690	 0.2582229088084 
1691	 0.258190272369244 
1692	 0.258168449297601 
1693	 0.258124638344725 
1694	 0.258049258922163 
1695	 0.258003466579229 
1696	 0.257952994010315 
1697	 0.257926048996149 
1698	 0.257934111164781 
1699	 0.257924138340993 
1700	 0.25792148126324 
1701	 0.257905315668396 
1702	 0.25788472818555 
1703	 0.257849971094705 
1704	 0.257805068979794 
1705	 0.257751462699748 
1706	 0.257673130078144 
1707	 0.257617751255649 
1708	 0.257562613955603 
1709	 0.257518559864925 
1710	 0.257500289498506 
1711	 0.257457121943823 
1712	 0.257407384519174 
1713	 0.257350736413374 
1714	 0.257270748267895 
1715	 0.257217717431518 
1716	 0.257177271057464 
1717	 0.257130071766079 
1718	 0.257093875634646 
1719	 0.2570505248822 
1720	 0.256996717984899 
1721	 0.256947414854173 
1722	 0.256905684217758 
1723	 0.25685604728962 
1724	 0.256806081644221 
1725	 0.256742368583498 
1726	 0.256671659528686 
1727	 0.256596225287498 
1728	 0.256500953405702 
1729	 0.256424108012258 
1730	 0.256363380746813 
1731	 0.256275641812951 
1732	 0.256170992693754 
1733	 0.256093866202347 
1734	 0.25601723646402 
1735	 0.255931007509728 
1736	 0.255860283921421 
1737	 0.255786981027481 
1738	 0.255695449299741 
1739	 0.255614004224063 
1740	 0.255549004811782 
1741	 0.255474636801723 
1742	 0.255385675802407 
1743	 0.255324395536895 
1744	 0.255291586418104 
1745	 0.255215021420827 
1746	 0.255128971348639 
1747	 0.255005610435688 
1748	 0.254900033467465 
1749	 0.254811636108286 
1750	 0.254735277337069 
1751	 0.254672509358963 
1752	 0.254604155083383 
1753	 0.254526686269455 
1754	 0.254446051069634 
1755	 0.254369422084205 
1756	 0.254276726801768 
1757	 0.254181179324918 
1758	 0.254098603687021 
1759	 0.253994270298279 
1760	 0.253918087626169 
1761	 0.253883438610185 
1762	 0.253821699484154 
1763	 0.253766737394492 
1764	 0.253700265186916 
1765	 0.253584595990652 
1766	 0.253458640732487 
1767	 0.253342435648521 
1768	 0.253236422660639 
1769	 0.253114719615162 
1770	 0.253024348799258 
1771	 0.252977427009922 
1772	 0.25291856504906 
1773	 0.25289095985691 
1774	 0.252879172510537 
1775	 0.25281662265013 
1776	 0.252727244441415 
1777	 0.252646901751693 
1778	 0.252580492589304 
1779	 0.252515555341054 
1780	 0.252462575680279 
1781	 0.252388801725759 
1782	 0.252309495169764 
1783	 0.25224228257931 
1784	 0.25218444200987 
1785	 0.252156012777454 
1786	 0.252124112590731 
1787	 0.252106982063453 
1788	 0.252077748541096 
1789	 0.25204783686227 
1790	 0.252012213659463 
1791	 0.251947017957297 
1792	 0.251904910970006 
1793	 0.251870223849194 
1794	 0.25184428186236 
1795	 0.251850641744303 
1796	 0.251822076488384 
1797	 0.251784810228448 
1798	 0.251744442878314 
1799	 0.251676433597777 
1800	 0.251617589437741 
1801	 0.247203543505858 
1802	 0.247409203557589 
1803	 0.247616392004439 
1804	 0.247826515789454 
1805	 0.248048963266139 
1806	 0.248256366927493 
1807	 0.24845996692108 
1808	 0.248655430206945 
1809	 0.248886444290303 
1810	 0.249048892393444 
1811	 0.249174467836574 
1812	 0.249288194794926 
1813	 0.249374841876965 
1814	 0.249416864640294 
1815	 0.249416658610883 
1816	 0.249423244905705 
1817	 0.249426449663768 
1818	 0.249391062507169 
1819	 0.249396872819339 
1820	 0.249424012882946 
1821	 0.249450450602885 
1822	 0.249474899176122 
1823	 0.249476492906544 
1824	 0.24950744009964 
1825	 0.249527232050711 
1826	 0.249519364257221 
1827	 0.249555057294775 
1828	 0.249539718705314 
1829	 0.249479572463763 
1830	 0.249412246912768 
1831	 0.249330631691075 
1832	 0.249226940838443 
1833	 0.24911301470302 
1834	 0.249031469820928 
1835	 0.248972136012379 
1836	 0.248914657890651 
1837	 0.248875134312504 
1838	 0.248794224612601 
1839	 0.248710160969926 
1840	 0.248607453349917 
1841	 0.248525861856987 
1842	 0.248418861359247 
1843	 0.24835822042614 
1844	 0.248340147471042 
1845	 0.248266275420951 
1846	 0.248183318380021 
1847	 0.248118807209992 
1848	 0.248028459729829 
1849	 0.24795185300644 
1850	 0.247902249885077 
1851	 0.247892641621835 
1852	 0.247850882041158 
1853	 0.247815730733634 
1854	 0.247798700380413 
1855	 0.247740378628296 
1856	 0.247677720321838 
1857	 0.24761341093088 
1858	 0.247529969859577 
1859	 0.24742429213729 
1860	 0.247308764408327 
1861	 0.247187164098821 
1862	 0.247049430419128 
1863	 0.246875629949885 
1864	 0.246697064521599 
1865	 0.246505262366881 
1866	 0.246278414868846 
1867	 0.246028885969591 
1868	 0.245775659648354 
1869	 0.245509740406032 
1870	 0.245213751625908 
1871	 0.244899018654497 
1872	 0.244579259633915 
1873	 0.244227178319254 
1874	 0.243825324410093 
1875	 0.243410931846772 
1876	 0.242961692632312 
1877	 0.242461544669778 
1878	 0.241922406450441 
1879	 0.241323339533237 
1880	 0.240645166839903 
1881	 0.239896989918452 
1882	 0.239091179634814 
1883	 0.238218433088323 
1884	 0.237259405110987 
1885	 0.236275372151533 
1886	 0.235224770243286 
1887	 0.234095158965109 
1888	 0.232924790002539 
1889	 0.231674706600606 
1890	 0.230378329199117 
1891	 0.229075757174447 
1892	 0.227749898639777 
1893	 0.22637900844227 
1894	 0.224985781203903 
1895	 0.223541102922556 
1896	 0.222054786977766 
1897	 0.220564526343042 
1898	 0.219053748454393 
1899	 0.217589617986922 
1900	 0.216172389040365 
1901	 0.214740788039564 
1902	 0.213367760651641 
1903	 0.212052244201966 
1904	 0.210768719428009 
1905	 0.209504849206941 
1906	 0.208309077133805 
1907	 0.207164422706098 
1908	 0.206064787179105 
1909	 0.205023891787782 
1910	 0.2040344931642 
1911	 0.203086292800473 
1912	 0.202194376788108 
1913	 0.201363192412732 
1914	 0.200589782569587 
1915	 0.199854493759103 
1916	 0.199180336225839 
1917	 0.198544483403638 
1918	 0.197950821261937 
1919	 0.197385029371976 
1920	 0.196849934465176 
1921	 0.196366293632221 
1922	 0.195880367971987 
1923	 0.195441205386285 
1924	 0.195065339407471 
1925	 0.194749071414007 
1926	 0.194460028279343 
1927	 0.194221526475965 
1928	 0.194020972634646 
1929	 0.193857659490277 
1930	 0.193734046714803 
1931	 0.193642622541139 
1932	 0.193599407528279 
1933	 0.193563401654765 
1934	 0.193534022251118 
1935	 0.19353910391589 
1936	 0.193574502516012 
1937	 0.193616164086002 
1938	 0.193678714367747 
1939	 0.193767453121092 
1940	 0.193866293672506 
1941	 0.193994669218501 
1942	 0.194167574834476 
1943	 0.194349631092175 
1944	 0.194539512418314 
1945	 0.194737671521216 
1946	 0.194927470431346 
1947	 0.195098292434189 
1948	 0.195297609101191 
1949	 0.19549632489925 
1950	 0.195722884755749 
1951	 0.195971390958523 
1952	 0.196241342408324 
1953	 0.196517474633027 
1954	 0.19680533125414 
1955	 0.19708283229642 
1956	 0.197383103630015 
1957	 0.197701139025724 
1958	 0.198045384513277 
1959	 0.198369687553946 
1960	 0.198713227889348 
1961	 0.199036443501906 
1962	 0.1993161326353 
1963	 0.199642383261377 
1964	 0.199977103163055 
1965	 0.200335777494175 
1966	 0.200738922085081 
1967	 0.201147086175195 
1968	 0.201537445582721 
1969	 0.201934915603057 
1970	 0.202321465418669 
1971	 0.202696716870016 
1972	 0.203068579592445 
1973	 0.203436322388482 
1974	 0.203807517181007 
1975	 0.204177196673173 
1976	 0.20453023212086 
1977	 0.204894599730402 
1978	 0.205276014515007 
1979	 0.205649192630624 
1980	 0.206015766276645 
1981	 0.206377544862898 
1982	 0.206729538445947 
1983	 0.207089980572358 
1984	 0.207431002754257 
1985	 0.207810262194789 
1986	 0.208232767155871 
1987	 0.208625067902016 
1988	 0.209019898081564 
1989	 0.209421025598183 
1990	 0.209794331154601 
1991	 0.210151390980464 
1992	 0.210526093470828 
1993	 0.210916884117981 
1994	 0.211286155758316 
1995	 0.211654221767065 
1996	 0.212006622203599 
1997	 0.212319221286998 
1998	 0.212676924829904 
1999	 0.213051679847713 
2000	 0.213423025040703 
2001	 0.213829364604752 
2002	 0.214216767399268 
2003	 0.214569429073735 
2004	 0.214932978320812 
2005	 0.215283116758733 
2006	 0.215620147191803 
2007	 0.215960410700024 
2008	 0.216290241730662 
2009	 0.2166287701955 
2010	 0.216975450078529 
2011	 0.217315482525661 
2012	 0.217660861001242 
2013	 0.217994442227951 
2014	 0.218314996282095 
2015	 0.218639528409981 
2016	 0.218949708011282 
2017	 0.219266108843374 
2018	 0.219595001241711 
2019	 0.219938993191872 
2020	 0.220262770690436 
2021	 0.220593565721435 
2022	 0.220911329009803 
2023	 0.221200520407962 
2024	 0.221510718781191 
2025	 0.221832237394655 
2026	 0.222147571822296 
2027	 0.222470988625525 
2028	 0.222784069298583 
2029	 0.22309559082532 
2030	 0.223403993654895 
2031	 0.223706604752265 
2032	 0.224014338064462 
2033	 0.224296590053202 
2034	 0.224551738159115 
2035	 0.224825739908188 
2036	 0.225106979787704 
2037	 0.225363537337232 
2038	 0.225612433996223 
2039	 0.22586238175498 
2040	 0.226099507487225 
2041	 0.226321383662961 
2042	 0.22654218558556 
2043	 0.226779965718826 
2044	 0.22699465065375 
2045	 0.22717306889433 
2046	 0.227388364794456 
2047	 0.227615074378318 
2048	 0.227845321285082 
2049	 0.228107413816118 
2050	 0.228335329521809 
2051	 0.228562395029851 
2052	 0.228763321117698 
2053	 0.228909142229614 
2054	 0.229092493308879 
2055	 0.229276946886338 
2056	 0.229473962475579 
2057	 0.229668439108109 
2058	 0.229893267689324 
2059	 0.230083087878404 
2060	 0.230246298180684 
2061	 0.23042458484892 
2062	 0.230606505746622 
2063	 0.230779197178042 
2064	 0.23094783290872 
2065	 0.231118036021381 
2066	 0.231276485462544 
2067	 0.231442353062327 
2068	 0.231605288609403 
2069	 0.231788910763988 
2070	 0.231965411088112 
2071	 0.232141282113018 
2072	 0.232326081614566 
2073	 0.23252180721933 
2074	 0.232704973613856 
2075	 0.23289295427327 
2076	 0.233071407455986 
2077	 0.233231746045136 
2078	 0.233406233410557 
2079	 0.233594613879913 
2080	 0.233763227724668 
2081	 0.233925125131405 
2082	 0.234089318889455 
2083	 0.234244741359605 
2084	 0.234392674623878 
2085	 0.23454842047572 
2086	 0.234710805049635 
2087	 0.234871687002532 
2088	 0.235039933836577 
2089	 0.235187516498091 
2090	 0.235324495073342 
2091	 0.235466813049446 
2092	 0.235594098339478 
2093	 0.235728455873975 
2094	 0.235870509905344 
2095	 0.236015437743335 
2096	 0.236170356457674 
2097	 0.236307871683677 
2098	 0.236451041596828 
2099	 0.236571325158454 
2100	 0.236698633546903 
2101	 0.236796001493268 
2102	 0.236941058575525 
2103	 0.23710248600798 
2104	 0.237281129440692 
2105	 0.237496394202715 
2106	 0.237689387032944 
2107	 0.237900813046511 
2108	 0.238086231224821 
2109	 0.238253585372656 
2110	 0.238419368464693 
2111	 0.238567477154008 
2112	 0.238721744287682 
2113	 0.238868388042439 
2114	 0.239025978892052 
2115	 0.239185371313151 
2116	 0.239353052066177 
2117	 0.239508155967301 
2118	 0.239665659121737 
2119	 0.239811564964945 
2120	 0.239939569287641 
2121	 0.240084027617492 
2122	 0.240235343089147 
2123	 0.240378209678781 
2124	 0.240539941070846 
2125	 0.240666887660145 
2126	 0.24076691013122 
2127	 0.240869500983924 
2128	 0.240946482775547 
2129	 0.241034028762164 
2130	 0.241114628013358 
2131	 0.241222024032743 
2132	 0.241308431773723 
2133	 0.241410657710084 
2134	 0.24145798982347 
2135	 0.241471562189591 
2136	 0.241493321685768 
2137	 0.241484730622558 
2138	 0.241483387446888 
2139	 0.241501956823789 
2140	 0.241487154915987 
2141	 0.241445523948732 
2142	 0.241399732632821 
2143	 0.241329432879609 
2144	 0.241271277139459 
2145	 0.241212930026811 
2146	 0.241150437216095 
2147	 0.24109495478329 
2148	 0.241030699541779 
2149	 0.240959937846324 
2150	 0.240883240854065 
2151	 0.240793675647608 
2152	 0.240696757514803 
2153	 0.240591452805329 
2154	 0.240490336772192 
2155	 0.240346236317171 
2156	 0.240180002613365 
2157	 0.23999950579169 
2158	 0.2397719590398 
2159	 0.239558555057122 
2160	 0.239336472259611 
2161	 0.239121941051728 
2162	 0.238901106084308 
2163	 0.238691244913155 
2164	 0.238489907202373 
2165	 0.238302845779045 
2166	 0.238094539590648 
2167	 0.237882378824763 
2168	 0.237671725471422 
2169	 0.23744787747662 
2170	 0.237235017218082 
2171	 0.237023071261977 
2172	 0.236827602601613 
2173	 0.236643984131668 
2174	 0.236454552497493 
2175	 0.236305848962494 
2176	 0.236098240094017 
2177	 0.235832136359752 
2178	 0.235602154480351 
2179	 0.235357898153714 
2180	 0.235120467814334 
2181	 0.234930452977624 
2182	 0.234705544760762 
2183	 0.234438163429836 
2184	 0.234180680076794 
2185	 0.23395447134982 
2186	 0.233741179047665 
2187	 0.233505503340592 
2188	 0.233273153095427 
2189	 0.233072459082241 
2190	 0.232860402377427 
2191	 0.23266605918028 
2192	 0.232532889595859 
2193	 0.232360848576 
2194	 0.232143011205309 
2195	 0.23196847062272 
2196	 0.231805090051253 
2197	 0.231659596039981 
2198	 0.23155336260096 
2199	 0.231430632353967 
2200	 0.231301628480785 
2201	 0.231194669307513 
2202	 0.231102554604933 
2203	 0.230991658289885 
2204	 0.230907765907926 
2205	 0.230855694074173 
2206	 0.230779612428701 
2207	 0.230690903162433 
2208	 0.230626333096165 
2209	 0.230562118085633 
2210	 0.230519901449234 
2211	 0.230496618191703 
2212	 0.230484664816492 
2213	 0.230487278461589 
2214	 0.230498525498487 
2215	 0.230549282300463 
2216	 0.230559716774271 
2217	 0.230557483298342 
2218	 0.230553504341284 
2219	 0.230506886318323 
2220	 0.230497715394125 
2221	 0.23051002695854 
2222	 0.230533624489426 
2223	 0.230545631778401 
2224	 0.230556370560493 
2225	 0.230557814315468 
2226	 0.230536974701062 
2227	 0.230535945515095 
2228	 0.230552461482874 
2229	 0.230540351718085 
2230	 0.23052175606246 
2231	 0.230491936989938 
2232	 0.230438411140643 
2233	 0.230397950599584 
2234	 0.23037500267971 
2235	 0.230313529611912 
2236	 0.230234231690657 
2237	 0.230149772690645 
2238	 0.230041580410808 
2239	 0.229923996789499 
2240	 0.229801862495451 
2241	 0.229670378432325 
2242	 0.229509682305326 
2243	 0.229361204275892 
2244	 0.229225928151001 
2245	 0.229082756866749 
2246	 0.228916717902691 
2247	 0.228721790410148 
2248	 0.228481998271735 
2249	 0.228193025871785 
2250	 0.227900759184974 
2251	 0.227544493162846 
2252	 0.227265544841925 
2253	 0.226988532095836 
2254	 0.226761506958759 
2255	 0.226598376291338 
2256	 0.226419681788141 
2257	 0.226238238573493 
2258	 0.226101089603636 
2259	 0.225982774502494 
2260	 0.225896795791787 
2261	 0.22588055454381 
2262	 0.225831305949892 
2263	 0.225783842446185 
2264	 0.225740447611948 
2265	 0.225648977049716 
2266	 0.225637701185174 
2267	 0.22569185588913 
2268	 0.225735399100784 
2269	 0.225804144175908 
2270	 0.225918121578171 
2271	 0.226003126222983 
2272	 0.226064577166956 
2273	 0.226150219679505 
2274	 0.226233878341776 
2275	 0.226361824686966 
2276	 0.226505905435134 
2277	 0.226674837520634 
2278	 0.226896996754165 
2279	 0.227096883894425 
2280	 0.227296657599776 
2281	 0.227504358919297 
2282	 0.227724766222729 
2283	 0.227934881627352 
2284	 0.22816465388603 
2285	 0.228357190562452 
2286	 0.228547258773803 
2287	 0.228690698140428 
2288	 0.228768133515138 
2289	 0.228876898410991 
2290	 0.228990611607266 
2291	 0.229070307385326 
2292	 0.2291414520252 
2293	 0.229207248249079 
2294	 0.229223150737506 
2295	 0.229258720629057 
2296	 0.229295642810914 
2297	 0.229367512448652 
2298	 0.229430614328728 
2299	 0.229487154864077 
2300	 0.229568483180597 
2301	 0.229651206428023 
2302	 0.229684314415651 
2303	 0.229732106978248 
2304	 0.229780134899071 
2305	 0.229766889076502 
2306	 0.229776883822155 
2307	 0.229784018278698 
2308	 0.229815146084324 
2309	 0.229853256786504 
2310	 0.229893622965228 
2311	 0.229972199084217 
2312	 0.229993375607056 
2313	 0.229972998508011 
2314	 0.229973558495652 
2315	 0.229953645972767 
2316	 0.229953708210691 
2317	 0.230004359657146 
2318	 0.229980416661616 
2319	 0.229910335525681 
2320	 0.229862886981721 
2321	 0.229783126141886 
2322	 0.229700186270493 
2323	 0.229610606335746 
2324	 0.229567456737181 
2325	 0.229539707703437 
2326	 0.229497235913504 
2327	 0.229518670551017 
2328	 0.229458959202112 
2329	 0.229376393824984 
2330	 0.229316468991233 
2331	 0.229270273259601 
2332	 0.229287279295976 
2333	 0.229284061330955 
2334	 0.229282714947766 
2335	 0.229245754866897 
2336	 0.229157991025994 
2337	 0.229080840497507 
2338	 0.228953451705279 
2339	 0.228835540590287 
2340	 0.228741288381068 
2341	 0.228597136539173 
2342	 0.228448515888937 
2343	 0.228298763031454 
2344	 0.228148386922769 
2345	 0.22802271099698 
2346	 0.227944673980764 
2347	 0.227787782795679 
2348	 0.22759110538646 
2349	 0.227432172215673 
2350	 0.227238538383758 
2351	 0.227096156856314 
2352	 0.227043915400663 
2353	 0.2268931542621 
2354	 0.22671397159568 
2355	 0.226482312044237 
2356	 0.226129479023887 
2357	 0.225921857137581 
2358	 0.2257634081274 
2359	 0.225578390245181 
2360	 0.225480245603061 
2361	 0.225311382205009 
2362	 0.225054656105136 
2363	 0.22487251832327 
2364	 0.224712544905333 
2365	 0.224561194323654 
2366	 0.224465941011846 
2367	 0.224304150366637 
2368	 0.224145155713683 
2369	 0.223951121968336 
2370	 0.223697664984699 
2371	 0.223446648800582 
2372	 0.223199015003119 
2373	 0.222865228950418 
2374	 0.222571211821473 
2375	 0.222298603809819 
2376	 0.222077139341414 
2377	 0.221861388736522 
2378	 0.221590857414919 
2379	 0.221325926098944 
2380	 0.220980044362998 
2381	 0.220685074616972 
2382	 0.220514305813113 
2383	 0.220258140083057 
2384	 0.219893207113125 
2385	 0.219554435105994 
2386	 0.219194991869376 
2387	 0.218797981164532 
2388	 0.218526457502287 
2389	 0.218286980560217 
2390	 0.21791499897258 
2391	 0.217510052567329 
2392	 0.217149191788398 
2393	 0.216727635839289 
2394	 0.216388554897131 
2395	 0.216131885538412 
2396	 0.215798174562148 
2397	 0.215491431322547 
2398	 0.215176581125092 
2399	 0.21487702349565 
2400	 0.214585809225932 
2401	 0.214313833944699 
2402	 0.214042725451319 
2403	 0.213717014793542 
2404	 0.213493342277576 
2405	 0.213239922731961 
2406	 0.212909597041607 
2407	 0.212549324777715 
2408	 0.21211224280591 
2409	 0.211735601124514 
2410	 0.211398621966664 
2411	 0.211166468685894 
2412	 0.210963230751705 
2413	 0.210640799776275 
2414	 0.210428687298298 
2415	 0.210264254857776 
2416	 0.210026390277875 
2417	 0.209789152807655 
2418	 0.209555801115663 
2419	 0.209251742923203 
2420	 0.208943990740721 
2421	 0.20871651508572 
2422	 0.20841496523536 
2423	 0.208003454598614 
2424	 0.207673445299877 
2425	 0.207328558397334 
2426	 0.206965413242463 
2427	 0.206666229731148 
2428	 0.206314309739753 
2429	 0.205903923945597 
2430	 0.205606825239018 
2431	 0.205299320904705 
2432	 0.205020292090657 
2433	 0.204884289283395 
2434	 0.204574713614072 
2435	 0.204180672424996 
2436	 0.203906929464273 
2437	 0.20361935455823 
2438	 0.203293406080513 
2439	 0.203040429615186 
2440	 0.202598919360151 
2441	 0.201956932038704 
2442	 0.201525318949723 
2443	 0.201130494708972 
2444	 0.200782902036959 
2445	 0.200584363218585 
2446	 0.200185133444335 
2447	 0.199661781477145 
2448	 0.199319964899412 
2449	 0.199009773555455 
2450	 0.198700842535101 
2451	 0.198489779837883 
2452	 0.198132233173802 
2453	 0.197647078549664 
2454	 0.197221847572771 
2455	 0.196855424161481 
2456	 0.19646804716068 
2457	 0.196029505519234 
2458	 0.195612408767659 
2459	 0.1951472540851 
2460	 0.194831395358088 
2461	 0.194639717141678 
2462	 0.194419628375383 
2463	 0.194337218071009 
2464	 0.194066454996995 
2465	 0.193650883325002 
2466	 0.193260266962209 
2467	 0.192714891376801 
2468	 0.19235996137665 
2469	 0.19214910052972 
2470	 0.191804492008572 
2471	 0.191593674122292 
2472	 0.191285295531011 
2473	 0.191149692762005 
2474	 0.191107995364033 
2475	 0.190838462957395 
2476	 0.190627632414825 
2477	 0.190323574658782 
2478	 0.190095271679273 
2479	 0.190035182797106 
2480	 0.189764181137826 
2481	 0.189362144363125 
2482	 0.188917454705442 
2483	 0.18833951603622 
2484	 0.187893511935516 
2485	 0.187682154383743 
2486	 0.187335128529062 
2487	 0.187106740062801 
2488	 0.187073664945455 
2489	 0.186806698192935 
2490	 0.186609373600897 
2491	 0.186572367321183 
2492	 0.186360372485746 
2493	 0.186123483414179 
2494	 0.185962645335477 
2495	 0.185724716135938 
2496	 0.185384624139789 
2497	 0.184966776006433 
2498	 0.184586753412067 
2499	 0.184181601240688 
2500	 0.183767955870804 
