Wavelength	mm2400014.asd
350	 5.35521532429649E-02 
351	 5.96435929240361E-02 
352	 0.050168568372198 
353	 3.45227033808511E-02 
354	 4.56914302873529E-02 
355	 4.92593910457307E-02 
356	 4.75422031684034E-02 
357	 4.94213346006096E-02 
358	 4.94118618333301E-02 
359	 4.43779774218861E-02 
360	 3.86905673192878E-02 
361	 4.04341982003746E-02 
362	 0.044089940771097 
363	 4.39832308557216E-02 
364	 0.040457096276556 
365	 0.042869711633653 
366	 0.044518973880349 
367	 4.45717558010619E-02 
368	 4.43480213564184E-02 
369	 4.70363616330416E-02 
370	 4.70512078257521E-02 
371	 4.57869277619868E-02 
372	 4.88294024749848E-02 
373	 5.07652372077044E-02 
374	 4.97589377695299E-02 
375	 0.046738754928283 
376	 4.63644588172451E-02 
377	 4.59057367340707E-02 
378	 4.64499092630103E-02 
379	 4.87432265337831E-02 
380	 4.76682073406159E-02 
381	 4.58364543329324E-02 
382	 4.64318848355997E-02 
383	 5.17785008372495E-02 
384	 5.15346444339831E-02 
385	 4.95111904927901E-02 
386	 4.98598779346178E-02 
387	 0.053705053293279 
388	 5.33127609596531E-02 
389	 5.18585932142171E-02 
390	 5.41413013512707E-02 
391	 5.42927878744669E-02 
392	 5.51210982543032E-02 
393	 5.70834246152569E-02 
394	 5.83548822339104E-02 
395	 5.85280620849741E-02 
396	 5.78934085174929E-02 
397	 5.76055856972374E-02 
398	 0.060730067272377 
399	 6.18417361095052E-02 
400	 6.22123380683719E-02 
401	 0.064483576973768 
402	 6.37587755154816E-02 
403	 6.35300584679053E-02 
404	 6.47636905123862E-02 
405	 6.54539828166482E-02 
406	 6.71551336081491E-02 
407	 6.84004747672694E-02 
408	 6.82319045793746E-02 
409	 6.83451052360974E-02 
410	 6.79435208527152E-02 
411	 6.78668792023941E-02 
412	 6.93593544984377E-02 
413	 7.12933124633656E-02 
414	 7.14841506561245E-02 
415	 7.02406316503485E-02 
416	 7.10388044497963E-02 
417	 7.04928168991253E-02 
418	 7.00491183155138E-02 
419	 7.10943940361495E-02 
420	 7.08948218698053E-02 
421	 0.070186980419691 
422	 6.98398806615694E-02 
423	 7.05392768011301E-02 
424	 7.04564493765459E-02 
425	 6.98334015758885E-02 
426	 0.069242518178609 
427	 6.94018090328684E-02 
428	 6.88644760379542E-02 
429	 6.81391071147152E-02 
430	 6.80259814524056E-02 
431	 6.73134788599807E-02 
432	 6.70146429475348E-02 
433	 6.71901411201335E-02 
434	 6.69381610823041E-02 
435	 6.67820771461282E-02 
436	 6.69288352308086E-02 
437	 6.72480318484274E-02 
438	 6.67604753727474E-02 
439	 6.72384212530025E-02 
440	 6.81943580354634E-02 
441	 6.82095412858487E-02 
442	 6.83378096496871E-02 
443	 6.88586714470096E-02 
444	 6.95958842709323E-02 
445	 6.98153174448607E-02 
446	 7.02759456350963E-02 
447	 7.08527181642958E-02 
448	 7.12638311737285E-02 
449	 7.17203274263736E-02 
450	 7.19994340614614E-02 
451	 7.22626024065001E-02 
452	 7.29513324843718E-02 
453	 7.33563807137889E-02 
454	 7.34233497180343E-02 
455	 0.073435018691438 
456	 7.42524933806083E-02 
457	 7.46860992250289E-02 
458	 7.47527839184667E-02 
459	 7.50003264196121E-02 
460	 7.54310622161498E-02 
461	 7.56483796196323E-02 
462	 7.56213392156968E-02 
463	 7.58681736919117E-02 
464	 7.63436882052895E-02 
465	 7.66595989331038E-02 
466	 7.65157903115197E-02 
467	 0.076331201336352 
468	 0.076419228645389 
469	 0.076657907034309 
470	 7.66193912423038E-02 
471	 7.69061433798456E-02 
472	 7.70939065914256E-02 
473	 7.69283800488313E-02 
474	 0.076931921773822 
475	 7.70221631536932E-02 
476	 7.72277594586133E-02 
477	 7.75461009739584E-02 
478	 7.75352094525743E-02 
479	 7.74779409812223E-02 
480	 7.75480884352085E-02 
481	 0.077674574279567 
482	 7.79661956299168E-02 
483	 7.81772064235624E-02 
484	 7.80941414333119E-02 
485	 7.80122184929598E-02 
486	 7.79983214818735E-02 
487	 7.80279501585823E-02 
488	 7.80158616794853E-02 
489	 7.81666951505188E-02 
490	 7.82361765562222E-02 
491	 7.81530205634446E-02 
492	 0.078509838971182 
493	 7.85030448857067E-02 
494	 7.82695426466611E-02 
495	 7.83490939581039E-02 
496	 7.86684209445582E-02 
497	 7.87465815596183E-02 
498	 7.85380211914536E-02 
499	 7.86941133817157E-02 
500	 7.87114332802264E-02 
501	 0.078662358922086 
502	 7.87404327979828E-02 
503	 7.89334926968988E-02 
504	 7.89922708009448E-02 
505	 7.88902726518251E-02 
506	 7.88137982480543E-02 
507	 7.89355179777643E-02 
508	 7.91111819264712E-02 
509	 7.91682792931014E-02 
510	 7.90206618422165E-02 
511	 7.89368128178681E-02 
512	 7.89843009898415E-02 
513	 7.90994203744145E-02 
514	 7.91381702202719E-02 
515	 7.91808041697381E-02 
516	 7.92640282893958E-02 
517	 7.92989427654265E-02 
518	 7.94185090351895E-02 
519	 7.94492948027332E-02 
520	 0.079256546303791 
521	 7.94336607557886E-02 
522	 0.079620138520316 
523	 7.96741622309739E-02 
524	 7.97376490106296E-02 
525	 7.97382072947616E-02 
526	 7.96934876939908E-02 
527	 7.96533571695394E-02 
528	 7.97126404259417E-02 
529	 7.97391463001971E-02 
530	 7.97624782074594E-02 
531	 7.99019085240585E-02 
532	 7.99846059267691E-02 
533	 0.08006233827668 
534	 8.01565445473928E-02 
535	 8.01454492312415E-02 
536	 8.01725518682953E-02 
537	 8.02733136142125E-02 
538	 0.080408012209387 
539	 0.080355066675209 
540	 8.03230151814075E-02 
541	 8.04064443406349E-02 
542	 8.05032230604421E-02 
543	 8.07107061942495E-02 
544	 8.08487665325755E-02 
545	 8.07858722516501E-02 
546	 8.08851371570915E-02 
547	 0.080938871387695 
548	 8.09815727003118E-02 
549	 8.12391455917241E-02 
550	 8.12881750933528E-02 
551	 8.12626585393084E-02 
552	 0.081347505575897 
553	 8.16072926612261E-02 
554	 8.17258624009825E-02 
555	 8.17550118668197E-02 
556	 8.19264442930375E-02 
557	 0.082148806846656 
558	 8.23434249724004E-02 
559	 8.24862800888935E-02 
560	 0.082639167233497 
561	 8.28678541945023E-02 
562	 8.31202598510291E-02 
563	 8.33304729074378E-02 
564	 8.36293043522452E-02 
565	 8.38789350707683E-02 
566	 8.40734164883617E-02 
567	 8.43674607979659E-02 
568	 8.47127870730575E-02 
569	 8.50712923372419E-02 
570	 8.54187792399992E-02 
571	 8.57677967292455E-02 
572	 8.62076895378665E-02 
573	 8.67047014901408E-02 
574	 8.71414018941734E-02 
575	 8.75480103585176E-02 
576	 8.79628006631187E-02 
577	 8.84117975504185E-02 
578	 0.08889004315932 
579	 8.93849159857495E-02 
580	 8.99116462722898E-02 
581	 0.090487772552069 
582	 9.10506340411346E-02 
583	 9.16311292143507E-02 
584	 9.22366177686772E-02 
585	 9.28318713897966E-02 
586	 9.34662737179128E-02 
587	 9.40883586368319E-02 
588	 9.46712517607535E-02 
589	 9.54376454523601E-02 
590	 0.096146999523049 
591	 9.67734952789859E-02 
592	 9.74962806830064E-02 
593	 9.82161748130997E-02 
594	 9.89038826506274E-02 
595	 9.95643322542551E-02 
596	 0.1002646813945 
597	 0.100937065754734 
598	 0.101560842572957 
599	 0.10215007800648 
600	 0.102749315055657 
601	 0.103378152800864 
602	 0.104034913438473 
603	 0.104699474843357 
604	 0.105275858447699 
605	 0.105818742294286 
606	 0.106417317504954 
607	 0.107012594757378 
608	 0.10756123292105 
609	 0.1080599146433 
610	 0.108550733979987 
611	 0.109061326881061 
612	 0.109585143512812 
613	 0.110073574925258 
614	 0.110370573814259 
615	 0.110694504383531 
616	 0.111085695405828 
617	 0.111450177605644 
618	 0.11173741792855 
619	 0.112013971716109 
620	 0.112319766867277 
621	 0.11259911463455 
622	 0.11282955571224 
623	 0.113044614438308 
624	 0.113294360001114 
625	 0.113547187122719 
626	 0.11379747797679 
627	 0.11403482581857 
628	 0.114239319448854 
629	 0.114456060410806 
630	 0.11467974163423 
631	 0.114888727674931 
632	 0.115050549681423 
633	 0.115246958446537 
634	 0.115453967773225 
635	 0.115573925416724 
636	 0.115810309678428 
637	 0.11606632294234 
638	 0.116244742623418 
639	 0.116367821506022 
640	 0.116550530728866 
641	 0.116763309151278 
642	 0.116923399929886 
643	 0.117139432064963 
644	 0.117333809483427 
645	 0.117494561511986 
646	 0.117730961804012 
647	 0.117898488163461 
648	 0.118054672408135 
649	 0.118285769130892 
650	 0.11853582742973 
651	 0.118784133344847 
652	 0.119017164183179 
653	 0.119231092167398 
654	 0.119471469915031 
655	 0.119699728732131 
656	 0.119911250121426 
657	 0.120238359386839 
658	 0.120485876771749 
659	 0.120682617330104 
660	 0.120955243683115 
661	 0.121276702251946 
662	 0.121585429255735 
663	 0.121868032873946 
664	 0.122185690417549 
665	 0.122506207084228 
666	 0.122813022510444 
667	 0.123102435559944 
668	 0.123400203475315 
669	 0.123734602904603 
670	 0.124102642530405 
671	 0.124473027553065 
672	 0.124807451567133 
673	 0.125168693326637 
674	 0.125585193153903 
675	 0.125960623238113 
676	 0.126346204443266 
677	 0.126754342021677 
678	 0.127175778192592 
679	 0.127566435971115 
680	 0.127950014407582 
681	 0.128370986062649 
682	 0.128892252745981 
683	 0.129359645940856 
684	 0.129801027194432 
685	 0.130272783261357 
686	 0.130739096157768 
687	 0.131259000444188 
688	 0.13179847681833 
689	 0.132264957026418 
690	 0.132717042012961 
691	 0.133221137277808 
692	 0.133785478780867 
693	 0.134305178249228 
694	 0.134808757671014 
695	 0.135343990245951 
696	 0.13594105928481 
697	 0.136479480793878 
698	 0.137009897109523 
699	 0.137554088117616 
700	 0.138092619101677 
701	 0.138654786901389 
702	 0.139240125073495 
703	 0.139831395540991 
704	 0.140382832056507 
705	 0.140946665217777 
706	 0.141525431155472 
707	 0.142096899185906 
708	 0.142675878064813 
709	 0.143263099618742 
710	 0.143855101168343 
711	 0.144447808507562 
712	 0.144983826985572 
713	 0.145477313890657 
714	 0.145980860869805 
715	 0.146604583594229 
716	 0.147195289021136 
717	 0.147720559205044 
718	 0.148242640541216 
719	 0.148771638674844 
720	 0.149268875695868 
721	 0.149723106854704 
722	 0.150191314639037 
723	 0.150671477601488 
724	 0.151132539389002 
725	 0.151549450193766 
726	 0.151987020838119 
727	 0.152416383873405 
728	 0.152801041817579 
729	 0.15311109397844 
730	 0.153498860363919 
731	 0.153867973198164 
732	 0.154147068612665 
733	 0.154435763896582 
734	 0.154714588943782 
735	 0.154942828248985 
736	 0.155096694295789 
737	 0.155328483716916 
738	 0.155502602631639 
739	 0.155608068108881 
740	 0.155786325651206 
741	 0.15588905467615 
742	 0.155932298910518 
743	 0.155967244986389 
744	 0.156050666879157 
745	 0.156041223989904 
746	 0.155977356856664 
747	 0.155965318312113 
748	 0.155918066087119 
749	 0.155797066473652 
750	 0.155646855278269 
751	 0.155601127697912 
752	 0.155493198693191 
753	 0.155317809077092 
754	 0.155110419990077 
755	 0.154902609343193 
756	 0.154702390636494 
757	 0.154480716733817 
758	 0.154203745656179 
759	 0.153958030122297 
760	 0.153688400048013 
761	 0.153372332903165 
762	 0.15304499990492 
763	 0.15275372376311 
764	 0.152463003238315 
765	 0.152132091955183 
766	 0.151762637915029 
767	 0.151421397481869 
768	 0.151087095642671 
769	 0.150703377148104 
770	 0.150325294811549 
771	 0.14993652671082 
772	 0.149527077137711 
773	 0.149103031083006 
774	 0.148717047776992 
775	 0.148355914063442 
776	 0.147984921299393 
777	 0.147553887674132 
778	 0.147133475966797 
779	 0.146738831052476 
780	 0.146350431806768 
781	 0.145918749174891 
782	 0.145469322524589 
783	 0.145031590053628 
784	 0.144631085378321 
785	 0.144249810195133 
786	 0.14384533025652 
787	 0.143408826202377 
788	 0.143019059086935 
789	 0.142657238208522 
790	 0.142254639166165 
791	 0.141769700690374 
792	 0.141402902307612 
793	 0.141041842197015 
794	 0.14064958340644 
795	 0.140265680315456 
796	 0.139836098087893 
797	 0.139438153260766 
798	 0.139104963572997 
799	 0.138756436448174 
800	 0.138378358398031 
801	 0.138002988437125 
802	 0.137663663884823 
803	 0.137329511202839 
804	 0.137004596084585 
805	 0.136676850742311 
806	 0.136328899293445 
807	 0.135981914900673 
808	 0.135640737693148 
809	 0.13531902715355 
810	 0.135040917185128 
811	 0.134722396259541 
812	 0.134396661418834 
813	 0.134103369420607 
814	 0.133822552384912 
815	 0.133556961886047 
816	 0.133278432663331 
817	 0.132968990798384 
818	 0.132727669055095 
819	 0.132489372371557 
820	 0.132226526642268 
821	 0.131955076432878 
822	 0.131700758246912 
823	 0.131433297612634 
824	 0.13116601150293 
825	 0.130995562427508 
826	 0.130819841941649 
827	 0.13061309955006 
828	 0.130384695302422 
829	 0.130181199873514 
830	 0.129954721718087 
831	 0.129735959436937 
832	 0.129580872385048 
833	 0.129459335679945 
834	 0.129274214723189 
835	 0.129041316261793 
836	 0.128880810658117 
837	 0.128771182124192 
838	 0.128647950994632 
839	 0.12848604190861 
840	 0.128340615122513 
841	 0.12820297737765 
842	 0.128080416203195 
843	 0.127977782742395 
844	 0.127887383884563 
845	 0.127790289559634 
846	 0.127671566096684 
847	 0.127538570825717 
848	 0.127496105583149 
849	 0.12745535336379 
850	 0.127376752059193 
851	 0.127276428515239 
852	 0.127154739508259 
853	 0.127090319601762 
854	 0.127086417709403 
855	 0.1270275453892 
856	 0.127022017869852 
857	 0.126996855760518 
858	 0.126911369359414 
859	 0.126915729270613 
860	 0.126907380005689 
861	 0.126873666346043 
862	 0.126836772006994 
863	 0.126814828686031 
864	 0.126856334097237 
865	 0.126909729849874 
866	 0.126885602382445 
867	 0.126896106751617 
868	 0.126924914284965 
869	 0.126962222145137 
870	 0.127015074134013 
871	 0.127070552314809 
872	 0.127121932803014 
873	 0.1271644090224 
874	 0.127194233145857 
875	 0.127242132717479 
876	 0.12730612317154 
877	 0.127389588454888 
878	 0.127538693730928 
879	 0.127679198450666 
880	 0.127782872989855 
881	 0.127859228951387 
882	 0.127984591393586 
883	 0.128125534063609 
884	 0.128233428978218 
885	 0.12828479924522 
886	 0.128440262081806 
887	 0.128601167671136 
888	 0.128730668526112 
889	 0.128864563648771 
890	 0.129033884762054 
891	 0.129182427586138 
892	 0.12932823975652 
893	 0.129583755140673 
894	 0.129807390209302 
895	 0.129981531771253 
896	 0.130146760263655 
897	 0.130397523891931 
898	 0.130622285469692 
899	 0.130819359579026 
900	 0.131013154712854 
901	 0.131211490737101 
902	 0.131436762405124 
903	 0.131680769719929 
904	 0.131925049864978 
905	 0.132159401899492 
906	 0.132432811150991 
907	 0.132725513902712 
908	 0.133007132815699 
909	 0.133386399260705 
910	 0.133714013523819 
911	 0.133990137756378 
912	 0.134303104162965 
913	 0.134538079463558 
914	 0.134859294733997 
915	 0.135265314597929 
916	 0.135598288675349 
917	 0.135873979201845 
918	 0.13621095805189 
919	 0.136596113608859 
920	 0.136869542924601 
921	 0.137236991469598 
922	 0.137655791824356 
923	 0.138074895243234 
924	 0.138497235157631 
925	 0.138889194884989 
926	 0.139296197528587 
927	 0.139726605451427 
928	 0.140089478330078 
929	 0.140644385300076 
930	 0.141188138876178 
931	 0.141552952905164 
932	 0.141932326640263 
933	 0.142373693934518 
934	 0.142883553194757 
935	 0.143442940575529 
936	 0.144040126292471 
937	 0.144473842817059 
938	 0.14489143285526 
939	 0.14546984802932 
940	 0.146045573681426 
941	 0.146597700476252 
942	 0.147142513099749 
943	 0.147700966085491 
944	 0.148222888984314 
945	 0.148798208330732 
946	 0.14942951935042 
947	 0.150058369108884 
948	 0.150571983615483 
949	 0.151157381115344 
950	 0.151795424969787 
951	 0.152391771947607 
952	 0.15308285095184 
953	 0.153777268291727 
954	 0.154414362191635 
955	 0.155002370942206 
956	 0.155752301419354 
957	 0.156451887674235 
958	 0.15707791622949 
959	 0.15773760514331 
960	 0.158459631763621 
961	 0.159160421024543 
962	 0.159838537813661 
963	 0.160541815767621 
964	 0.161236126130756 
965	 0.161997017283121 
966	 0.162748841690279 
967	 0.163381608120863 
968	 0.164229882394284 
969	 0.165026070550514 
970	 0.165703156831992 
971	 0.166377012488821 
972	 0.167158449304192 
973	 0.168060051108554 
974	 0.168952212443278 
975	 0.169697078611504 
976	 0.170661816427037 
977	 0.17137515974853 
978	 0.171951899530088 
979	 0.172825475036613 
980	 0.173706667433924 
981	 0.174513720644576 
982	 0.175272946545026 
983	 0.176067693883531 
984	 0.176896007104993 
985	 0.17778685488711 
986	 0.178583741762186 
987	 0.179181964163771 
988	 0.180242207653549 
989	 0.181090256951045 
990	 0.181759891933741 
991	 0.182613814703477 
992	 0.183506247786417 
993	 0.184353302597005 
994	 0.185187906466683 
995	 0.186045953263234 
996	 0.186740881117055 
997	 0.187479023594926 
998	 0.188228140006474 
999	 0.188939630950491 
1000	 0.189876686257127 
1001	 0.190599782330552 
1002	 0.191338747531348 
1003	 0.192064136825193 
1004	 0.192779177400727 
1005	 0.193464751292841 
1006	 0.194195192740857 
1007	 0.194947221538996 
1008	 0.195687473407022 
1009	 0.196407146766924 
1010	 0.19708806575571 
1011	 0.197741831645732 
1012	 0.19833980608921 
1013	 0.198974953954453 
1014	 0.199677061866271 
1015	 0.20039408221052 
1016	 0.201097527149447 
1017	 0.201747022825086 
1018	 0.202349110411485 
1019	 0.202957612031806 
1020	 0.203593677378084 
1021	 0.204250032230875 
1022	 0.204957864043133 
1023	 0.205612079260781 
1024	 0.206157444414673 
1025	 0.206666344615792 
1026	 0.20720064036139 
1027	 0.207724616558088 
1028	 0.20826423661386 
1029	 0.208837886466908 
1030	 0.209419082386722 
1031	 0.209981259593413 
1032	 0.210546771703004 
1033	 0.211102432897214 
1034	 0.211616933878817 
1035	 0.212070560746478 
1036	 0.212527021917573 
1037	 0.212997763273141 
1038	 0.213495700150908 
1039	 0.214012776401003 
1040	 0.214517111602869 
1041	 0.215034590773627 
1042	 0.21553789534352 
1043	 0.216019947120086 
1044	 0.216511972240418 
1045	 0.217011111878169 
1046	 0.217488272376201 
1047	 0.217967962886933 
1048	 0.218461878027745 
1049	 0.218887897860786 
1050	 0.219345925041707 
1051	 0.219847259254525 
1052	 0.220300268936287 
1053	 0.22081754305383 
1054	 0.221337252564663 
1055	 0.221765444233071 
1056	 0.222230432305961 
1057	 0.222663191037198 
1058	 0.223011977042727 
1059	 0.223436870579773 
1060	 0.223894816343458 
1061	 0.224346667113756 
1062	 0.224809604234483 
1063	 0.225312675617028 
1064	 0.225766187528999 
1065	 0.226178438936781 
1066	 0.226579266056582 
1067	 0.227023258805738 
1068	 0.227492544280026 
1069	 0.227943454376794 
1070	 0.228387957684996 
1071	 0.228846650865181 
1072	 0.229278653849847 
1073	 0.229669875886202 
1074	 0.230081182680462 
1075	 0.230483159920355 
1076	 0.230933481068106 
1077	 0.231354977739992 
1078	 0.231746707243567 
1079	 0.232156589883553 
1080	 0.23251803682523 
1081	 0.232798153982823 
1082	 0.233159041884149 
1083	 0.233546951280667 
1084	 0.233931904028622 
1085	 0.234328871274348 
1086	 0.234833856188408 
1087	 0.235210611080667 
1088	 0.235514654058988 
1089	 0.23584138573032 
1090	 0.236141407449746 
1091	 0.236445097651642 
1092	 0.23681693428804 
1093	 0.237203096366324 
1094	 0.237544108883387 
1095	 0.237873682899435 
1096	 0.238197225315028 
1097	 0.238510600344042 
1098	 0.238835207072425 
1099	 0.239185306063707 
1100	 0.239513811752923 
1101	 0.239828225659055 
1102	 0.240148897212309 
1103	 0.240474574081398 
1104	 0.240783419537606 
1105	 0.241126663812241 
1106	 0.241444779750331 
1107	 0.241698319194314 
1108	 0.24196178866492 
1109	 0.242213312270449 
1110	 0.242476652825975 
1111	 0.242754119373283 
1112	 0.24308109931261 
1113	 0.243359882307339 
1114	 0.243609779495053 
1115	 0.243878408651251 
1116	 0.244145063306648 
1117	 0.244416719164164 
1118	 0.24468899616504 
1119	 0.244971605838483 
1120	 0.245269236890804 
1121	 0.245577110681106 
1122	 0.245909186588018 
1123	 0.246196088095549 
1124	 0.246465119274317 
1125	 0.246698368099515 
1126	 0.246958297200847 
1127	 0.247211870742967 
1128	 0.247462986837974 
1129	 0.247719977287501 
1130	 0.247975365121917 
1131	 0.248219416963167 
1132	 0.248470457036253 
1133	 0.248748826225083 
1134	 0.248991583804084 
1135	 0.249211950100567 
1136	 0.249434997460118 
1137	 0.249630029563443 
1138	 0.249820448324013 
1139	 0.250044150372148 
1140	 0.250286039323554 
1141	 0.250520128374207 
1142	 0.250783492924519 
1143	 0.251012272751418 
1144	 0.251217906600847 
1145	 0.251423907966444 
1146	 0.251628671429859 
1147	 0.251820491251355 
1148	 0.251991783276567 
1149	 0.252179068007074 
1150	 0.252369493880721 
1151	 0.25254668690729 
1152	 0.252737110667105 
1153	 0.252935134686106 
1154	 0.253120859853045 
1155	 0.253294223539028 
1156	 0.253477656217022 
1157	 0.253660930987206 
1158	 0.253849205892608 
1159	 0.254043126052446 
1160	 0.254234211168592 
1161	 0.254435146357441 
1162	 0.254620182383194 
1163	 0.254799307355947 
1164	 0.254976844749145 
1165	 0.255146936877949 
1166	 0.255306580590406 
1167	 0.255493054843958 
1168	 0.255665026151046 
1169	 0.255837281237699 
1170	 0.256016559033089 
1171	 0.256182362903942 
1172	 0.256332109434949 
1173	 0.256497778630153 
1174	 0.256676280183976 
1175	 0.256831062957321 
1176	 0.256977522098011 
1177	 0.257125829775837 
1178	 0.257266907114372 
1179	 0.257399409250799 
1180	 0.257528069443603 
1181	 0.257660729879622 
1182	 0.25777569518255 
1183	 0.25789360391284 
1184	 0.25804431130452 
1185	 0.25822456710575 
1186	 0.258382692360519 
1187	 0.258559936395549 
1188	 0.258711383341299 
1189	 0.258844840661857 
1190	 0.258978405182759 
1191	 0.259108754017548 
1192	 0.259229181281565 
1193	 0.259324190116369 
1194	 0.259445700998207 
1195	 0.259588729872384 
1196	 0.259706127600234 
1197	 0.259817449177622 
1198	 0.259938247552517 
1199	 0.260055715382633 
1200	 0.260148229452958 
1201	 0.260270153395777 
1202	 0.260422788843734 
1203	 0.260544131158613 
1204	 0.260654260576013 
1205	 0.260770015132156 
1206	 0.260877395204724 
1207	 0.260990638458756 
1208	 0.261117123269738 
1209	 0.261226428203415 
1210	 0.261334421468379 
1211	 0.261428294195631 
1212	 0.261486538913975 
1213	 0.261576262081486 
1214	 0.261679497570533 
1215	 0.261776031676387 
1216	 0.261877616344473 
1217	 0.262002256818792 
1218	 0.26210289791371 
1219	 0.262183497747059 
1220	 0.262281007480503 
1221	 0.262384139100148 
1222	 0.262484160023919 
1223	 0.262589295172057 
1224	 0.26268777592385 
1225	 0.262786475648503 
1226	 0.262876489693778 
1227	 0.262957628447079 
1228	 0.263041371010091 
1229	 0.263120492082774 
1230	 0.263199962722412 
1231	 0.263280839608483 
1232	 0.263360846715019 
1233	 0.263439514038793 
1234	 0.263514505918961 
1235	 0.263591597523912 
1236	 0.263669274633677 
1237	 0.26374871414738 
1238	 0.263834748576871 
1239	 0.263906466360965 
1240	 0.263972899401122 
1241	 0.264038221755811 
1242	 0.26408670774124 
1243	 0.264151487056735 
1244	 0.264230085468784 
1245	 0.264299614016885 
1246	 0.264366735831434 
1247	 0.264438439354275 
1248	 0.264504758764511 
1249	 0.264578971879389 
1250	 0.264659422965388 
1251	 0.264735798248403 
1252	 0.264812065686227 
1253	 0.264893029229128 
1254	 0.264954336005161 
1255	 0.265008823894645 
1256	 0.265060965203317 
1257	 0.265090798532738 
1258	 0.265137273044004 
1259	 0.265193838759384 
1260	 0.26524247199431 
1261	 0.265292072974042 
1262	 0.265340845585245 
1263	 0.265387372809291 
1264	 0.265433483945082 
1265	 0.265482277411685 
1266	 0.265525143443657 
1267	 0.265567822432189 
1268	 0.265596100899504 
1269	 0.265634440960832 
1270	 0.26566247760564 
1271	 0.265720028736867 
1272	 0.265798559204211 
1273	 0.265860975424986 
1274	 0.265938457902782 
1275	 0.266000999460048 
1276	 0.266035695496656 
1277	 0.266100788476638 
1278	 0.266170610751417 
1279	 0.266255906654496 
1280	 0.266368971069106 
1281	 0.266470456670999 
1282	 0.266582339993762 
1283	 0.266685070226502 
1284	 0.26677920551116 
1285	 0.26686652357202 
1286	 0.266984992606389 
1287	 0.26710768560221 
1288	 0.267210622172058 
1289	 0.267318865774737 
1290	 0.267428876646858 
1291	 0.267517547615016 
1292	 0.267620540844213 
1293	 0.267750132867126 
1294	 0.267849489666398 
1295	 0.267933698383581 
1296	 0.268016623929646 
1297	 0.268089533224694 
1298	 0.26816162194683 
1299	 0.268226516477964 
1300	 0.268291140651822 
1301	 0.268346223998558 
1302	 0.268413273601372 
1303	 0.268496189122342 
1304	 0.268561634495642 
1305	 0.268612813971024 
1306	 0.268665455914306 
1307	 0.268688363093571 
1308	 0.268712046366222 
1309	 0.268733408450714 
1310	 0.268761200710399 
1311	 0.268764556844429 
1312	 0.268748560386226 
1313	 0.268739058511712 
1314	 0.268716250991817 
1315	 0.268704326689776 
1316	 0.268698785789148 
1317	 0.268694967455535 
1318	 0.26869418679663 
1319	 0.268689446599491 
1320	 0.268677094712345 
1321	 0.268675585257696 
1322	 0.268678118433526 
1323	 0.268690538796095 
1324	 0.268667009377043 
1325	 0.268673666813039 
1326	 0.268668244705154 
1327	 0.268611411967124 
1328	 0.268573543211829 
1329	 0.268554713450029 
1330	 0.268510346218421 
1331	 0.268451144171117 
1332	 0.26839121511371 
1333	 0.268316417386839 
1334	 0.26825177856562 
1335	 0.268175444721129 
1336	 0.268129029292444 
1337	 0.268106601008102 
1338	 0.268070489460551 
1339	 0.268047904056343 
1340	 0.268012850387623 
1341	 0.267970098311581 
1342	 0.267922483136501 
1343	 0.267860018553109 
1344	 0.267818129378178 
1345	 0.267775448492056 
1346	 0.267727911288911 
1347	 0.26768812378098 
1348	 0.267640416411078 
1349	 0.267592924426882 
1350	 0.267533494405905 
1351	 0.267486617506797 
1352	 0.267458009329943 
1353	 0.26740887253125 
1354	 0.267350292863124 
1355	 0.267293783753989 
1356	 0.267227547628729 
1357	 0.267166212459301 
1358	 0.267109835388743 
1359	 0.267050458567166 
1360	 0.266979790941079 
1361	 0.266926930599346 
1362	 0.266887587694272 
1363	 0.266839525258935 
1364	 0.266791118080953 
1365	 0.266755714136205 
1366	 0.266723843580801 
1367	 0.266683789378758 
1368	 0.266668550434822 
1369	 0.266662735203117 
1370	 0.266629003476812 
1371	 0.266584301894314 
1372	 0.266528875269663 
1373	 0.266445742026634 
1374	 0.266371236368484 
1375	 0.266299018933802 
1376	 0.266203682671951 
1377	 0.266111015564027 
1378	 0.265979362864448 
1379	 0.265802524649475 
1380	 0.265645706004525 
1381	 0.265474403156224 
1382	 0.265305875758457 
1383	 0.265157815714484 
1384	 0.264980995026909 
1385	 0.264792561486178 
1386	 0.264585234380465 
1387	 0.264365159551971 
1388	 0.264123569709222 
1389	 0.263862532138791 
1390	 0.263585464871295 
1391	 0.263302647536638 
1392	 0.262986834880747 
1393	 0.262622105351228 
1394	 0.262261918993138 
1395	 0.261856553478864 
1396	 0.26142786126392 
1397	 0.261028994218062 
1398	 0.260644944664908 
1399	 0.26022578124765 
1400	 0.259813469242768 
1401	 0.25937504822163 
1402	 0.258891343827646 
1403	 0.258443786902854 
1404	 0.25798711674429 
1405	 0.257563020529924 
1406	 0.257161788763309 
1407	 0.256760016509914 
1408	 0.256382072956486 
1409	 0.255999720254848 
1410	 0.255591223705992 
1411	 0.255237918336121 
1412	 0.254908961390659 
1413	 0.254597848741089 
1414	 0.254336064488668 
1415	 0.254087901904641 
1416	 0.253852027494848 
1417	 0.253640492045413 
1418	 0.253426321431318 
1419	 0.253223321474363 
1420	 0.253023296599044 
1421	 0.2528305171584 
1422	 0.252668126162344 
1423	 0.252518048566729 
1424	 0.252364344671103 
1425	 0.25222434356525 
1426	 0.252077845511267 
1427	 0.251910278783243 
1428	 0.251783448861319 
1429	 0.251672088733422 
1430	 0.251575887438998 
1431	 0.251524862894504 
1432	 0.251441963661868 
1433	 0.251354244809922 
1434	 0.251266338970868 
1435	 0.251145522186614 
1436	 0.251065854250027 
1437	 0.251005682977267 
1438	 0.250954283518752 
1439	 0.250932068124543 
1440	 0.250910753879621 
1441	 0.250855242039633 
1442	 0.250811551464192 
1443	 0.250756434745367 
1444	 0.250689360967752 
1445	 0.250655158076756 
1446	 0.250629634003579 
1447	 0.250603913976849 
1448	 0.250587432542428 
1449	 0.250550997787119 
1450	 0.2505054363217 
1451	 0.250463559319504 
1452	 0.250408195129832 
1453	 0.250368232460744 
1454	 0.250340376321078 
1455	 0.250304821611595 
1456	 0.250272672025514 
1457	 0.250234696818517 
1458	 0.250192146289435 
1459	 0.250147715867793 
1460	 0.250094269226069 
1461	 0.250052435365711 
1462	 0.250006003586073 
1463	 0.249980323163961 
1464	 0.249967941965137 
1465	 0.249962614475376 
1466	 0.24996320720843 
1467	 0.24998135466183 
1468	 0.249994454014006 
1469	 0.250050063891867 
1470	 0.250136449086088 
1471	 0.250246014706457 
1472	 0.250381733625093 
1473	 0.250535195612941 
1474	 0.250677239142551 
1475	 0.250825240987651 
1476	 0.250959602442232 
1477	 0.251093969400956 
1478	 0.251233509530022 
1479	 0.251365421381369 
1480	 0.251517753239044 
1481	 0.251662700767775 
1482	 0.251794255233468 
1483	 0.251920227705406 
1484	 0.252045204400681 
1485	 0.252150264181653 
1486	 0.252276546906269 
1487	 0.252405719995041 
1488	 0.252550159224405 
1489	 0.252718028662179 
1490	 0.252867349658343 
1491	 0.253031672633823 
1492	 0.253168809876339 
1493	 0.253279091663721 
1494	 0.253395550385666 
1495	 0.253494651805641 
1496	 0.253611670018745 
1497	 0.253749198735985 
1498	 0.253859318570267 
1499	 0.25397512166224 
1500	 0.25406486984038 
1501	 0.254112387127907 
1502	 0.254180159882574 
1503	 0.254234852168761 
1504	 0.25430844140318 
1505	 0.254413474615749 
1506	 0.254517712022847 
1507	 0.254646124166497 
1508	 0.254770022219993 
1509	 0.25485812618738 
1510	 0.254951989062063 
1511	 0.255037270255341 
1512	 0.255106457135769 
1513	 0.255186267263743 
1514	 0.255280350366826 
1515	 0.255371061188014 
1516	 0.255458644262006 
1517	 0.25554285255318 
1518	 0.255626244934778 
1519	 0.255707759804518 
1520	 0.25578527418406 
1521	 0.255862504389283 
1522	 0.255936629953656 
1523	 0.256019429807092 
1524	 0.256095677918747 
1525	 0.256192924303067 
1526	 0.256322634954257 
1527	 0.256415901301746 
1528	 0.256497786903306 
1529	 0.256584536227469 
1530	 0.256654069222212 
1531	 0.256728351318506 
1532	 0.256819557448113 
1533	 0.25689221451636 
1534	 0.256952431068607 
1535	 0.257007394893433 
1536	 0.257039954676146 
1537	 0.257099780422682 
1538	 0.257161168768199 
1539	 0.257228653302564 
1540	 0.257318307792621 
1541	 0.257407199978872 
1542	 0.257508163487572 
1543	 0.257592261658887 
1544	 0.257676531897483 
1545	 0.25774997680574 
1546	 0.257809423704055 
1547	 0.257856627466028 
1548	 0.25789516234111 
1549	 0.257935578823486 
1550	 0.257972831062091 
1551	 0.258011410137875 
1552	 0.258085595764342 
1553	 0.258173212011774 
1554	 0.258250255478832 
1555	 0.258320847986016 
1556	 0.258352669951021 
1557	 0.258386579487516 
1558	 0.258433865464315 
1559	 0.258458863986579 
1560	 0.258494610898306 
1561	 0.258538886827219 
1562	 0.258573683848067 
1563	 0.258603625398426 
1564	 0.258636347132949 
1565	 0.258670423221656 
1566	 0.258697166024514 
1567	 0.258719399449887 
1568	 0.258740128103683 
1569	 0.258744766554075 
1570	 0.258777219829852 
1571	 0.25882302252194 
1572	 0.258868967249798 
1573	 0.258933424742712 
1574	 0.258987293496067 
1575	 0.259043688245216 
1576	 0.259080691345884 
1577	 0.259106300855011 
1578	 0.259139734332391 
1579	 0.259154315190883 
1580	 0.259188773171315 
1581	 0.25924751538966 
1582	 0.259285552679032 
1583	 0.259323396928555 
1584	 0.259350455465889 
1585	 0.259359921843635 
1586	 0.259378991616765 
1587	 0.259398529681533 
1588	 0.259413052471155 
1589	 0.259422777218944 
1590	 0.259440492651894 
1591	 0.259463930701726 
1592	 0.259479398816685 
1593	 0.259498550461175 
1594	 0.259514316734193 
1595	 0.259523246175269 
1596	 0.259526268770923 
1597	 0.25952414831062 
1598	 0.259524802574468 
1599	 0.259509232808626 
1600	 0.259511070165128 
1601	 0.259536340905708 
1602	 0.259549410931643 
1603	 0.259565963754537 
1604	 0.259576574662212 
1605	 0.259566884850184 
1606	 0.259573670135986 
1607	 0.259587258350144 
1608	 0.259605548572735 
1609	 0.259635640581929 
1610	 0.259660003152333 
1611	 0.259675109986631 
1612	 0.25968996226805 
1613	 0.259701268464809 
1614	 0.259711855877289 
1615	 0.259712003447803 
1616	 0.259699023049604 
1617	 0.259674798231463 
1618	 0.259664656417631 
1619	 0.25966623063443 
1620	 0.259671606444598 
1621	 0.259689835233455 
1622	 0.259728406987567 
1623	 0.259740538453454 
1624	 0.259754777062504 
1625	 0.259753854757851 
1626	 0.259730653348544 
1627	 0.259722142187397 
1628	 0.259712596139122 
1629	 0.259709642639126 
1630	 0.25971204449861 
1631	 0.259710963802095 
1632	 0.259709783473575 
1633	 0.259714870754797 
1634	 0.25972743762599 
1635	 0.259721525826232 
1636	 0.259711528330113 
1637	 0.259705057191744 
1638	 0.259684435089124 
1639	 0.259675032073182 
1640	 0.259677614035046 
1641	 0.25967504775214 
1642	 0.259663441310089 
1643	 0.259667341166965 
1644	 0.259682832057964 
1645	 0.259695114692924 
1646	 0.259716243142865 
1647	 0.259725856417861 
1648	 0.259740344808723 
1649	 0.259729428153965 
1650	 0.259692348944078 
1651	 0.259679009936979 
1652	 0.259664533682536 
1653	 0.259643012104054 
1654	 0.259629966043498 
1655	 0.259616073687372 
1656	 0.25959191720461 
1657	 0.259565084248744 
1658	 0.259548069634829 
1659	 0.259521981532606 
1660	 0.259477278578114 
1661	 0.259443371134716 
1662	 0.259419627807197 
1663	 0.259387334532703 
1664	 0.259344981125609 
1665	 0.259313670639705 
1666	 0.259280798790073 
1667	 0.259262012943476 
1668	 0.25926004693704 
1669	 0.259245949349969 
1670	 0.259241419238737 
1671	 0.259220482268693 
1672	 0.259187448100436 
1673	 0.259150950610553 
1674	 0.259097409928532 
1675	 0.259064533890218 
1676	 0.259032459550121 
1677	 0.259009959480144 
1678	 0.259008828111943 
1679	 0.258993525848775 
1680	 0.258969579631546 
1681	 0.258957793464332 
1682	 0.258950374535821 
1683	 0.258942193767611 
1684	 0.258949233662797 
1685	 0.258935718242374 
1686	 0.258909534612926 
1687	 0.258884045092009 
1688	 0.258844545213523 
1689	 0.258817924681317 
1690	 0.258797446507397 
1691	 0.258775311900928 
1692	 0.258768108225397 
1693	 0.258732048984488 
1694	 0.258673319805687 
1695	 0.258631694152536 
1696	 0.258572890895323 
1697	 0.258539884734182 
1698	 0.258539689056799 
1699	 0.258515376375824 
1700	 0.258481485225224 
1701	 0.258461060864237 
1702	 0.258449575800919 
1703	 0.258416545742419 
1704	 0.258388394084734 
1705	 0.258343066195672 
1706	 0.258255930178728 
1707	 0.258207206464957 
1708	 0.258178928048397 
1709	 0.258140428768964 
1710	 0.258108763485827 
1711	 0.258078368920134 
1712	 0.258044886025615 
1713	 0.258006590144477 
1714	 0.257981766594798 
1715	 0.257935275410387 
1716	 0.257869802656303 
1717	 0.257806453547249 
1718	 0.257732155222701 
1719	 0.257668407104198 
1720	 0.257602896783364 
1721	 0.257544349405146 
1722	 0.257490647195748 
1723	 0.257441153702816 
1724	 0.257414094617632 
1725	 0.257344421407799 
1726	 0.2572570765693 
1727	 0.257177484359833 
1728	 0.257069469354957 
1729	 0.256977774659583 
1730	 0.256898124846154 
1731	 0.256826289477593 
1732	 0.256750615409042 
1733	 0.25668270445714 
1734	 0.25664580660848 
1735	 0.256574784214167 
1736	 0.256470571421383 
1737	 0.256409922336131 
1738	 0.256368346287024 
1739	 0.256300920489454 
1740	 0.25625075423475 
1741	 0.256180976352198 
1742	 0.256069528108469 
1743	 0.255991114855013 
1744	 0.255939785235986 
1745	 0.255846239582748 
1746	 0.255741916169043 
1747	 0.255622249073566 
1748	 0.255518342471209 
1749	 0.255444070045215 
1750	 0.255353445547107 
1751	 0.255277965486257 
1752	 0.255195651016537 
1753	 0.255133167832867 
1754	 0.255083453048684 
1755	 0.254997448528006 
1756	 0.25492248431828 
1757	 0.254834133394659 
1758	 0.254724304553584 
1759	 0.254645299020552 
1760	 0.254575417158231 
1761	 0.254501202535982 
1762	 0.25443398029516 
1763	 0.254365728095826 
1764	 0.254275951024739 
1765	 0.254168328451137 
1766	 0.254060204941478 
1767	 0.253928085415939 
1768	 0.253792230454901 
1769	 0.253698364850182 
1770	 0.253622502628907 
1771	 0.253560978453925 
1772	 0.253528182030728 
1773	 0.253468350318325 
1774	 0.253392214643653 
1775	 0.253370309653454 
1776	 0.253345007984736 
1777	 0.253303299889244 
1778	 0.253247858713886 
1779	 0.253150923103435 
1780	 0.25305005004206 
1781	 0.252954415030015 
1782	 0.252901895681459 
1783	 0.25287044807876 
1784	 0.252836466607737 
1785	 0.252843701096292 
1786	 0.25281022942012 
1787	 0.252733708848448 
1788	 0.252691509914864 
1789	 0.252666960874354 
1790	 0.252623896712907 
1791	 0.252592900363981 
1792	 0.2525516683155 
1793	 0.252463633300854 
1794	 0.252412689802681 
1795	 0.252400875730199 
1796	 0.252371846008948 
1797	 0.252353975904394 
1798	 0.252312446212913 
1799	 0.25224406647768 
1800	 0.252194741865194 
1801	 0.247750626788207 
1802	 0.247925299886489 
1803	 0.2481306803661 
1804	 0.248342095103898 
1805	 0.248585962704994 
1806	 0.248843019977833 
1807	 0.249087510144245 
1808	 0.249287277428824 
1809	 0.249462041492853 
1810	 0.249606620660769 
1811	 0.249717119685785 
1812	 0.249813114670241 
1813	 0.249878360853666 
1814	 0.249922212705555 
1815	 0.249962146965373 
1816	 0.249981666898224 
1817	 0.249984629345333 
1818	 0.249953197699406 
1819	 0.24995234811295 
1820	 0.24993945008434 
1821	 0.249942535690312 
1822	 0.249992148923353 
1823	 0.250044071034156 
1824	 0.250053927697644 
1825	 0.250070624556581 
1826	 0.250081613688749 
1827	 0.250061787244515 
1828	 0.25002852826492 
1829	 0.24999294929951 
1830	 0.249931478020659 
1831	 0.249827580925035 
1832	 0.24974647400637 
1833	 0.249674802735916 
1834	 0.249584850050995 
1835	 0.24951625377851 
1836	 0.249435699109255 
1837	 0.249332701113542 
1838	 0.249239577257186 
1839	 0.249169814999078 
1840	 0.249113111306067 
1841	 0.249067889342048 
1842	 0.249011621860697 
1843	 0.248956770284816 
1844	 0.248865577861511 
1845	 0.24874862195864 
1846	 0.24866509704023 
1847	 0.248598963583632 
1848	 0.248550177123911 
1849	 0.24851972724973 
1850	 0.248485083820126 
1851	 0.24845871427655 
1852	 0.248418331868646 
1853	 0.248385801790917 
1854	 0.248332176012048 
1855	 0.248259119782692 
1856	 0.24819651025705 
1857	 0.248114200526013 
1858	 0.248031934047605 
1859	 0.247936007551702 
1860	 0.247816979222337 
1861	 0.247674903009813 
1862	 0.24752983158715 
1863	 0.247367779615249 
1864	 0.247194855206546 
1865	 0.247024954488745 
1866	 0.246825309717807 
1867	 0.24657957539642 
1868	 0.246307357858011 
1869	 0.246015603868903 
1870	 0.24569042766649 
1871	 0.245353140534226 
1872	 0.245007769263929 
1873	 0.244649489798399 
1874	 0.244241077000204 
1875	 0.243806455220163 
1876	 0.243344745462629 
1877	 0.242838219007453 
1878	 0.242278073212581 
1879	 0.241669364666867 
1880	 0.240978388138967 
1881	 0.24020748631673 
1882	 0.239380455784352 
1883	 0.238494041193534 
1884	 0.237511144043104 
1885	 0.236497626626481 
1886	 0.235428169628957 
1887	 0.234273479844314 
1888	 0.233078907480641 
1889	 0.231799294036351 
1890	 0.230469970865821 
1891	 0.229132640319779 
1892	 0.227748232663094 
1893	 0.226353721262369 
1894	 0.22495563056888 
1895	 0.223509397741265 
1896	 0.222016922127037 
1897	 0.220528789026687 
1898	 0.219003222102875 
1899	 0.217501521083532 
1900	 0.216039720307311 
1901	 0.2145727345975 
1902	 0.213176056179034 
1903	 0.211843543577775 
1904	 0.210541089686657 
1905	 0.209272662972299 
1906	 0.208062316916828 
1907	 0.206902332707305 
1908	 0.205781788773014 
1909	 0.204716636824166 
1910	 0.203704032207296 
1911	 0.202749630730458 
1912	 0.201836747090053 
1913	 0.200977761575069 
1914	 0.200169334680922 
1915	 0.199423947535797 
1916	 0.198736599491617 
1917	 0.198092603971897 
1918	 0.197507859924945 
1919	 0.196963081129971 
1920	 0.196448969976371 
1921	 0.195963432276023 
1922	 0.195516183974864 
1923	 0.195100989760692 
1924	 0.194730197717791 
1925	 0.194396776929339 
1926	 0.19411161613129 
1927	 0.193870400474634 
1928	 0.19367302153213 
1929	 0.193503554841621 
1930	 0.19336229248247 
1931	 0.193262183130745 
1932	 0.193193402959824 
1933	 0.193169549270764 
1934	 0.193174227224964 
1935	 0.193180721877511 
1936	 0.19319426483894 
1937	 0.193238240787615 
1938	 0.193281457971081 
1939	 0.19337732414705 
1940	 0.193520952121261 
1941	 0.193684847229145 
1942	 0.19385385285124 
1943	 0.194031340429304 
1944	 0.194217781276332 
1945	 0.194388800856643 
1946	 0.194585693864819 
1947	 0.194812089937086 
1948	 0.195031425152021 
1949	 0.195242443472081 
1950	 0.195482387023987 
1951	 0.19574222760264 
1952	 0.196000143445804 
1953	 0.196261225295096 
1954	 0.196557940115623 
1955	 0.196848435118458 
1956	 0.197132431560021 
1957	 0.197445652399597 
1958	 0.197787744779561 
1959	 0.198116475058146 
1960	 0.198455887112844 
1961	 0.198798991764693 
1962	 0.199146552816662 
1963	 0.199495582195349 
1964	 0.199857504891254 
1965	 0.200192746515951 
1966	 0.200563432997064 
1967	 0.20093156273125 
1968	 0.201314839893147 
1969	 0.201740950356694 
1970	 0.202127753273778 
1971	 0.202493503030862 
1972	 0.202874019303728 
1973	 0.203240724232899 
1974	 0.203615307893637 
1975	 0.203998383260152 
1976	 0.204399558749927 
1977	 0.204778071024451 
1978	 0.205146960680219 
1979	 0.20551451654101 
1980	 0.205876208011219 
1981	 0.206236555159521 
1982	 0.206579773404159 
1983	 0.206949238237324 
1984	 0.207326401062747 
1985	 0.207709557853671 
1986	 0.208114954477675 
1987	 0.20851404952913 
1988	 0.208915656976987 
1989	 0.209311286462021 
1990	 0.209714168521248 
1991	 0.210123305893247 
1992	 0.210522574247338 
1993	 0.210929936832748 
1994	 0.21131098134248 
1995	 0.211670799329649 
1996	 0.212034742691355 
1997	 0.212385532704256 
1998	 0.212743925743213 
1999	 0.213092780790356 
2000	 0.213462476059444 
2001	 0.213854728786223 
2002	 0.214229863082581 
2003	 0.214604193533492 
2004	 0.214967342294586 
2005	 0.215313398234984 
2006	 0.215618505383061 
2007	 0.215956312375511 
2008	 0.216301851157878 
2009	 0.216645645842157 
2010	 0.216990152658264 
2011	 0.21734368940929 
2012	 0.217715798674133 
2013	 0.218063252490978 
2014	 0.218402272832335 
2015	 0.21875280117521 
2016	 0.219067085203568 
2017	 0.219378151353042 
2018	 0.219712144517835 
2019	 0.220067106635524 
2020	 0.220400291229367 
2021	 0.220743409756503 
2022	 0.221068950745314 
2023	 0.22136520010094 
2024	 0.221681962919133 
2025	 0.222009682284683 
2026	 0.222325502496434 
2027	 0.222643426570085 
2028	 0.222960847532814 
2029	 0.223261464781319 
2030	 0.223548464908567 
2031	 0.223833452539393 
2032	 0.224101697482582 
2033	 0.22438549796832 
2034	 0.224677396018488 
2035	 0.224954621168702 
2036	 0.225234217522173 
2037	 0.225506867194195 
2038	 0.225775625828633 
2039	 0.226023518678401 
2040	 0.226254129442052 
2041	 0.226491814899453 
2042	 0.226711566843047 
2043	 0.226936053480371 
2044	 0.22715413448965 
2045	 0.227369741282744 
2046	 0.22760137590683 
2047	 0.227830203099703 
2048	 0.228064669669587 
2049	 0.228331135639989 
2050	 0.228567763137809 
2051	 0.228797752808779 
2052	 0.22900788970527 
2053	 0.229189372987522 
2054	 0.229382026923152 
2055	 0.229566030436737 
2056	 0.229745129683494 
2057	 0.229928539424322 
2058	 0.230122600376205 
2059	 0.230306819046973 
2060	 0.23048027651708 
2061	 0.230663144441648 
2062	 0.230839677346239 
2063	 0.231035366537646 
2064	 0.231261204674352 
2065	 0.231452471099632 
2066	 0.231646042997315 
2067	 0.2318271290729 
2068	 0.2319742225654 
2069	 0.232126441929656 
2070	 0.232287921606147 
2071	 0.232452220694622 
2072	 0.232621016918735 
2073	 0.232785435795354 
2074	 0.232973201100714 
2075	 0.233180580281228 
2076	 0.233380751392886 
2077	 0.233605386900711 
2078	 0.233802960441763 
2079	 0.233993716147502 
2080	 0.234167338697543 
2081	 0.234315115064466 
2082	 0.234470917902603 
2083	 0.234610392568832 
2084	 0.234759944920545 
2085	 0.234916573879206 
2086	 0.235089051364703 
2087	 0.235241526541463 
2088	 0.23538665955736 
2089	 0.235539721898118 
2090	 0.235689466950417 
2091	 0.235833965411183 
2092	 0.23598721547534 
2093	 0.236130800223288 
2094	 0.236245144299347 
2095	 0.23638994420491 
2096	 0.236560946098691 
2097	 0.236714048049517 
2098	 0.236878764562945 
2099	 0.237029693558755 
2100	 0.237173454753832 
2101	 0.237290190894953 
2102	 0.237438238519689 
2103	 0.237584607990929 
2104	 0.237758665934458 
2105	 0.237968152588267 
2106	 0.238151342801099 
2107	 0.238345939736958 
2108	 0.238528221552417 
2109	 0.23868511479785 
2110	 0.238857053831457 
2111	 0.239030815258133 
2112	 0.239212395374028 
2113	 0.239403760041497 
2114	 0.239604687866386 
2115	 0.239765149501051 
2116	 0.239907978329231 
2117	 0.240069017429085 
2118	 0.240206281404394 
2119	 0.240361153046015 
2120	 0.240556534661075 
2121	 0.240709732699834 
2122	 0.240830375554071 
2123	 0.240966681509519 
2124	 0.241123650825474 
2125	 0.241232790326127 
2126	 0.241309710653757 
2127	 0.241398187261697 
2128	 0.241437751934454 
2129	 0.241510870759522 
2130	 0.241613244147395 
2131	 0.241734599056021 
2132	 0.241811937644252 
2133	 0.241886458800237 
2134	 0.241938015192328 
2135	 0.241957712921158 
2136	 0.241976907665232 
2137	 0.241986429279477 
2138	 0.241989449401697 
2139	 0.241978459944597 
2140	 0.241962479251099 
2141	 0.241939976288855 
2142	 0.24191427324042 
2143	 0.241885253026389 
2144	 0.241841745812315 
2145	 0.241803959791359 
2146	 0.24173970989777 
2147	 0.241649307230589 
2148	 0.241540634998957 
2149	 0.241448505452418 
2150	 0.24133753123662 
2151	 0.241252657293735 
2152	 0.241204315463187 
2153	 0.241110710195861 
2154	 0.241011604809583 
2155	 0.240894416158246 
2156	 0.240771113816539 
2157	 0.240599974367624 
2158	 0.2403957468097 
2159	 0.240185105446682 
2160	 0.239895260616874 
2161	 0.239665430334582 
2162	 0.239486912469325 
2163	 0.239273792162379 
2164	 0.239069170033399 
2165	 0.238847613211937 
2166	 0.23863482601997 
2167	 0.238392657913602 
2168	 0.238183066211005 
2169	 0.238004591890188 
2170	 0.237806354375312 
2171	 0.237600727954652 
2172	 0.23740334312697 
2173	 0.237215396892139 
2174	 0.237013195005807 
2175	 0.236806007834957 
2176	 0.236600225544132 
2177	 0.23640760169706 
2178	 0.236175777150336 
2179	 0.2359083470017 
2180	 0.235665232929142 
2181	 0.235396569765605 
2182	 0.235143059698058 
2183	 0.234902375598822 
2184	 0.234697821980742 
2185	 0.234476044757132 
2186	 0.234242083034985 
2187	 0.23403200166215 
2188	 0.233842896216827 
2189	 0.233639896504832 
2190	 0.233439825850185 
2191	 0.23324178590072 
2192	 0.233034006672807 
2193	 0.232841521693576 
2194	 0.232657780888138 
2195	 0.232480269041214 
2196	 0.232302449535102 
2197	 0.232145175275185 
2198	 0.232004940234552 
2199	 0.231867819341953 
2200	 0.231747048337686 
2201	 0.231632524911197 
2202	 0.231524195863397 
2203	 0.231418400789369 
2204	 0.231322855276052 
2205	 0.231227456103527 
2206	 0.231168110063572 
2207	 0.231132528802834 
2208	 0.23109240678 
2209	 0.231082264334932 
2210	 0.231055231192062 
2211	 0.231026072691907 
2212	 0.230985596829918 
2213	 0.230919874473173 
2214	 0.230897760851077 
2215	 0.230890033898029 
2216	 0.230876549590328 
2217	 0.230894834964535 
2218	 0.230905711728663 
2219	 0.23088637661013 
2220	 0.230894965145645 
2221	 0.230929127701332 
2222	 0.230977578111868 
2223	 0.230990277789979 
2224	 0.230996040331471 
2225	 0.230994579309586 
2226	 0.230961436889307 
2227	 0.230955717106688 
2228	 0.230964974610427 
2229	 0.23096653364429 
2230	 0.23098135626716 
2231	 0.230961960100454 
2232	 0.230930811034475 
2233	 0.23088581916485 
2234	 0.2308178895151 
2235	 0.230743495026613 
2236	 0.230657946269756 
2237	 0.230567540274567 
2238	 0.230464162858155 
2239	 0.230352365136356 
2240	 0.230233797584094 
2241	 0.230112479335847 
2242	 0.229977943577099 
2243	 0.229839195758538 
2244	 0.229717184637105 
2245	 0.229563013143698 
2246	 0.229376876416337 
2247	 0.229179796072065 
2248	 0.228950521322356 
2249	 0.228682111317692 
2250	 0.228418617668537 
2251	 0.228136132017905 
2252	 0.227856243398846 
2253	 0.227538754927677 
2254	 0.227284092404083 
2255	 0.227036228267016 
2256	 0.226831780445807 
2257	 0.226677336186874 
2258	 0.226547514908973 
2259	 0.226457972260173 
2260	 0.226366514989632 
2261	 0.226303889124628 
2262	 0.226243357582197 
2263	 0.226180082480366 
2264	 0.226134879488566 
2265	 0.22611047037698 
2266	 0.226097971368094 
2267	 0.226079094274319 
2268	 0.226103606777261 
2269	 0.226158699922273 
2270	 0.226234002969717 
2271	 0.226348798640379 
2272	 0.226470908784881 
2273	 0.226622822929561 
2274	 0.22677195506117 
2275	 0.22692029076261 
2276	 0.227079833624066 
2277	 0.22724195961557 
2278	 0.227404750555952 
2279	 0.227563013655441 
2280	 0.227716700822212 
2281	 0.227891466129506 
2282	 0.228069175104073 
2283	 0.228251729558728 
2284	 0.22847126568941 
2285	 0.228659999229396 
2286	 0.228829526964651 
2287	 0.228995064026425 
2288	 0.229166928864566 
2289	 0.229301863797949 
2290	 0.229422489510822 
2291	 0.22952195726332 
2292	 0.229592602646731 
2293	 0.229643117812641 
2294	 0.229642176101512 
2295	 0.229671232789468 
2296	 0.229686571502514 
2297	 0.229722331155758 
2298	 0.229798429245707 
2299	 0.229853621711588 
2300	 0.229873866635628 
2301	 0.229920128099953 
2302	 0.229938044753645 
2303	 0.229975655036511 
2304	 0.230081679914869 
2305	 0.23015995017863 
2306	 0.230202645612297 
2307	 0.230242032599857 
2308	 0.23026181145038 
2309	 0.23020884024012 
2310	 0.230222334476221 
2311	 0.230287265650086 
2312	 0.230300353651162 
2313	 0.230312914316142 
2314	 0.230303698667208 
2315	 0.23024804141102 
2316	 0.230219554873574 
2317	 0.230192739155616 
2318	 0.230168906531321 
2319	 0.230155771167213 
2320	 0.230131739111422 
2321	 0.230117143665583 
2322	 0.230085829389582 
2323	 0.230024256172377 
2324	 0.229987248476325 
2325	 0.229967785631601 
2326	 0.229918521131336 
2327	 0.229868565877146 
2328	 0.229807959179464 
2329	 0.229742307205368 
2330	 0.229681422248767 
2331	 0.229664101994628 
2332	 0.22968220582892 
2333	 0.2297183637038 
2334	 0.229740648720765 
2335	 0.229746902980621 
2336	 0.229713518877742 
2337	 0.229587627818383 
2338	 0.22947962193372 
2339	 0.229384427179138 
2340	 0.229241478055023 
2341	 0.229124537190111 
2342	 0.228998873219358 
2343	 0.228830451786405 
2344	 0.228690773628311 
2345	 0.228545871587043 
2346	 0.228402926329798 
2347	 0.22823882749692 
2348	 0.228078837396637 
2349	 0.227909017117663 
2350	 0.227715390401973 
2351	 0.227554818881506 
2352	 0.227394681681738 
2353	 0.227228583200469 
2354	 0.22709234753713 
2355	 0.226915124787437 
2356	 0.226732057867432 
2357	 0.226520638326327 
2358	 0.226241480888673 
2359	 0.226021268036345 
2360	 0.225821161589194 
2361	 0.225602383654713 
2362	 0.225396635849428 
2363	 0.225225594252469 
2364	 0.225059728667526 
2365	 0.224871873209803 
2366	 0.224732510129803 
2367	 0.224532136148576 
2368	 0.224258589107961 
2369	 0.224013120695613 
2370	 0.223779025738747 
2371	 0.22350832493785 
2372	 0.223244582806044 
2373	 0.222964169904619 
2374	 0.222692192051118 
2375	 0.222488584301739 
2376	 0.22224961763808 
2377	 0.221980238562547 
2378	 0.221679325680462 
2379	 0.221351712677308 
2380	 0.221022060145231 
2381	 0.220764489763412 
2382	 0.220637357810349 
2383	 0.220456748000368 
2384	 0.220210356195004 
2385	 0.219939431643711 
2386	 0.219489315241049 
2387	 0.219016334814939 
2388	 0.218725752072543 
2389	 0.218425096216736 
2390	 0.218062176868176 
2391	 0.21775371083219 
2392	 0.217383232649344 
2393	 0.217012407667161 
2394	 0.216755052006848 
2395	 0.216433799783027 
2396	 0.21609542397866 
2397	 0.215787982756603 
2398	 0.215443369551359 
2399	 0.215144749293342 
2400	 0.214841366275284 
2401	 0.214516588839937 
2402	 0.214242051910897 
2403	 0.213990838723195 
2404	 0.2137424252483 
2405	 0.213511704684976 
2406	 0.213261660401106 
2407	 0.213005217870747 
2408	 0.212675302225499 
2409	 0.212257011549113 
2410	 0.211940519655756 
2411	 0.211625533592225 
2412	 0.211320660936953 
2413	 0.21115210932751 
2414	 0.210916787510558 
2415	 0.210585417669797 
2416	 0.210278942597639 
2417	 0.209981215670971 
2418	 0.209652970942529 
2419	 0.209269689638534 
2420	 0.208984219810413 
2421	 0.208733318421475 
2422	 0.208470197368107 
2423	 0.208299201301698 
2424	 0.208045166071106 
2425	 0.207734140952591 
2426	 0.207405089599819 
2427	 0.207011125630029 
2428	 0.206654167328827 
2429	 0.206304194890457 
2430	 0.205963832066151 
2431	 0.205669091996457 
2432	 0.20532706412489 
2433	 0.20495669183207 
2434	 0.204583622376164 
2435	 0.204154273111405 
2436	 0.203753322884092 
2437	 0.203372332029506 
2438	 0.20302734531968 
2439	 0.202747963347803 
2440	 0.202388294393797 
2441	 0.201984431002387 
2442	 0.201572677604032 
2443	 0.201114274652451 
2444	 0.200699200330964 
2445	 0.20030528276201 
2446	 0.199896023537426 
2447	 0.199456002129363 
2448	 0.199114480097705 
2449	 0.198834327902431 
2450	 0.198541070628677 
2451	 0.198353394437561 
2452	 0.198003760501927 
2453	 0.197573510413912 
2454	 0.197151974565242 
2455	 0.196610055726563 
2456	 0.196153306499782 
2457	 0.195738700740941 
2458	 0.195328375504561 
2459	 0.194866863187275 
2460	 0.194597420952624 
2461	 0.194487250356721 
2462	 0.194268730958722 
2463	 0.194211738094794 
2464	 0.193912186886848 
2465	 0.193304570272699 
2466	 0.192999615484073 
2467	 0.192747612549592 
2468	 0.192506743394043 
2469	 0.192505021631732 
2470	 0.192327722665579 
2471	 0.192065793467635 
2472	 0.191733050271463 
2473	 0.191450577886773 
2474	 0.191195405239339 
2475	 0.190857127194412 
2476	 0.190624075668223 
2477	 0.190288103441646 
2478	 0.189815709679177 
2479	 0.189348763402982 
2480	 0.188972602739815 
2481	 0.188713171671776 
2482	 0.188475293241375 
2483	 0.188163451589843 
2484	 0.187812757435569 
2485	 0.187571400299004 
2486	 0.187182607410538 
2487	 0.186845208538648 
2488	 0.18665923904064 
2489	 0.186363476454409 
2490	 0.186165111870726 
2491	 0.186024494537304 
2492	 0.185899303614342 
2493	 0.18565033140326 
2494	 0.1853121851277 
2495	 0.185013447109597 
2496	 0.184661586085635 
2497	 0.184436712109644 
2498	 0.184231726254976 
2499	 0.184068284748669 
2500	 0.183945951403216 
