Wavelength	mm2500000.asd
350	 5.76454107285732E-02 
351	 4.26820288608188E-02 
352	 3.03169282719752E-02 
353	 3.27417738938603E-02 
354	 3.67101444127718E-02 
355	 3.94666586852953E-02 
356	 4.07512025357293E-02 
357	 4.17091426982002E-02 
358	 4.42324410147755E-02 
359	 4.29683378881884E-02 
360	 0.040392787645417 
361	 4.28154837727248E-02 
362	 3.94716500296901E-02 
363	 3.54773407780425E-02 
364	 3.47043505234756E-02 
365	 3.61112002163668E-02 
366	 3.78903748583716E-02 
367	 3.90338700323876E-02 
368	 3.96343582529021E-02 
369	 4.27702738503774E-02 
370	 4.41074845654941E-02 
371	 4.23381555882292E-02 
372	 3.89038489905603E-02 
373	 3.88856812987003E-02 
374	 4.08233011716528E-02 
375	 4.22541488591162E-02 
376	 4.05496052476464E-02 
377	 3.90239963751792E-02 
378	 4.02983266905232E-02 
379	 4.47104726010322E-02 
380	 4.47582599713074E-02 
381	 0.043927436636151 
382	 4.40641015225027E-02 
383	 4.52172235830652E-02 
384	 4.52116316416353E-02 
385	 4.40116621870922E-02 
386	 4.29190411768404E-02 
387	 4.51265259546037E-02 
388	 4.80649538195509E-02 
389	 4.83554286120121E-02 
390	 4.45876001635886E-02 
391	 4.52320154864318E-02 
392	 4.65065832562826E-02 
393	 4.72512023215579E-02 
394	 0.04882942948182 
395	 4.83317505934187E-02 
396	 4.81883285856421E-02 
397	 4.96602371093699E-02 
398	 4.96924277305418E-02 
399	 4.94771082672781E-02 
400	 4.98869546456451E-02 
401	 0.05122342381643 
402	 5.12791998867191E-02 
403	 5.09608346531857E-02 
404	 5.08442418633884E-02 
405	 5.09487291283233E-02 
406	 5.15291481165598E-02 
407	 5.26788344361294E-02 
408	 5.37559747891233E-02 
409	 5.21710721694581E-02 
410	 5.11344145115132E-02 
411	 5.11906782625064E-02 
412	 5.16546038023391E-02 
413	 5.33613516504828E-02 
414	 5.38289779752571E-02 
415	 5.26297636685732E-02 
416	 5.21641019700946E-02 
417	 5.27555537838041E-02 
418	 5.35503579643591E-02 
419	 5.37495387016699E-02 
420	 0.054010954533292 
421	 5.36000965490381E-02 
422	 5.30666524040229E-02 
423	 5.35943578700095E-02 
424	 5.36559597966555E-02 
425	 5.36753599381122E-02 
426	 5.37402571147095E-02 
427	 5.27621625121046E-02 
428	 5.23697033132978E-02 
429	 5.25189189574702E-02 
430	 5.26515459899164E-02 
431	 5.26798570340477E-02 
432	 5.26990681663046E-02 
433	 5.25963559781158E-02 
434	 5.20945551246502E-02 
435	 5.25731199857899E-02 
436	 5.30605008868282E-02 
437	 5.27833244444188E-02 
438	 5.26379073262864E-02 
439	 5.29162497079778E-02 
440	 5.33755329033542E-02 
441	 5.35183659255397E-02 
442	 0.053283610140276 
443	 5.34867154603702E-02 
444	 5.40995192855497E-02 
445	 5.37139878858935E-02 
446	 5.35171576011826E-02 
447	 5.37108733528244E-02 
448	 0.054069860978787 
449	 5.38130708386889E-02 
450	 5.39208655070171E-02 
451	 5.44377676897029E-02 
452	 5.45940237767894E-02 
453	 5.45435156976801E-02 
454	 5.43971961264828E-02 
455	 5.42982081406764E-02 
456	 5.44700012274551E-02 
457	 5.47355146373815E-02 
458	 5.47000371875548E-02 
459	 5.41056157554108E-02 
460	 5.44654095584552E-02 
461	 5.45990633828878E-02 
462	 0.054191027575191 
463	 5.44682000439215E-02 
464	 5.45851882541925E-02 
465	 0.054688812510589 
466	 5.50009580083023E-02 
467	 5.49453478842898E-02 
468	 5.49533431293091E-02 
469	 0.054973422460431 
470	 0.05460381696656 
471	 5.46098129782732E-02 
472	 5.47211947590273E-02 
473	 5.46785547824513E-02 
474	 5.46741977361395E-02 
475	 5.46788181130834E-02 
476	 5.47330429885699E-02 
477	 0.054877266134626 
478	 5.49911193519097E-02 
479	 5.49061027270222E-02 
480	 5.47019175014841E-02 
481	 5.47935941197999E-02 
482	 5.49128449658053E-02 
483	 5.50048571755296E-02 
484	 5.50727304848796E-02 
485	 5.51383158726906E-02 
486	 5.50649713344247E-02 
487	 5.48851321754472E-02 
488	 5.47805849780547E-02 
489	 5.49716648539981E-02 
490	 5.51549482418854E-02 
491	 5.51092637176977E-02 
492	 5.50358246754384E-02 
493	 5.49321829798272E-02 
494	 5.49442780435402E-02 
495	 5.52002886686863E-02 
496	 0.055215308762254 
497	 5.50871097338417E-02 
498	 0.054994357272819 
499	 5.51498032761387E-02 
500	 5.52081395415932E-02 
501	 5.51824628416788E-02 
502	 5.51845974356381E-02 
503	 5.52580384104856E-02 
504	 5.52406634203828E-02 
505	 5.51470115159988E-02 
506	 5.51517291611832E-02 
507	 5.51991709079163E-02 
508	 5.53197997807111E-02 
509	 5.54706827857588E-02 
510	 5.53717127077879E-02 
511	 5.52430101250236E-02 
512	 5.52085923271807E-02 
513	 5.53035039670716E-02 
514	 5.52544526726809E-02 
515	 5.52422143052416E-02 
516	 5.53720772494694E-02 
517	 0.055554839067479 
518	 5.55348836853244E-02 
519	 5.54488293450278E-02 
520	 5.55064542287965E-02 
521	 5.55250960043172E-02 
522	 0.055509157781283 
523	 0.055491327796968 
524	 5.55216067864068E-02 
525	 0.055584830932986 
526	 5.56041805956507E-02 
527	 0.055558811357076 
528	 5.56515271068039E-02 
529	 5.57014079212202E-02 
530	 5.56928189432081E-02 
531	 5.57181428840566E-02 
532	 5.57576083202816E-02 
533	 0.055788854466013 
534	 0.05582438260997 
535	 5.59702299377847E-02 
536	 5.60065324791671E-02 
537	 5.59949322357199E-02 
538	 5.60748920897066E-02 
539	 5.60739514999169E-02 
540	 5.60838538142977E-02 
541	 5.61607658406847E-02 
542	 5.62899074544137E-02 
543	 0.056349984444586 
544	 5.63926174663227E-02 
545	 5.64918088052938E-02 
546	 5.66028732984843E-02 
547	 5.66698728246346E-02 
548	 5.67319327834722E-02 
549	 5.68956988046453E-02 
550	 5.69406656751044E-02 
551	 5.69783689371383E-02 
552	 5.71149347017368E-02 
553	 5.72990245716551E-02 
554	 5.73637167499716E-02 
555	 5.73800513241715E-02 
556	 5.75330773946351E-02 
557	 5.77645566150041E-02 
558	 5.79424193594287E-02 
559	 5.80482753755255E-02 
560	 5.82783698662956E-02 
561	 0.05847511027584 
562	 5.86497988651037E-02 
563	 5.88657746737954E-02 
564	 0.059145012925539 
565	 5.93805595143555E-02 
566	 5.95928660897879E-02 
567	 5.99481097196234E-02 
568	 6.02928710679997E-02 
569	 6.06301291428693E-02 
570	 6.09847943474219E-02 
571	 6.13216895028427E-02 
572	 6.16917486564685E-02 
573	 6.21125313691649E-02 
574	 6.25682709392671E-02 
575	 6.29467368071019E-02 
576	 6.33798292934015E-02 
577	 6.39177791173114E-02 
578	 6.43396631113388E-02 
579	 6.47955731440639E-02 
580	 6.53126159936557E-02 
581	 6.58638221670366E-02 
582	 6.64176659135129E-02 
583	 6.69570672174918E-02 
584	 6.75051130153171E-02 
585	 6.81437277083906E-02 
586	 6.87345997289575E-02 
587	 6.93285354465517E-02 
588	 6.99996385688714E-02 
589	 7.06703285115561E-02 
590	 7.13381904890837E-02 
591	 7.19870436544869E-02 
592	 7.25924207036976E-02 
593	 7.32099654716204E-02 
594	 7.38363533753247E-02 
595	 7.44598252175405E-02 
596	 7.50781320035199E-02 
597	 7.57399881609629E-02 
598	 7.64148944973999E-02 
599	 7.70435624909367E-02 
600	 7.77214724032413E-02 
601	 7.83647838433421E-02 
602	 7.89376180960848E-02 
603	 7.95309126173008E-02 
604	 8.00751718128078E-02 
605	 8.05997294017146E-02 
606	 8.11509448015228E-02 
607	 8.16689818955554E-02 
608	 8.21766097873049E-02 
609	 8.26627575345782E-02 
610	 8.30755252405778E-02 
611	 8.35054682161978E-02 
612	 8.39517777056581E-02 
613	 8.43888330206097E-02 
614	 8.48050198376551E-02 
615	 8.51464812626268E-02 
616	 8.54451750096693E-02 
617	 8.57826339536741E-02 
618	 8.60759543669203E-02 
619	 8.63335485676875E-02 
620	 8.65773697299603E-02 
621	 8.68279381756081E-02 
622	 8.70643753597475E-02 
623	 0.087304575145227 
624	 8.75696040846883E-02 
625	 8.77954041434068E-02 
626	 0.08798088230153 
627	 8.81669184263497E-02 
628	 8.84422527661057E-02 
629	 8.86206241891881E-02 
630	 8.87690626321978E-02 
631	 8.89808075163401E-02 
632	 8.91542728449188E-02 
633	 8.93405494937885E-02 
634	 8.95358681219296E-02 
635	 8.96950610056435E-02 
636	 8.98907230240144E-02 
637	 0.090086954926433 
638	 9.02510260322645E-02 
639	 9.03990084844156E-02 
640	 9.05878556467328E-02 
641	 9.07936545283152E-02 
642	 9.09608618462356E-02 
643	 9.11250664204715E-02 
644	 0.09130891243793 
645	 9.15086898204819E-02 
646	 0.091683363329553 
647	 9.18922264150995E-02 
648	 9.21029498296084E-02 
649	 9.22760831946561E-02 
650	 9.24549701595735E-02 
651	 9.26732369363358E-02 
652	 9.29257929012221E-02 
653	 9.31733176578545E-02 
654	 9.33848180921782E-02 
655	 9.35698626491954E-02 
656	 9.37576535243252E-02 
657	 9.39989716535308E-02 
658	 9.42898107747816E-02 
659	 9.45768826311862E-02 
660	 0.094800080050093 
661	 9.50566543068607E-02 
662	 9.53236040425323E-02 
663	 9.55982809624718E-02 
664	 9.59257539230058E-02 
665	 9.62312157067864E-02 
666	 9.64838150659592E-02 
667	 9.66969054987678E-02 
668	 9.69897189769295E-02 
669	 9.73359066967084E-02 
670	 9.76945169720041E-02 
671	 9.80174386881793E-02 
672	 9.82938139374306E-02 
673	 9.86054802474471E-02 
674	 9.89954466840653E-02 
675	 9.93869612373489E-02 
676	 9.97258237069267E-02 
677	 0.100063933279712 
678	 0.100477343421018 
679	 0.100820058084338 
680	 0.101203518968607 
681	 0.101652251997837 
682	 0.102051229282964 
683	 0.102434622945089 
684	 0.102828685123102 
685	 0.103247915653814 
686	 0.10366164071546 
687	 0.104128109689022 
688	 0.104603281172348 
689	 0.104987018778732 
690	 0.105445376131709 
691	 0.105929114236024 
692	 0.106397427134595 
693	 0.106896926812801 
694	 0.107354939510025 
695	 0.10780896235379 
696	 0.108319063403756 
697	 0.10882875456797 
698	 0.109317689837523 
699	 0.10979788079663 
700	 0.110310657993138 
701	 0.110840946287454 
702	 0.111365109678116 
703	 0.111859968460372 
704	 0.112298763820559 
705	 0.112796384476431 
706	 0.113346600963258 
707	 0.113878684449718 
708	 0.114395803825213 
709	 0.114902590522512 
710	 0.115406574061521 
711	 0.115919510143019 
712	 0.116408431163562 
713	 0.116876341408498 
714	 0.117346956506352 
715	 0.11787809477139 
716	 0.118395280475323 
717	 0.118882774314126 
718	 0.119369257178767 
719	 0.119838278367653 
720	 0.120278914346954 
721	 0.120696271254144 
722	 0.121125838828264 
723	 0.121557748062295 
724	 0.121986096845473 
725	 0.122405198192838 
726	 0.122815054953582 
727	 0.123170826833059 
728	 0.123490056037513 
729	 0.123844675678795 
730	 0.124178873626007 
731	 0.124488455788031 
732	 0.124779572400826 
733	 0.125061691242775 
734	 0.125318576258296 
735	 0.125554932986329 
736	 0.125779013895572 
737	 0.125965730580736 
738	 0.126119953779116 
739	 0.126270515721815 
740	 0.126464824116917 
741	 0.126576138507638 
742	 0.126649678180359 
743	 0.126738154993098 
744	 0.126810528417706 
745	 0.126843229593259 
746	 0.126854679230329 
747	 0.126873972867802 
748	 0.126841938645284 
749	 0.126794039753328 
750	 0.126757600599366 
751	 0.126738300307694 
752	 0.12666052408931 
753	 0.126529294426519 
754	 0.126378371611487 
755	 0.126261006786933 
756	 0.126140465230493 
757	 0.125972834906993 
758	 0.125734163327015 
759	 0.125565453440249 
760	 0.125383047107656 
761	 0.125144359715843 
762	 0.12488619529666 
763	 0.124670566684227 
764	 0.124457598993348 
765	 0.124203618465654 
766	 0.123929226188979 
767	 0.123666970712992 
768	 0.12340165487675 
769	 0.123100584915472 
770	 0.122802116665249 
771	 0.122506543531652 
772	 0.122203556517879 
773	 0.12187618333743 
774	 0.121590806969754 
775	 0.121300620864736 
776	 0.120970218713343 
777	 0.12067016445537 
778	 0.120349156512168 
779	 0.120006024140682 
780	 0.119664344923648 
781	 0.119341840150458 
782	 0.119042441657817 
783	 0.118742103789666 
784	 0.118394585535051 
785	 0.118059503263333 
786	 0.117750129636207 
787	 0.117453710482788 
788	 0.117113548994913 
789	 0.116834166896057 
790	 0.116543638657364 
791	 0.116153310876815 
792	 0.11585456142494 
793	 0.115581218751552 
794	 0.115289410025867 
795	 0.114970063083315 
796	 0.114646158963899 
797	 0.114346157494098 
798	 0.114079881070518 
799	 0.113826004992058 
800	 0.113553911068933 
801	 0.113257740626612 
802	 0.112957822321185 
803	 0.112738034569877 
804	 0.112476617402733 
805	 0.112188618493873 
806	 0.111963292186969 
807	 0.111696153771835 
808	 0.111435253669877 
809	 0.111192130154407 
810	 0.110911230720813 
811	 0.110667622729265 
812	 0.110460809161714 
813	 0.110266297423924 
814	 0.110048092023254 
815	 0.10982298465847 
816	 0.109604176622114 
817	 0.109399786960434 
818	 0.109194022926173 
819	 0.10899570896007 
820	 0.108799756545298 
821	 0.108593202320057 
822	 0.108426318222178 
823	 0.10825471808243 
824	 0.108065253319927 
825	 0.107918674956417 
826	 0.107755910215721 
827	 0.107595429725542 
828	 0.107463654533161 
829	 0.107352851004179 
830	 0.107144834981802 
831	 0.106929471816286 
832	 0.106855605070739 
833	 0.106745274120046 
834	 0.106645535938422 
835	 0.106555875411987 
836	 0.106424495641658 
837	 0.106316850703389 
838	 0.106243460569181 
839	 0.10617821401746 
840	 0.106050291625483 
841	 0.105948795986444 
842	 0.10586549154478 
843	 0.105778356231069 
844	 0.105711708538638 
845	 0.105673054126997 
846	 0.105629930161856 
847	 0.105555828861476 
848	 0.10557297710974 
849	 0.105553057811011 
850	 0.105475732506557 
851	 0.105423653200345 
852	 0.105386906669154 
853	 0.105378890298703 
854	 0.105391316745928 
855	 0.105384124468282 
856	 0.105364444419649 
857	 0.105357341819344 
858	 0.105372468299328 
859	 0.105367330352668 
860	 0.105376072566357 
861	 0.105390190262946 
862	 0.105393345308093 
863	 0.105399520400069 
864	 0.105447728921655 
865	 0.105519687484548 
866	 0.105564540373437 
867	 0.105576433424368 
868	 0.105631042464922 
869	 0.105736957287236 
870	 0.105828847677964 
871	 0.105916978869925 
872	 0.105979593631917 
873	 0.106025115452282 
874	 0.106113417999811 
875	 0.106192279864446 
876	 0.106249596148218 
877	 0.106301219574385 
878	 0.106402563588623 
879	 0.106569114382837 
880	 0.106725897093383 
881	 0.106812633937109 
882	 0.106972031851633 
883	 0.107128924508937 
884	 0.107243506530558 
885	 0.107324168848119 
886	 0.107509686082758 
887	 0.107717275526386 
888	 0.107868095632557 
889	 0.107931316983483 
890	 0.108128403285517 
891	 0.10833155009413 
892	 0.108490510807704 
893	 0.108703036556448 
894	 0.108828791008924 
895	 0.108988748701752 
896	 0.109238801754932 
897	 0.109429136933407 
898	 0.109677565399906 
899	 0.109918565050222 
900	 0.110100036790547 
901	 0.110329817089483 
902	 0.110570182644602 
903	 0.110820521622278 
904	 0.111084135741401 
905	 0.111338964486595 
906	 0.111609316034895 
907	 0.111904375760683 
908	 0.112212402098893 
909	 0.112467713478847 
910	 0.11271860460992 
911	 0.112996904818737 
912	 0.113309335267121 
913	 0.113615870488355 
914	 0.113920686211112 
915	 0.114227787144234 
916	 0.11453822892318 
917	 0.114847511321159 
918	 0.1152080046024 
919	 0.115611055291492 
920	 0.115973950553132 
921	 0.116297864648318 
922	 0.116621385714043 
923	 0.116998912853259 
924	 0.117485131918773 
925	 0.117865014052475 
926	 0.11823669548876 
927	 0.118657998044395 
928	 0.11898462219844 
929	 0.11943110000338 
930	 0.119904089297012 
931	 0.120311256512665 
932	 0.120752355109261 
933	 0.121235881933382 
934	 0.12168622563754 
935	 0.122074248448169 
936	 0.122583608465467 
937	 0.123003496790448 
938	 0.123415210174861 
939	 0.123938761928425 
940	 0.124466852359215 
941	 0.125027298423812 
942	 0.125585528572536 
943	 0.126097001415491 
944	 0.126570007522706 
945	 0.127013468440906 
946	 0.127551899691039 
947	 0.128256898386218 
948	 0.128771352452044 
949	 0.129275566427296 
950	 0.129824191285348 
951	 0.130403287636745 
952	 0.131056724931061 
953	 0.131679338344964 
954	 0.132255263923869 
955	 0.132837723838244 
956	 0.133514030279821 
957	 0.1341147437422 
958	 0.134677455517981 
959	 0.135333406102351 
960	 0.135912329831028 
961	 0.136528283275549 
962	 0.13723097869026 
963	 0.137968534054869 
964	 0.138453803022796 
965	 0.139141053118108 
966	 0.139949328321141 
967	 0.140504532221842 
968	 0.141196632417317 
969	 0.141945014774847 
970	 0.142652217617126 
971	 0.143282069718979 
972	 0.144102587701916 
973	 0.144857065761506 
974	 0.145475119494724 
975	 0.146085406905973 
976	 0.146992298815971 
977	 0.147802424160954 
978	 0.148434454457623 
979	 0.149072937156326 
980	 0.149906724049645 
981	 0.150685999955597 
982	 0.15132895897774 
983	 0.151923300896637 
984	 0.152673444973211 
985	 0.153549860489881 
986	 0.154399703588467 
987	 0.155084329816947 
988	 0.15585118472357 
989	 0.156430414063678 
990	 0.157053649525491 
991	 0.158051196388284 
992	 0.158957101675989 
993	 0.159686932623196 
994	 0.160330697245141 
995	 0.161023750522223 
996	 0.161704144106719 
997	 0.162517089753317 
998	 0.163301261235438 
999	 0.163965189372277 
1000	 0.165126560153327 
1001	 0.166222378257039 
1002	 0.166929739148822 
1003	 0.167652457491313 
1004	 0.168337153524059 
1005	 0.169033870143651 
1006	 0.169734736051552 
1007	 0.170423948277556 
1008	 0.171050472371818 
1009	 0.171679173369323 
1010	 0.172261248001365 
1011	 0.172870827711001 
1012	 0.173540879120501 
1013	 0.174235855424911 
1014	 0.174924531975313 
1015	 0.175484341375048 
1016	 0.176035898803258 
1017	 0.176656799481762 
1018	 0.177308358222016 
1019	 0.177922286876234 
1020	 0.178579644730203 
1021	 0.179194693230258 
1022	 0.179652549976081 
1023	 0.180154334704148 
1024	 0.180699493279801 
1025	 0.181232100988615 
1026	 0.181811783775036 
1027	 0.182369896446734 
1028	 0.182901044710917 
1029	 0.183423477406844 
1030	 0.183918843667279 
1031	 0.184403294716873 
1032	 0.184881665610517 
1033	 0.185351565211205 
1034	 0.185818433994137 
1035	 0.186247667782527 
1036	 0.186702523868164 
1037	 0.18720204096821 
1038	 0.187649294082266 
1039	 0.188116708440428 
1040	 0.188608389396557 
1041	 0.189074365654172 
1042	 0.18953336625652 
1043	 0.189979299780294 
1044	 0.190431360123004 
1045	 0.190883319479503 
1046	 0.191308793321256 
1047	 0.191732996502392 
1048	 0.192208010549965 
1049	 0.192641775528978 
1050	 0.193053789878193 
1051	 0.193511896542105 
1052	 0.193922758606779 
1053	 0.194362193358315 
1054	 0.194867384354421 
1055	 0.195341829642361 
1056	 0.195816856639857 
1057	 0.19625423781133 
1058	 0.19664261945277 
1059	 0.197043395325227 
1060	 0.197422501041843 
1061	 0.197798870156593 
1062	 0.198209247984236 
1063	 0.19869658040104 
1064	 0.199155805561808 
1065	 0.199575935717808 
1066	 0.200030753795871 
1067	 0.200438702627215 
1068	 0.200804749921351 
1069	 0.201217602258393 
1070	 0.201616106173254 
1071	 0.20199341670298 
1072	 0.202375505591964 
1073	 0.202753042124538 
1074	 0.203139828219917 
1075	 0.203522871283862 
1076	 0.20391746314574 
1077	 0.204308432121979 
1078	 0.204705186981144 
1079	 0.205117388365371 
1080	 0.205477413036819 
1081	 0.205801106742733 
1082	 0.206175920381004 
1083	 0.206541429557544 
1084	 0.2068656505063 
1085	 0.207236319932984 
1086	 0.207655881748992 
1087	 0.208049404747047 
1088	 0.208438835800494 
1089	 0.208864374937254 
1090	 0.209190199405769 
1091	 0.209474672979693 
1092	 0.209802553500508 
1093	 0.210058240020387 
1094	 0.210387525639157 
1095	 0.210794406820861 
1096	 0.211139986394632 
1097	 0.211499997896154 
1098	 0.211849869915008 
1099	 0.21220134845708 
1100	 0.212534546476567 
1101	 0.212847376825758 
1102	 0.213175408459949 
1103	 0.213521396597633 
1104	 0.213825665150858 
1105	 0.214126398713555 
1106	 0.214449012246694 
1107	 0.214771514744016 
1108	 0.215112643621005 
1109	 0.21544236623828 
1110	 0.215753813881029 
1111	 0.216077799243541 
1112	 0.216397283539958 
1113	 0.216699572938457 
1114	 0.217004911951314 
1115	 0.217309909111202 
1116	 0.217589621901344 
1117	 0.21788486539018 
1118	 0.218189298043289 
1119	 0.218499421867206 
1120	 0.218816478768708 
1121	 0.219134626751127 
1122	 0.219488220492417 
1123	 0.219836659398952 
1124	 0.220157554110068 
1125	 0.220474740161408 
1126	 0.220768991959306 
1127	 0.22103614167918 
1128	 0.221310860922527 
1129	 0.221568118828695 
1130	 0.221840583239547 
1131	 0.222114343501044 
1132	 0.222386680621294 
1133	 0.222669343374619 
1134	 0.222947232047076 
1135	 0.223234067353111 
1136	 0.223496360547118 
1137	 0.223742649721782 
1138	 0.223979867174919 
1139	 0.224226765852462 
1140	 0.224461621204623 
1141	 0.224706654502462 
1142	 0.224970407848705 
1143	 0.22521975229199 
1144	 0.225457750140167 
1145	 0.225692647002089 
1146	 0.225941424594909 
1147	 0.226160726535919 
1148	 0.226341888331239 
1149	 0.22655417687305 
1150	 0.22676830754654 
1151	 0.226977228925272 
1152	 0.227212490218269 
1153	 0.227442066577544 
1154	 0.227658085996914 
1155	 0.22785701047848 
1156	 0.228064402220049 
1157	 0.228267787965791 
1158	 0.228476947319244 
1159	 0.228696484735396 
1160	 0.22890324780364 
1161	 0.229098445493454 
1162	 0.229305333285878 
1163	 0.22952260571743 
1164	 0.229721241370721 
1165	 0.229907006981989 
1166	 0.230110965000944 
1167	 0.230314234890211 
1168	 0.23050792461346 
1169	 0.230700218891317 
1170	 0.230915955039416 
1171	 0.231090321493697 
1172	 0.23122665322543 
1173	 0.231388108592132 
1174	 0.231538960565954 
1175	 0.231707617657003 
1176	 0.231901605145957 
1177	 0.232075559133045 
1178	 0.232239936143344 
1179	 0.232413434084235 
1180	 0.23258690629976 
1181	 0.232756157779856 
1182	 0.232933071020833 
1183	 0.233112015332528 
1184	 0.233266937989235 
1185	 0.233403792472896 
1186	 0.233548336876633 
1187	 0.233677329909502 
1188	 0.233822944404453 
1189	 0.233982412502283 
1190	 0.234127556327214 
1191	 0.234268363301561 
1192	 0.234415134094411 
1193	 0.234560281334287 
1194	 0.234702151686001 
1195	 0.23485991621713 
1196	 0.234995447461025 
1197	 0.23510208168912 
1198	 0.235225682622386 
1199	 0.235350935790158 
1200	 0.235470402279502 
1201	 0.235598269789086 
1202	 0.235740788664904 
1203	 0.235870993971047 
1204	 0.23599447975306 
1205	 0.236121637838319 
1206	 0.236259586863035 
1207	 0.236375275935387 
1208	 0.236476053549604 
1209	 0.236584230506871 
1210	 0.236684049255298 
1211	 0.236782643534032 
1212	 0.23688130044578 
1213	 0.236985224927367 
1214	 0.237088059073926 
1215	 0.237187849134017 
1216	 0.23728889979414 
1217	 0.237396676228787 
1218	 0.237503589689661 
1219	 0.237609429030642 
1220	 0.237708340588688 
1221	 0.237817052037651 
1222	 0.237905543692774 
1223	 0.237973653746093 
1224	 0.23804890430659 
1225	 0.238111417667742 
1226	 0.238189290564532 
1227	 0.238280159440323 
1228	 0.238360891647556 
1229	 0.238447098785615 
1230	 0.238527515695518 
1231	 0.238594240101591 
1232	 0.238666330974102 
1233	 0.238740030616575 
1234	 0.238821512854168 
1235	 0.238888178756451 
1236	 0.238945003372751 
1237	 0.239014726924604 
1238	 0.239081002836063 
1239	 0.239151161840122 
1240	 0.239238944646173 
1241	 0.239309106115141 
1242	 0.239369155119129 
1243	 0.239428656705669 
1244	 0.239477664865487 
1245	 0.239536332701151 
1246	 0.239601406586814 
1247	 0.239659664628124 
1248	 0.239720090533743 
1249	 0.239770357460887 
1250	 0.239840710919011 
1251	 0.239921162016301 
1252	 0.239998256836893 
1253	 0.240107903790448 
1254	 0.2401664865584 
1255	 0.240183418785811 
1256	 0.240236562763462 
1257	 0.240292759345555 
1258	 0.240336501234078 
1259	 0.240396713358202 
1260	 0.240440787740411 
1261	 0.240451745827172 
1262	 0.240478851016556 
1263	 0.240518837375716 
1264	 0.240551310347488 
1265	 0.240576625551767 
1266	 0.240608665872871 
1267	 0.240645825179373 
1268	 0.240679960655666 
1269	 0.240707781496059 
1270	 0.240731572085294 
1271	 0.240766558289289 
1272	 0.24079578390882 
1273	 0.240838473939138 
1274	 0.240892099427772 
1275	 0.240949980249966 
1276	 0.241013846096173 
1277	 0.24107943153756 
1278	 0.24115703710205 
1279	 0.241231853254556 
1280	 0.241303186666362 
1281	 0.241379760303961 
1282	 0.241471365363071 
1283	 0.241545925484538 
1284	 0.241611982390681 
1285	 0.241672966433783 
1286	 0.24175033068805 
1287	 0.24182720261838 
1288	 0.241907361741361 
1289	 0.242008164783874 
1290	 0.24208980493434 
1291	 0.242159485085749 
1292	 0.242232097838068 
1293	 0.242309490509952 
1294	 0.242371326311525 
1295	 0.242418930121133 
1296	 0.242471558511641 
1297	 0.24252183226233 
1298	 0.242569868308196 
1299	 0.242619292817772 
1300	 0.242663969688825 
1301	 0.242690795437197 
1302	 0.242731414996868 
1303	 0.242782356048103 
1304	 0.242834490923807 
1305	 0.242862943315757 
1306	 0.242896078183172 
1307	 0.242908995920221 
1308	 0.242906499974837 
1309	 0.242911057429843 
1310	 0.242921647810706 
1311	 0.242912086483801 
1312	 0.242885916762449 
1313	 0.242874638866909 
1314	 0.24286445172906 
1315	 0.242849371774486 
1316	 0.242843231741061 
1317	 0.242821780707606 
1318	 0.242778833735641 
1319	 0.242748647796985 
1320	 0.242735038209253 
1321	 0.242698397717535 
1322	 0.242645922843834 
1323	 0.242601652750643 
1324	 0.242559903898874 
1325	 0.242497368193215 
1326	 0.242479001446336 
1327	 0.242453902924813 
1328	 0.242379367208289 
1329	 0.242337401069377 
1330	 0.242287486608601 
1331	 0.24222026008812 
1332	 0.242163598648497 
1333	 0.242129522520621 
1334	 0.242071350540312 
1335	 0.241991312014293 
1336	 0.241934251944006 
1337	 0.241879588726246 
1338	 0.241828082436807 
1339	 0.241790500948749 
1340	 0.241744116472768 
1341	 0.241704608075184 
1342	 0.24164838490075 
1343	 0.241577490074723 
1344	 0.241513923964723 
1345	 0.241439621724071 
1346	 0.241362876011629 
1347	 0.241313953621822 
1348	 0.241260681599406 
1349	 0.241178132103907 
1350	 0.241109618616134 
1351	 0.241050114477617 
1352	 0.240984878863633 
1353	 0.240924050601746 
1354	 0.24089219685239 
1355	 0.24082379874185 
1356	 0.240719161352822 
1357	 0.240649680846994 
1358	 0.240584695942158 
1359	 0.24052509555286 
1360	 0.240483143635115 
1361	 0.240434478429337 
1362	 0.240384738865346 
1363	 0.24033390823349 
1364	 0.240296685923848 
1365	 0.240245675910039 
1366	 0.2401874476994 
1367	 0.240112859851622 
1368	 0.240059651076507 
1369	 0.239988744742982 
1370	 0.239916160466551 
1371	 0.239843074245403 
1372	 0.239722838878489 
1373	 0.239590523157587 
1374	 0.239445600065044 
1375	 0.239283635414238 
1376	 0.239100034857426 
1377	 0.238913399988956 
1378	 0.238678707875332 
1379	 0.238396614148534 
1380	 0.238123402055813 
1381	 0.237829676080388 
1382	 0.237523712877079 
1383	 0.237232561989021 
1384	 0.236890235496639 
1385	 0.236521642189029 
1386	 0.236118066122474 
1387	 0.235685896862605 
1388	 0.235217387766433 
1389	 0.234716426811095 
1390	 0.234178568706216 
1391	 0.23361822706136 
1392	 0.233008336782776 
1393	 0.232339912406303 
1394	 0.231644794353289 
1395	 0.230907771869451 
1396	 0.23016201073316 
1397	 0.229424593250725 
1398	 0.228689114825735 
1399	 0.227932346670009 
1400	 0.227165284947905 
1401	 0.226396599705698 
1402	 0.225602774626692 
1403	 0.224847046323033 
1404	 0.224085527424223 
1405	 0.223372856560991 
1406	 0.22268778337347 
1407	 0.222023144684149 
1408	 0.221391179059234 
1409	 0.220781805688939 
1410	 0.220166183171603 
1411	 0.219626111526196 
1412	 0.219130818124257 
1413	 0.218679681014852 
1414	 0.218297183205735 
1415	 0.2179434616423 
1416	 0.21761265103744 
1417	 0.217304588187357 
1418	 0.217010791110589 
1419	 0.216743641204561 
1420	 0.216505256902624 
1421	 0.216296244719444 
1422	 0.216101609673924 
1423	 0.215908024142187 
1424	 0.215715095220315 
1425	 0.215520487202858 
1426	 0.215338561880567 
1427	 0.215154836858644 
1428	 0.21499677325057 
1429	 0.214850919905242 
1430	 0.21472621438487 
1431	 0.214632944646879 
1432	 0.214526043063636 
1433	 0.214428430185602 
1434	 0.214335087633122 
1435	 0.214220247919157 
1436	 0.214148909064457 
1437	 0.214107553385111 
1438	 0.214064232040676 
1439	 0.214036977292425 
1440	 0.214029239501274 
1441	 0.214015794440023 
1442	 0.213997808084523 
1443	 0.213976036703067 
1444	 0.213955426168113 
1445	 0.213935942393744 
1446	 0.213924113906889 
1447	 0.213914846425534 
1448	 0.213900811919165 
1449	 0.213872202590457 
1450	 0.213854190703397 
1451	 0.213848041410485 
1452	 0.213847267180905 
1453	 0.21385639772952 
1454	 0.213874472056255 
1455	 0.213905065516343 
1456	 0.213959044487585 
1457	 0.213997446616858 
1458	 0.214035123036104 
1459	 0.214078797639816 
1460	 0.214108098470454 
1461	 0.214160284683763 
1462	 0.214240033801639 
1463	 0.214306031124146 
1464	 0.214363153421445 
1465	 0.214440392343159 
1466	 0.214519754616692 
1467	 0.214613617099702 
1468	 0.214715000528286 
1469	 0.214842284305693 
1470	 0.214988090340355 
1471	 0.215145108777838 
1472	 0.215318866330211 
1473	 0.21550393495269 
1474	 0.215693327525844 
1475	 0.215887702148975 
1476	 0.216072179874276 
1477	 0.216273060316664 
1478	 0.216478331269516 
1479	 0.216677724499604 
1480	 0.216884663131901 
1481	 0.217096445757607 
1482	 0.217307122096128 
1483	 0.217513896707289 
1484	 0.217712432717082 
1485	 0.217903477385182 
1486	 0.21811737219172 
1487	 0.21832633556282 
1488	 0.218549754356802 
1489	 0.218814014566747 
1490	 0.21904249316833 
1491	 0.219259344352692 
1492	 0.219467655624444 
1493	 0.21964715080295 
1494	 0.219856295673511 
1495	 0.220079699042976 
1496	 0.220288223720412 
1497	 0.220513048870726 
1498	 0.220718248642103 
1499	 0.220904183937881 
1500	 0.221084693404916 
1501	 0.221247389662653 
1502	 0.221424716776044 
1503	 0.221599570366818 
1504	 0.221773832818072 
1505	 0.221970402708012 
1506	 0.222167822048325 
1507	 0.222353123831226 
1508	 0.222527867638041 
1509	 0.222685161869184 
1510	 0.222854855700056 
1511	 0.223025642819519 
1512	 0.22319544989795 
1513	 0.223383362977243 
1514	 0.223554529921415 
1515	 0.22371954181471 
1516	 0.223900462543229 
1517	 0.224057287614167 
1518	 0.224200051055101 
1519	 0.224346870824531 
1520	 0.224480130226283 
1521	 0.224622541106038 
1522	 0.224764386366934 
1523	 0.224920386189036 
1524	 0.225087366202461 
1525	 0.22524421645669 
1526	 0.225414189443698 
1527	 0.225565678300369 
1528	 0.225706072295564 
1529	 0.225835348118214 
1530	 0.225946606617656 
1531	 0.226073187596826 
1532	 0.226194624569244 
1533	 0.22632021402804 
1534	 0.226465218556716 
1535	 0.226588789846726 
1536	 0.226695298371871 
1537	 0.226805742150719 
1538	 0.226910601079793 
1539	 0.227015838685118 
1540	 0.227112638953259 
1541	 0.227227160863484 
1542	 0.22735594717272 
1543	 0.227474697353565 
1544	 0.227604366121922 
1545	 0.227722139955663 
1546	 0.227826391139049 
1547	 0.227928121283294 
1548	 0.228029623743901 
1549	 0.228134563293101 
1550	 0.228238633405411 
1551	 0.228322721974925 
1552	 0.228390183838227 
1553	 0.228490323895054 
1554	 0.228598301261238 
1555	 0.228676493057609 
1556	 0.228770374679031 
1557	 0.228848830996895 
1558	 0.22891726916374 
1559	 0.229020005570165 
1560	 0.229103012797708 
1561	 0.22919558522635 
1562	 0.229264391896373 
1563	 0.229307499600295 
1564	 0.229376732996045 
1565	 0.229445701139999 
1566	 0.229523675203872 
1567	 0.229618900503606 
1568	 0.229706445674161 
1569	 0.229793644482836 
1570	 0.229877396263387 
1571	 0.229969632447544 
1572	 0.230041976836255 
1573	 0.230106822585482 
1574	 0.230159560638298 
1575	 0.230189020981975 
1576	 0.230232019288432 
1577	 0.230268009107215 
1578	 0.230312413925817 
1579	 0.230372217940528 
1580	 0.230419518446494 
1581	 0.230455496158179 
1582	 0.230503981551239 
1583	 0.230556894936577 
1584	 0.230604602736746 
1585	 0.230667391188203 
1586	 0.23071090457943 
1587	 0.230730144414622 
1588	 0.230768081513283 
1589	 0.230806658060369 
1590	 0.230843870149907 
1591	 0.230897876639574 
1592	 0.230935279738226 
1593	 0.230947605147481 
1594	 0.230984065250784 
1595	 0.231035081167115 
1596	 0.23107202393424 
1597	 0.231113757672604 
1598	 0.231154324166483 
1599	 0.23118188066002 
1600	 0.231215202923915 
1601	 0.2312624143717 
1602	 0.231298917987639 
1603	 0.231320573465638 
1604	 0.23135105310566 
1605	 0.231380061119906 
1606	 0.231416779086541 
1607	 0.231461076302965 
1608	 0.231511043140559 
1609	 0.231567999411616 
1610	 0.23159842706562 
1611	 0.231627226831052 
1612	 0.231637202615244 
1613	 0.231624373550014 
1614	 0.231643989399154 
1615	 0.231657326353952 
1616	 0.231665299075217 
1617	 0.231698437363959 
1618	 0.231722024009494 
1619	 0.23175254947058 
1620	 0.231805692474745 
1621	 0.231841625094747 
1622	 0.231884164895899 
1623	 0.231897502263968 
1624	 0.231891359229436 
1625	 0.231893122756467 
1626	 0.231874731912144 
1627	 0.231882704100563 
1628	 0.231909061601948 
1629	 0.231922630966849 
1630	 0.231935584665036 
1631	 0.231957303589231 
1632	 0.231979746611581 
1633	 0.232000607581268 
1634	 0.232032657707205 
1635	 0.232051458364671 
1636	 0.232063474723747 
1637	 0.232066879055858 
1638	 0.232060982885429 
1639	 0.232063206488493 
1640	 0.232058289445973 
1641	 0.232059714854228 
1642	 0.232069656928377 
1643	 0.232076739338521 
1644	 0.232076243132993 
1645	 0.232089126765242 
1646	 0.23211469267687 
1647	 0.232132328655275 
1648	 0.232157406293102 
1649	 0.232167452800023 
1650	 0.232162412772784 
1651	 0.232171522462594 
1652	 0.232182381682143 
1653	 0.23218806458651 
1654	 0.232207531924235 
1655	 0.23220148772571 
1656	 0.232173205454078 
1657	 0.232155432959759 
1658	 0.232131576638115 
1659	 0.232107977417084 
1660	 0.232094396385113 
1661	 0.232059397369165 
1662	 0.232000986394808 
1663	 0.231965487014462 
1664	 0.231928518995325 
1665	 0.231897087282268 
1666	 0.231875514512289 
1667	 0.231863553481287 
1668	 0.231862030223376 
1669	 0.231846329711349 
1670	 0.231837544993762 
1671	 0.231825223284177 
1672	 0.231800255394405 
1673	 0.231774015485563 
1674	 0.231752680423481 
1675	 0.231729965046096 
1676	 0.231696359057909 
1677	 0.231666496491127 
1678	 0.231637327566381 
1679	 0.231620595178357 
1680	 0.231607105385527 
1681	 0.231592227252982 
1682	 0.231589464710329 
1683	 0.231584501907183 
1684	 0.231581038450274 
1685	 0.231561933941963 
1686	 0.231542903996674 
1687	 0.231519042585748 
1688	 0.231472268780951 
1689	 0.2314386304279 
1690	 0.231417890240986 
1691	 0.231384178124886 
1692	 0.231335583941796 
1693	 0.231308010907905 
1694	 0.23128528812641 
1695	 0.231267348366239 
1696	 0.231269213795669 
1697	 0.231254061562704 
1698	 0.231232643543298 
1699	 0.231211891718707 
1700	 0.231190387850959 
1701	 0.231159922372566 
1702	 0.231129121224918 
1703	 0.231086262815257 
1704	 0.231023184545874 
1705	 0.230974756448503 
1706	 0.230924689477106 
1707	 0.230878327701708 
1708	 0.230847206467588 
1709	 0.230799849954277 
1710	 0.230741974467862 
1711	 0.23069121310772 
1712	 0.230640011660703 
1713	 0.230579063491275 
1714	 0.230512334587106 
1715	 0.230455961432945 
1716	 0.230395754817219 
1717	 0.230337185702066 
1718	 0.230293531568973 
1719	 0.230237347288209 
1720	 0.230169990483006 
1721	 0.230103503760224 
1722	 0.230030513532523 
1723	 0.229971436915452 
1724	 0.229926215816916 
1725	 0.229855081299041 
1726	 0.229787560126746 
1727	 0.229701937080517 
1728	 0.229567609373331 
1729	 0.229488677757008 
1730	 0.229440162442633 
1731	 0.229368935876963 
1732	 0.22932399057858 
1733	 0.229240273991137 
1734	 0.22911492231144 
1735	 0.229018446776283 
1736	 0.228922629114358 
1737	 0.228826036178393 
1738	 0.228735848245068 
1739	 0.228652150606463 
1740	 0.228568986721983 
1741	 0.228481461167366 
1742	 0.228408250433536 
1743	 0.228306372520357 
1744	 0.228186473031634 
1745	 0.22807282033472 
1746	 0.227946553917835 
1747	 0.227826800202432 
1748	 0.227709143330511 
1749	 0.22758828773605 
1750	 0.227496568530134 
1751	 0.22741980873468 
1752	 0.227322908599112 
1753	 0.227226851055361 
1754	 0.227119258923875 
1755	 0.226999961348867 
1756	 0.226872568049591 
1757	 0.226718747087221 
1758	 0.226574380554677 
1759	 0.226446462991858 
1760	 0.226345909758474 
1761	 0.226278551736302 
1762	 0.226203377060901 
1763	 0.226119404758689 
1764	 0.226018429167091 
1765	 0.225899646692786 
1766	 0.225782869426275 
1767	 0.225676145335511 
1768	 0.225576256307621 
1769	 0.225480820908927 
1770	 0.225393854366187 
1771	 0.225315402009758 
1772	 0.225228268164841 
1773	 0.225136541489634 
1774	 0.225080681146462 
1775	 0.225006786923634 
1776	 0.224906461400063 
1777	 0.224826515409677 
1778	 0.224727276083274 
1779	 0.224641249193863 
1780	 0.224585937529423 
1781	 0.224508504327169 
1782	 0.22443026697298 
1783	 0.22435278816101 
1784	 0.224308915651384 
1785	 0.224325239430293 
1786	 0.224306079162885 
1787	 0.224291527630648 
1788	 0.224254168167259 
1789	 0.224182402903935 
1790	 0.224121796016388 
1791	 0.2240517063909 
1792	 0.223999375383831 
1793	 0.223958535228573 
1794	 0.223913868276905 
1795	 0.223888601871313 
1796	 0.223843858190207 
1797	 0.223768608733406 
1798	 0.223721574779829 
1799	 0.223675507369344 
1800	 0.223636384727479 
1801	 0.218466353817889 
1802	 0.218616383272395 
1803	 0.218794248628712 
1804	 0.219007476848977 
1805	 0.219239143978922 
1806	 0.219480545460609 
1807	 0.219703438651994 
1808	 0.219908790477989 
1809	 0.220144588439515 
1810	 0.220305177383207 
1811	 0.220414478379634 
1812	 0.220515991554052 
1813	 0.220606821090985 
1814	 0.220646764548726 
1815	 0.220684857532141 
1816	 0.220710933483855 
1817	 0.220727932177214 
1818	 0.22070070251453 
1819	 0.220711142781467 
1820	 0.220730074665457 
1821	 0.220765873751464 
1822	 0.220791199872317 
1823	 0.22082169537625 
1824	 0.220861957902427 
1825	 0.220857933020491 
1826	 0.220871823546613 
1827	 0.220886102039792 
1828	 0.220878465136252 
1829	 0.22086427663173 
1830	 0.220847460194066 
1831	 0.220818159083739 
1832	 0.220766449594079 
1833	 0.220736673139417 
1834	 0.22069433266327 
1835	 0.220632361229745 
1836	 0.220578039674317 
1837	 0.220546321619413 
1838	 0.220495216908152 
1839	 0.220441066606343 
1840	 0.220395767090292 
1841	 0.220348810550472 
1842	 0.220253490112461 
1843	 0.220190061476146 
1844	 0.220165964263705 
1845	 0.220106893480204 
1846	 0.220036384973056 
1847	 0.21996799366265 
1848	 0.219880721005499 
1849	 0.219783140556378 
1850	 0.219673835488474 
1851	 0.219574849075524 
1852	 0.219446469631803 
1853	 0.219304550846019 
1854	 0.2191395948051 
1855	 0.218959842726842 
1856	 0.218764232180979 
1857	 0.218496661127155 
1858	 0.218237613678124 
1859	 0.217988087183759 
1860	 0.217694061490427 
1861	 0.217373615370495 
1862	 0.21704790807099 
1863	 0.216672267155131 
1864	 0.216237143032457 
1865	 0.215804397226366 
1866	 0.21534224347417 
1867	 0.214824754036423 
1868	 0.214273292470432 
1869	 0.213649626079852 
1870	 0.212974035756973 
1871	 0.212250194812432 
1872	 0.21147827962671 
1873	 0.210659062866919 
1874	 0.209810952311393 
1875	 0.208896935961469 
1876	 0.207937151159767 
1877	 0.206938882352119 
1878	 0.205830688952521 
1879	 0.204636034693746 
1880	 0.203358928274829 
1881	 0.201976463147589 
1882	 0.200527912475372 
1883	 0.199010642773743 
1884	 0.197382046640565 
1885	 0.195703701002889 
1886	 0.193968726707974 
1887	 0.192126556364016 
1888	 0.190250126370721 
1889	 0.188285789182374 
1890	 0.186246480843087 
1891	 0.184222112216422 
1892	 0.182124118392825 
1893	 0.180083971131131 
1894	 0.178057890617165 
1895	 0.176044329190875 
1896	 0.174023532115442 
1897	 0.172062904705828 
1898	 0.170084428164716 
1899	 0.168150582313971 
1900	 0.16632885912242 
1901	 0.164567990428415 
1902	 0.162901911546818 
1903	 0.161361514275589 
1904	 0.159866662785092 
1905	 0.158431565180337 
1906	 0.157082303688468 
1907	 0.155822392429643 
1908	 0.154635250104858 
1909	 0.153536738582484 
1910	 0.152514782429984 
1911	 0.151541833558166 
1912	 0.150626531199028 
1913	 0.149794080534223 
1914	 0.14904055230388 
1915	 0.14833650177296 
1916	 0.147702375955986 
1917	 0.147135452197682 
1918	 0.146621174490149 
1919	 0.146117774624546 
1920	 0.145667036014408 
1921	 0.145266669399932 
1922	 0.144890929120994 
1923	 0.144587272255583 
1924	 0.144317600008491 
1925	 0.144099328608671 
1926	 0.143917183869441 
1927	 0.143786156489675 
1928	 0.143668215690221 
1929	 0.143587594403236 
1930	 0.14354819692745 
1931	 0.14351082267445 
1932	 0.143484943287406 
1933	 0.143487867775924 
1934	 0.143530671951017 
1935	 0.143594399645513 
1936	 0.143690508315589 
1937	 0.143804959960503 
1938	 0.143945464947095 
1939	 0.144099242747326 
1940	 0.144270055569019 
1941	 0.144460678033979 
1942	 0.144685801568569 
1943	 0.144935503157582 
1944	 0.145200980087076 
1945	 0.145482604073493 
1946	 0.14576121778548 
1947	 0.14602145494076 
1948	 0.146331742086348 
1949	 0.146674224594321 
1950	 0.147016625597645 
1951	 0.147385234455665 
1952	 0.147767193804603 
1953	 0.148130318958726 
1954	 0.148496151985491 
1955	 0.148899597165127 
1956	 0.149302383089242 
1957	 0.149717603090223 
1958	 0.150158744708633 
1959	 0.150588438108351 
1960	 0.151011249807873 
1961	 0.151448490213146 
1962	 0.151902390562894 
1963	 0.152345080483492 
1964	 0.152778451464092 
1965	 0.15323191051518 
1966	 0.153705304815117 
1967	 0.154164771447713 
1968	 0.154637298629173 
1969	 0.155141335355312 
1970	 0.155617459884055 
1971	 0.156071688634559 
1972	 0.156547444989732 
1973	 0.157032609301508 
1974	 0.157512731950633 
1975	 0.158002571747495 
1976	 0.158481984018978 
1977	 0.158960375802862 
1978	 0.159432454891006 
1979	 0.159922635064925 
1980	 0.160408827468056 
1981	 0.160885323428135 
1982	 0.161345791882649 
1983	 0.161831590607184 
1984	 0.162314688766104 
1985	 0.16281375994509 
1986	 0.163354121330657 
1987	 0.163861406436166 
1988	 0.164356922472904 
1989	 0.164852196041468 
1990	 0.165340432860815 
1991	 0.165824884563528 
1992	 0.166312258540703 
1993	 0.166809171414175 
1994	 0.167293699285848 
1995	 0.167756820969273 
1996	 0.168247289390862 
1997	 0.168756386860338 
1998	 0.169249430417157 
1999	 0.169756017316252 
2000	 0.170251239351413 
2001	 0.170739454008849 
2002	 0.171204060128856 
2003	 0.171686509760239 
2004	 0.172150045999399 
2005	 0.172609106469713 
2006	 0.173059835230287 
2007	 0.173506382653167 
2008	 0.173937284890599 
2009	 0.174379607990761 
2010	 0.174813519090839 
2011	 0.175262222264398 
2012	 0.175737475899235 
2013	 0.176188991396876 
2014	 0.17664190332031 
2015	 0.177083137196794 
2016	 0.177499424426164 
2017	 0.177911732721871 
2018	 0.178332580020314 
2019	 0.178756887367518 
2020	 0.17917438699096 
2021	 0.17959502115226 
2022	 0.18000721339905 
2023	 0.180399555263518 
2024	 0.180811337276026 
2025	 0.181242700174988 
2026	 0.181654044426098 
2027	 0.182069464268581 
2028	 0.18247678968605 
2029	 0.182864541084077 
2030	 0.183231218150206 
2031	 0.183593365668832 
2032	 0.183929796665126 
2033	 0.184295434208871 
2034	 0.184669621969574 
2035	 0.185029720433899 
2036	 0.185413469036488 
2037	 0.185769335767438 
2038	 0.186090606116942 
2039	 0.186420740736398 
2040	 0.186765102541398 
2041	 0.187072030272338 
2042	 0.187367977319808 
2043	 0.187671273058086 
2044	 0.187979684021943 
2045	 0.188277234370672 
2046	 0.188591059109019 
2047	 0.188937250215505 
2048	 0.189246303776989 
2049	 0.189550030200829 
2050	 0.189835593324401 
2051	 0.190077706028381 
2052	 0.190351569126251 
2053	 0.190633278435136 
2054	 0.190908537572975 
2055	 0.19119490319378 
2056	 0.191485988907862 
2057	 0.191758519582355 
2058	 0.192006525402522 
2059	 0.192283035264525 
2060	 0.192569870326973 
2061	 0.192846804122726 
2062	 0.193135565022942 
2063	 0.193411999329874 
2064	 0.19367669275161 
2065	 0.193937727832034 
2066	 0.19419513296955 
2067	 0.194450592394491 
2068	 0.194687771703176 
2069	 0.194946201507332 
2070	 0.195196093589838 
2071	 0.195445223113471 
2072	 0.19569692340568 
2073	 0.19595768410139 
2074	 0.196198077890993 
2075	 0.196429373753651 
2076	 0.19666561015983 
2077	 0.196882120209225 
2078	 0.197117631811348 
2079	 0.19737921035407 
2080	 0.197618807845183 
2081	 0.197859607531699 
2082	 0.198087231986087 
2083	 0.198296554168941 
2084	 0.198498663113087 
2085	 0.198715920846025 
2086	 0.19892766166172 
2087	 0.199159119945698 
2088	 0.199413815420465 
2089	 0.199648717191743 
2090	 0.199893372431558 
2091	 0.200115168700046 
2092	 0.200313865113957 
2093	 0.200523930295622 
2094	 0.200724912768669 
2095	 0.20093193738831 
2096	 0.201152442137303 
2097	 0.201360381826665 
2098	 0.201549135921975 
2099	 0.201758166998144 
2100	 0.201968465541334 
2101	 0.202176933166837 
2102	 0.202390713299373 
2103	 0.20262024127728 
2104	 0.202836966438972 
2105	 0.203041233205884 
2106	 0.203260397412105 
2107	 0.203504072358688 
2108	 0.20371086118171 
2109	 0.203895771405999 
2110	 0.204097077797899 
2111	 0.204266361846446 
2112	 0.204465856304286 
2113	 0.204694720672208 
2114	 0.204931679435645 
2115	 0.205162276954672 
2116	 0.205401435440693 
2117	 0.205628193180565 
2118	 0.205852124995626 
2119	 0.206072805569003 
2120	 0.206301248390863 
2121	 0.206497194154093 
2122	 0.206670539374895 
2123	 0.206851651130277 
2124	 0.207013597699957 
2125	 0.207176370099145 
2126	 0.207355938307189 
2127	 0.207514153568707 
2128	 0.207652602139639 
2129	 0.207786376789341 
2130	 0.20792256634747 
2131	 0.208027455849754 
2132	 0.208138084167317 
2133	 0.208241215825042 
2134	 0.208334780224508 
2135	 0.208425177034619 
2136	 0.208498806968958 
2137	 0.208568017063846 
2138	 0.208609934139491 
2139	 0.20861952578721 
2140	 0.208640735883681 
2141	 0.208629501006348 
2142	 0.208648322534155 
2143	 0.208720646819586 
2144	 0.208735832048964 
2145	 0.208731073441661 
2146	 0.208722030696396 
2147	 0.208677835792988 
2148	 0.208614359045715 
2149	 0.208584579722137 
2150	 0.208578114043394 
2151	 0.208548056247143 
2152	 0.208531128564357 
2153	 0.208479544211023 
2154	 0.208411465511623 
2155	 0.208326563249689 
2156	 0.208218968922991 
2157	 0.208101504869608 
2158	 0.207959485604704 
2159	 0.20782248358831 
2160	 0.207671786024382 
2161	 0.207526218120845 
2162	 0.207383184409101 
2163	 0.207237337368908 
2164	 0.207089263589673 
2165	 0.206941007773831 
2166	 0.20679276430804 
2167	 0.206647198112997 
2168	 0.206488932774946 
2169	 0.206319516900876 
2170	 0.206165858352412 
2171	 0.206017723577727 
2172	 0.205856489474625 
2173	 0.205708175043248 
2174	 0.205536739372884 
2175	 0.205330900803696 
2176	 0.205145118867547 
2177	 0.204965846882949 
2178	 0.204777592995719 
2179	 0.204600018806583 
2180	 0.204406196757977 
2181	 0.204189780854022 
2182	 0.203980322505529 
2183	 0.20376658522059 
2184	 0.20354891767978 
2185	 0.203338300248101 
2186	 0.203135409065757 
2187	 0.202923742854338 
2188	 0.202705337370437 
2189	 0.202495784541238 
2190	 0.202284363718595 
2191	 0.202079796428485 
2192	 0.201867888175176 
2193	 0.201689397508401 
2194	 0.201526400380336 
2195	 0.201373421354053 
2196	 0.201239831540049 
2197	 0.201127311377703 
2198	 0.201030541620642 
2199	 0.200941137003075 
2200	 0.200881406364676 
2201	 0.200822125464909 
2202	 0.200767061371035 
2203	 0.200703441050522 
2204	 0.200677754959432 
2205	 0.20066576036324 
2206	 0.200684448320164 
2207	 0.200741172465664 
2208	 0.200788785774876 
2209	 0.200870588456534 
2210	 0.20091634974412 
2211	 0.200945551113825 
2212	 0.200979518787834 
2213	 0.200989035555569 
2214	 0.201028386043634 
2215	 0.201081030740275 
2216	 0.201144054500495 
2217	 0.201246254950862 
2218	 0.201309502365152 
2219	 0.201340935646842 
2220	 0.201404731323411 
2221	 0.201470894806704 
2222	 0.201533743469606 
2223	 0.20162491787521 
2224	 0.201688058603779 
2225	 0.201738160049445 
2226	 0.201748543510095 
2227	 0.201797611491104 
2228	 0.201864146925844 
2229	 0.201905813385848 
2230	 0.201951799816539 
2231	 0.201981563370121 
2232	 0.201994378233265 
2233	 0.20199886266178 
2234	 0.202005785650923 
2235	 0.2019842363244 
2236	 0.201927493850672 
2237	 0.201879347955698 
2238	 0.201807123755724 
2239	 0.2017585444478 
2240	 0.20172945344857 
2241	 0.201686975105951 
2242	 0.201639869763676 
2243	 0.20160527247465 
2244	 0.201573041013799 
2245	 0.201539141729772 
2246	 0.20151569782628 
2247	 0.201461358722795 
2248	 0.201398716779224 
2249	 0.201304292260518 
2250	 0.201232823990062 
2251	 0.201159897461961 
2252	 0.20109740401006 
2253	 0.20103773260501 
2254	 0.200981778429444 
2255	 0.200946615775927 
2256	 0.200887664700938 
2257	 0.200800580124717 
2258	 0.200757556598464 
2259	 0.200727447891571 
2260	 0.200690080146442 
2261	 0.200692550556759 
2262	 0.200662820555213 
2263	 0.200593451634887 
2264	 0.200546832211225 
2265	 0.200510850562631 
2266	 0.200470657729036 
2267	 0.200423435206611 
2268	 0.200398062787871 
2269	 0.200386860524265 
2270	 0.200361394037931 
2271	 0.200374942039318 
2272	 0.200371414838101 
2273	 0.200373729899627 
2274	 0.200362265109243 
2275	 0.200331343581565 
2276	 0.200285820763247 
2277	 0.200246739607072 
2278	 0.200177032680373 
2279	 0.200147400813275 
2280	 0.200138245242415 
2281	 0.20012695786255 
2282	 0.200139169209637 
2283	 0.200130385613966 
2284	 0.200124249547013 
2285	 0.200099675522892 
2286	 0.200056763594117 
2287	 0.200012594735303 
2288	 0.199938494137764 
2289	 0.199899694172087 
2290	 0.199870844845028 
2291	 0.19985370193286 
2292	 0.19989570130925 
2293	 0.199879076392683 
2294	 0.199826952330639 
2295	 0.199784542797148 
2296	 0.199719509426626 
2297	 0.199647689810194 
2298	 0.199582813402771 
2299	 0.199533575818036 
2300	 0.1994997945859 
2301	 0.199422480001658 
2302	 0.199323669857847 
2303	 0.199251800750886 
2304	 0.199176294839794 
2305	 0.19907957585819 
2306	 0.198971278135601 
2307	 0.198865400592311 
2308	 0.19875888704011 
2309	 0.198612375418115 
2310	 0.198514084761037 
2311	 0.198450458134948 
2312	 0.198393877746331 
2313	 0.198380859636562 
2314	 0.19829584273284 
2315	 0.198186952700553 
2316	 0.198082368457185 
2317	 0.197936731266369 
2318	 0.197797708239728 
2319	 0.197671413811603 
2320	 0.197541800037237 
2321	 0.197394868344334 
2322	 0.197242051242389 
2323	 0.197088761696333 
2324	 0.196953413053682 
2325	 0.196799452415286 
2326	 0.196655934207303 
2327	 0.196525219436554 
2328	 0.196438873508175 
2329	 0.196293162464145 
2330	 0.196177335542088 
2331	 0.19611111085863 
2332	 0.196012236890072 
2333	 0.195925474702375 
2334	 0.195850807257239 
2335	 0.195745390426023 
2336	 0.195599349052457 
2337	 0.195437450664586 
2338	 0.195316373082916 
2339	 0.195155933777601 
2340	 0.194952710976139 
2341	 0.194824438211468 
2342	 0.194649320548338 
2343	 0.194467818039332 
2344	 0.194372982152057 
2345	 0.194220907800969 
2346	 0.19404370083376 
2347	 0.193874260065881 
2348	 0.193692151251982 
2349	 0.193514443427437 
2350	 0.193324690509754 
2351	 0.193149385662146 
2352	 0.192990598173569 
2353	 0.192816705773183 
2354	 0.192667413165138 
2355	 0.19245898678318 
2356	 0.19219452154196 
2357	 0.191972148662466 
2358	 0.191722423568049 
2359	 0.191511269266596 
2360	 0.191367064000884 
2361	 0.191168221895163 
2362	 0.190937456816205 
2363	 0.19072193848008 
2364	 0.190495748446297 
2365	 0.190283605636643 
2366	 0.190076193607723 
2367	 0.189890917397746 
2368	 0.189750406742382 
2369	 0.189533722399541 
2370	 0.189277454494271 
2371	 0.189066311638251 
2372	 0.188797319077954 
2373	 0.188518237443747 
2374	 0.188322297561068 
2375	 0.188082601116159 
2376	 0.187793118024786 
2377	 0.187586219666632 
2378	 0.187387877429923 
2379	 0.187118742941528 
2380	 0.186836843820712 
2381	 0.186511104392212 
2382	 0.186098761002844 
2383	 0.185742984808367 
2384	 0.185512208129048 
2385	 0.185252898813649 
2386	 0.184967361674877 
2387	 0.18472805413794 
2388	 0.184405227256931 
2389	 0.184039692790618 
2390	 0.183730149710196 
2391	 0.18342599904091 
2392	 0.183158252219944 
2393	 0.182912872941547 
2394	 0.182668855813658 
2395	 0.182407430333398 
2396	 0.182113123005977 
2397	 0.181844294372683 
2398	 0.181519085503427 
2399	 0.181166234500112 
2400	 0.180843403942764 
2401	 0.180456402685932 
2402	 0.180102624854308 
2403	 0.179808594530681 
2404	 0.179481919159678 
2405	 0.179170121247875 
2406	 0.178826794380949 
2407	 0.178411202162387 
2408	 0.178031258246055 
2409	 0.17765173335408 
2410	 0.177325958986864 
2411	 0.177094119012212 
2412	 0.176851616082146 
2413	 0.176598082945809 
2414	 0.176239558949331 
2415	 0.175872615447212 
2416	 0.175513701385535 
2417	 0.175060346276428 
2418	 0.174707727064349 
2419	 0.174485405928085 
2420	 0.174084943223122 
2421	 0.173628743200795 
2422	 0.173247886569923 
2423	 0.172786414703177 
2424	 0.172393652146333 
2425	 0.172131969245652 
2426	 0.17175555900262 
2427	 0.171278773575168 
2428	 0.170903267795705 
2429	 0.170533989074879 
2430	 0.170179325429016 
2431	 0.169922268138305 
2432	 0.169547677722744 
2433	 0.16912985008973 
2434	 0.168728472186897 
2435	 0.168252187631741 
2436	 0.167863518636228 
2437	 0.167486655823042 
2438	 0.16711216479179 
2439	 0.166815214561502 
2440	 0.166417940028888 
2441	 0.16601195772435 
2442	 0.165688419767022 
2443	 0.165380724897072 
2444	 0.165006419053008 
2445	 0.16454804283818 
2446	 0.164171372256454 
2447	 0.163774481533211 
2448	 0.16342022570015 
2449	 0.163213050118561 
2450	 0.162932533028098 
2451	 0.16260789062845 
2452	 0.162270081486293 
2453	 0.161922388419984 
2454	 0.161613426608942 
2455	 0.161286314859612 
2456	 0.160961130522508 
2457	 0.160658118704702 
2458	 0.160390125881674 
2459	 0.160190533438349 
2460	 0.159873315606723 
2461	 0.159471889625717 
2462	 0.159151566258575 
2463	 0.158834126702759 
2464	 0.158460610612002 
2465	 0.158104927583083 
2466	 0.157773839178286 
2467	 0.157333641129951 
2468	 0.157004472046603 
2469	 0.156842628169378 
2470	 0.156502726121795 
2471	 0.1561641870119 
2472	 0.155724178445673 
2473	 0.155447756881592 
2474	 0.155249788758615 
2475	 0.154973764165304 
2476	 0.154816388626639 
2477	 0.154490557495863 
2478	 0.153908298715346 
2479	 0.153459222766625 
2480	 0.153110158883804 
2481	 0.15275742268359 
2482	 0.152604109845727 
2483	 0.152396718704602 
2484	 0.15197649304473 
2485	 0.151540776244271 
2486	 0.151199540146617 
2487	 0.15104737752456 
2488	 0.150829687254723 
2489	 0.150604131680647 
2490	 0.150413968639095 
2491	 0.150103351259767 
2492	 0.149869926007017 
2493	 0.149637445069276 
2494	 0.149314190089702 
2495	 0.148965228906166 
2496	 0.148703626138811 
2497	 0.14860604522331 
2498	 0.14850811028189 
2499	 0.148417113514519 
2500	 0.148098371876653 
