Wavelength	mm2600004.asd
350	 2.76100754458646E-02 
351	 3.49330066166802E-02 
352	 3.51662359271766E-02 
353	 2.42633886135369E-02 
354	 3.12357546669748E-02 
355	 3.18569528409602E-02 
356	 3.02650411836328E-02 
357	 0.034505754370097 
358	 3.94298802425495E-02 
359	 0.035821221203717 
360	 3.03816422786022E-02 
361	 3.70284042161586E-02 
362	 0.030216555105138 
363	 2.70683228747262E-02 
364	 3.53133399563234E-02 
365	 4.13039425551102E-02 
366	 3.77530401710677E-02 
367	 3.38893117060267E-02 
368	 3.84118621044141E-02 
369	 3.81986275091092E-02 
370	 3.66471819511583E-02 
371	 3.63749113338858E-02 
372	 3.87089124032137E-02 
373	 4.05463592532024E-02 
374	 4.07502185363216E-02 
375	 3.96313377905863E-02 
376	 0.039353255885437 
377	 3.88282313461722E-02 
378	 3.87192312286514E-02 
379	 4.01294337493955E-02 
380	 4.47989482690466E-02 
381	 4.32029233447196E-02 
382	 3.82112401735813E-02 
383	 4.12095866836209E-02 
384	 4.57131295790691E-02 
385	 4.57722310655336E-02 
386	 4.15806849488513E-02 
387	 4.48104173222786E-02 
388	 4.65061143607874E-02 
389	 4.57172563412554E-02 
390	 4.44119409809831E-02 
391	 4.55293858703834E-02 
392	 0.047157398386056 
393	 4.90507912579416E-02 
394	 5.21923242210327E-02 
395	 5.00661160449448E-02 
396	 4.84521717243408E-02 
397	 5.09359447123144E-02 
398	 5.24740328010223E-02 
399	 5.18871053281355E-02 
400	 5.13671998552942E-02 
401	 0.053284861940969 
402	 5.27057684371927E-02 
403	 5.25477329956046E-02 
404	 5.35170172892601E-02 
405	 5.36884426238519E-02 
406	 5.40478642835583E-02 
407	 5.44698730904206E-02 
408	 5.47039405243966E-02 
409	 0.054759292293961 
410	 5.39938534950116E-02 
411	 5.36280263890758E-02 
412	 5.51738145052952E-02 
413	 5.57515048881325E-02 
414	 5.59641413577336E-02 
415	 5.61464398579266E-02 
416	 5.58472508533915E-02 
417	 5.59425383453189E-02 
418	 5.63770110212304E-02 
419	 5.67578495277992E-02 
420	 0.056422167511063 
421	 5.60412076819943E-02 
422	 5.60999611011613E-02 
423	 5.67652614050555E-02 
424	 5.63106459309722E-02 
425	 5.60569029455064E-02 
426	 0.056504300975177 
427	 5.59129305212943E-02 
428	 5.58795223033627E-02 
429	 5.61611834388059E-02 
430	 0.056072552110696 
431	 5.58522691993118E-02 
432	 5.55747696237288E-02 
433	 5.53914683426524E-02 
434	 0.055513103091673 
435	 5.57137109511244E-02 
436	 5.58058014663092E-02 
437	 5.56859009244693E-02 
438	 5.53209453265471E-02 
439	 5.56254980151666E-02 
440	 5.62781035874895E-02 
441	 5.64163097643912E-02 
442	 5.63880578986503E-02 
443	 5.64770413422164E-02 
444	 5.66848743817523E-02 
445	 5.66027659737772E-02 
446	 0.056529149271602 
447	 5.66858950365552E-02 
448	 5.71070596534826E-02 
449	 5.71569474425806E-02 
450	 5.73436141604614E-02 
451	 5.75900097057874E-02 
452	 0.057352947282096 
453	 5.74232091255363E-02 
454	 0.05753315748008 
455	 5.74819786524558E-02 
456	 5.77570106030866E-02 
457	 5.75906986630233E-02 
458	 5.72944169517852E-02 
459	 5.75348481166649E-02 
460	 5.76322518491783E-02 
461	 5.74760648893226E-02 
462	 5.72910089147474E-02 
463	 5.76971774749278E-02 
464	 5.77508188516684E-02 
465	 5.76112808323704E-02 
466	 0.057639925714186 
467	 5.76683407885181E-02 
468	 5.77210863818892E-02 
469	 5.77433779290051E-02 
470	 5.76371099153218E-02 
471	 5.77270280035731E-02 
472	 5.76664925297902E-02 
473	 5.73488068876099E-02 
474	 5.74996218394666E-02 
475	 5.77104291212538E-02 
476	 5.77826590090509E-02 
477	 5.76650449501409E-02 
478	 5.77298240208851E-02 
479	 5.77421133240883E-02 
480	 5.76013234654353E-02 
481	 5.74540803621445E-02 
482	 5.76766927929278E-02 
483	 5.79567155241099E-02 
484	 5.79297703667198E-02 
485	 5.78845795275117E-02 
486	 5.78214807991442E-02 
487	 5.77042597317766E-02 
488	 5.74972585626457E-02 
489	 5.76745025257516E-02 
490	 5.78688258958513E-02 
491	 0.057829684425412 
492	 5.79856705763768E-02 
493	 0.057956841513029 
494	 5.77749893173824E-02 
495	 5.76881489987702E-02 
496	 5.80287947819562E-02 
497	 5.80468827001794E-02 
498	 0.057676866527736 
499	 5.80189549598982E-02 
500	 5.80621856261732E-02 
501	 5.79894211580422E-02 
502	 5.81498904353081E-02 
503	 0.058005038221694 
504	 5.79473226226913E-02 
505	 5.80305125970438E-02 
506	 5.79865327346764E-02 
507	 5.80437042486311E-02 
508	 5.81020824216573E-02 
509	 5.80653610451662E-02 
510	 5.80220759513307E-02 
511	 5.78347770457224E-02 
512	 5.76936579262871E-02 
513	 5.78943832047152E-02 
514	 5.80084275044276E-02 
515	 5.80357738157754E-02 
516	 5.80516487552758E-02 
517	 5.81835760707797E-02 
518	 5.81213211108657E-02 
519	 5.79987423069461E-02 
520	 5.80448297864481E-02 
521	 5.81613264382502E-02 
522	 5.81841159426285E-02 
523	 5.81282719107697E-02 
524	 5.81933073822209E-02 
525	 5.81566378119817E-02 
526	 5.81176829881477E-02 
527	 5.81681080419406E-02 
528	 5.81488670032731E-02 
529	 0.058087554405346 
530	 5.80607573585428E-02 
531	 5.81600100592479E-02 
532	 5.82588274854786E-02 
533	 5.83013833500215E-02 
534	 0.05830187337072 
535	 5.83980714135365E-02 
536	 5.84724559991326E-02 
537	 5.84927925614175E-02 
538	 5.84844384955367E-02 
539	 5.86270007840561E-02 
540	 5.86922378782632E-02 
541	 5.86253933509204E-02 
542	 5.86379741348229E-02 
543	 5.87179235899813E-02 
544	 5.88119153998833E-02 
545	 5.88716081321329E-02 
546	 0.058947841128415 
547	 5.89738875486785E-02 
548	 5.89829946432926E-02 
549	 5.90848881461314E-02 
550	 5.91326051105474E-02 
551	 5.91319683323903E-02 
552	 5.91455883613243E-02 
553	 0.059320815646094 
554	 5.94274789077357E-02 
555	 5.94874184301945E-02 
556	 5.96392345043553E-02 
557	 5.97643221501119E-02 
558	 5.98986552645042E-02 
559	 0.060062326837772 
560	 6.02260132817502E-02 
561	 6.02725045613255E-02 
562	 6.03543446582973E-02 
563	 6.06481127467053E-02 
564	 0.060908009967792 
565	 6.11156956972098E-02 
566	 0.061308288664723 
567	 0.061567672274618 
568	 6.19257649928936E-02 
569	 6.22801374161096E-02 
570	 6.25447770002927E-02 
571	 6.27911054427748E-02 
572	 6.31224700916751E-02 
573	 6.35242291258385E-02 
574	 6.39014841152947E-02 
575	 6.43149443515627E-02 
576	 0.064757629139515 
577	 6.52002074888997E-02 
578	 0.065574589696336 
579	 6.60043810011143E-02 
580	 0.066483347161503 
581	 6.69638973434929E-02 
582	 6.75425159597453E-02 
583	 6.81178602293165E-02 
584	 6.86425676759892E-02 
585	 6.91687846850481E-02 
586	 6.97765411674617E-02 
587	 7.04046910756345E-02 
588	 7.09868077650791E-02 
589	 0.071639516652726 
590	 7.23320109325736E-02 
591	 7.30318902961642E-02 
592	 7.37118179759631E-02 
593	 7.43249938363865E-02 
594	 7.49468550750412E-02 
595	 7.56177734249251E-02 
596	 7.62169402403772E-02 
597	 7.68336243630684E-02 
598	 7.74881747255919E-02 
599	 7.81602428948088E-02 
600	 7.88034138305195E-02 
601	 7.94223176115793E-02 
602	 8.00082856775171E-02 
603	 8.05115830916309E-02 
604	 8.10564425011037E-02 
605	 8.16322216168059E-02 
606	 8.21801257569862E-02 
607	 8.26782607931153E-02 
608	 8.31531030723131E-02 
609	 8.36210088510926E-02 
610	 8.40834460985854E-02 
611	 8.45490396462181E-02 
612	 0.084997735135579 
613	 8.54005529014231E-02 
614	 8.57239204089826E-02 
615	 8.60459624557682E-02 
616	 8.63692307497309E-02 
617	 8.66478818374961E-02 
618	 0.086975667098968 
619	 8.72641982628399E-02 
620	 8.74804727147772E-02 
621	 8.77755228603312E-02 
622	 8.79948873571869E-02 
623	 8.81802072115051E-02 
624	 0.088432357482876 
625	 8.86824783654101E-02 
626	 8.88781788616898E-02 
627	 8.90289865505686E-02 
628	 8.92218661110313E-02 
629	 0.089420578087616 
630	 8.96251792487708E-02 
631	 8.98277354776529E-02 
632	 8.99513476273201E-02 
633	 9.00910084259483E-02 
634	 9.02789308208148E-02 
635	 9.04876059541054E-02 
636	 0.090649302863416 
637	 9.08046610749537E-02 
638	 9.09789987050612E-02 
639	 9.11032907312423E-02 
640	 9.12701579264679E-02 
641	 9.14701029268295E-02 
642	 9.16494079549022E-02 
643	 9.18247047433094E-02 
644	 9.19750842590455E-02 
645	 9.21228297689595E-02 
646	 0.092358574439515 
647	 9.25265033539521E-02 
648	 9.26834321294359E-02 
649	 9.29126638275807E-02 
650	 9.31260573977337E-02 
651	 9.33532597360111E-02 
652	 9.35769066277204E-02 
653	 9.37464681385057E-02 
654	 9.40089286449473E-02 
655	 9.42603389886833E-02 
656	 9.44328153782672E-02 
657	 9.46588546051646E-02 
658	 9.49290675016834E-02 
659	 9.52129738977635E-02 
660	 9.54708553250977E-02 
661	 9.57132943177319E-02 
662	 0.095981187896141 
663	 9.62821855899573E-02 
664	 9.65721302964514E-02 
665	 9.68689927946936E-02 
666	 0.097145796403614 
667	 9.73909868416466E-02 
668	 9.77004729612566E-02 
669	 9.80353548248845E-02 
670	 9.83663445062817E-02 
671	 9.86770481781093E-02 
672	 9.89782676617862E-02 
673	 9.93164945329067E-02 
674	 9.97082235030553E-02 
675	 0.100091798074922 
676	 0.100450625683937 
677	 0.100807424984501 
678	 0.101194184903448 
679	 0.101548625677928 
680	 0.101936788406051 
681	 0.10237117568392 
682	 0.10278181037028 
683	 0.10320242752643 
684	 0.103611546225582 
685	 0.103999687911623 
686	 0.104446276289021 
687	 0.104925373166841 
688	 0.105390397501916 
689	 0.105794391216441 
690	 0.106265185512948 
691	 0.106748037096506 
692	 0.107201753215571 
693	 0.107667169838386 
694	 0.108141496623636 
695	 0.108628532368224 
696	 0.109129269747965 
697	 0.109624207890178 
698	 0.11011096021267 
699	 0.110605321441861 
700	 0.111137118686585 
701	 0.111626912949063 
702	 0.112148295232375 
703	 0.112727095916891 
704	 0.113152506099509 
705	 0.113635373656394 
706	 0.114186483525007 
707	 0.114715069700565 
708	 0.115250780776379 
709	 0.115775813211361 
710	 0.11628633557233 
711	 0.116806294788867 
712	 0.117285698756865 
713	 0.117746767769768 
714	 0.118234309636047 
715	 0.118804314933367 
716	 0.119291546013048 
717	 0.119710830283829 
718	 0.120204884952894 
719	 0.120733698077114 
720	 0.121173031920931 
721	 0.121502006278225 
722	 0.121914649541574 
723	 0.122411909405633 
724	 0.122892378263986 
725	 0.123255740491358 
726	 0.123626971139806 
727	 0.123990410456893 
728	 0.124331052252128 
729	 0.124643645543562 
730	 0.12499255092351 
731	 0.125321511214627 
732	 0.125594703079598 
733	 0.125876510096522 
734	 0.126171846975948 
735	 0.126421742761759 
736	 0.126565872993663 
737	 0.126713288332777 
738	 0.126885055581846 
739	 0.127065732187612 
740	 0.127208926923611 
741	 0.127328859584685 
742	 0.12741851853936 
743	 0.127480079585897 
744	 0.127553546630123 
745	 0.127577676509878 
746	 0.127575804006658 
747	 0.127597596947549 
748	 0.127566718879095 
749	 0.127508984151372 
750	 0.127457294589078 
751	 0.127439506631793 
752	 0.127343709005102 
753	 0.127200431412489 
754	 0.127064977610676 
755	 0.12696138156567 
756	 0.126828789948933 
757	 0.126653707040018 
758	 0.126453890832341 
759	 0.126264939937003 
760	 0.12606821061381 
761	 0.12585498723034 
762	 0.12563579788329 
763	 0.125366243403671 
764	 0.125092914807428 
765	 0.124853070808672 
766	 0.124589451839068 
767	 0.124327635066015 
768	 0.124069244427217 
769	 0.123803007528308 
770	 0.123517095205207 
771	 0.123236418768611 
772	 0.122946540883333 
773	 0.122586272292793 
774	 0.122282510600019 
775	 0.121986974190992 
776	 0.121651359300677 
777	 0.121342231222843 
778	 0.121020527834246 
779	 0.120701621757861 
780	 0.120410110524362 
781	 0.12006696703657 
782	 0.119724151739173 
783	 0.119392980048968 
784	 0.11903623242298 
785	 0.118744269790653 
786	 0.11846307855685 
787	 0.118138509390663 
788	 0.117775944174506 
789	 0.11748477484306 
790	 0.117198240176099 
791	 0.116823596994353 
792	 0.116521365523311 
793	 0.116216857698187 
794	 0.115897370655547 
795	 0.115607083535147 
796	 0.11526124932986 
797	 0.114935759545812 
798	 0.114669110344349 
799	 0.114386572672964 
800	 0.114125737971662 
801	 0.113847130737093 
802	 0.113524524685131 
803	 0.113269930167957 
804	 0.113000273043319 
805	 0.112716949285763 
806	 0.112468551462607 
807	 0.112194611401204 
808	 0.111919279443728 
809	 0.111656767684961 
810	 0.111395897124121 
811	 0.111173137903182 
812	 0.110956629465754 
813	 0.110721351433521 
814	 0.110504418803877 
815	 0.110292382933514 
816	 0.110076871961399 
817	 0.10985690812631 
818	 0.109657960228554 
819	 0.109474221731963 
820	 0.109283288424264 
821	 0.109058893119121 
822	 0.10887708674052 
823	 0.108694470746082 
824	 0.10849049853197 
825	 0.108310229753153 
826	 0.108183316595306 
827	 0.108049792209356 
828	 0.107866884356597 
829	 0.107734445280408 
830	 0.107564539721057 
831	 0.107370523924746 
832	 0.107214942855066 
833	 0.107127082970018 
834	 0.107027550355877 
835	 0.106888727691212 
836	 0.106746991340146 
837	 0.106696839514766 
838	 0.106655507408667 
839	 0.106558579835722 
840	 0.106426160638216 
841	 0.106286518341182 
842	 0.106186062623236 
843	 0.106139002308731 
844	 0.106053320186277 
845	 0.105986643065724 
846	 0.105926628490789 
847	 0.105847447864324 
848	 0.105841429688355 
849	 0.10582738881133 
850	 0.105786562766691 
851	 0.105758505056046 
852	 0.105695302051182 
853	 0.105664971529492 
854	 0.105681228044252 
855	 0.105659116313493 
856	 0.105662183205181 
857	 0.105661574579899 
858	 0.105644104413221 
859	 0.105696326128574 
860	 0.105706826173617 
861	 0.105672011945966 
862	 0.105637668290036 
863	 0.105665245718943 
864	 0.105717150238428 
865	 0.105778463524314 
866	 0.105846119035475 
867	 0.105878466603155 
868	 0.105947141154744 
869	 0.106033649788555 
870	 0.106035104822153 
871	 0.106124953015556 
872	 0.106246792542544 
873	 0.106342612268019 
874	 0.106416972830546 
875	 0.106493350873001 
876	 0.106557168607677 
877	 0.106610809343868 
878	 0.106722723505242 
879	 0.106889830923614 
880	 0.107050636388734 
881	 0.107149310901674 
882	 0.107241386462927 
883	 0.107396516450653 
884	 0.107575688152254 
885	 0.107697398806576 
886	 0.107834115577447 
887	 0.107999259157787 
888	 0.10816854211634 
889	 0.108302158238928 
890	 0.108509280307752 
891	 0.108661633587006 
892	 0.108784764723759 
893	 0.109106547180347 
894	 0.109276129100635 
895	 0.109392882891608 
896	 0.109581751087796 
897	 0.109846147568533 
898	 0.110067469710436 
899	 0.110286339393747 
900	 0.110546440637292 
901	 0.110778028767902 
902	 0.111010811357776 
903	 0.111270004708551 
904	 0.111555058778573 
905	 0.111775145825383 
906	 0.11203403425986 
907	 0.112342063345671 
908	 0.112654806014326 
909	 0.112921760038329 
910	 0.113205111557951 
911	 0.113497735667106 
912	 0.113758534566441 
913	 0.114075402461237 
914	 0.114418574077217 
915	 0.114754369365995 
916	 0.115068730804543 
917	 0.115466750493701 
918	 0.115825641996607 
919	 0.11611637122878 
920	 0.116445920069603 
921	 0.116799559974596 
922	 0.117193672632433 
923	 0.117606928573746 
924	 0.117968100320798 
925	 0.11837873353684 
926	 0.118834718069866 
927	 0.119270171222869 
928	 0.119556405733307 
929	 0.120012842700767 
930	 0.120504389294057 
931	 0.120908590285381 
932	 0.121421822214403 
933	 0.121834902935101 
934	 0.122243794065217 
935	 0.122747665976035 
936	 0.123191314313655 
937	 0.123588974943382 
938	 0.124021685311429 
939	 0.124554478363643 
940	 0.125109098727028 
941	 0.125703425449728 
942	 0.126283869808931 
943	 0.126788950399056 
944	 0.127218498045892 
945	 0.12774427579121 
946	 0.128336417771619 
947	 0.128871268269184 
948	 0.129283623874107 
949	 0.129822201884488 
950	 0.130451011971415 
951	 0.131013263329533 
952	 0.13159416195269 
953	 0.132185571684329 
954	 0.132802450927487 
955	 0.13345135564328 
956	 0.134020308771446 
957	 0.134639465894804 
958	 0.135304221000197 
959	 0.13592718714973 
960	 0.136508725535594 
961	 0.137166137464268 
962	 0.137861688688253 
963	 0.138467021745737 
964	 0.138992805651879 
965	 0.139644301295481 
966	 0.140355122345812 
967	 0.140924581953422 
968	 0.141583320088218 
969	 0.14219046304005 
970	 0.14279830322487 
971	 0.143556488489149 
972	 0.14429748807312 
973	 0.144985174610347 
974	 0.145656008551262 
975	 0.146375349168415 
976	 0.147113752438449 
977	 0.147752694964735 
978	 0.148381276686933 
979	 0.149163681083386 
980	 0.149868781230079 
981	 0.15053978468332 
982	 0.151235538633943 
983	 0.151973239651398 
984	 0.152561396128312 
985	 0.153178485034633 
986	 0.153877318819969 
987	 0.154613602650591 
988	 0.155363010219193 
989	 0.155966105055736 
990	 0.156539779920848 
991	 0.157290325771089 
992	 0.158121011763207 
993	 0.158832551645772 
994	 0.159468066626856 
995	 0.160153127196644 
996	 0.160830603870854 
997	 0.161419788591753 
998	 0.162021646467823 
999	 0.162760533065531 
1000	 0.163580972051367 
1001	 0.164561509046629 
1002	 0.165141140825085 
1003	 0.165721885347712 
1004	 0.166279036486201 
1005	 0.166763080561154 
1006	 0.167371619215837 
1007	 0.168047769556143 
1008	 0.168634528343096 
1009	 0.169304784466424 
1010	 0.16991581037293 
1011	 0.170319778339925 
1012	 0.170798297023493 
1013	 0.17131449959293 
1014	 0.171795014323491 
1015	 0.172336874131688 
1016	 0.172857910812884 
1017	 0.173367989172303 
1018	 0.173857113023554 
1019	 0.174366309510336 
1020	 0.17484609760692 
1021	 0.175315633414776 
1022	 0.17577446165083 
1023	 0.176193448763407 
1024	 0.176627778168161 
1025	 0.177075411963393 
1026	 0.177490598127702 
1027	 0.177901459542236 
1028	 0.178293402233004 
1029	 0.178691886626606 
1030	 0.179121767512043 
1031	 0.179519484593254 
1032	 0.179903372183497 
1033	 0.180287227680912 
1034	 0.180696290255876 
1035	 0.181059412691906 
1036	 0.181426354915872 
1037	 0.181866891267935 
1038	 0.18224718890123 
1039	 0.182587171372984 
1040	 0.182988644150831 
1041	 0.183327178285769 
1042	 0.183624995117211 
1043	 0.183963984655282 
1044	 0.184283279530336 
1045	 0.184582604314969 
1046	 0.184877546797538 
1047	 0.185206126033802 
1048	 0.185546223989767 
1049	 0.185934539908742 
1050	 0.186329427919628 
1051	 0.186666788372622 
1052	 0.18697708497667 
1053	 0.187275263791789 
1054	 0.187592082600566 
1055	 0.187959689226533 
1056	 0.18835644632156 
1057	 0.188719367986829 
1058	 0.189087661756532 
1059	 0.189399168762287 
1060	 0.189653055718266 
1061	 0.18993659179696 
1062	 0.190247657190385 
1063	 0.190586342321006 
1064	 0.190959936373334 
1065	 0.191340468364992 
1066	 0.191671919546654 
1067	 0.19193611549 
1068	 0.192243602686639 
1069	 0.192563216174291 
1070	 0.192880393334115 
1071	 0.193231276802966 
1072	 0.193553822418817 
1073	 0.193856977064097 
1074	 0.194151349983967 
1075	 0.194427815049112 
1076	 0.194695489301058 
1077	 0.19496943199526 
1078	 0.195248449276354 
1079	 0.195557723648871 
1080	 0.195843140161355 
1081	 0.196106917967001 
1082	 0.196406074332788 
1083	 0.196677627379356 
1084	 0.196916406899281 
1085	 0.197176250875879 
1086	 0.197444097350996 
1087	 0.197684649529019 
1088	 0.197898511448587 
1089	 0.198157706060021 
1090	 0.198418285302363 
1091	 0.198664840328206 
1092	 0.198892060519765 
1093	 0.19914644139281 
1094	 0.199370636216428 
1095	 0.199561942517888 
1096	 0.199791688984024 
1097	 0.200027893549261 
1098	 0.200265539293108 
1099	 0.200505745520345 
1100	 0.200751207138618 
1101	 0.201024813820224 
1102	 0.201254701739531 
1103	 0.201458787160406 
1104	 0.201681154915202 
1105	 0.201869818789891 
1106	 0.202020646318746 
1107	 0.202192673691584 
1108	 0.202391707264702 
1109	 0.202623749732117 
1110	 0.202863368450317 
1111	 0.203069501195327 
1112	 0.20326867926757 
1113	 0.203459089256222 
1114	 0.203619748917011 
1115	 0.203797206423577 
1116	 0.203986665940363 
1117	 0.204169794791567 
1118	 0.204351597113003 
1119	 0.204511858918111 
1120	 0.204708816406022 
1121	 0.20491359525179 
1122	 0.205097036552131 
1123	 0.205288085635382 
1124	 0.205468010716734 
1125	 0.205627345430467 
1126	 0.205800416978142 
1127	 0.205980310680143 
1128	 0.206151762559047 
1129	 0.206328127225964 
1130	 0.206483656930985 
1131	 0.206631600762861 
1132	 0.206776576022861 
1133	 0.206893969107689 
1134	 0.207033666742333 
1135	 0.207180137287077 
1136	 0.207323527864513 
1137	 0.207502113716857 
1138	 0.207674394936782 
1139	 0.207815551136495 
1140	 0.207946802540326 
1141	 0.208070005169775 
1142	 0.208159455012957 
1143	 0.20826998557944 
1144	 0.208392025341942 
1145	 0.208506130175339 
1146	 0.208620510756733 
1147	 0.208726563401955 
1148	 0.208814020177575 
1149	 0.208922889989344 
1150	 0.209045140930757 
1151	 0.209158546825616 
1152	 0.209262989435012 
1153	 0.209376456515247 
1154	 0.209486717222786 
1155	 0.209581917310703 
1156	 0.209686066877617 
1157	 0.209804016315713 
1158	 0.209913119095253 
1159	 0.210014810985161 
1160	 0.210116985688482 
1161	 0.210218093348367 
1162	 0.210321431490189 
1163	 0.210412595965344 
1164	 0.210522905622547 
1165	 0.210641893580096 
1166	 0.210771391401282 
1167	 0.21092798862434 
1168	 0.211071953509464 
1169	 0.21118985758772 
1170	 0.21129926953929 
1171	 0.211402883909194 
1172	 0.21147562910161 
1173	 0.21156689307209 
1174	 0.211668496853131 
1175	 0.211765369160454 
1176	 0.211856858662008 
1177	 0.211951567061543 
1178	 0.212050720788181 
1179	 0.212145996693934 
1180	 0.212242442195813 
1181	 0.212335124933511 
1182	 0.212431311535897 
1183	 0.21251396094876 
1184	 0.212596454829749 
1185	 0.212670056859552 
1186	 0.212756015962238 
1187	 0.21284254571041 
1188	 0.212931485179091 
1189	 0.213029539457288 
1190	 0.213122007595166 
1191	 0.213216103362857 
1192	 0.213301663331799 
1193	 0.213378715032973 
1194	 0.213462710868187 
1195	 0.213555655347981 
1196	 0.213629814818014 
1197	 0.213693553700424 
1198	 0.213763888591942 
1199	 0.213830398743123 
1200	 0.213876547126337 
1201	 0.213946968602294 
1202	 0.214031039934828 
1203	 0.214116880753225 
1204	 0.214212185023686 
1205	 0.214297983934517 
1206	 0.214395583871398 
1207	 0.21447305225519 
1208	 0.214528625366739 
1209	 0.214597864227514 
1210	 0.214669068024691 
1211	 0.214733449600884 
1212	 0.214797409369904 
1213	 0.214863413457998 
1214	 0.214921917235779 
1215	 0.214983380586185 
1216	 0.215047450434149 
1217	 0.215120229882879 
1218	 0.215184497301732 
1219	 0.215252381578539 
1220	 0.215301057379984 
1221	 0.215331991108815 
1222	 0.215380978204197 
1223	 0.215424291915793 
1224	 0.215472241168442 
1225	 0.215534712110417 
1226	 0.215592901935268 
1227	 0.215639267469097 
1228	 0.215698140941116 
1229	 0.215772758595661 
1230	 0.215839169841366 
1231	 0.215915763398237 
1232	 0.215977001584843 
1233	 0.216029824782881 
1234	 0.216070929841312 
1235	 0.216119901579689 
1236	 0.216158495343445 
1237	 0.21620753437987 
1238	 0.216272463658397 
1239	 0.216317570345651 
1240	 0.216351801441281 
1241	 0.216392894414369 
1242	 0.216433597777732 
1243	 0.216465011909355 
1244	 0.21648814244729 
1245	 0.216522562443413 
1246	 0.216547052567075 
1247	 0.216584395011649 
1248	 0.216635442549201 
1249	 0.216701290227504 
1250	 0.216744952069944 
1251	 0.216779332094696 
1252	 0.216821025301966 
1253	 0.21686107909471 
1254	 0.216889479533544 
1255	 0.216920394292992 
1256	 0.21694276585502 
1257	 0.216941339742696 
1258	 0.216958990915407 
1259	 0.216987426789368 
1260	 0.217009021660081 
1261	 0.217032764747948 
1262	 0.217054453941699 
1263	 0.217073737458015 
1264	 0.217092111051213 
1265	 0.217110942310443 
1266	 0.217128256974838 
1267	 0.21714769823362 
1268	 0.217151622102395 
1269	 0.217172550705434 
1270	 0.217193317173811 
1271	 0.217224095226091 
1272	 0.217274036130398 
1273	 0.217303005895647 
1274	 0.217323120405374 
1275	 0.217356515960099 
1276	 0.217374116857934 
1277	 0.21742141098821 
1278	 0.217493289462361 
1279	 0.217562967832389 
1280	 0.21765427403619 
1281	 0.217730441006286 
1282	 0.21780443581257 
1283	 0.21787626012552 
1284	 0.21794170914228 
1285	 0.217997965722548 
1286	 0.218080562525788 
1287	 0.218174950078436 
1288	 0.218248658086631 
1289	 0.218321609973757 
1290	 0.218403226632402 
1291	 0.218472276120889 
1292	 0.218549569189561 
1293	 0.218658909902471 
1294	 0.218725976535902 
1295	 0.218762004185064 
1296	 0.218814708430236 
1297	 0.218854320999935 
1298	 0.21890260131231 
1299	 0.218972852974298 
1300	 0.21901872631879 
1301	 0.219044717775995 
1302	 0.219081357533101 
1303	 0.21911753998248 
1304	 0.219143139039395 
1305	 0.219178643868295 
1306	 0.219211875769139 
1307	 0.219226708875453 
1308	 0.219221832983303 
1309	 0.219214420746821 
1310	 0.219189236851641 
1311	 0.219178544872925 
1312	 0.21917246345226 
1313	 0.21915517007628 
1314	 0.219139276888623 
1315	 0.219114026888677 
1316	 0.219074956887939 
1317	 0.219035855836616 
1318	 0.218993104421348 
1319	 0.21895437907382 
1320	 0.218909465044543 
1321	 0.218872746733668 
1322	 0.218852115259113 
1323	 0.218817306445327 
1324	 0.218757762493385 
1325	 0.218698477063168 
1326	 0.218649338295093 
1327	 0.218584249443552 
1328	 0.218527348605866 
1329	 0.218473034242416 
1330	 0.218407262204925 
1331	 0.218320282593028 
1332	 0.21824731917341 
1333	 0.218189713436135 
1334	 0.218107578433471 
1335	 0.218004087727727 
1336	 0.21792479436361 
1337	 0.217834507711333 
1338	 0.217763955835809 
1339	 0.217730947390018 
1340	 0.217672076380158 
1341	 0.217608159283686 
1342	 0.217542592691201 
1343	 0.217474515860022 
1344	 0.217385502111688 
1345	 0.217317156671431 
1346	 0.217254533310004 
1347	 0.217179625627326 
1348	 0.217120367996094 
1349	 0.217031488693892 
1350	 0.216934012435325 
1351	 0.21685777768334 
1352	 0.216780503856735 
1353	 0.216713299114083 
1354	 0.216677448533501 
1355	 0.216607783733584 
1356	 0.216525019058497 
1357	 0.216443685744904 
1358	 0.216330964852903 
1359	 0.216255352021558 
1360	 0.216199613396248 
1361	 0.216141949879331 
1362	 0.216118297103144 
1363	 0.216066625772123 
1364	 0.215998010993203 
1365	 0.215931288211469 
1366	 0.215857707013112 
1367	 0.215769646951875 
1368	 0.215707009086026 
1369	 0.215641753424052 
1370	 0.215561786399464 
1371	 0.215483768703933 
1372	 0.21536992841278 
1373	 0.215221314788177 
1374	 0.215073486938612 
1375	 0.214912427860264 
1376	 0.214734038015655 
1377	 0.214550313990633 
1378	 0.214336919828747 
1379	 0.214093111068286 
1380	 0.213844627467601 
1381	 0.213583137814065 
1382	 0.213302080761224 
1383	 0.213009738617358 
1384	 0.212697993543843 
1385	 0.212378388724564 
1386	 0.212025193404236 
1387	 0.211654779991462 
1388	 0.211254761160937 
1389	 0.210822456239973 
1390	 0.210360324107369 
1391	 0.209895304595198 
1392	 0.209397778171722 
1393	 0.208867411884702 
1394	 0.208305033783464 
1395	 0.207673691053532 
1396	 0.207039878591852 
1397	 0.20642509885726 
1398	 0.205804004988102 
1399	 0.205171057328547 
1400	 0.204548095653779 
1401	 0.203916001713929 
1402	 0.203254507922352 
1403	 0.202619018351372 
1404	 0.201986828762807 
1405	 0.201386701861273 
1406	 0.200795993561347 
1407	 0.200222581715207 
1408	 0.199670728177358 
1409	 0.199144811744667 
1410	 0.198622954370867 
1411	 0.198147058714923 
1412	 0.197706713854051 
1413	 0.197299363497429 
1414	 0.19693763315969 
1415	 0.196572760547989 
1416	 0.196232256465265 
1417	 0.195924169377844 
1418	 0.195607954314806 
1419	 0.195319764080807 
1420	 0.195054297027915 
1421	 0.194806161845591 
1422	 0.194599903474023 
1423	 0.194399005382514 
1424	 0.194182049609893 
1425	 0.1939613708869 
1426	 0.193766020691034 
1427	 0.193548005010555 
1428	 0.19338331558112 
1429	 0.193269884161825 
1430	 0.193146645097144 
1431	 0.193048706865169 
1432	 0.192940799329501 
1433	 0.192827621606453 
1434	 0.192729203501613 
1435	 0.192627606188721 
1436	 0.192547515804584 
1437	 0.192483818117952 
1438	 0.192430468688862 
1439	 0.192395494803729 
1440	 0.192364891241386 
1441	 0.192325138765312 
1442	 0.192299582165881 
1443	 0.192263156087458 
1444	 0.192224350194742 
1445	 0.192211201865954 
1446	 0.192203215161988 
1447	 0.192214093384676 
1448	 0.192224031981051 
1449	 0.192202803582518 
1450	 0.192193503096322 
1451	 0.192186882846393 
1452	 0.192161399389765 
1453	 0.192168881344319 
1454	 0.192208495774426 
1455	 0.192223050414857 
1456	 0.192238209987592 
1457	 0.192254527520886 
1458	 0.192254837440754 
1459	 0.192277721771309 
1460	 0.192308244671083 
1461	 0.192356465449383 
1462	 0.192424807655911 
1463	 0.192487901591642 
1464	 0.192562256561148 
1465	 0.192636326570303 
1466	 0.192707109248579 
1467	 0.192786556352431 
1468	 0.192855571461924 
1469	 0.192963538871503 
1470	 0.193094594696235 
1471	 0.193227252327998 
1472	 0.193409897523739 
1473	 0.193593348689419 
1474	 0.193755745966152 
1475	 0.19394027230211 
1476	 0.194106298107977 
1477	 0.194266243994108 
1478	 0.194448607406712 
1479	 0.194627555008504 
1480	 0.194808530475473 
1481	 0.195002739040261 
1482	 0.195193755755132 
1483	 0.195384065358374 
1484	 0.195572464467898 
1485	 0.195765588269882 
1486	 0.195955131271704 
1487	 0.196137978816649 
1488	 0.196324957774279 
1489	 0.196520750067995 
1490	 0.196701585359685 
1491	 0.196875045594661 
1492	 0.19705327610386 
1493	 0.197219881061745 
1494	 0.197397868012176 
1495	 0.197580244516881 
1496	 0.19776532879041 
1497	 0.197971265957971 
1498	 0.198151189844411 
1499	 0.198319432907147 
1500	 0.198492342937198 
1501	 0.198646623139666 
1502	 0.198805500025964 
1503	 0.198969424447472 
1504	 0.199136688201927 
1505	 0.199299352084299 
1506	 0.199475361168813 
1507	 0.199648678726354 
1508	 0.199811907491371 
1509	 0.19997420782279 
1510	 0.200127978648673 
1511	 0.200268487245536 
1512	 0.200411464459931 
1513	 0.20054746668892 
1514	 0.200675775610977 
1515	 0.200818213380757 
1516	 0.20096951719509 
1517	 0.20111011016419 
1518	 0.201247254197615 
1519	 0.201385256680913 
1520	 0.20152035752538 
1521	 0.201652768901548 
1522	 0.201785022132105 
1523	 0.201914674349661 
1524	 0.202040279264516 
1525	 0.202165430800069 
1526	 0.202288168555913 
1527	 0.202414919055637 
1528	 0.202545969199596 
1529	 0.202662696231825 
1530	 0.202774991368579 
1531	 0.202889721078003 
1532	 0.202993735335206 
1533	 0.203102798992083 
1534	 0.203223915887112 
1535	 0.203331454999972 
1536	 0.203425116103046 
1537	 0.203526396439771 
1538	 0.203622407612451 
1539	 0.203727490319795 
1540	 0.203834745570228 
1541	 0.203953867205145 
1542	 0.204095856004567 
1543	 0.204214957430776 
1544	 0.204336298426844 
1545	 0.204443409135594 
1546	 0.204529610106481 
1547	 0.204616951655061 
1548	 0.204689204828625 
1549	 0.20476892544409 
1550	 0.204843829244814 
1551	 0.204916760447775 
1552	 0.205006897658561 
1553	 0.205095124575511 
1554	 0.205182972045517 
1555	 0.205261713734527 
1556	 0.205318646052981 
1557	 0.205371973775347 
1558	 0.205437462637009 
1559	 0.20550218309765 
1560	 0.205560918636824 
1561	 0.20563168025746 
1562	 0.205682890796555 
1563	 0.20570721315081 
1564	 0.205758423969605 
1565	 0.205815979939617 
1566	 0.205875554723287 
1567	 0.205948819603268 
1568	 0.206010411734083 
1569	 0.20606052889217 
1570	 0.206130850453127 
1571	 0.206219584582795 
1572	 0.206284828817119 
1573	 0.206350469817601 
1574	 0.206410091211631 
1575	 0.206445599922356 
1576	 0.20649547413748 
1577	 0.206568399137722 
1578	 0.206609801286346 
1579	 0.206620041931322 
1580	 0.206660171108554 
1581	 0.20669610693791 
1582	 0.20674492715514 
1583	 0.206832962551368 
1584	 0.206887383242029 
1585	 0.206928071553976 
1586	 0.206963562842319 
1587	 0.206976988263179 
1588	 0.207007023890281 
1589	 0.20705061706616 
1590	 0.207073487936753 
1591	 0.207084672238028 
1592	 0.207106213906466 
1593	 0.207106152784772 
1594	 0.207131646190306 
1595	 0.207192450655335 
1596	 0.207233646438839 
1597	 0.207274616517739 
1598	 0.207313811394052 
1599	 0.207350066235892 
1600	 0.207378057781906 
1601	 0.207397213651349 
1602	 0.207423577687436 
1603	 0.207435630172115 
1604	 0.207463115071562 
1605	 0.207504153639196 
1606	 0.207551142016069 
1607	 0.207612655203227 
1608	 0.207672545073052 
1609	 0.207730067003073 
1610	 0.207768008990411 
1611	 0.207772682693743 
1612	 0.207780663773538 
1613	 0.207795226209118 
1614	 0.207814820072871 
1615	 0.207845357974943 
1616	 0.207870661423752 
1617	 0.207877394592426 
1618	 0.207882948484089 
1619	 0.207905021008344 
1620	 0.207925933846703 
1621	 0.207944102478535 
1622	 0.207976263131608 
1623	 0.207981453292064 
1624	 0.207965162021661 
1625	 0.207966539433008 
1626	 0.207961431657302 
1627	 0.207970393724719 
1628	 0.207994538352344 
1629	 0.208004456614836 
1630	 0.208006708824448 
1631	 0.208030373229241 
1632	 0.208063127537611 
1633	 0.208083653327969 
1634	 0.208119821270742 
1635	 0.208131147469087 
1636	 0.208121645592242 
1637	 0.208113228211099 
1638	 0.208091872985226 
1639	 0.208091643868465 
1640	 0.208090548110384 
1641	 0.208097110341028 
1642	 0.208123855142215 
1643	 0.208138702389853 
1644	 0.20814596862479 
1645	 0.208159135845819 
1646	 0.208181087467776 
1647	 0.208190724648845 
1648	 0.208197891515066 
1649	 0.208196563275366 
1650	 0.208182738684375 
1651	 0.208177151477244 
1652	 0.208169293012416 
1653	 0.208163607363344 
1654	 0.208162376854644 
1655	 0.208157275682619 
1656	 0.208151347939511 
1657	 0.208141472800861 
1658	 0.208131622707768 
1659	 0.208116201523255 
1660	 0.208089078765326 
1661	 0.208075288078634 
1662	 0.208065920363921 
1663	 0.208054205399384 
1664	 0.208052930345832 
1665	 0.208038575784943 
1666	 0.208006899231367 
1667	 0.207995952047018 
1668	 0.207996370293583 
1669	 0.207983800691366 
1670	 0.207972748030047 
1671	 0.207966032842888 
1672	 0.207955012024332 
1673	 0.207938932754272 
1674	 0.207922700759302 
1675	 0.20791884472544 
1676	 0.207916051016928 
1677	 0.207904271240924 
1678	 0.207914418137754 
1679	 0.207892903884758 
1680	 0.207833955789195 
1681	 0.207797586911778 
1682	 0.207755995001515 
1683	 0.207727895756234 
1684	 0.207709060383741 
1685	 0.207695407055827 
1686	 0.207702737309949 
1687	 0.207685265640774 
1688	 0.20765496973376 
1689	 0.207635823921611 
1690	 0.207610542889644 
1691	 0.207585261852267 
1692	 0.207574170501284 
1693	 0.207549446002088 
1694	 0.207500652911707 
1695	 0.207475676795081 
1696	 0.207463517167211 
1697	 0.207447114743766 
1698	 0.207433936642432 
1699	 0.207428942904193 
1700	 0.207436496756798 
1701	 0.207418252088454 
1702	 0.207407476773069 
1703	 0.207369376749571 
1704	 0.207293181216299 
1705	 0.207234978089219 
1706	 0.207165177918984 
1707	 0.207116192343178 
1708	 0.207076868633308 
1709	 0.207039669629551 
1710	 0.20701776125972 
1711	 0.20698883632544 
1712	 0.206973200484268 
1713	 0.206918734190659 
1714	 0.206840682213894 
1715	 0.206777747695371 
1716	 0.206697026258472 
1717	 0.206618858347862 
1718	 0.206545087323058 
1719	 0.206484073019904 
1720	 0.206406648285093 
1721	 0.206366011562247 
1722	 0.206374742107316 
1723	 0.206345922764011 
1724	 0.206320586975034 
1725	 0.206267208377887 
1726	 0.206185532746367 
1727	 0.206119637280548 
1728	 0.20604433479846 
1729	 0.20597657105172 
1730	 0.205920023722195 
1731	 0.205847483751202 
1732	 0.205769857007835 
1733	 0.205685862773604 
1734	 0.20559166716677 
1735	 0.205499385347945 
1736	 0.205400329708602 
1737	 0.205306232117283 
1738	 0.205207263573654 
1739	 0.205128272919443 
1740	 0.205067831308049 
1741	 0.204988555252219 
1742	 0.204915818866059 
1743	 0.204830119619201 
1744	 0.204722844813398 
1745	 0.204622027383632 
1746	 0.20452806822768 
1747	 0.204428215095148 
1748	 0.204323972665384 
1749	 0.204240218045971 
1750	 0.204136667690101 
1751	 0.204033360764198 
1752	 0.203931605961455 
1753	 0.203827441244492 
1754	 0.203716331082953 
1755	 0.203598604867762 
1756	 0.203492982261142 
1757	 0.203384077708009 
1758	 0.203280967571452 
1759	 0.203198070786478 
1760	 0.203132240284693 
1761	 0.203076947687613 
1762	 0.203025158453756 
1763	 0.202962592346354 
1764	 0.202876119640488 
1765	 0.202775271850114 
1766	 0.202656633017798 
1767	 0.2025292210623 
1768	 0.2024309408523 
1769	 0.202357257935889 
1770	 0.202283090588065 
1771	 0.202224801891955 
1772	 0.202158163371851 
1773	 0.202060344747822 
1774	 0.201984589735613 
1775	 0.201918466012356 
1776	 0.20183109455501 
1777	 0.201757062363421 
1778	 0.201689055825962 
1779	 0.201615681401646 
1780	 0.201565565651366 
1781	 0.201532724044125 
1782	 0.201506855764468 
1783	 0.201472251722583 
1784	 0.201446049751118 
1785	 0.201440898667051 
1786	 0.201411189491513 
1787	 0.201383170436838 
1788	 0.201344814234455 
1789	 0.20127093167645 
1790	 0.201209513498412 
1791	 0.201151189473259 
1792	 0.201094093746242 
1793	 0.201034129943946 
1794	 0.200992548401722 
1795	 0.200951409310702 
1796	 0.200933588954013 
1797	 0.200956588158865 
1798	 0.200939855200574 
1799	 0.200918905214561 
1800	 0.200892553016193 
1801	 0.19617862518364 
1802	 0.196359431116732 
1803	 0.196556534147034 
1804	 0.196760322198454 
1805	 0.196974867763065 
1806	 0.197208701385171 
1807	 0.197424647272662 
1808	 0.197604718194599 
1809	 0.197788850518456 
1810	 0.197929480950251 
1811	 0.198021535798128 
1812	 0.19810211543027 
1813	 0.198197826795597 
1814	 0.19823041940332 
1815	 0.198252221269249 
1816	 0.198296488427719 
1817	 0.198328247180501 
1818	 0.198335881187133 
1819	 0.19837047849592 
1820	 0.198426708122334 
1821	 0.198455533129189 
1822	 0.198477326340049 
1823	 0.198512811703493 
1824	 0.198540064612845 
1825	 0.198557723328702 
1826	 0.198583060900929 
1827	 0.198601336340477 
1828	 0.198604034694488 
1829	 0.198581573051108 
1830	 0.198571360320817 
1831	 0.198559000796295 
1832	 0.198546298898956 
1833	 0.198536077164545 
1834	 0.198518657289655 
1835	 0.198474582290865 
1836	 0.198411240086255 
1837	 0.19835096730097 
1838	 0.198308325237471 
1839	 0.198268902628881 
1840	 0.19824823119303 
1841	 0.198224940617228 
1842	 0.198173478335628 
1843	 0.198112947242618 
1844	 0.198027278754679 
1845	 0.197931829893337 
1846	 0.197859747103111 
1847	 0.197767832009663 
1848	 0.197681146162592 
1849	 0.197601067985796 
1850	 0.197511081908522 
1851	 0.197412411849374 
1852	 0.197307979134107 
1853	 0.197220899187444 
1854	 0.197133216405128 
1855	 0.196995169882209 
1856	 0.196838963108316 
1857	 0.19662355204601 
1858	 0.196346258886256 
1859	 0.196092434435474 
1860	 0.195820086988399 
1861	 0.195537513738503 
1862	 0.195223796657549 
1863	 0.194899849609567 
1864	 0.194554811897282 
1865	 0.194158973292207 
1866	 0.193720481841058 
1867	 0.193251433862106 
1868	 0.192712006825267 
1869	 0.192134167743554 
1870	 0.191536037260961 
1871	 0.190890596352226 
1872	 0.190209080111739 
1873	 0.189498446927418 
1874	 0.188742270557406 
1875	 0.187933544052432 
1876	 0.18707396413048 
1877	 0.186132813916535 
1878	 0.185112794471718 
1879	 0.184036112275886 
1880	 0.182890255641253 
1881	 0.181668047160913 
1882	 0.180394253703816 
1883	 0.179066857991333 
1884	 0.17764774264061 
1885	 0.176169306626272 
1886	 0.174639433138581 
1887	 0.173024893712063 
1888	 0.171351004488236 
1889	 0.169594880166692 
1890	 0.167787646413419 
1891	 0.165999134604487 
1892	 0.164150366130771 
1893	 0.162333359715486 
1894	 0.160522613282628 
1895	 0.158748361346633 
1896	 0.156929438869938 
1897	 0.155184189467077 
1898	 0.153463491049179 
1899	 0.151743173161732 
1900	 0.150130818665869 
1901	 0.148556692598013 
1902	 0.147068424844545 
1903	 0.145674495352715 
1904	 0.144350958618075 
1905	 0.143087706428018 
1906	 0.141918911069525 
1907	 0.140827431541709 
1908	 0.139785936756472 
1909	 0.138828424295113 
1910	 0.137918708257215 
1911	 0.137081239126738 
1912	 0.136311057922374 
1913	 0.135582492319905 
1914	 0.13491779624477 
1915	 0.134284050088066 
1916	 0.133687177994797 
1917	 0.133132731791579 
1918	 0.132656160818997 
1919	 0.132237205312328 
1920	 0.131855179496696 
1921	 0.131506553444818 
1922	 0.131157994395829 
1923	 0.130825068376086 
1924	 0.130556362224936 
1925	 0.13033873185202 
1926	 0.13015183197163 
1927	 0.13001797198589 
1928	 0.129909669672532 
1929	 0.129800611849111 
1930	 0.129739759985904 
1931	 0.129704069809466 
1932	 0.129696217607163 
1933	 0.129728352323062 
1934	 0.12975786690275 
1935	 0.129815931740247 
1936	 0.129889473773199 
1937	 0.129988774628238 
1938	 0.130125096081061 
1939	 0.130266464127292 
1940	 0.130421934854711 
1941	 0.130588227765723 
1942	 0.130789054050904 
1943	 0.130999931751827 
1944	 0.131213398867969 
1945	 0.131452756453384 
1946	 0.131698875410695 
1947	 0.131938037853609 
1948	 0.132201458781525 
1949	 0.132494946639597 
1950	 0.132789386555103 
1951	 0.13308307906866 
1952	 0.133402601414903 
1953	 0.133742054299 
1954	 0.134100138744141 
1955	 0.134463340652161 
1956	 0.134817416502492 
1957	 0.135184885279682 
1958	 0.135556944386225 
1959	 0.135922816779138 
1960	 0.136285969779407 
1961	 0.136676945614324 
1962	 0.137069806744807 
1963	 0.137475972650956 
1964	 0.137913706410055 
1965	 0.138351939974959 
1966	 0.138773448644103 
1967	 0.139188991249674 
1968	 0.139616310942247 
1969	 0.140050813780793 
1970	 0.140472978517342 
1971	 0.140895592487105 
1972	 0.141324502177807 
1973	 0.141744600410067 
1974	 0.142170702134853 
1975	 0.142606235107385 
1976	 0.143039680134682 
1977	 0.143478372474793 
1978	 0.143920248398694 
1979	 0.144378214382283 
1980	 0.14484007297478 
1981	 0.145283021499749 
1982	 0.145711811399736 
1983	 0.146152519588229 
1984	 0.146580568768085 
1985	 0.147022744639383 
1986	 0.147482840727564 
1987	 0.147935128976682 
1988	 0.148384702217378 
1989	 0.14884313619668 
1990	 0.149300153402484 
1991	 0.149735714433214 
1992	 0.15018017044512 
1993	 0.150629287085182 
1994	 0.151060623933167 
1995	 0.15148582704388 
1996	 0.151909034260652 
1997	 0.152308456733733 
1998	 0.152728633157354 
1999	 0.153162275440217 
2000	 0.153588870350196 
2001	 0.154021303024293 
2002	 0.154449414727421 
2003	 0.154875808783521 
2004	 0.155307582522483 
2005	 0.155723906543806 
2006	 0.156135794737473 
2007	 0.156546864233114 
2008	 0.156946766560976 
2009	 0.157344077117951 
2010	 0.157741848144929 
2011	 0.15813909683491 
2012	 0.158534321015196 
2013	 0.158920954406598 
2014	 0.159308253051995 
2015	 0.159691064634137 
2016	 0.160049621235335 
2017	 0.160395227757438 
2018	 0.160767094279459 
2019	 0.1611448143176 
2020	 0.161522152550826 
2021	 0.161933635886811 
2022	 0.162304771114243 
2023	 0.162643385975108 
2024	 0.163002151481333 
2025	 0.16335224272319 
2026	 0.163704153582881 
2027	 0.164071226920158 
2028	 0.164426454090892 
2029	 0.164784332153202 
2030	 0.165137912270075 
2031	 0.165488582102623 
2032	 0.165853364097268 
2033	 0.166188266646115 
2034	 0.166498098840907 
2035	 0.166816977785065 
2036	 0.167119704685055 
2037	 0.167432398714654 
2038	 0.167766163686922 
2039	 0.168073248892401 
2040	 0.168380885064408 
2041	 0.168661834480141 
2042	 0.168903450008512 
2043	 0.169159910137434 
2044	 0.169425953668739 
2045	 0.169678493914701 
2046	 0.169962363098429 
2047	 0.170289951169516 
2048	 0.170577918348284 
2049	 0.170871743879668 
2050	 0.171143541748736 
2051	 0.171375647112936 
2052	 0.171628687470239 
2053	 0.171887203350821 
2054	 0.172136081315158 
2055	 0.172378392205144 
2056	 0.172634422005994 
2057	 0.172883412158922 
2058	 0.173120547504411 
2059	 0.173372607168346 
2060	 0.17364179693296 
2061	 0.173891622969601 
2062	 0.174140161168567 
2063	 0.174378994060843 
2064	 0.174597757665074 
2065	 0.174830639399778 
2066	 0.175070859906246 
2067	 0.175302544935496 
2068	 0.175538790127716 
2069	 0.175763926598171 
2070	 0.175991970688932 
2071	 0.17620829546763 
2072	 0.176435836333668 
2073	 0.176670473045665 
2074	 0.176902833490333 
2075	 0.177140161409249 
2076	 0.177371064154977 
2077	 0.177605678956556 
2078	 0.177826791126022 
2079	 0.178036420685294 
2080	 0.178245863341376 
2081	 0.178442109273547 
2082	 0.178648054518544 
2083	 0.178863244539792 
2084	 0.179063411530349 
2085	 0.179281064079243 
2086	 0.179511829127322 
2087	 0.179728036616495 
2088	 0.179946044702949 
2089	 0.180159684591203 
2090	 0.180362160310929 
2091	 0.180570134396196 
2092	 0.180780612280545 
2093	 0.180991402534445 
2094	 0.181197743747112 
2095	 0.181409254737891 
2096	 0.181641909060923 
2097	 0.181847812471162 
2098	 0.182024629471772 
2099	 0.182228187245633 
2100	 0.182426208368751 
2101	 0.1826132064576 
2102	 0.182802911866987 
2103	 0.183007770442403 
2104	 0.183199367160706 
2105	 0.183364401245234 
2106	 0.18355810814419 
2107	 0.183771255996875 
2108	 0.183974091796842 
2109	 0.184187644520297 
2110	 0.184391069549082 
2111	 0.184580928910594 
2112	 0.184779549421749 
2113	 0.184973338852354 
2114	 0.185185124368781 
2115	 0.185376872099094 
2116	 0.185568809616736 
2117	 0.185751354262854 
2118	 0.185912889870119 
2119	 0.186094675945768 
2120	 0.186284865340524 
2121	 0.186471203542083 
2122	 0.186664609423002 
2123	 0.186852383622509 
2124	 0.187053037227027 
2125	 0.187220355075056 
2126	 0.187379957097564 
2127	 0.187518375181569 
2128	 0.187600933543992 
2129	 0.187713843993241 
2130	 0.187830962735017 
2131	 0.187951676898832 
2132	 0.18806894146742 
2133	 0.188213656393857 
2134	 0.188308883047253 
2135	 0.188371667903581 
2136	 0.18844790688858 
2137	 0.188516605564016 
2138	 0.18856683429808 
2139	 0.18860906755995 
2140	 0.188650259220731 
2141	 0.188673105334992 
2142	 0.188693269036885 
2143	 0.18871942557973 
2144	 0.188735537248434 
2145	 0.188736119449026 
2146	 0.188732494430949 
2147	 0.188722749155064 
2148	 0.188717130289162 
2149	 0.188698824586756 
2150	 0.188667349074702 
2151	 0.188639001072455 
2152	 0.1886200162656 
2153	 0.188567778872865 
2154	 0.188493211208684 
2155	 0.188427795177769 
2156	 0.188350529191591 
2157	 0.188263484075267 
2158	 0.188176418714017 
2159	 0.188084276928306 
2160	 0.187977536098097 
2161	 0.187865795090026 
2162	 0.187752962168274 
2163	 0.1876393834477 
2164	 0.18751940815829 
2165	 0.187384582684179 
2166	 0.187261180826574 
2167	 0.187142787228723 
2168	 0.187025266378624 
2169	 0.18690946686067 
2170	 0.186788407546911 
2171	 0.186677972723126 
2172	 0.186547972477072 
2173	 0.186390599228505 
2174	 0.18626107904014 
2175	 0.186141037210183 
2176	 0.186009918569468 
2177	 0.185895477383865 
2178	 0.185763243804597 
2179	 0.185604312444346 
2180	 0.185459239461728 
2181	 0.185328398997369 
2182	 0.185179467501798 
2183	 0.185012882482013 
2184	 0.184857930379622 
2185	 0.184709163356756 
2186	 0.184545526265908 
2187	 0.184414147520191 
2188	 0.18431437457596 
2189	 0.184192525627857 
2190	 0.184068663354335 
2191	 0.183954914301123 
2192	 0.18383685806892 
2193	 0.1837349229151 
2194	 0.183650065696063 
2195	 0.183561445901416 
2196	 0.183477570435558 
2197	 0.183395274160941 
2198	 0.183305534057078 
2199	 0.183236832902889 
2200	 0.183182868489569 
2201	 0.183130524818239 
2202	 0.183086815975672 
2203	 0.183062035973795 
2204	 0.183025385562744 
2205	 0.18298086576948 
2206	 0.182954886899152 
2207	 0.182931327748304 
2208	 0.182923183313107 
2209	 0.18293303090898 
2210	 0.182941374077678 
2211	 0.182966932183405 
2212	 0.18297730123349 
2213	 0.182968958092417 
2214	 0.182993354104436 
2215	 0.183031034537972 
2216	 0.183062247376337 
2217	 0.183111592001281 
2218	 0.183160602914548 
2219	 0.183207482070964 
2220	 0.183248061951143 
2221	 0.183303750889716 
2222	 0.183338021616912 
2223	 0.183374747666021 
2224	 0.183423662243367 
2225	 0.183440630254119 
2226	 0.183463342401031 
2227	 0.18345027158736 
2228	 0.183380078103092 
2229	 0.183363189681979 
2230	 0.183351801207977 
2231	 0.183351837673285 
2232	 0.18337231800866 
2233	 0.18339716758725 
2234	 0.183450942214557 
2235	 0.183456977160614 
2236	 0.183455005960084 
2237	 0.183442053387842 
2238	 0.183372939093576 
2239	 0.183342039883086 
2240	 0.183320205203278 
2241	 0.183318134136123 
2242	 0.183358300559813 
2243	 0.183363627824828 
2244	 0.183373476890348 
2245	 0.183370472042962 
2246	 0.183350737592748 
2247	 0.183295046946582 
2248	 0.183226617653886 
2249	 0.183140102266114 
2250	 0.183064773775368 
2251	 0.182952339583909 
2252	 0.182888766275496 
2253	 0.182857825439029 
2254	 0.182815689659947 
2255	 0.182785394733982 
2256	 0.182753648690268 
2257	 0.182730685150908 
2258	 0.182698312993915 
2259	 0.182658976143658 
2260	 0.182627751659298 
2261	 0.182595875658312 
2262	 0.182559148293871 
2263	 0.1825376483744 
2264	 0.182496309696176 
2265	 0.182409082709828 
2266	 0.182373453082294 
2267	 0.182359603377251 
2268	 0.182344151226802 
2269	 0.182350093144631 
2270	 0.182379112124762 
2271	 0.18239654107653 
2272	 0.182411399212542 
2273	 0.182410205798897 
2274	 0.18239816436175 
2275	 0.182376680573369 
2276	 0.182319281013857 
2277	 0.182288980776998 
2278	 0.182267585713998 
2279	 0.182246915848549 
2280	 0.182235986507675 
2281	 0.18220788740449 
2282	 0.182162290471596 
2283	 0.182147011197673 
2284	 0.182125822369111 
2285	 0.182129527371864 
2286	 0.182201951595803 
2287	 0.18220470820448 
2288	 0.182170594402983 
2289	 0.182152474085947 
2290	 0.182098990500037 
2291	 0.182066963933635 
2292	 0.182066531832224 
2293	 0.182048413271666 
2294	 0.182030606592231 
2295	 0.181996304507465 
2296	 0.181963534354273 
2297	 0.181900229677833 
2298	 0.181793479407782 
2299	 0.181714165679433 
2300	 0.181682952332262 
2301	 0.181661298967429 
2302	 0.181663978470919 
2303	 0.18165494266554 
2304	 0.181560530717946 
2305	 0.181462100297286 
2306	 0.181377781459082 
2307	 0.181273439896614 
2308	 0.181200031408466 
2309	 0.181165884579091 
2310	 0.181087667066714 
2311	 0.181014150857088 
2312	 0.180904698576129 
2313	 0.180732453932298 
2314	 0.180621839818435 
2315	 0.18052677912165 
2316	 0.180422482042948 
2317	 0.180344578709124 
2318	 0.180251839215225 
2319	 0.180138270098374 
2320	 0.180036649433736 
2321	 0.179950661226623 
2322	 0.179859344772118 
2323	 0.179753463644069 
2324	 0.179666368051291 
2325	 0.179601135236628 
2326	 0.179513668209215 
2327	 0.179431855136743 
2328	 0.179317864524187 
2329	 0.179223883709647 
2330	 0.17916122554386 
2331	 0.179101927763467 
2332	 0.179053624931897 
2333	 0.178958031921544 
2334	 0.17886714584891 
2335	 0.178797571047533 
2336	 0.178722796532116 
2337	 0.178680051570166 
2338	 0.178599014832624 
2339	 0.178458418452667 
2340	 0.178331362744898 
2341	 0.178168896302935 
2342	 0.178017000744348 
2343	 0.17790875428414 
2344	 0.177741280322591 
2345	 0.177604844176573 
2346	 0.177486818280669 
2347	 0.17734578035524 
2348	 0.177208171587758 
2349	 0.177063128848933 
2350	 0.176912614348635 
2351	 0.176745100078676 
2352	 0.176541348171524 
2353	 0.176366449142402 
2354	 0.176190457873573 
2355	 0.176013989709888 
2356	 0.175889847136258 
2357	 0.175708667442736 
2358	 0.17546595200496 
2359	 0.175281124164282 
2360	 0.175072630232178 
2361	 0.174891454616175 
2362	 0.174767550939114 
2363	 0.174640388274814 
2364	 0.174562724735243 
2365	 0.174405323450551 
2366	 0.174236071473141 
2367	 0.174005487646178 
2368	 0.173620655121128 
2369	 0.173365591447446 
2370	 0.173140199218284 
2371	 0.172968330232679 
2372	 0.172823661614314 
2373	 0.172670853783766 
2374	 0.172457227837212 
2375	 0.172186846271131 
2376	 0.171967803019189 
2377	 0.171791467527561 
2378	 0.171645176772444 
2379	 0.171507559331192 
2380	 0.17131511319961 
2381	 0.171036882149538 
2382	 0.170733462969549 
2383	 0.170451374014052 
2384	 0.170182825608137 
2385	 0.169954916001338 
2386	 0.169690880100976 
2387	 0.169370134264123 
2388	 0.169087034403321 
2389	 0.168803676725601 
2390	 0.168515428939726 
2391	 0.168262988267727 
2392	 0.167989007280045 
2393	 0.16769252309162 
2394	 0.167461667306785 
2395	 0.167340033777962 
2396	 0.167206786448434 
2397	 0.167050267887839 
2398	 0.166890373644276 
2399	 0.166563428111557 
2400	 0.166261680686781 
2401	 0.166013355927669 
2402	 0.165664632370771 
2403	 0.165452414936579 
2404	 0.165194181684441 
2405	 0.164810644047268 
2406	 0.164524330699958 
2407	 0.164210891394129 
2408	 0.16392344377131 
2409	 0.163714747333083 
2410	 0.163496138776919 
2411	 0.163252666671167 
2412	 0.162984538692728 
2413	 0.162667744604878 
2414	 0.16227930012963 
2415	 0.161971211251619 
2416	 0.161710658570702 
2417	 0.16152671617945 
2418	 0.161232316853135 
2419	 0.160931677024223 
2420	 0.160625120371528 
2421	 0.160236770652078 
2422	 0.159943462335474 
2423	 0.159777909904193 
2424	 0.15945197746034 
2425	 0.159002701004536 
2426	 0.1586595231355 
2427	 0.158335171104935 
2428	 0.157993130766784 
2429	 0.157676224412814 
2430	 0.157367189955789 
2431	 0.156995419211589 
2432	 0.156704215133792 
2433	 0.156543130137006 
2434	 0.156320165525007 
2435	 0.156082631583379 
2436	 0.155801287037157 
2437	 0.155489172726769 
2438	 0.155109133538495 
2439	 0.154639296602567 
2440	 0.154308469135867 
2441	 0.154023116686881 
2442	 0.153745775723559 
2443	 0.153601425517266 
2444	 0.153281921719901 
2445	 0.152800469149516 
2446	 0.152455140899307 
2447	 0.1520546211649 
2448	 0.151766001194364 
2449	 0.151634403934672 
2450	 0.151419480280285 
2451	 0.151273322899468 
2452	 0.151027897042923 
2453	 0.150716676220184 
2454	 0.150433178970827 
2455	 0.150069933759531 
2456	 0.149729848890729 
2457	 0.149368721774071 
2458	 0.149047873631159 
2459	 0.148770613772266 
2460	 0.148516765769181 
2461	 0.148404081684354 
2462	 0.148105990166393 
2463	 0.147647456211174 
2464	 0.147272732824352 
2465	 0.146772063516792 
2466	 0.146425099848524 
2467	 0.146298997412115 
2468	 0.146012261148766 
2469	 0.145693090048703 
2470	 0.145531463299053 
2471	 0.145228681853656 
2472	 0.144978959916275 
2473	 0.144674650218499 
2474	 0.144276687337908 
2475	 0.143804305187905 
2476	 0.143350134927414 
2477	 0.143085327324454 
2478	 0.142821709356468 
2479	 0.142562853421501 
2480	 0.142400670571057 
2481	 0.142183465170634 
2482	 0.141965168826928 
2483	 0.141707761667425 
2484	 0.141410281140932 
2485	 0.14114186801808 
2486	 0.140865368573117 
2487	 0.140555492293427 
2488	 0.140380658513662 
2489	 0.140310234227324 
2490	 0.140141898293237 
2491	 0.140008516096159 
2492	 0.139753470307416 
2493	 0.139408788894793 
2494	 0.139037013517789 
2495	 0.13883879010795 
2496	 0.138885212782396 
2497	 0.138726096672054 
2498	 0.138618038241271 
2499	 0.138573524174237 
2500	 0.138210378205754 
