Wavelength	mm2600009.asd
350	 2.92190014420547E-02 
351	 3.51397065639844E-02 
352	 3.76272337182145E-02 
353	 3.00490911833735E-02 
354	 3.76281685848921E-02 
355	 0.040131706606465 
356	 3.56397020191008E-02 
357	 2.97545199182689E-02 
358	 3.66123898160473E-02 
359	 3.90794567356219E-02 
360	 3.56664087008804E-02 
361	 0.035311895577597 
362	 3.85070518675956E-02 
363	 3.91917021011058E-02 
364	 3.59342550720377E-02 
365	 3.52935186224038E-02 
366	 3.80948581831116E-02 
367	 4.06048509459388E-02 
368	 3.96238959113131E-02 
369	 3.92380579904588E-02 
370	 0.039757126461191 
371	 4.03337868252531E-02 
372	 3.96537671950421E-02 
373	 3.98202504680835E-02 
374	 4.10208715580951E-02 
375	 4.30730879869924E-02 
376	 4.60829363744946E-02 
377	 4.27884050704827E-02 
378	 3.89961137149873E-02 
379	 4.14073321453534E-02 
380	 4.23291907239288E-02 
381	 4.26461124231132E-02 
382	 4.38715725667623E-02 
383	 4.71904038732255E-02 
384	 4.57922316508895E-02 
385	 4.33908817225092E-02 
386	 0.04332676964018 
387	 4.51875574303127E-02 
388	 4.89836552016775E-02 
389	 5.01256565215401E-02 
390	 4.55715370396936E-02 
391	 4.58669895156002E-02 
392	 4.74907753258195E-02 
393	 4.86696965490741E-02 
394	 4.96924551075807E-02 
395	 5.05208044362368E-02 
396	 5.11722316248856E-02 
397	 5.15571559307477E-02 
398	 5.12180576904785E-02 
399	 5.14513510951643E-02 
400	 5.25841562041584E-02 
401	 5.41554641567349E-02 
402	 5.38119974545964E-02 
403	 5.39404468323209E-02 
404	 5.47513542164033E-02 
405	 5.41169849274363E-02 
406	 5.52926068094227E-02 
407	 5.65360723997569E-02 
408	 5.62951138072575E-02 
409	 5.59987075871586E-02 
410	 5.51457087542017E-02 
411	 0.054796188670882 
412	 5.61891458160882E-02 
413	 5.67217533125767E-02 
414	 5.66051598313437E-02 
415	 5.62700634098766E-02 
416	 5.60324745111343E-02 
417	 5.61579068295253E-02 
418	 5.67586341726687E-02 
419	 5.76110093661019E-02 
420	 5.76723270866955E-02 
421	 5.72744955117663E-02 
422	 0.056868763021807 
423	 5.68862394951063E-02 
424	 5.68448503459034E-02 
425	 5.67785841959927E-02 
426	 5.67548113368557E-02 
427	 5.67830286806007E-02 
428	 5.67918843024495E-02 
429	 0.05659153318435 
430	 5.61602927882629E-02 
431	 5.64693179520776E-02 
432	 5.66058225931796E-02 
433	 5.64830615599454E-02 
434	 5.68468988082165E-02 
435	 5.69853264589288E-02 
436	 5.68197525047438E-02 
437	 5.64924774994311E-02 
438	 5.63306296601016E-02 
439	 5.64337780132006E-02 
440	 5.67054076142196E-02 
441	 5.69411269672889E-02 
442	 5.70348830831136E-02 
443	 5.71161552721833E-02 
444	 5.72174340265646E-02 
445	 5.71773706252224E-02 
446	 0.057286338144027 
447	 5.76292235622322E-02 
448	 5.80646620640722E-02 
449	 5.77866074671212E-02 
450	 5.77236636077404E-02 
451	 5.80549568034806E-02 
452	 5.82714740952775E-02 
453	 5.81569595978158E-02 
454	 5.78755196028146E-02 
455	 5.76561757469625E-02 
456	 5.76848341268065E-02 
457	 5.78427190365949E-02 
458	 0.057940458679178 
459	 0.0578392263026 
460	 5.80714468614157E-02 
461	 5.81045014185582E-02 
462	 5.79375106074866E-02 
463	 5.84488724643557E-02 
464	 5.85251895574958E-02 
465	 5.83406256534782E-02 
466	 5.83240446058894E-02 
467	 5.83764134315901E-02 
468	 5.84117354903493E-02 
469	 0.058367638509496 
470	 5.82226901212195E-02 
471	 5.82288951139718E-02 
472	 5.83740515110807E-02 
473	 5.85110583324176E-02 
474	 5.82507064596991E-02 
475	 5.82573115414476E-02 
476	 5.84097519654543E-02 
477	 5.83182996678243E-02 
478	 5.84114675866032E-02 
479	 5.85006635366014E-02 
480	 5.85169539073878E-02 
481	 5.86322033715038E-02 
482	 5.85872859060602E-02 
483	 5.85462215824706E-02 
484	 5.86930389283174E-02 
485	 5.88182270159551E-02 
486	 5.88269798148183E-02 
487	 5.86979412650776E-02 
488	 0.058490103526031 
489	 5.85674844866832E-02 
490	 5.86963255278547E-02 
491	 5.86475021615952E-02 
492	 5.84555498732172E-02 
493	 5.82980053344736E-02 
494	 5.83422472262824E-02 
495	 5.86635171639056E-02 
496	 5.87887806101607E-02 
497	 5.87591504724698E-02 
498	 5.86981382286769E-02 
499	 5.87676747559918E-02 
500	 5.87856563820903E-02 
501	 5.87308773294637E-02 
502	 5.86408915022615E-02 
503	 5.85568804862543E-02 
504	 5.86569504448625E-02 
505	 5.88024475142691E-02 
506	 5.86010940368998E-02 
507	 0.058623024949033 
508	 5.87600537974714E-02 
509	 5.88166064685974E-02 
510	 5.87129032251478E-02 
511	 5.87296883398357E-02 
512	 5.88201428133326E-02 
513	 5.87822190376676E-02 
514	 5.87562935667162E-02 
515	 5.87452745712214E-02 
516	 5.87514487288779E-02 
517	 5.88061256873744E-02 
518	 5.88586081165181E-02 
519	 5.88518862131964E-02 
520	 5.87813976782171E-02 
521	 5.89196375327857E-02 
522	 5.89673426031652E-02 
523	 5.88629635995422E-02 
524	 5.88227583124209E-02 
525	 0.058863881698085 
526	 5.88812105488136E-02 
527	 5.88166298270743E-02 
528	 0.058863456612991 
529	 5.89020653956846E-02 
530	 5.88916730422307E-02 
531	 5.88545060524725E-02 
532	 5.88875343125091E-02 
533	 5.89712305755055E-02 
534	 5.90703974169431E-02 
535	 5.91685172088455E-02 
536	 5.91623143167815E-02 
537	 5.91736530308869E-02 
538	 5.93493005682092E-02 
539	 5.93394374613637E-02 
540	 5.93133677661653E-02 
541	 5.93706230638374E-02 
542	 5.94656659742311E-02 
543	 5.94904716403645E-02 
544	 5.95191679082766E-02 
545	 5.96234333218352E-02 
546	 5.96418688419986E-02 
547	 5.96609945064756E-02 
548	 5.97220683139695E-02 
549	 5.98184196100982E-02 
550	 5.98985089036281E-02 
551	 5.99430952686716E-02 
552	 5.99609837333134E-02 
553	 6.00090944409025E-02 
554	 0.06007107671944 
555	 6.01531740803249E-02 
556	 6.02703068826634E-02 
557	 6.04140129824595E-02 
558	 6.05734741486028E-02 
559	 6.07398926420167E-02 
560	 6.09128307691571E-02 
561	 6.10112955107407E-02 
562	 6.11448863437526E-02 
563	 6.14332952648218E-02 
564	 0.061671798610042 
565	 6.18342610951193E-02 
566	 0.06198945478061 
567	 6.22941385552691E-02 
568	 6.26010315272845E-02 
569	 6.29099865952752E-02 
570	 6.32397805610579E-02 
571	 6.35499940108283E-02 
572	 6.38766937151438E-02 
573	 6.42484588715095E-02 
574	 6.46755429437306E-02 
575	 6.50075363844786E-02 
576	 6.53981645931904E-02 
577	 6.59008084479135E-02 
578	 6.62290553277043E-02 
579	 6.66176617057315E-02 
580	 6.71130675831136E-02 
581	 6.76769739084165E-02 
582	 6.82786049430384E-02 
583	 6.88346765585161E-02 
584	 6.93410257855147E-02 
585	 6.99104603018453E-02 
586	 7.04856262036596E-02 
587	 7.10917678358457E-02 
588	 7.17583716550567E-02 
589	 7.24510196052972E-02 
590	 7.30803894708294E-02 
591	 7.36722788629739E-02 
592	 7.43529125033554E-02 
593	 0.074999536620727 
594	 7.56385164559746E-02 
595	 7.63077048670701E-02 
596	 7.70153065150276E-02 
597	 7.76132167317006E-02 
598	 7.81573289234839E-02 
599	 7.88012024089489E-02 
600	 7.94436890924294E-02 
601	 8.00684185175912E-02 
602	 0.080670065654848 
603	 0.081248800080999 
604	 8.18104112902694E-02 
605	 0.082336907963913 
606	 8.28235510853625E-02 
607	 8.33836549215678E-02 
608	 8.39118841411125E-02 
609	 8.43830150953939E-02 
610	 8.48770451646748E-02 
611	 0.08530381762572 
612	 8.57218566613451E-02 
613	 8.61736300819362E-02 
614	 0.086531548766282 
615	 0.086852802122316 
616	 8.71623113749319E-02 
617	 8.74625637363015E-02 
618	 8.78095546831212E-02 
619	 8.80761062149605E-02 
620	 8.82303085192415E-02 
621	 8.85008204720436E-02 
622	 8.87755737009672E-02 
623	 8.90274669756334E-02 
624	 8.92580075614806E-02 
625	 8.94551663800183E-02 
626	 8.96360446862594E-02 
627	 8.98214955383786E-02 
628	 0.090033689691173 
629	 9.02313150808828E-02 
630	 9.04118824672138E-02 
631	 9.05875499115184E-02 
632	 9.07824473446983E-02 
633	 9.09408788243577E-02 
634	 9.10864304960993E-02 
635	 9.12992884100821E-02 
636	 9.14580826244769E-02 
637	 9.15885042338145E-02 
638	 0.091727868279082 
639	 9.18696192168767E-02 
640	 9.20785752835471E-02 
641	 9.23091707061609E-02 
642	 0.092475491789496 
643	 9.26298194429628E-02 
644	 9.28056019601819E-02 
645	 9.30051095840541E-02 
646	 9.31880773490467E-02 
647	 9.33729955121936E-02 
648	 9.35539516873075E-02 
649	 9.37332448555717E-02 
650	 9.39790095417858E-02 
651	 0.094187333552756 
652	 0.094377318817907 
653	 9.46670044843167E-02 
654	 9.48876254683854E-02 
655	 9.50665112204783E-02 
656	 9.52715434077155E-02 
657	 9.55915505263429E-02 
658	 9.58301158673886E-02 
659	 9.60042471040743E-02 
660	 9.62356851150253E-02 
661	 9.65721881121204E-02 
662	 9.68964230062527E-02 
663	 0.097152326877214 
664	 9.73939216611205E-02 
665	 9.76823858378863E-02 
666	 0.097975320314901 
667	 9.82337759633241E-02 
668	 9.85776673673924E-02 
669	 9.89146005976694E-02 
670	 9.92276911671493E-02 
671	 9.95631770064142E-02 
672	 0.099855115548176 
673	 0.100177688749647 
674	 0.100571202847624 
675	 0.100942299822006 
676	 0.101319796242071 
677	 0.101693456551173 
678	 0.102047688364435 
679	 0.102429393378746 
680	 0.102844403689063 
681	 0.103262490980324 
682	 0.103612304217467 
683	 0.104030911027282 
684	 0.104480863143758 
685	 0.104902806366883 
686	 0.105337621942658 
687	 0.105793138233757 
688	 0.106252666020748 
689	 0.106687760632189 
690	 0.107156656176628 
691	 0.107650133038431 
692	 0.108137851664785 
693	 0.108563166499325 
694	 0.109025888617427 
695	 0.109522301634208 
696	 0.110014466840986 
697	 0.11050428953708 
698	 0.111018029550734 
699	 0.111548322566511 
700	 0.112052016418592 
701	 0.112557500486729 
702	 0.113052064501793 
703	 0.113535441342087 
704	 0.114068366654479 
705	 0.114587871187576 
706	 0.115098279878872 
707	 0.115630635796483 
708	 0.116125656334799 
709	 0.116634950803316 
710	 0.117172865284635 
711	 0.117686268570195 
712	 0.118163644653133 
713	 0.118642204904585 
714	 0.119160001227302 
715	 0.119702863146911 
716	 0.120202234591919 
717	 0.120658548228115 
718	 0.121123749841951 
719	 0.121601718839191 
720	 0.122050709954662 
721	 0.122461133983781 
722	 0.122899392290056 
723	 0.123353692416309 
724	 0.123788304155631 
725	 0.124172366879256 
726	 0.124553494576072 
727	 0.124895161724884 
728	 0.125206555054044 
729	 0.125541130786686 
730	 0.125912543439164 
731	 0.126238091337859 
732	 0.126480724539149 
733	 0.126749420294769 
734	 0.127036355954641 
735	 0.127284243361625 
736	 0.127439726894416 
737	 0.12762543520003 
738	 0.127806616896045 
739	 0.127969536751623 
740	 0.128134820944771 
741	 0.128264791048821 
742	 0.128347901516971 
743	 0.128396723421702 
744	 0.128473932026523 
745	 0.128505687309436 
746	 0.128493943388254 
747	 0.128476442661441 
748	 0.12845695866414 
749	 0.128425639246292 
750	 0.128375951974585 
751	 0.128307666253961 
752	 0.12823301895395 
753	 0.128125785046419 
754	 0.12797852393362 
755	 0.127867218478869 
756	 0.127722261643798 
757	 0.127539918271563 
758	 0.127351706219619 
759	 0.127170580723233 
760	 0.126975031646371 
761	 0.126762138486732 
762	 0.126556039765606 
763	 0.126313643468594 
764	 0.126046077385391 
765	 0.125773518664298 
766	 0.125493484899868 
767	 0.125267159367405 
768	 0.125042216120365 
769	 0.1247280581262 
770	 0.124412923184351 
771	 0.124121650995318 
772	 0.123827671465183 
773	 0.12345500543221 
774	 0.123147190617264 
775	 0.122869898469207 
776	 0.122568465595601 
777	 0.12225208656387 
778	 0.121906342991456 
779	 0.121570310919053 
780	 0.121285152954 
781	 0.120941092391565 
782	 0.120602587756687 
783	 0.120286889570179 
784	 0.119949681358994 
785	 0.119605667768855 
786	 0.119284453083651 
787	 0.118990807345912 
788	 0.118659750831063 
789	 0.118374119834676 
790	 0.118076151011142 
791	 0.1176956419195 
792	 0.117388114650552 
793	 0.117071884800641 
794	 0.116739022445358 
795	 0.11644984593103 
796	 0.116146794087864 
797	 0.11585806046238 
798	 0.115587239877731 
799	 0.115268035398701 
800	 0.114985556950666 
801	 0.114710853653776 
802	 0.114408068093318 
803	 0.114163236698546 
804	 0.113880687325213 
805	 0.113577837539896 
806	 0.113333069475123 
807	 0.113063117448448 
808	 0.112803108836482 
809	 0.112561054896837 
810	 0.112294300027223 
811	 0.112046332709109 
812	 0.111804263588803 
813	 0.111560463450253 
814	 0.111361026484708 
815	 0.111140455596404 
816	 0.110898949500057 
817	 0.110671160807757 
818	 0.110507738725891 
819	 0.110337060904981 
820	 0.110124198257309 
821	 0.109881431927484 
822	 0.109694280412941 
823	 0.109514018849474 
824	 0.109319397889319 
825	 0.10916879552149 
826	 0.109016258985559 
827	 0.108866117051264 
828	 0.108725266096805 
829	 0.10856388510709 
830	 0.108395735143998 
831	 0.108234811730776 
832	 0.10809513369876 
833	 0.107996848607304 
834	 0.10786854038996 
835	 0.107708569013604 
836	 0.107585259980763 
837	 0.107498472117578 
838	 0.107447436192291 
839	 0.107394726153338 
840	 0.107245283827913 
841	 0.107128443241898 
842	 0.107036575953776 
843	 0.10694334134932 
844	 0.106897004808675 
845	 0.10683215208548 
846	 0.106753342547426 
847	 0.106696493523699 
848	 0.10666243750564 
849	 0.106637207388307 
850	 0.106604210403289 
851	 0.106550567410297 
852	 0.106503935419749 
853	 0.106493420681295 
854	 0.106510421997494 
855	 0.106495111212509 
856	 0.106467174022684 
857	 0.106438785230875 
858	 0.106429259397805 
859	 0.106483395041559 
860	 0.106512532349202 
861	 0.106489612995203 
862	 0.106439836473003 
863	 0.106489764344761 
864	 0.106530215516209 
865	 0.106559122881556 
866	 0.106634350613467 
867	 0.106705123442858 
868	 0.106744526441142 
869	 0.106770808099453 
870	 0.106841059163157 
871	 0.106933865757444 
872	 0.107026586613297 
873	 0.107104265869176 
874	 0.107165892035468 
875	 0.107273240545777 
876	 0.107372578853552 
877	 0.107429901241278 
878	 0.10753978359093 
879	 0.107673089761596 
880	 0.10780478632947 
881	 0.107917972109513 
882	 0.108024802714593 
883	 0.108190172137741 
884	 0.10835298409775 
885	 0.108426719214534 
886	 0.108635882187576 
887	 0.108819023960186 
888	 0.108937500381518 
889	 0.109080091946755 
890	 0.109247229634881 
891	 0.10944496698497 
892	 0.109659874883382 
893	 0.109858484743054 
894	 0.110061854664081 
895	 0.110258125327796 
896	 0.110444400930331 
897	 0.110643209381933 
898	 0.110884914533992 
899	 0.111098542146319 
900	 0.111262914144361 
901	 0.111566019053479 
902	 0.111808746462612 
903	 0.11202669013781 
904	 0.112301927193665 
905	 0.112564857170913 
906	 0.112853278084016 
907	 0.11315268863426 
908	 0.11343182278631 
909	 0.113712631449588 
910	 0.114002167942738 
911	 0.114301959237877 
912	 0.114605195527964 
913	 0.114874123090199 
914	 0.115203114711621 
915	 0.115561591942557 
916	 0.115828706260239 
917	 0.116217103349702 
918	 0.116560734087576 
919	 0.116835724688145 
920	 0.117218352546354 
921	 0.11756535030635 
922	 0.117936090078059 
923	 0.118340933045422 
924	 0.118681179621658 
925	 0.119133228041328 
926	 0.11961658429315 
927	 0.120037667405158 
928	 0.120387215023714 
929	 0.120762082308908 
930	 0.121215969559897 
931	 0.121735038194751 
932	 0.122197706694319 
933	 0.122614642008613 
934	 0.123058809045098 
935	 0.123560115520564 
936	 0.123968184000155 
937	 0.124356959018256 
938	 0.124795267500919 
939	 0.125322724971153 
940	 0.125897869568607 
941	 0.126391035883075 
942	 0.126905106220942 
943	 0.127544876858348 
944	 0.128031669326265 
945	 0.12849066329188 
946	 0.128973362524664 
947	 0.129495514374843 
948	 0.130098890213585 
949	 0.13064747089808 
950	 0.131179705869882 
951	 0.131794060761534 
952	 0.132389084054264 
953	 0.132898759273121 
954	 0.133439656022673 
955	 0.134160519348134 
956	 0.13482992797348 
957	 0.135363906093565 
958	 0.135923083510345 
959	 0.136704666829052 
960	 0.137265230118972 
961	 0.137835382190096 
962	 0.138496363547926 
963	 0.139175510181757 
964	 0.139709172136249 
965	 0.140323025294761 
966	 0.14108384060467 
967	 0.141889152609483 
968	 0.142502695356533 
969	 0.142986685081089 
970	 0.143532454000791 
971	 0.144316961551223 
972	 0.145049802788311 
973	 0.145813467826945 
974	 0.146535416293956 
975	 0.147094304033952 
976	 0.147782564437114 
977	 0.148547953856678 
978	 0.149273548003434 
979	 0.149877265302972 
980	 0.150603046252956 
981	 0.1513548482089 
982	 0.152043108270379 
983	 0.152644328640805 
984	 0.153344823964977 
985	 0.154093725248445 
986	 0.154804882051702 
987	 0.155434044558615 
988	 0.15619454769946 
989	 0.156903376591878 
990	 0.157443472770132 
991	 0.157863944914496 
992	 0.158649285859661 
993	 0.15949461374674 
994	 0.160267284438456 
995	 0.16093607678929 
996	 0.161442610771512 
997	 0.162140397522374 
998	 0.16286505620285 
999	 0.163425079155998 
1000	 0.164337866810517 
1001	 0.165380354653238 
1002	 0.165946149989077 
1003	 0.16649189237422 
1004	 0.167072424966641 
1005	 0.167626960105381 
1006	 0.168217988280803 
1007	 0.168868953823562 
1008	 0.169473112906372 
1009	 0.170055701708092 
1010	 0.170646976907634 
1011	 0.171089795721159 
1012	 0.171559836786029 
1013	 0.172131871190715 
1014	 0.172672577105194 
1015	 0.173179404389576 
1016	 0.173714311322181 
1017	 0.174245025089438 
1018	 0.174731909658496 
1019	 0.175171598615688 
1020	 0.175703859903627 
1021	 0.176246710030137 
1022	 0.176715600380518 
1023	 0.177113149693625 
1024	 0.177480119546867 
1025	 0.177893683837147 
1026	 0.178241765282393 
1027	 0.178656235610612 
1028	 0.179181900555893 
1029	 0.179612362295006 
1030	 0.180043622442407 
1031	 0.180453252007378 
1032	 0.180843595058789 
1033	 0.181177737624169 
1034	 0.181573020290455 
1035	 0.181929442357087 
1036	 0.182286332810009 
1037	 0.182677586491061 
1038	 0.182986020754941 
1039	 0.183329564465822 
1040	 0.183754313861334 
1041	 0.18412171927827 
1042	 0.184468246684857 
1043	 0.184805723015091 
1044	 0.185130808307304 
1045	 0.185402144114054 
1046	 0.185708895842767 
1047	 0.186052719548282 
1048	 0.186437113685327 
1049	 0.186804758274588 
1050	 0.187110292025846 
1051	 0.187446650570307 
1052	 0.187739311834712 
1053	 0.188021892133791 
1054	 0.188396695235578 
1055	 0.18877673778204 
1056	 0.189129495276456 
1057	 0.189478981581825 
1058	 0.189841742972439 
1059	 0.190176330006418 
1060	 0.190461336152557 
1061	 0.190795438434926 
1062	 0.191193096730719 
1063	 0.191568248654732 
1064	 0.191911870597334 
1065	 0.192256864632403 
1066	 0.192537121905409 
1067	 0.192805594341581 
1068	 0.193122364687835 
1069	 0.193443699074704 
1070	 0.193763077625265 
1071	 0.194089008824036 
1072	 0.194410640124779 
1073	 0.194743033592001 
1074	 0.195049911398169 
1075	 0.195345140641781 
1076	 0.195625996217352 
1077	 0.19591218549439 
1078	 0.196189228236679 
1079	 0.19648158915934 
1080	 0.196804415325891 
1081	 0.19706570355784 
1082	 0.197291556879009 
1083	 0.197537402345837 
1084	 0.197745347662442 
1085	 0.198004308260326 
1086	 0.198305485468971 
1087	 0.198575908641585 
1088	 0.198854154861848 
1089	 0.199127630758288 
1090	 0.199351272163145 
1091	 0.199593195022605 
1092	 0.199849900957452 
1093	 0.200073053821164 
1094	 0.200298781346091 
1095	 0.200550828778617 
1096	 0.20081155726391 
1097	 0.201048678252209 
1098	 0.201268648770759 
1099	 0.201466031266362 
1100	 0.201688523456981 
1101	 0.201915300621615 
1102	 0.202125501115041 
1103	 0.202342823890386 
1104	 0.202557828132332 
1105	 0.202763498283797 
1106	 0.202930385654713 
1107	 0.203138026670114 
1108	 0.203365263561997 
1109	 0.203565798130922 
1110	 0.203763858828862 
1111	 0.203948778724235 
1112	 0.204118605906847 
1113	 0.20429455725756 
1114	 0.204445674502936 
1115	 0.204638099373172 
1116	 0.204858664070523 
1117	 0.20506368782194 
1118	 0.205280789615463 
1119	 0.205503802256636 
1120	 0.205692357232715 
1121	 0.205873532256845 
1122	 0.206047864587508 
1123	 0.206211439112523 
1124	 0.206396081877096 
1125	 0.206596677799267 
1126	 0.206768147242663 
1127	 0.206940617429043 
1128	 0.20710762669014 
1129	 0.207238615700894 
1130	 0.207401040373586 
1131	 0.20760348912327 
1132	 0.207765332332877 
1133	 0.207914862549498 
1134	 0.208063288869594 
1135	 0.208205029962442 
1136	 0.208311773269889 
1137	 0.208443646073936 
1138	 0.20857808537771 
1139	 0.208687871413444 
1140	 0.208767748128627 
1141	 0.208888201290722 
1142	 0.20901389112497 
1143	 0.209139151266263 
1144	 0.209298577972387 
1145	 0.209427600973812 
1146	 0.209526805384973 
1147	 0.209636942503505 
1148	 0.209749010960292 
1149	 0.209857514544895 
1150	 0.209962005660626 
1151	 0.210079857840036 
1152	 0.210160066831123 
1153	 0.210267592796462 
1154	 0.210378521112389 
1155	 0.21048710632482 
1156	 0.210604932665043 
1157	 0.210750910493669 
1158	 0.210862575349826 
1159	 0.210952952592752 
1160	 0.211062273100013 
1161	 0.211163278328204 
1162	 0.211276467366533 
1163	 0.211418181742029 
1164	 0.211535352201683 
1165	 0.211638086511798 
1166	 0.211747011265685 
1167	 0.211856361179638 
1168	 0.211953688712641 
1169	 0.212069590085597 
1170	 0.212207562128552 
1171	 0.212321279951418 
1172	 0.212435173060053 
1173	 0.212538463639974 
1174	 0.212622915176291 
1175	 0.212715503116921 
1176	 0.21280385723051 
1177	 0.212896869202963 
1178	 0.212998760422746 
1179	 0.213092289503871 
1180	 0.213178416049362 
1181	 0.213271171219797 
1182	 0.213365568003396 
1183	 0.213456701937674 
1184	 0.213546807378233 
1185	 0.213645300402454 
1186	 0.213729003808523 
1187	 0.213798531618163 
1188	 0.213879457395985 
1189	 0.213951105312424 
1190	 0.214043344806644 
1191	 0.214164075502073 
1192	 0.214254062394888 
1193	 0.214334341060925 
1194	 0.214422675039653 
1195	 0.214494564698815 
1196	 0.214574898943416 
1197	 0.214683379261402 
1198	 0.21476973131039 
1199	 0.214845863802019 
1200	 0.214904203569835 
1201	 0.214979064709376 
1202	 0.215046760319392 
1203	 0.215125691567149 
1204	 0.215227849985297 
1205	 0.21530029476349 
1206	 0.215354365746084 
1207	 0.215423214930562 
1208	 0.215486156443458 
1209	 0.215550886655726 
1210	 0.215630569328653 
1211	 0.215698948569931 
1212	 0.215750663181588 
1213	 0.215812714576949 
1214	 0.215884834351924 
1215	 0.215947742983132 
1216	 0.216008162141282 
1217	 0.216069527823695 
1218	 0.216126536763314 
1219	 0.216174492898467 
1220	 0.21622843728408 
1221	 0.216277953426277 
1222	 0.216342387045733 
1223	 0.216421050693591 
1224	 0.216485011114189 
1225	 0.216556245895882 
1226	 0.216617743469031 
1227	 0.216661588363016 
1228	 0.216711623305382 
1229	 0.216758137880087 
1230	 0.216813648234952 
1231	 0.216876469229599 
1232	 0.216935034050825 
1233	 0.216994726675005 
1234	 0.217064373583812 
1235	 0.217117984833598 
1236	 0.217168111138093 
1237	 0.217202662618669 
1238	 0.217207510934369 
1239	 0.217254554174499 
1240	 0.217314756568117 
1241	 0.217363169709317 
1242	 0.217444252827311 
1243	 0.217494846984143 
1244	 0.217502545130985 
1245	 0.217538606229261 
1246	 0.21758329935336 
1247	 0.217627880900105 
1248	 0.217677794078827 
1249	 0.217739477648522 
1250	 0.217784104620426 
1251	 0.217818318017363 
1252	 0.217858979810055 
1253	 0.217897454869156 
1254	 0.217930107577873 
1255	 0.217963025041235 
1256	 0.217993631333694 
1257	 0.218020882656311 
1258	 0.218037039682603 
1259	 0.21804503308251 
1260	 0.218061580587428 
1261	 0.218071971200793 
1262	 0.218081771590369 
1263	 0.218097955712975 
1264	 0.218112748083678 
1265	 0.218115494582551 
1266	 0.218128713472965 
1267	 0.218151173356147 
1268	 0.218180222871017 
1269	 0.218197446114013 
1270	 0.218203505980395 
1271	 0.218234134509739 
1272	 0.218270288939629 
1273	 0.218306851559239 
1274	 0.218362026244358 
1275	 0.218407454517783 
1276	 0.218446463222968 
1277	 0.218486924635311 
1278	 0.218519546385768 
1279	 0.218572080797667 
1280	 0.218641076598838 
1281	 0.218694173815473 
1282	 0.218751098420533 
1283	 0.218815225939232 
1284	 0.218874327194253 
1285	 0.218915932831256 
1286	 0.219011076710588 
1287	 0.219112086383711 
1288	 0.219206475814405 
1289	 0.219320237872643 
1290	 0.219401680942439 
1291	 0.219460629498092 
1292	 0.219534572369531 
1293	 0.219605656713586 
1294	 0.219669211656924 
1295	 0.21973868894365 
1296	 0.21979672194107 
1297	 0.219831934024465 
1298	 0.219880565469326 
1299	 0.219940893392578 
1300	 0.219988571222927 
1301	 0.220031639338204 
1302	 0.22007278716462 
1303	 0.220106112381961 
1304	 0.220144852568137 
1305	 0.22016465860099 
1306	 0.220171929926276 
1307	 0.220165080244825 
1308	 0.220132628508127 
1309	 0.220125338611896 
1310	 0.220120623428575 
1311	 0.220122164610151 
1312	 0.220153031678542 
1313	 0.220139628105964 
1314	 0.220103078255279 
1315	 0.220077360875859 
1316	 0.220028308836684 
1317	 0.219993145272037 
1318	 0.219981474734838 
1319	 0.219949526101976 
1320	 0.219897987526591 
1321	 0.219858725232271 
1322	 0.21982140196431 
1323	 0.219784415665282 
1324	 0.219742720891045 
1325	 0.219700149731171 
1326	 0.219644950388532 
1327	 0.219575987379855 
1328	 0.219497393888713 
1329	 0.219443161003687 
1330	 0.219374944095391 
1331	 0.219298426198 
1332	 0.219224091945526 
1333	 0.219158093127392 
1334	 0.219072628083209 
1335	 0.218963029341857 
1336	 0.218885886143355 
1337	 0.218808460807325 
1338	 0.218743729979091 
1339	 0.218718337902019 
1340	 0.218667884845158 
1341	 0.218615777404861 
1342	 0.218543384388539 
1343	 0.218447588061238 
1344	 0.218356692549726 
1345	 0.218283300404775 
1346	 0.218206124746618 
1347	 0.218139089706325 
1348	 0.218084425442811 
1349	 0.217992994823323 
1350	 0.217900253411859 
1351	 0.217815175055795 
1352	 0.21772579957236 
1353	 0.217642686668072 
1354	 0.217566227989959 
1355	 0.217490895979371 
1356	 0.217422476094006 
1357	 0.21734856375663 
1358	 0.217272469852057 
1359	 0.217197588301475 
1360	 0.217110563720611 
1361	 0.217042263649273 
1362	 0.216991858420143 
1363	 0.216932232722307 
1364	 0.21688092198821 
1365	 0.216824370085863 
1366	 0.216761972062077 
1367	 0.216696342726064 
1368	 0.216632083338556 
1369	 0.216568410308331 
1370	 0.216477551235635 
1371	 0.216363064888268 
1372	 0.216254906001873 
1373	 0.216131636107102 
1374	 0.215990971193138 
1375	 0.215853760253994 
1376	 0.215675972864005 
1377	 0.215465328198405 
1378	 0.215239825360367 
1379	 0.214993465945127 
1380	 0.21472906752972 
1381	 0.214431550316806 
1382	 0.214139997026869 
1383	 0.213844762439409 
1384	 0.213526823393653 
1385	 0.21322832326671 
1386	 0.212873678707802 
1387	 0.212475175452117 
1388	 0.212060277264185 
1389	 0.211619288724966 
1390	 0.211137459595454 
1391	 0.210662230656834 
1392	 0.210143345993179 
1393	 0.209578666469787 
1394	 0.209012426301525 
1395	 0.208395148126634 
1396	 0.207777224227611 
1397	 0.207157349890447 
1398	 0.20652113683695 
1399	 0.205892976783996 
1400	 0.205273328185859 
1401	 0.204634420039564 
1402	 0.203985207099078 
1403	 0.203341665701025 
1404	 0.20266059562651 
1405	 0.202045538658053 
1406	 0.201461703597368 
1407	 0.200890595353184 
1408	 0.20035325974248 
1409	 0.199827594363718 
1410	 0.19930071560365 
1411	 0.198815249186577 
1412	 0.198350189602199 
1413	 0.197929487350881 
1414	 0.197564923338096 
1415	 0.197203795712384 
1416	 0.196874060383399 
1417	 0.196561621774895 
1418	 0.196237788543605 
1419	 0.195942662727533 
1420	 0.195683223162382 
1421	 0.195448282824337 
1422	 0.195240998265001 
1423	 0.195043756481912 
1424	 0.194833453721316 
1425	 0.194618506671515 
1426	 0.19441932220207 
1427	 0.194204073844647 
1428	 0.19403323606174 
1429	 0.193891607159392 
1430	 0.193759800575 
1431	 0.19365908918857 
1432	 0.193552333321514 
1433	 0.193453016890939 
1434	 0.19335868298184 
1435	 0.193254085354333 
1436	 0.19318355114449 
1437	 0.193137594547455 
1438	 0.193093261268183 
1439	 0.19307349832316 
1440	 0.193054562323064 
1441	 0.193014755640022 
1442	 0.192976991224955 
1443	 0.192929240970936 
1444	 0.192878794301093 
1445	 0.192856886263543 
1446	 0.192839741071883 
1447	 0.192847349539158 
1448	 0.192871410989102 
1449	 0.192850490376947 
1450	 0.192827282681659 
1451	 0.192820472060025 
1452	 0.192796966729545 
1453	 0.192800377781465 
1454	 0.192836833806478 
1455	 0.192859468446238 
1456	 0.192876441205532 
1457	 0.192909795767298 
1458	 0.192957498575133 
1459	 0.192997387061591 
1460	 0.193033939305338 
1461	 0.193088780473571 
1462	 0.193148895950449 
1463	 0.193211087419505 
1464	 0.193288324391827 
1465	 0.193366070498836 
1466	 0.193440753123608 
1467	 0.193526101420813 
1468	 0.193608204206724 
1469	 0.193717402369754 
1470	 0.193845075154041 
1471	 0.193971546187895 
1472	 0.194132178935179 
1473	 0.194311578051819 
1474	 0.194491658202914 
1475	 0.19467628431915 
1476	 0.19484969081602 
1477	 0.195034297015102 
1478	 0.195204948500036 
1479	 0.195375671821078 
1480	 0.195580215458707 
1481	 0.195778898045433 
1482	 0.195976674740217 
1483	 0.196195521814303 
1484	 0.196385179104136 
1485	 0.19654783533908 
1486	 0.196733009687434 
1487	 0.196916935605978 
1488	 0.197104710705987 
1489	 0.197308137555936 
1490	 0.197497253148245 
1491	 0.197681683333334 
1492	 0.197861786626667 
1493	 0.198030287501543 
1494	 0.19821002607424 
1495	 0.198389563428086 
1496	 0.198570575706474 
1497	 0.198763415918683 
1498	 0.198946181277271 
1499	 0.199130664379682 
1500	 0.199303480626808 
1501	 0.199462068072118 
1502	 0.199623790178738 
1503	 0.199774482334878 
1504	 0.199932802074963 
1505	 0.200103538530047 
1506	 0.200276638887669 
1507	 0.20045302379841 
1508	 0.200623540725948 
1509	 0.200775085759233 
1510	 0.200928527306154 
1511	 0.201073222312802 
1512	 0.20120350505304 
1513	 0.201346315957941 
1514	 0.201497873920716 
1515	 0.201653432016904 
1516	 0.201809142188602 
1517	 0.201960631004141 
1518	 0.20211197830086 
1519	 0.20225333016005 
1520	 0.202391113550831 
1521	 0.202524552792265 
1522	 0.202643942716926 
1523	 0.202774786000445 
1524	 0.202908720390471 
1525	 0.203042018751982 
1526	 0.203180396094662 
1527	 0.20331423308616 
1528	 0.203447359382761 
1529	 0.203573249377962 
1530	 0.203702917666178 
1531	 0.203816521744618 
1532	 0.203907473570654 
1533	 0.204014889581803 
1534	 0.204120342488852 
1535	 0.204226223439761 
1536	 0.204346305826977 
1537	 0.204457353462964 
1538	 0.204553953747466 
1539	 0.204661602873087 
1540	 0.204778605345292 
1541	 0.204885321967712 
1542	 0.204991250873262 
1543	 0.20509514391786 
1544	 0.20519334311731 
1545	 0.205289137282043 
1546	 0.205386739865931 
1547	 0.205481221240615 
1548	 0.205553344989926 
1549	 0.205629992526979 
1550	 0.205699817542714 
1551	 0.20576192979284 
1552	 0.2058512036345 
1553	 0.205927656712953 
1554	 0.20600756188235 
1555	 0.206109005213374 
1556	 0.206193479971822 
1557	 0.20627656303093 
1558	 0.206348338064472 
1559	 0.206401991272884 
1560	 0.206465007677302 
1561	 0.206523242616501 
1562	 0.206577148705392 
1563	 0.206630399788663 
1564	 0.206690172573393 
1565	 0.206737843105421 
1566	 0.206804137998236 
1567	 0.206896455742687 
1568	 0.20696541814172 
1569	 0.207025332687551 
1570	 0.207090499384883 
1571	 0.20715456670388 
1572	 0.207208939972914 
1573	 0.20726724945932 
1574	 0.207317808181744 
1575	 0.207346867600602 
1576	 0.207390009075878 
1577	 0.207445151918434 
1578	 0.207484398972827 
1579	 0.207509440076737 
1580	 0.207557702487556 
1581	 0.207610255518326 
1582	 0.207657761483838 
1583	 0.207727708538463 
1584	 0.207779081807387 
1585	 0.207803874761922 
1586	 0.207849320921774 
1587	 0.207911810370345 
1588	 0.207953033633471 
1589	 0.207990319857393 
1590	 0.208025303172422 
1591	 0.208044222461464 
1592	 0.208068780142707 
1593	 0.20809852794759 
1594	 0.208125412658516 
1595	 0.208142153333987 
1596	 0.208169975225276 
1597	 0.208205240196924 
1598	 0.208239571427711 
1599	 0.208289919935685 
1600	 0.208321351470784 
1601	 0.208334963098894 
1602	 0.20836052123556 
1603	 0.208374414406116 
1604	 0.20840048491905 
1605	 0.208442163888027 
1606	 0.208484593946177 
1607	 0.208525515764329 
1608	 0.208580391951498 
1609	 0.208655837842324 
1610	 0.208707688928548 
1611	 0.20873879460819 
1612	 0.208770501781267 
1613	 0.208770455103528 
1614	 0.208755662459605 
1615	 0.20875920845797 
1616	 0.20877016038708 
1617	 0.208775379699294 
1618	 0.208785851078831 
1619	 0.208817935309579 
1620	 0.208840743941143 
1621	 0.208852736765945 
1622	 0.208871736591731 
1623	 0.208879939735535 
1624	 0.208864994876533 
1625	 0.208863758031536 
1626	 0.208868679768844 
1627	 0.208878778317186 
1628	 0.208881107255376 
1629	 0.208905544427594 
1630	 0.20895608980197 
1631	 0.208981802251203 
1632	 0.20901083931135 
1633	 0.209023087988481 
1634	 0.20900963092752 
1635	 0.209024128638429 
1636	 0.209050341221869 
1637	 0.209059117456865 
1638	 0.209074596017247 
1639	 0.209078939200301 
1640	 0.209056713288253 
1641	 0.209060434384168 
1642	 0.209080029436927 
1643	 0.209089623161472 
1644	 0.209105320860589 
1645	 0.20910849716114 
1646	 0.209096222866642 
1647	 0.209104102830101 
1648	 0.209119807120157 
1649	 0.209125105391578 
1650	 0.209137305903633 
1651	 0.209143750959107 
1652	 0.209134306084462 
1653	 0.20913854018522 
1654	 0.209158469596906 
1655	 0.209161249792416 
1656	 0.209167110877699 
1657	 0.209148131050018 
1658	 0.209103361574407 
1659	 0.209075864054216 
1660	 0.2090339166135 
1661	 0.20901031359082 
1662	 0.209005549835217 
1663	 0.208994389718735 
1664	 0.20898324708351 
1665	 0.20897614808112 
1666	 0.208974110505082 
1667	 0.208970361911814 
1668	 0.208974694931976 
1669	 0.208963177320222 
1670	 0.208943646283738 
1671	 0.208924362662844 
1672	 0.208893417037937 
1673	 0.208869379084495 
1674	 0.208843467290244 
1675	 0.208829344717822 
1676	 0.208825558503174 
1677	 0.208812964451074 
1678	 0.208815082532636 
1679	 0.208791307632191 
1680	 0.208740885865085 
1681	 0.208707675217358 
1682	 0.208664738510388 
1683	 0.208639516362093 
1684	 0.208623316054761 
1685	 0.208620545018943 
1686	 0.208647158308587 
1687	 0.208638531059097 
1688	 0.20862539788139 
1689	 0.208608755688711 
1690	 0.208561141752728 
1691	 0.208537711590555 
1692	 0.20853820108212 
1693	 0.208517413230698 
1694	 0.208490488787461 
1695	 0.20846011580158 
1696	 0.20841579472172 
1697	 0.20838374154715 
1698	 0.208352787152337 
1699	 0.208325336889476 
1700	 0.208305491440525 
1701	 0.208283890552163 
1702	 0.208268857810986 
1703	 0.208242072206865 
1704	 0.20821689766718 
1705	 0.208174011296231 
1706	 0.2081041293461 
1707	 0.208060172528375 
1708	 0.208019795868947 
1709	 0.207979984401187 
1710	 0.207960504709115 
1711	 0.20792202588399 
1712	 0.207873374709897 
1713	 0.207816902794635 
1714	 0.207746779057376 
1715	 0.207688610936373 
1716	 0.207629561732045 
1717	 0.207567932146295 
1718	 0.207508471920289 
1719	 0.207453618798675 
1720	 0.207391695019089 
1721	 0.207341035161935 
1722	 0.20731279855521 
1723	 0.207261537578965 
1724	 0.207196881401156 
1725	 0.207146354289395 
1726	 0.207096000067494 
1727	 0.207034200773316 
1728	 0.206977284551854 
1729	 0.206913081327083 
1730	 0.206837129935532 
1731	 0.206760428668185 
1732	 0.20668793387928 
1733	 0.206599153589127 
1734	 0.2064881271621 
1735	 0.206401195763726 
1736	 0.206319870245408 
1737	 0.206237907233769 
1738	 0.20617107326406 
1739	 0.20607998849063 
1740	 0.205967137483454 
1741	 0.205882044089291 
1742	 0.205807290781431 
1743	 0.205720374794574 
1744	 0.205643683454965 
1745	 0.205548887987849 
1746	 0.205433465779811 
1747	 0.205308895304495 
1748	 0.205217735558804 
1749	 0.20512477809657 
1750	 0.205011987933806 
1751	 0.204923635733056 
1752	 0.204844040174051 
1753	 0.204752126638757 
1754	 0.204661130512869 
1755	 0.204563990891367 
1756	 0.204454880574502 
1757	 0.204346329152414 
1758	 0.204254826204087 
1759	 0.20417214267545 
1760	 0.204087607596341 
1761	 0.204029701800698 
1762	 0.203979736590685 
1763	 0.203913652504833 
1764	 0.203833408300745 
1765	 0.203736041934802 
1766	 0.203630755108187 
1767	 0.203505317214115 
1768	 0.20340162653826 
1769	 0.203303622062915 
1770	 0.203187538827557 
1771	 0.203120285268355 
1772	 0.20306119352403 
1773	 0.202992812200492 
1774	 0.202935537734886 
1775	 0.202849392437898 
1776	 0.202752164424168 
1777	 0.202675039414864 
1778	 0.202587856551733 
1779	 0.202497449312589 
1780	 0.202434916123069 
1781	 0.202387906653134 
1782	 0.202369158516025 
1783	 0.20237919873657 
1784	 0.2023690600007 
1785	 0.202360659086797 
1786	 0.202321382206153 
1787	 0.202252813080023 
1788	 0.2022030814527 
1789	 0.202139824244471 
1790	 0.202083442726903 
1791	 0.202045829281911 
1792	 0.202008345233937 
1793	 0.201958520029469 
1794	 0.201918468673344 
1795	 0.201890995686413 
1796	 0.201871532859375 
1797	 0.20185181793564 
1798	 0.201839465695327 
1799	 0.201858192636255 
1800	 0.201836713309971 
1801	 0.196945847427641 
1802	 0.1971432834149 
1803	 0.19734898017414 
1804	 0.197571549219525 
1805	 0.197815569429227 
1806	 0.198039557746249 
1807	 0.198246344284598 
1808	 0.198422391430426 
1809	 0.198608100608657 
1810	 0.198731409234282 
1811	 0.198793890462849 
1812	 0.198855797404714 
1813	 0.198922977270986 
1814	 0.198979310283825 
1815	 0.199040163807482 
1816	 0.199081455625417 
1817	 0.199112344803846 
1818	 0.199116066203219 
1819	 0.1991295273738 
1820	 0.199141007275175 
1821	 0.19914479506538 
1822	 0.199164730657864 
1823	 0.199159028904532 
1824	 0.199157764707172 
1825	 0.199193306516741 
1826	 0.199234088091618 
1827	 0.199278983304585 
1828	 0.199300659927106 
1829	 0.199327175021791 
1830	 0.199323494701898 
1831	 0.199288626626549 
1832	 0.199251744574835 
1833	 0.199215826952385 
1834	 0.199194034383756 
1835	 0.199166312639196 
1836	 0.199099180424602 
1837	 0.199061081759637 
1838	 0.199028973058785 
1839	 0.198993388737208 
1840	 0.198963004706523 
1841	 0.198958739631963 
1842	 0.198930323084465 
1843	 0.198869574541311 
1844	 0.198778948038602 
1845	 0.198691033007983 
1846	 0.198586675921444 
1847	 0.198486897182332 
1848	 0.198427519218077 
1849	 0.198354125809264 
1850	 0.198275891812123 
1851	 0.198206025527531 
1852	 0.198124628242993 
1853	 0.197999684753236 
1854	 0.197854288625502 
1855	 0.197682303272537 
1856	 0.197486832683496 
1857	 0.197295766823213 
1858	 0.197082805083681 
1859	 0.196831618461643 
1860	 0.196558706895648 
1861	 0.196262229847038 
1862	 0.195916730408164 
1863	 0.195542888464764 
1864	 0.195169045173531 
1865	 0.19476579892224 
1866	 0.194329012940053 
1867	 0.193868081439228 
1868	 0.193357974028728 
1869	 0.192790834840879 
1870	 0.192181063254138 
1871	 0.191518366611109 
1872	 0.190803305931608 
1873	 0.190054368147146 
1874	 0.189280489528194 
1875	 0.188452639485436 
1876	 0.187590024165335 
1877	 0.186652720455342 
1878	 0.185612911030551 
1879	 0.184502195127885 
1880	 0.1833277534885 
1881	 0.18206131903118 
1882	 0.180769898003872 
1883	 0.179439745350823 
1884	 0.178012601917631 
1885	 0.176543680733297 
1886	 0.174997007373402 
1887	 0.17333749594729 
1888	 0.171634960227163 
1889	 0.16987020934997 
1890	 0.168048311955045 
1891	 0.166238434164172 
1892	 0.164385797425494 
1893	 0.1625492134001 
1894	 0.16070429888388 
1895	 0.158875036455324 
1896	 0.157023270778954 
1897	 0.155244227582245 
1898	 0.153489709614874 
1899	 0.151774720944022 
1900	 0.150159529260005 
1901	 0.148595291208033 
1902	 0.14711222034178 
1903	 0.14571705412379 
1904	 0.144389182930989 
1905	 0.143132662043883 
1906	 0.141949094966917 
1907	 0.140823138601622 
1908	 0.139792963664675 
1909	 0.138829836440416 
1910	 0.137916300248075 
1911	 0.137079322010044 
1912	 0.136285546686794 
1913	 0.135554785984461 
1914	 0.134891113991222 
1915	 0.134264998140135 
1916	 0.133693783950101 
1917	 0.13316666137816 
1918	 0.13268895242486 
1919	 0.132231008009224 
1920	 0.131834126592367 
1921	 0.131491308680219 
1922	 0.131161689406294 
1923	 0.130877429539908 
1924	 0.130623527980074 
1925	 0.130391657809832 
1926	 0.130212649451624 
1927	 0.130073577661129 
1928	 0.129979996383139 
1929	 0.129937854645467 
1930	 0.129904442302088 
1931	 0.129886700744712 
1932	 0.129882948364061 
1933	 0.129886719407731 
1934	 0.129931854449339 
1935	 0.129989544086426 
1936	 0.130074638192956 
1937	 0.130170177372918 
1938	 0.130273217093563 
1939	 0.130404753607249 
1940	 0.130554855674425 
1941	 0.130731199176439 
1942	 0.130952025390413 
1943	 0.131164829275329 
1944	 0.131374277957517 
1945	 0.131616174859416 
1946	 0.131860790976116 
1947	 0.132093517740947 
1948	 0.132368200144617 
1949	 0.13268061427107 
1950	 0.132985117789506 
1951	 0.133297292617112 
1952	 0.13363431303629 
1953	 0.133966951151647 
1954	 0.134315282184882 
1955	 0.134682866074648 
1956	 0.135045955190932 
1957	 0.135415174472421 
1958	 0.135786283652298 
1959	 0.136171591994891 
1960	 0.136560914314717 
1961	 0.136965307130432 
1962	 0.137401624581822 
1963	 0.137816882739269 
1964	 0.138220498568306 
1965	 0.138640397641981 
1966	 0.139071595931988 
1967	 0.139491569975015 
1968	 0.139929207979637 
1969	 0.140393952466132 
1970	 0.140843981825291 
1971	 0.141297712686473 
1972	 0.141741336125891 
1973	 0.142184412246275 
1974	 0.142618085558041 
1975	 0.143033710790488 
1976	 0.143454035042874 
1977	 0.14388960144465 
1978	 0.144340574734205 
1979	 0.14479460731448 
1980	 0.145248199985507 
1981	 0.14569983322029 
1982	 0.146141923255481 
1983	 0.146594114975064 
1984	 0.147063792640345 
1985	 0.147514051495151 
1986	 0.147950530026709 
1987	 0.148398747679208 
1988	 0.14884126268278 
1989	 0.149288416047884 
1990	 0.14974782135338 
1991	 0.150200574616206 
1992	 0.150647366610784 
1993	 0.151082649194946 
1994	 0.151522846031878 
1995	 0.151966036617244 
1996	 0.152404541335505 
1997	 0.152841413458776 
1998	 0.153280068310574 
1999	 0.153711053235814 
2000	 0.154147528631761 
2001	 0.154599242784407 
2002	 0.155033941758103 
2003	 0.155456996473125 
2004	 0.15587899985359 
2005	 0.156287081750999 
2006	 0.156671760732881 
2007	 0.157070296101476 
2008	 0.157461288813365 
2009	 0.157863866890773 
2010	 0.158277901808186 
2011	 0.158685685944675 
2012	 0.15910736800921 
2013	 0.159510659697905 
2014	 0.159918327819249 
2015	 0.160288748153973 
2016	 0.160640850792206 
2017	 0.161007291447798 
2018	 0.161383010792208 
2019	 0.161765405367678 
2020	 0.162137197083282 
2021	 0.162524071951227 
2022	 0.162891640964512 
2023	 0.163236676413067 
2024	 0.16358978973905 
2025	 0.163927891961052 
2026	 0.16428753881699 
2027	 0.164656766101836 
2028	 0.165032288037583 
2029	 0.165402944961814 
2030	 0.165801615438206 
2031	 0.166154692088612 
2032	 0.166477527087817 
2033	 0.166810495872034 
2034	 0.167127413493482 
2035	 0.167450130165303 
2036	 0.167789467499745 
2037	 0.168101565965508 
2038	 0.168402407160982 
2039	 0.168691425822189 
2040	 0.168958219417129 
2041	 0.169216696822372 
2042	 0.169489092428559 
2043	 0.169753186429267 
2044	 0.170046302468623 
2045	 0.17037058082555 
2046	 0.170666748536658 
2047	 0.170975059814535 
2048	 0.171263269742933 
2049	 0.171531152876074 
2050	 0.171796675206122 
2051	 0.172048936939709 
2052	 0.172308060634209 
2053	 0.1725574068987 
2054	 0.172813563479812 
2055	 0.173083722955574 
2056	 0.173351615837586 
2057	 0.173598958066198 
2058	 0.173834800820099 
2059	 0.174072796464924 
2060	 0.174287493354338 
2061	 0.174527645725566 
2062	 0.174784145916358 
2063	 0.175032810853781 
2064	 0.175297284692878 
2065	 0.175540554663724 
2066	 0.175765644846837 
2067	 0.175997477902231 
2068	 0.176218757914009 
2069	 0.176447939484579 
2070	 0.176674655114669 
2071	 0.176906115307777 
2072	 0.177138137430671 
2073	 0.177363808676902 
2074	 0.177599043091764 
2075	 0.177858240258486 
2076	 0.178082618153635 
2077	 0.178282191780866 
2078	 0.178502551969905 
2079	 0.178708622875736 
2080	 0.178928134807284 
2081	 0.179182123778822 
2082	 0.179414114237355 
2083	 0.179637054405057 
2084	 0.179845829815953 
2085	 0.180075840814657 
2086	 0.180314977572982 
2087	 0.180532208618324 
2088	 0.180758669643974 
2089	 0.180962591135643 
2090	 0.1811321215847 
2091	 0.181319048516509 
2092	 0.181498445867225 
2093	 0.181695332362043 
2094	 0.181905313933257 
2095	 0.182108000829249 
2096	 0.182329748907041 
2097	 0.182532809089276 
2098	 0.182714812671619 
2099	 0.182897727260389 
2100	 0.183098443629677 
2101	 0.183304844155203 
2102	 0.183504376754431 
2103	 0.183715630145261 
2104	 0.183920485337958 
2105	 0.184112051158339 
2106	 0.184313601337934 
2107	 0.184529313468968 
2108	 0.184731948129805 
2109	 0.18493252557091 
2110	 0.18512444319331 
2111	 0.185286900828973 
2112	 0.18548379675123 
2113	 0.185704083686442 
2114	 0.185914615241268 
2115	 0.186108658107995 
2116	 0.186318616756129 
2117	 0.186503269941576 
2118	 0.186634256252006 
2119	 0.186827925302076 
2120	 0.187066211084873 
2121	 0.187263442189808 
2122	 0.187478060249058 
2123	 0.187656046464676 
2124	 0.18778490461014 
2125	 0.187933442841971 
2126	 0.188083334096722 
2127	 0.18822410651723 
2128	 0.188369461643493 
2129	 0.188499630080196 
2130	 0.188614388493923 
2131	 0.188718149866763 
2132	 0.188830912441371 
2133	 0.188945563524832 
2134	 0.189040814363154 
2135	 0.189143298604158 
2136	 0.18921197120407 
2137	 0.189239090530877 
2138	 0.189289147584262 
2139	 0.189336381378289 
2140	 0.189376999738895 
2141	 0.189434331508197 
2142	 0.189460489895394 
2143	 0.189476390772419 
2144	 0.18946437819798 
2145	 0.189391691242183 
2146	 0.189360459724101 
2147	 0.189332056350765 
2148	 0.189302575534637 
2149	 0.189283000722908 
2150	 0.189299752751452 
2151	 0.189284341889209 
2152	 0.189253436653257 
2153	 0.189220382050361 
2154	 0.189190963034241 
2155	 0.189141748072017 
2156	 0.189084482625572 
2157	 0.189005976136112 
2158	 0.188901894758257 
2159	 0.188802219514982 
2160	 0.188682769529139 
2161	 0.188569760148993 
2162	 0.188455735387107 
2163	 0.188346995981622 
2164	 0.188238372640856 
2165	 0.18813259298865 
2166	 0.18803102977373 
2167	 0.187947118536818 
2168	 0.187830395363599 
2169	 0.187700358475338 
2170	 0.187572378825169 
2171	 0.187418030501486 
2172	 0.187291754813359 
2173	 0.187186498109432 
2174	 0.187066890721875 
2175	 0.186954830676612 
2176	 0.186828236016048 
2177	 0.186692420407292 
2178	 0.186549149393849 
2179	 0.186376489024553 
2180	 0.18623558739618 
2181	 0.186128775506 
2182	 0.185986874722226 
2183	 0.185836983506937 
2184	 0.185695347036729 
2185	 0.185542938554063 
2186	 0.185349736162656 
2187	 0.185194277898694 
2188	 0.185066613971835 
2189	 0.184923391846049 
2190	 0.184767397294368 
2191	 0.184635292623325 
2192	 0.184509649872291 
2193	 0.184396991904733 
2194	 0.184298011931806 
2195	 0.184213245161641 
2196	 0.184149822598442 
2197	 0.184079381226849 
2198	 0.184017822636976 
2199	 0.183958070132827 
2200	 0.183887442869594 
2201	 0.183835712593592 
2202	 0.183801214902758 
2203	 0.183771521404311 
2204	 0.183743792649226 
2205	 0.183726885924742 
2206	 0.183706089799375 
2207	 0.183679590559649 
2208	 0.18367365920391 
2209	 0.183679923120162 
2210	 0.183680519600011 
2211	 0.183685430770313 
2212	 0.183700386367934 
2213	 0.183716196428796 
2214	 0.183743439778875 
2215	 0.183799621872238 
2216	 0.183831663463657 
2217	 0.183848899349771 
2218	 0.183872619514189 
2219	 0.183891965449086 
2220	 0.183911976079864 
2221	 0.183918553081947 
2222	 0.18396545355005 
2223	 0.183979486849265 
2224	 0.184011978450914 
2225	 0.184047922066616 
2226	 0.184096358915499 
2227	 0.184119600719625 
2228	 0.184143292948304 
2229	 0.184156473403986 
2230	 0.184159665152839 
2231	 0.18415035261944 
2232	 0.184123206441084 
2233	 0.184111147684721 
2234	 0.184081939203769 
2235	 0.184072012905373 
2236	 0.18409869974722 
2237	 0.184093452045972 
2238	 0.184079934066971 
2239	 0.184055747149483 
2240	 0.18399570938342 
2241	 0.183966090759616 
2242	 0.183941236389334 
2243	 0.183927004711246 
2244	 0.183950829909982 
2245	 0.183955767941936 
2246	 0.183931169395565 
2247	 0.183871939206274 
2248	 0.183812204500399 
2249	 0.183709584011605 
2250	 0.183652541614364 
2251	 0.183614437346634 
2252	 0.183561287197903 
2253	 0.183503557187895 
2254	 0.183462599388891 
2255	 0.183430678070788 
2256	 0.183392578322111 
2257	 0.18335586595363 
2258	 0.183340516561344 
2259	 0.183330690789709 
2260	 0.183313422061897 
2261	 0.183334365932503 
2262	 0.183315562617726 
2263	 0.183245130878375 
2264	 0.183208987386796 
2265	 0.18317101525708 
2266	 0.183147300133471 
2267	 0.183146655557447 
2268	 0.183146672882698 
2269	 0.183158639137251 
2270	 0.18316516904834 
2271	 0.183178336068841 
2272	 0.183164568214433 
2273	 0.183135179783299 
2274	 0.1831088560715 
2275	 0.183052845688464 
2276	 0.182950512378403 
2277	 0.182923263081538 
2278	 0.182910650703854 
2279	 0.182894939491663 
2280	 0.182934159290522 
2281	 0.182936351834969 
2282	 0.182899580945645 
2283	 0.182887179017908 
2284	 0.182897812550682 
2285	 0.18288691762453 
2286	 0.182859758319309 
2287	 0.182847120016828 
2288	 0.182828663267467 
2289	 0.182818529673074 
2290	 0.182831792302073 
2291	 0.182824811655777 
2292	 0.182833626518336 
2293	 0.182801592925446 
2294	 0.182703058611583 
2295	 0.182656246358571 
2296	 0.182623045144397 
2297	 0.182575505695335 
2298	 0.182532689973644 
2299	 0.182509064595729 
2300	 0.182435904113638 
2301	 0.182354321229597 
2302	 0.182333064050053 
2303	 0.182294027095654 
2304	 0.182253085629323 
2305	 0.182211311485676 
2306	 0.182126967510202 
2307	 0.182004007232574 
2308	 0.181902495654725 
2309	 0.181777858009314 
2310	 0.18166598847697 
2311	 0.181563552610073 
2312	 0.181472402072731 
2313	 0.181368566551791 
2314	 0.181290380193009 
2315	 0.181272483566691 
2316	 0.18117246449865 
2317	 0.181031298338651 
2318	 0.180926975580742 
2319	 0.180776597366687 
2320	 0.180670323534878 
2321	 0.180634354543988 
2322	 0.180546153956997 
2323	 0.180431375932121 
2324	 0.180345611585593 
2325	 0.180261162003975 
2326	 0.18016975896022 
2327	 0.180096215761433 
2328	 0.179998271015306 
2329	 0.179900644567938 
2330	 0.17982287293958 
2331	 0.179751371693124 
2332	 0.179686797280878 
2333	 0.179610170675138 
2334	 0.179520416225064 
2335	 0.179439604470614 
2336	 0.179349402102998 
2337	 0.179238135208074 
2338	 0.179120316363133 
2339	 0.179009012880061 
2340	 0.178918018591915 
2341	 0.178858661761131 
2342	 0.17879213342787 
2343	 0.178679050314285 
2344	 0.178522298319579 
2345	 0.178399339878927 
2346	 0.178276950676053 
2347	 0.178120862180292 
2348	 0.177967880113736 
2349	 0.177828393250857 
2350	 0.177661942748604 
2351	 0.177484998700995 
2352	 0.177330358797099 
2353	 0.177139024387816 
2354	 0.176877056816698 
2355	 0.176671824046257 
2356	 0.17650897302374 
2357	 0.176321792112066 
2358	 0.176111817114076 
2359	 0.175953799458156 
2360	 0.175832023698951 
2361	 0.175685424808036 
2362	 0.175585475077322 
2363	 0.175428052584341 
2364	 0.175194133906872 
2365	 0.174993552310522 
2366	 0.174807962191013 
2367	 0.174601384059109 
2368	 0.174389390239199 
2369	 0.174175359858089 
2370	 0.173946019400241 
2371	 0.173704384063278 
2372	 0.173490243450047 
2373	 0.173311157690743 
2374	 0.173109742350918 
2375	 0.172940028221819 
2376	 0.172724996434778 
2377	 0.17238606888315 
2378	 0.172083110826612 
2379	 0.171746994097791 
2380	 0.171409792304182 
2381	 0.171233070594419 
2382	 0.171081031381551 
2383	 0.17087318971575 
2384	 0.170675240867657 
2385	 0.170457461024225 
2386	 0.170170656033927 
2387	 0.169915376464854 
2388	 0.16970468922998 
2389	 0.169442200277466 
2390	 0.1691893901441 
2391	 0.168878170358566 
2392	 0.168463322015995 
2393	 0.168117269429978 
2394	 0.167815197742992 
2395	 0.16759447291008 
2396	 0.167474553636863 
2397	 0.167297208747296 
2398	 0.167092536634047 
2399	 0.166823197339716 
2400	 0.166503664136588 
2401	 0.166267391776415 
2402	 0.166004087530335 
2403	 0.165690477482173 
2404	 0.165433754924499 
2405	 0.165134907392413 
2406	 0.164890212057599 
2407	 0.164770369722062 
2408	 0.164602742530889 
2409	 0.164363973848906 
2410	 0.164011978806318 
2411	 0.163697926221524 
2412	 0.163434488719809 
2413	 0.163085766128711 
2414	 0.162807950013052 
2415	 0.162599177582352 
2416	 0.162334280988003 
2417	 0.162046080343463 
2418	 0.161764502641504 
2419	 0.161449367408106 
2420	 0.161117691872723 
2421	 0.160802950990837 
2422	 0.160444016365895 
2423	 0.160060966671942 
2424	 0.159725959900102 
2425	 0.159307395455952 
2426	 0.159000408756287 
2427	 0.158850445917794 
2428	 0.158561517946787 
2429	 0.15825422155275 
2430	 0.157935606446961 
2431	 0.157504769533813 
2432	 0.157176045690186 
2433	 0.156941728654736 
2434	 0.15661319327935 
2435	 0.156256406560843 
2436	 0.155915257763104 
2437	 0.155515153358035 
2438	 0.155192991633161 
2439	 0.154981865131152 
2440	 0.154681547186162 
2441	 0.154314366826246 
2442	 0.154001466698101 
2443	 0.153686413711626 
2444	 0.153374595193221 
2445	 0.15313194438222 
2446	 0.152848796951369 
2447	 0.152505430117655 
2448	 0.152171457576218 
2449	 0.151798360512987 
2450	 0.151517738940204 
2451	 0.151318245819601 
2452	 0.151110517551874 
2453	 0.150981715838969 
2454	 0.15072698458099 
2455	 0.150351772157247 
2456	 0.150060965872314 
2457	 0.149821809534785 
2458	 0.149503047922761 
2459	 0.149179484870604 
2460	 0.148884426171169 
2461	 0.148552020590045 
2462	 0.148166888706961 
2463	 0.147740539855033 
2464	 0.147276224365481 
2465	 0.146664984736128 
2466	 0.14628774475353 
2467	 0.146165978041056 
2468	 0.145939391375799 
2469	 0.145673637421256 
2470	 0.145407149800406 
2471	 0.145132349319672 
2472	 0.144896348551565 
2473	 0.144760534716485 
2474	 0.144481540164467 
2475	 0.144195790345585 
2476	 0.144003860454817 
2477	 0.143780040483069 
2478	 0.143616490163546 
2479	 0.1434138966899 
2480	 0.143049296971455 
2481	 0.142692713209969 
2482	 0.14249572558993 
2483	 0.142346385559804 
2484	 0.142123644035592 
2485	 0.141941027631184 
2486	 0.141677977122998 
2487	 0.141285506856178 
2488	 0.14088262747638 
2489	 0.14049732519931 
2490	 0.140218697515313 
2491	 0.139929915244104 
2492	 0.139874819027777 
2493	 0.139975009631301 
2494	 0.139805516397072 
2495	 0.139628810987134 
2496	 0.139529216680426 
2497	 0.139220715139668 
2498	 0.138854111277586 
2499	 0.138644765775944 
2500	 0.13821608104962 
