Wavelength	mm2700009.asd
350	 6.21381634883684E-02 
351	 6.52826337348436E-02 
352	 6.71971745525939E-02 
353	 6.62507732233232E-02 
354	 6.78730783559764E-02 
355	 6.25838079047886E-02 
356	 5.69815871138349E-02 
357	 5.87248921946101E-02 
358	 6.47803570965068E-02 
359	 6.91006280752249E-02 
360	 7.06579020642742E-02 
361	 7.14501131380889E-02 
362	 0.068202143918232 
363	 6.65934368887313E-02 
364	 0.068480691514052 
365	 0.068386029797589 
366	 6.85681001950406E-02 
367	 6.98584235162067E-02 
368	 7.20973030380675E-02 
369	 7.27992892255703E-02 
370	 7.36748489697186E-02 
371	 7.46370569919812E-02 
372	 7.43694701663178E-02 
373	 0.072927984215588 
374	 7.27630573336908E-02 
375	 0.075054025623432 
376	 7.86444241631581E-02 
377	 7.96153689182319E-02 
378	 0.079554523224133 
379	 8.05274376967779E-02 
380	 7.85931994516807E-02 
381	 7.66960574417001E-02 
382	 7.67651134374045E-02 
383	 7.93119192282276E-02 
384	 8.03795575654784E-02 
385	 8.05688102603374E-02 
386	 8.09112255636813E-02 
387	 8.18819487208558E-02 
388	 8.26993485310811E-02 
389	 8.31971364871744E-02 
390	 8.33667776926476E-02 
391	 8.29613253268267E-02 
392	 8.19641384788881E-02 
393	 8.16374582401347E-02 
394	 8.39513681008122E-02 
395	 8.50396176093299E-02 
396	 8.46638079864028E-02 
397	 8.38094327520751E-02 
398	 8.45827839860607E-02 
399	 8.59841491983492E-02 
400	 8.74846416658997E-02 
401	 8.84711826073207E-02 
402	 8.69298131947509E-02 
403	 0.086209769366794 
404	 8.68383696706184E-02 
405	 8.63124369916088E-02 
406	 8.74501572582631E-02 
407	 8.90487429475292E-02 
408	 0.089437229767466 
409	 8.74776399886765E-02 
410	 8.64978559879952E-02 
411	 8.68847726583704E-02 
412	 8.74971691312039E-02 
413	 0.087615925225118 
414	 8.77209818521736E-02 
415	 8.78873583759675E-02 
416	 8.75203342615144E-02 
417	 8.69320240803323E-02 
418	 8.72824348475214E-02 
419	 8.88112517106174E-02 
420	 8.81351538412839E-02 
421	 0.087243736206346 
422	 0.087467850877273 
423	 8.92386218013093E-02 
424	 8.88893907821569E-02 
425	 8.81470963664537E-02 
426	 8.82461343269084E-02 
427	 8.82322581090488E-02 
428	 8.84643661153344E-02 
429	 8.86886247108579E-02 
430	 8.85900679877541E-02 
431	 8.84842783269176E-02 
432	 8.83158467320479E-02 
433	 8.81765538903711E-02 
434	 8.82944358953247E-02 
435	 8.82832632427854E-02 
436	 8.82118652439871E-02 
437	 8.81421655530171E-02 
438	 8.77947635569763E-02 
439	 8.79549028605458E-02 
440	 8.83647872787574E-02 
441	 8.83232429805586E-02 
442	 8.81827329415602E-02 
443	 8.82873757545365E-02 
444	 8.85736978798425E-02 
445	 8.83779982797698E-02 
446	 8.82578216194277E-02 
447	 8.82147161251568E-02 
448	 8.81589597979303E-02 
449	 0.088333190079775 
450	 8.84192458171757E-02 
451	 8.84069369589093E-02 
452	 8.85355831678719E-02 
453	 8.83897647340648E-02 
454	 8.81915101080033E-02 
455	 8.81776989755329E-02 
456	 8.83879502338498E-02 
457	 8.83998506131386E-02 
458	 8.81378438394328E-02 
459	 8.77760271389797E-02 
460	 0.08793829759222 
461	 8.79437593900985E-02 
462	 8.76109611655029E-02 
463	 8.76123790048828E-02 
464	 8.77196083662757E-02 
465	 8.78603254933412E-02 
466	 8.79661870279245E-02 
467	 8.78543488677612E-02 
468	 8.78019923981168E-02 
469	 8.77693146020341E-02 
470	 8.74998396773425E-02 
471	 8.77045078308218E-02 
472	 8.79422959656422E-02 
473	 8.78563476095938E-02 
474	 8.77335023064218E-02 
475	 8.76714338887511E-02 
476	 8.75969203369848E-02 
477	 8.74061999878343E-02 
478	 8.74356774823836E-02 
479	 8.75125105887776E-02 
480	 0.087534197979803 
481	 8.75584209264734E-02 
482	 8.75922679583821E-02 
483	 8.76850448081872E-02 
484	 8.78276542103119E-02 
485	 8.77544389565818E-02 
486	 8.76009730510123E-02 
487	 8.74774940579162E-02 
488	 8.74521457220676E-02 
489	 8.74041727100554E-02 
490	 8.73930058094956E-02 
491	 8.74603604361497E-02 
492	 8.75532005937402E-02 
493	 8.74799784840831E-02 
494	 8.72636859342455E-02 
495	 0.087081935250634 
496	 8.73833559882709E-02 
497	 8.75592950054403E-02 
498	 0.087417533684847 
499	 8.75326644398078E-02 
500	 8.74543166077366E-02 
501	 8.73452957207826E-02 
502	 8.74175306864463E-02 
503	 8.72752023656446E-02 
504	 8.72659346337298E-02 
505	 8.73883042478261E-02 
506	 8.73185861006341E-02 
507	 8.72657939084463E-02 
508	 8.72404073785359E-02 
509	 8.72355968420468E-02 
510	 8.73223526402399E-02 
511	 8.72531460378382E-02 
512	 8.71557022436233E-02 
513	 8.73045345470018E-02 
514	 8.73223925981654E-02 
515	 8.73030106227113E-02 
516	 8.73247414992663E-02 
517	 8.73424133073401E-02 
518	 8.74370046335111E-02 
519	 8.75014560790236E-02 
520	 8.74323351374078E-02 
521	 0.087483610895541 
522	 8.74996531532402E-02 
523	 8.74504238231578E-02 
524	 8.74580199018977E-02 
525	 8.74830052051543E-02 
526	 8.74641656266969E-02 
527	 8.73923938945717E-02 
528	 8.74485871979924E-02 
529	 8.74331409803857E-02 
530	 0.087372609074039 
531	 8.74266034217134E-02 
532	 8.74137929948685E-02 
533	 8.75093814860608E-02 
534	 8.77399045861122E-02 
535	 8.77169931844369E-02 
536	 0.087679291849198 
537	 0.087697318033942 
538	 8.77693068716225E-02 
539	 8.78465873885786E-02 
540	 8.78753881570087E-02 
541	 8.78837543103475E-02 
542	 8.80078071619133E-02 
543	 0.088038723323978 
544	 8.80409163577525E-02 
545	 8.81147847537071E-02 
546	 8.81861352774135E-02 
547	 0.088243188526034 
548	 8.83015452957059E-02 
549	 8.83941513318947E-02 
550	 8.84322579127386E-02 
551	 8.85106543623254E-02 
552	 8.86653928244766E-02 
553	 8.86841446303363E-02 
554	 0.088747841528603 
555	 8.88962074816227E-02 
556	 8.90879258921202E-02 
557	 8.92711707875452E-02 
558	 8.94548470322273E-02 
559	 8.96649345485625E-02 
560	 8.99570816680579E-02 
561	 9.00782324065817E-02 
562	 9.02064178621775E-02 
563	 9.05790916520075E-02 
564	 9.08698425582316E-02 
565	 9.11106155909517E-02 
566	 9.13231679943395E-02 
567	 9.14956295286189E-02 
568	 9.17256675207065E-02 
569	 9.20623631318685E-02 
570	 9.25174292954241E-02 
571	 9.30541123194906E-02 
572	 9.35552389951129E-02 
573	 9.39907548530474E-02 
574	 9.44051115764308E-02 
575	 9.49045650003978E-02 
576	 9.54704420218692E-02 
577	 9.60633081255139E-02 
578	 9.66501765912233E-02 
579	 9.72486491364716E-02 
580	 9.78104229562052E-02 
581	 9.82872104374347E-02 
582	 9.88112675723385E-02 
583	 9.93877648352198E-02 
584	 0.100054290100405 
585	 0.100919492144792 
586	 0.10180805175906 
587	 0.102704658340443 
588	 0.103640571088473 
589	 0.104628604568495 
590	 0.105639456280463 
591	 0.106625792153721 
592	 0.107533763946454 
593	 0.108412894667583 
594	 0.109238500712427 
595	 0.109977813461338 
596	 0.110597996323789 
597	 0.111264592045673 
598	 0.111979162371329 
599	 0.112669591671648 
600	 0.113473776826664 
601	 0.114310150832652 
602	 0.115123078751049 
603	 0.115954778611552 
604	 0.116764157348959 
605	 0.117596571577169 
606	 0.118492166186363 
607	 0.119297453124818 
608	 0.120027760202183 
609	 0.120750864414288 
610	 0.121577652062958 
611	 0.1222384412449 
612	 0.122795634981914 
613	 0.123347719567336 
614	 0.123816665789009 
615	 0.124275045982881 
616	 0.124749644199431 
617	 0.125228480765139 
618	 0.12569203877147 
619	 0.126133830430511 
620	 0.12654256328578 
621	 0.126883613369992 
622	 0.12719982671557 
623	 0.127537961703593 
624	 0.127925696704746 
625	 0.128256320952336 
626	 0.128551671600448 
627	 0.128839610872058 
628	 0.129139868161551 
629	 0.129449478605362 
630	 0.129751046366284 
631	 0.130031591721778 
632	 0.130313671489165 
633	 0.13056121606766 
634	 0.130782006732348 
635	 0.131022282472371 
636	 0.131328389889846 
637	 0.131614187365317 
638	 0.131827054170422 
639	 0.132048376745004 
640	 0.132303599169466 
641	 0.132573480839759 
642	 0.132818380511719 
643	 0.133050797922828 
644	 0.133291862716939 
645	 0.133555814463776 
646	 0.133845903371747 
647	 0.134133781158315 
648	 0.134393035412091 
649	 0.134622718136069 
650	 0.134913589938101 
651	 0.135226248708849 
652	 0.135530861467736 
653	 0.135813637896304 
654	 0.136120033092103 
655	 0.136444772135444 
656	 0.136773668545583 
657	 0.137092020548859 
658	 0.137429543628362 
659	 0.137773419351597 
660	 0.138097352661365 
661	 0.138445433466828 
662	 0.13879222796785 
663	 0.139127895803507 
664	 0.139471960740444 
665	 0.139900707410724 
666	 0.140312965631696 
667	 0.140620380993055 
668	 0.141008484794189 
669	 0.141427052149055 
670	 0.141854817365078 
671	 0.142296344390338 
672	 0.142704787490794 
673	 0.143140140169121 
674	 0.143630137156634 
675	 0.144084200992076 
676	 0.144522778408802 
677	 0.144976814067924 
678	 0.145478527784404 
679	 0.146015520289925 
680	 0.146530953845874 
681	 0.147024779516962 
682	 0.147574622792158 
683	 0.148097259610257 
684	 0.148598473013888 
685	 0.149110473224641 
686	 0.149670027211275 
687	 0.150261139346735 
688	 0.150847587039956 
689	 0.151387221915458 
690	 0.1519443550127 
691	 0.152530209621545 
692	 0.153135321792418 
693	 0.153728232647212 
694	 0.154321698713228 
695	 0.154919726072122 
696	 0.155522483248607 
697	 0.156116922381433 
698	 0.156732672667666 
699	 0.157367620953522 
700	 0.157984412352295 
701	 0.158605115195644 
702	 0.159229430321456 
703	 0.159853492012071 
704	 0.160478267551199 
705	 0.161084028484279 
706	 0.161705756004559 
707	 0.162385805713077 
708	 0.162981768980514 
709	 0.163597442334895 
710	 0.164261682010724 
711	 0.164859487413634 
712	 0.165479769397237 
713	 0.166076818587056 
714	 0.166614943208287 
715	 0.167238437400317 
716	 0.167827319416137 
717	 0.168372894612941 
718	 0.168948390005634 
719	 0.169527410534675 
720	 0.170085850370348 
721	 0.170609700346249 
722	 0.171105012995711 
723	 0.171596943388175 
724	 0.17208219911655 
725	 0.172544849217157 
726	 0.172958653370036 
727	 0.173398310587117 
728	 0.173855860371258 
729	 0.174246815857364 
730	 0.174616907124193 
731	 0.174976391313158 
732	 0.175326905426453 
733	 0.175667098113098 
734	 0.175979538548314 
735	 0.176238098998002 
736	 0.176431733312205 
737	 0.176651491978746 
738	 0.176861807637733 
739	 0.177047633595112 
740	 0.177226199424976 
741	 0.17737079721501 
742	 0.17749795125838 
743	 0.177619142837145 
744	 0.17771442184728 
745	 0.177716435039711 
746	 0.177682680634701 
747	 0.177713436782187 
748	 0.177741633343864 
749	 0.177699870898116 
750	 0.17760947261944 
751	 0.177594380863152 
752	 0.177525723845166 
753	 0.177374414321825 
754	 0.177175481082422 
755	 0.177077730546352 
756	 0.176962938533451 
757	 0.176785702922416 
758	 0.176555442071853 
759	 0.176375941795722 
760	 0.176166038492119 
761	 0.175899651387089 
762	 0.175641403201341 
763	 0.175415051284105 
764	 0.175159299433598 
765	 0.17483369670331 
766	 0.174509138150912 
767	 0.174275457496055 
768	 0.174035375516276 
769	 0.173639000170413 
770	 0.17331360593304 
771	 0.173004750168508 
772	 0.172659073480743 
773	 0.172258785981874 
774	 0.171899259520336 
775	 0.17156733146339 
776	 0.171222130644022 
777	 0.170819232118265 
778	 0.170416524786224 
779	 0.170060573459971 
780	 0.169762314669203 
781	 0.169359557858021 
782	 0.168982044983855 
783	 0.168649000194086 
784	 0.16824593875153 
785	 0.16786013922369 
786	 0.167511354546518 
787	 0.16717747614359 
788	 0.166761053424099 
789	 0.166413470893959 
790	 0.166065637583749 
791	 0.165624433774778 
792	 0.165337668622148 
793	 0.165034609080878 
794	 0.164653471310511 
795	 0.164250421879617 
796	 0.163857101614641 
797	 0.163544727387573 
798	 0.163289750510178 
799	 0.162892436543923 
800	 0.162509431086161 
801	 0.162146650319058 
802	 0.161791331293728 
803	 0.161546633183423 
804	 0.161280795617124 
805	 0.160950825940115 
806	 0.160588731599767 
807	 0.160283879064793 
808	 0.160009113705812 
809	 0.159727285278916 
810	 0.159409188714261 
811	 0.159104530394664 
812	 0.158797878874898 
813	 0.158497163715734 
814	 0.158324627839829 
815	 0.158107112277307 
816	 0.15782498775047 
817	 0.157534525320942 
818	 0.157293538748986 
819	 0.157119058375002 
820	 0.156942004650318 
821	 0.156644394730966 
822	 0.156390231555285 
823	 0.156148881258061 
824	 0.155910056946191 
825	 0.155743576439456 
826	 0.155614648237016 
827	 0.155471630910375 
828	 0.155281402968103 
829	 0.155087963564667 
830	 0.154823890762744 
831	 0.154599237720212 
832	 0.154549119573421 
833	 0.154416212277997 
834	 0.154234549386673 
835	 0.154058304776625 
836	 0.15393609565155 
837	 0.153851931972952 
838	 0.153797716870593 
839	 0.153725955445226 
840	 0.153523075999864 
841	 0.153360914927461 
842	 0.153265107266215 
843	 0.153209449746349 
844	 0.153157136064259 
845	 0.153081928824021 
846	 0.152983698958011 
847	 0.152889011033374 
848	 0.152880159993746 
849	 0.152857103196125 
850	 0.152801709242175 
851	 0.152768802939129 
852	 0.152683389975046 
853	 0.15263640068222 
854	 0.152648202967516 
855	 0.152607714577978 
856	 0.152627053904086 
857	 0.152689502914361 
858	 0.152748609950868 
859	 0.152763144272806 
860	 0.152780863751003 
861	 0.15280457234813 
862	 0.152816514368372 
863	 0.152780445015772 
864	 0.152793805918568 
865	 0.152864484200884 
866	 0.152941426389178 
867	 0.153020920412709 
868	 0.153087272918851 
869	 0.153149809259522 
870	 0.153239683372551 
871	 0.153325591361447 
872	 0.153428244312468 
873	 0.153554864805283 
874	 0.153678407066808 
875	 0.153794552075761 
876	 0.153882686004765 
877	 0.153954320081593 
878	 0.154110556775553 
879	 0.154272212813495 
880	 0.154453097846997 
881	 0.154666044361075 
882	 0.154782390797535 
883	 0.154953590667418 
884	 0.155154422682904 
885	 0.155281004518183 
886	 0.155424718264223 
887	 0.155619809731632 
888	 0.155844894957 
889	 0.156043048555811 
890	 0.156267244125863 
891	 0.156523428119757 
892	 0.156772777150735 
893	 0.156940193337816 
894	 0.1571675638748 
895	 0.157446829449257 
896	 0.157738445962863 
897	 0.158006456764814 
898	 0.158273519556436 
899	 0.158554202627452 
900	 0.158846757544326 
901	 0.159110717843423 
902	 0.159397808530871 
903	 0.15967900820248 
904	 0.159931214079426 
905	 0.160257903298714 
906	 0.1606180923627 
907	 0.161011897998854 
908	 0.16143922756008 
909	 0.161802185455865 
910	 0.162164413922697 
911	 0.162524406348031 
912	 0.162843164566602 
913	 0.163167271016264 
914	 0.163568685855043 
915	 0.164011276548341 
916	 0.164379723581941 
917	 0.164758638869376 
918	 0.165176103361504 
919	 0.165616674497002 
920	 0.166030022398268 
921	 0.16650900791967 
922	 0.166986722903008 
923	 0.167424526291539 
924	 0.167867789232557 
925	 0.168358700862083 
926	 0.168847660487993 
927	 0.169292943083196 
928	 0.169705559445671 
929	 0.170242310460684 
930	 0.170774236735063 
931	 0.171211453055639 
932	 0.171728793966856 
933	 0.172325601455675 
934	 0.172926024220842 
935	 0.173483912406499 
936	 0.174130769345969 
937	 0.174576002338205 
938	 0.174973905522506 
939	 0.175564876598233 
940	 0.176333142700511 
941	 0.176966496714029 
942	 0.177544751928745 
943	 0.178226150234466 
944	 0.178773732932187 
945	 0.179320802249985 
946	 0.179884876658517 
947	 0.180449066910953 
948	 0.181106901146827 
949	 0.181811982583959 
950	 0.182499640448923 
951	 0.183130840814117 
952	 0.18380826428184 
953	 0.184470151774816 
954	 0.185110960097701 
955	 0.185770268396236 
956	 0.186509143775236 
957	 0.187287076681574 
958	 0.188005673069188 
959	 0.188598768565763 
960	 0.189323807083479 
961	 0.190080637041921 
962	 0.190792019365325 
963	 0.191429990815095 
964	 0.192040031302431 
965	 0.192849774018416 
966	 0.193744746474 
967	 0.194450394816102 
968	 0.19525989527529 
969	 0.196006558960041 
970	 0.196655531827361 
971	 0.197302573649195 
972	 0.198104943126008 
973	 0.198934472564514 
974	 0.199707013555654 
975	 0.200409295126985 
976	 0.201117111433045 
977	 0.20195251928253 
978	 0.202810871150259 
979	 0.203510417011414 
980	 0.204331344302045 
981	 0.205090531161895 
982	 0.205756952998785 
983	 0.206426228191954 
984	 0.207197901435232 
985	 0.207973042495994 
986	 0.208752207772492 
987	 0.209568325062464 
988	 0.210281501141986 
989	 0.211035674115968 
990	 0.211795064157667 
991	 0.212491082339302 
992	 0.213391765049002 
993	 0.214074488121742 
994	 0.214645023221166 
995	 0.215385574059185 
996	 0.216164846069472 
997	 0.216997987916844 
998	 0.217704129912906 
999	 0.218219478399575 
1000	 0.219115461141504 
1001	 0.21685183175268 
1002	 0.217498757602048 
1003	 0.218107930489624 
1004	 0.218706681658529 
1005	 0.219274117887669 
1006	 0.219889162849573 
1007	 0.220531852220708 
1008	 0.221122407159268 
1009	 0.221717582410135 
1010	 0.222295613184798 
1011	 0.222847540777613 
1012	 0.223433348961954 
1013	 0.224065330174724 
1014	 0.22464365768405 
1015	 0.225158742107853 
1016	 0.225654732614219 
1017	 0.226162325915438 
1018	 0.226643160624924 
1019	 0.227142877108669 
1020	 0.227624364634032 
1021	 0.228080568026155 
1022	 0.228536960440955 
1023	 0.22898548608763 
1024	 0.229414171627171 
1025	 0.229865393226597 
1026	 0.230332280926157 
1027	 0.230797325494428 
1028	 0.23126384953424 
1029	 0.231729161052724 
1030	 0.232192399144221 
1031	 0.232596744571095 
1032	 0.232927267915608 
1033	 0.233271635962669 
1034	 0.233673551161017 
1035	 0.234027120564294 
1036	 0.234407538868593 
1037	 0.234803064886073 
1038	 0.235170726352754 
1039	 0.235593642312988 
1040	 0.236012541637118 
1041	 0.236410826752143 
1042	 0.236832673607801 
1043	 0.237211301534804 
1044	 0.237576265627532 
1045	 0.237917668869959 
1046	 0.238300522757142 
1047	 0.238643996424925 
1048	 0.238956518537114 
1049	 0.239297293661104 
1050	 0.239658698322056 
1051	 0.240053374315843 
1052	 0.240426206891171 
1053	 0.240796902521892 
1054	 0.241202375772194 
1055	 0.241579619203792 
1056	 0.242000508510974 
1057	 0.242398661418968 
1058	 0.242815359277728 
1059	 0.243170238796116 
1060	 0.243493528079534 
1061	 0.243787604868587 
1062	 0.244064759021675 
1063	 0.244417639716222 
1064	 0.24478912421641 
1065	 0.245140789822591 
1066	 0.24551764727809 
1067	 0.245839342132396 
1068	 0.246123732485786 
1069	 0.246471957171213 
1070	 0.246792896659501 
1071	 0.247096165287696 
1072	 0.247412084733612 
1073	 0.2477168928235 
1074	 0.248029159978347 
1075	 0.24834566214561 
1076	 0.248700265090365 
1077	 0.248992179280551 
1078	 0.249264577857372 
1079	 0.249545237941911 
1080	 0.249798034253104 
1081	 0.250065941051874 
1082	 0.250368894815804 
1083	 0.250644763874072 
1084	 0.250894347778245 
1085	 0.251156992599883 
1086	 0.251434467590898 
1087	 0.251680496514239 
1088	 0.251909807332879 
1089	 0.252145665477476 
1090	 0.252365770958028 
1091	 0.252581158878078 
1092	 0.252806131626425 
1093	 0.253021613354475 
1094	 0.253208829622858 
1095	 0.253399404427438 
1096	 0.253608814825894 
1097	 0.253834537366044 
1098	 0.254061125008751 
1099	 0.254327855193509 
1100	 0.254545921747647 
1101	 0.254728803618454 
1102	 0.254935347528949 
1103	 0.255140781257483 
1104	 0.255334051957555 
1105	 0.255551512895612 
1106	 0.2557603041428 
1107	 0.25594399387015 
1108	 0.256146072511376 
1109	 0.256362119393321 
1110	 0.25655692715494 
1111	 0.256740862380723 
1112	 0.256926594513457 
1113	 0.25709317336383 
1114	 0.257215750616989 
1115	 0.257382243668101 
1116	 0.257567036502034 
1117	 0.257740026317247 
1118	 0.257917847956416 
1119	 0.258112591763492 
1120	 0.258289825140977 
1121	 0.258441366079064 
1122	 0.25861698801699 
1123	 0.258792696020039 
1124	 0.258961594572786 
1125	 0.259142351887005 
1126	 0.259294816195663 
1127	 0.25942086630026 
1128	 0.259565580959752 
1129	 0.259699525776783 
1130	 0.259837975794746 
1131	 0.259985237418628 
1132	 0.260140702292945 
1133	 0.260290124347518 
1134	 0.260450276611568 
1135	 0.260631634816993 
1136	 0.260811076759432 
1137	 0.260963100825092 
1138	 0.261108855583091 
1139	 0.261256408075202 
1140	 0.261392749201058 
1141	 0.26153046946006 
1142	 0.261671503752422 
1143	 0.261814417520526 
1144	 0.261964164818093 
1145	 0.262079552402274 
1146	 0.262176472098085 
1147	 0.262289259154203 
1148	 0.262378425512286 
1149	 0.262485650870611 
1150	 0.26262597344948 
1151	 0.262743068772304 
1152	 0.26284975546532 
1153	 0.262972591928082 
1154	 0.263077217536806 
1155	 0.263170315269276 
1156	 0.26327693051807 
1157	 0.263375335804531 
1158	 0.263487159587456 
1159	 0.263622553205492 
1160	 0.263737080240806 
1161	 0.26385617528744 
1162	 0.263952356830423 
1163	 0.264019289998124 
1164	 0.264107605079125 
1165	 0.264184765649451 
1166	 0.264279901025009 
1167	 0.264392836308855 
1168	 0.264486974847698 
1169	 0.264585517655219 
1170	 0.264682964974116 
1171	 0.264775248099302 
1172	 0.264864079140162 
1173	 0.264955464947935 
1174	 0.265039453475808 
1175	 0.265129108094344 
1176	 0.265234882018037 
1177	 0.265322116783667 
1178	 0.265383237838866 
1179	 0.265474698217271 
1180	 0.265589960297118 
1181	 0.265677265664782 
1182	 0.265760151488016 
1183	 0.265859826823686 
1184	 0.265936844152777 
1185	 0.265977802826364 
1186	 0.266049844573519 
1187	 0.266142378167384 
1188	 0.266213442624986 
1189	 0.266268713282796 
1190	 0.266346495021763 
1191	 0.266425735824547 
1192	 0.266510586409017 
1193	 0.266627830285423 
1194	 0.266712859807594 
1195	 0.266774908858124 
1196	 0.266846839145572 
1197	 0.266906380807222 
1198	 0.266974693846129 
1199	 0.267047936186907 
1200	 0.267126707954232 
1201	 0.26721494877459 
1202	 0.26731509724719 
1203	 0.267399771244851 
1204	 0.267486808523315 
1205	 0.267574578752902 
1206	 0.267653400635995 
1207	 0.267733219872451 
1208	 0.267829566861569 
1209	 0.267904329994074 
1210	 0.267955510652125 
1211	 0.268018739796826 
1212	 0.268076578860687 
1213	 0.268139907561029 
1214	 0.268210806389292 
1215	 0.268281011636555 
1216	 0.268352106351701 
1217	 0.26842875659176 
1218	 0.268490770992069 
1219	 0.26854533684361 
1220	 0.268606240992986 
1221	 0.268665266382506 
1222	 0.268716486680689 
1223	 0.268764855107927 
1224	 0.268820254996204 
1225	 0.268869954485008 
1226	 0.268920410870394 
1227	 0.268980811306995 
1228	 0.269037474638541 
1229	 0.269086868756896 
1230	 0.269137625675195 
1231	 0.269192303918675 
1232	 0.269246187240495 
1233	 0.269298901756233 
1234	 0.269347440044188 
1235	 0.269398859121447 
1236	 0.269450510940405 
1237	 0.269507258867042 
1238	 0.269569315755167 
1239	 0.269622790342944 
1240	 0.269677317959552 
1241	 0.269729547867502 
1242	 0.269778996813631 
1243	 0.269821784638229 
1244	 0.269855058948334 
1245	 0.269899497234345 
1246	 0.269950212886118 
1247	 0.269988260900373 
1248	 0.270024403321561 
1249	 0.270066130368161 
1250	 0.270101731039713 
1251	 0.270121396790344 
1252	 0.270154489390496 
1253	 0.270202968467953 
1254	 0.270234367404169 
1255	 0.270255578546688 
1256	 0.270283542494472 
1257	 0.270313695057008 
1258	 0.270333379152987 
1259	 0.270350060168077 
1260	 0.270364026379939 
1261	 0.270368033396634 
1262	 0.270373979846812 
1263	 0.270380430727077 
1264	 0.270389449200652 
1265	 0.270389686127916 
1266	 0.270400176419151 
1267	 0.270424235057199 
1268	 0.270437140869879 
1269	 0.270461980148635 
1270	 0.270493139541696 
1271	 0.270530372620279 
1272	 0.270573455788585 
1273	 0.270618049973399 
1274	 0.270661819079856 
1275	 0.270723671537637 
1276	 0.270789013646497 
1277	 0.270871194897799 
1278	 0.270977984034634 
1279	 0.271079373513336 
1280	 0.27118963086025 
1281	 0.271300433311545 
1282	 0.271422139519039 
1283	 0.271533356933139 
1284	 0.27164406417493 
1285	 0.271742575372008 
1286	 0.271853133710509 
1287	 0.27194954498097 
1288	 0.272063953065385 
1289	 0.272194719082337 
1290	 0.272312917207296 
1291	 0.272435648496282 
1292	 0.272543970182938 
1293	 0.272656789807205 
1294	 0.272736324750926 
1295	 0.272785699397461 
1296	 0.272847865237454 
1297	 0.272895823892195 
1298	 0.272941038850441 
1299	 0.272997298147426 
1300	 0.27303781962158 
1301	 0.273047632477593 
1302	 0.273073543247139 
1303	 0.273103960089434 
1304	 0.273137193226386 
1305	 0.273169174196186 
1306	 0.273196636476562 
1307	 0.273187375322196 
1308	 0.273161873332365 
1309	 0.273141023936812 
1310	 0.2730949681142 
1311	 0.273074666090781 
1312	 0.27308119597264 
1313	 0.273053996965123 
1314	 0.273017153882959 
1315	 0.272982840016995 
1316	 0.272933763302856 
1317	 0.272880070288974 
1318	 0.272830801095975 
1319	 0.272774909565022 
1320	 0.272687494479238 
1321	 0.272632447622906 
1322	 0.272600446636136 
1323	 0.272562831769873 
1324	 0.272514118376399 
1325	 0.272479076257071 
1326	 0.272431010370756 
1327	 0.272358669979959 
1328	 0.27229417576395 
1329	 0.27224580927488 
1330	 0.272183360494589 
1331	 0.272110893366657 
1332	 0.272045207448666 
1333	 0.271982235674784 
1334	 0.271915262861976 
1335	 0.27184602490709 
1336	 0.271779588255725 
1337	 0.271709316577828 
1338	 0.27164032764875 
1339	 0.271582343722075 
1340	 0.271511749312662 
1341	 0.271435527026864 
1342	 0.271359312401492 
1343	 0.271268253503822 
1344	 0.271185209755941 
1345	 0.27113653433991 
1346	 0.271081542827687 
1347	 0.27104601088906 
1348	 0.271027365134944 
1349	 0.27096288811165 
1350	 0.270890221511916 
1351	 0.27081393169012 
1352	 0.270721822451638 
1353	 0.270620006868888 
1354	 0.270507373650328 
1355	 0.270405724810516 
1356	 0.270296359315005 
1357	 0.270192417582681 
1358	 0.270089624582029 
1359	 0.270005713586007 
1360	 0.269917503137044 
1361	 0.269842221189589 
1362	 0.269802826008445 
1363	 0.269747211059192 
1364	 0.269666353915025 
1365	 0.269624412522909 
1366	 0.269600651470275 
1367	 0.269583400389249 
1368	 0.269586685349898 
1369	 0.269597233273482 
1370	 0.269570920511836 
1371	 0.269503504552083 
1372	 0.269424650403888 
1373	 0.269337138879976 
1374	 0.269251745643996 
1375	 0.269172688291344 
1376	 0.269063856694504 
1377	 0.268946895712524 
1378	 0.268810755889854 
1379	 0.268634632420626 
1380	 0.268488354115836 
1381	 0.268338965867124 
1382	 0.268196446204478 
1383	 0.268080118544275 
1384	 0.267937646380886 
1385	 0.267796428569796 
1386	 0.267632077200813 
1387	 0.267439997874543 
1388	 0.267252708139034 
1389	 0.26705693717591 
1390	 0.266855603132509 
1391	 0.266658171636583 
1392	 0.266444719536978 
1393	 0.266190728423331 
1394	 0.265918129009096 
1395	 0.265595863361567 
1396	 0.265266158555075 
1397	 0.264965632504546 
1398	 0.264666532324538 
1399	 0.264364189399697 
1400	 0.264088352284207 
1401	 0.263785156237104 
1402	 0.263454276709796 
1403	 0.263149528741056 
1404	 0.262840349087305 
1405	 0.262555933317891 
1406	 0.262290769963782 
1407	 0.262023332456873 
1408	 0.261769598316138 
1409	 0.261519334730113 
1410	 0.261257065996372 
1411	 0.261025762076575 
1412	 0.260804345794666 
1413	 0.260608813161953 
1414	 0.260463716430303 
1415	 0.260331035337989 
1416	 0.260197481153508 
1417	 0.260076526848324 
1418	 0.259938676037618 
1419	 0.259800050230062 
1420	 0.259707559513128 
1421	 0.259626263453874 
1422	 0.259533445783215 
1423	 0.259457135143363 
1424	 0.259362410938483 
1425	 0.259240589472326 
1426	 0.259149490319511 
1427	 0.259058664737592 
1428	 0.25899246948972 
1429	 0.258947909579364 
1430	 0.258913081979531 
1431	 0.258910939296206 
1432	 0.258878013026166 
1433	 0.25884434838074 
1434	 0.25880473300786 
1435	 0.258725700753817 
1436	 0.258689618280234 
1437	 0.258670194115877 
1438	 0.258663052897171 
1439	 0.258675708460452 
1440	 0.258711684881307 
1441	 0.25873129677019 
1442	 0.258740440996059 
1443	 0.258749626744912 
1444	 0.25874973429763 
1445	 0.258761651332318 
1446	 0.25879553037309 
1447	 0.258850755272598 
1448	 0.258893159412144 
1449	 0.258896428863544 
1450	 0.258897593207166 
1451	 0.258899858537481 
1452	 0.258861460148013 
1453	 0.258876044572916 
1454	 0.258927148271163 
1455	 0.25896295552115 
1456	 0.25900993050138 
1457	 0.259057940718175 
1458	 0.259107787126676 
1459	 0.259152860281643 
1460	 0.259192226674781 
1461	 0.259248409180447 
1462	 0.259300683579969 
1463	 0.259374680176106 
1464	 0.259492406905564 
1465	 0.259570410539332 
1466	 0.259638217055492 
1467	 0.25970298017469 
1468	 0.259729512613999 
1469	 0.259791388742935 
1470	 0.259871375809378 
1471	 0.259957604998934 
1472	 0.260056625382063 
1473	 0.260150937410329 
1474	 0.260231787461896 
1475	 0.260316055288843 
1476	 0.260388598497876 
1477	 0.260469284787521 
1478	 0.26057462705031 
1479	 0.260671713571378 
1480	 0.26077184429135 
1481	 0.260879891358132 
1482	 0.260981185889832 
1483	 0.261079161625219 
1484	 0.261166450081164 
1485	 0.261242346267064 
1486	 0.26133393256256 
1487	 0.261413976886026 
1488	 0.2615160236976 
1489	 0.261650735233858 
1490	 0.261759784683718 
1491	 0.261874518194678 
1492	 0.261963694837009 
1493	 0.262025578761424 
1494	 0.262105309448135 
1495	 0.26216571684415 
1496	 0.262247282954016 
1497	 0.262357656690713 
1498	 0.262452549118915 
1499	 0.262563454391999 
1500	 0.262644422862481 
1501	 0.262685742584604 
1502	 0.262752889030629 
1503	 0.262813737431085 
1504	 0.262882740907164 
1505	 0.262979054074637 
1506	 0.263076435181384 
1507	 0.263158421700548 
1508	 0.263230132801044 
1509	 0.26330430907149 
1510	 0.263371735628764 
1511	 0.263415291349972 
1512	 0.263479316272845 
1513	 0.263527695883282 
1514	 0.263565480255596 
1515	 0.263637053808652 
1516	 0.263694545794409 
1517	 0.263763234581301 
1518	 0.263853889678083 
1519	 0.263918025419358 
1520	 0.263969800348995 
1521	 0.264029221383408 
1522	 0.264073364242934 
1523	 0.264130637437641 
1524	 0.264207290642875 
1525	 0.264259547965515 
1526	 0.264299048824488 
1527	 0.264349179660383 
1528	 0.264393711130335 
1529	 0.264442239793798 
1530	 0.264502376168537 
1531	 0.264556189991476 
1532	 0.264602153917458 
1533	 0.264644970242185 
1534	 0.264685248803433 
1535	 0.264727998406713 
1536	 0.264767780567927 
1537	 0.264813847114863 
1538	 0.264867336241192 
1539	 0.264916514351466 
1540	 0.264960210188511 
1541	 0.265010111882314 
1542	 0.265070469043236 
1543	 0.265117920906004 
1544	 0.265162435841845 
1545	 0.265206266144086 
1546	 0.265242712331545 
1547	 0.265276931543173 
1548	 0.265313173873265 
1549	 0.265327816408849 
1550	 0.265343026547655 
1551	 0.265375356218128 
1552	 0.265409491813018 
1553	 0.265473759962204 
1554	 0.265542072100362 
1555	 0.265578036888816 
1556	 0.265611611560147 
1557	 0.265640514157722 
1558	 0.265658765955657 
1559	 0.265680578688455 
1560	 0.26571000190713 
1561	 0.265752077521085 
1562	 0.265774763020612 
1563	 0.265795810260501 
1564	 0.265811464292017 
1565	 0.265811528869928 
1566	 0.265823046220035 
1567	 0.265840008495924 
1568	 0.265848215826785 
1569	 0.26585434454112 
1570	 0.265861378246802 
1571	 0.265863665035849 
1572	 0.265867374015902 
1573	 0.265868850646976 
1574	 0.265878763349131 
1575	 0.265891237657156 
1576	 0.265907502413508 
1577	 0.265932789120798 
1578	 0.265956249930662 
1579	 0.265975973340411 
1580	 0.265999980353347 
1581	 0.266031305745407 
1582	 0.266060110876202 
1583	 0.266097096889353 
1584	 0.266119950524169 
1585	 0.26613414244479 
1586	 0.266147774113582 
1587	 0.266157096771209 
1588	 0.266157008084395 
1589	 0.2661511214883 
1590	 0.266145239897018 
1591	 0.26612274698058 
1592	 0.266112398061887 
1593	 0.266106839954115 
1594	 0.266107960472825 
1595	 0.266117863235639 
1596	 0.266126974842879 
1597	 0.266151981377046 
1598	 0.266158235730768 
1599	 0.266152145535929 
1600	 0.266147203823707 
1601	 0.266127882697613 
1602	 0.266117111936615 
1603	 0.266098445734895 
1604	 0.266100804110789 
1605	 0.266123070799858 
1606	 0.266139923079055 
1607	 0.26616874476856 
1608	 0.266205898101151 
1609	 0.266209885648932 
1610	 0.266214478493384 
1611	 0.266219315892956 
1612	 0.266209708418283 
1613	 0.266207350594131 
1614	 0.266200540770723 
1615	 0.266208526153635 
1616	 0.266233800331704 
1617	 0.266233342217385 
1618	 0.26624086433284 
1619	 0.266253073391756 
1620	 0.266252507030103 
1621	 0.266252989807018 
1622	 0.266268005375675 
1623	 0.266270582507219 
1624	 0.266251599034523 
1625	 0.266253520499116 
1626	 0.266267740157932 
1627	 0.266282332758964 
1628	 0.266292238612096 
1629	 0.266324831583223 
1630	 0.266382469990322 
1631	 0.266412465394901 
1632	 0.266443856290896 
1633	 0.266469138869541 
1634	 0.26647693647828 
1635	 0.266492218570523 
1636	 0.266518994136547 
1637	 0.266525116181363 
1638	 0.266512043412036 
1639	 0.266514491260465 
1640	 0.266514550276468 
1641	 0.266520785329497 
1642	 0.26653289394422 
1643	 0.266550834476219 
1644	 0.266575249163337 
1645	 0.266591511180481 
1646	 0.266621612175352 
1647	 0.266623820454114 
1648	 0.266599770558032 
1649	 0.266595652637076 
1650	 0.266589523024486 
1651	 0.266580295579731 
1652	 0.266582616251778 
1653	 0.266568817207644 
1654	 0.266529772034466 
1655	 0.26652047460567 
1656	 0.266527116916965 
1657	 0.266519289985677 
1658	 0.266533248307182 
1659	 0.266505519595383 
1660	 0.266431589583287 
1661	 0.266399484972106 
1662	 0.266362102025349 
1663	 0.266342416146036 
1664	 0.266353991138136 
1665	 0.266355221647529 
1666	 0.266347268542232 
1667	 0.266360567498228 
1668	 0.266394339867693 
1669	 0.266417387339267 
1670	 0.266461814721819 
1671	 0.266467379823403 
1672	 0.266448625202867 
1673	 0.266433242248723 
1674	 0.266375435176814 
1675	 0.266375416503334 
1676	 0.266419266960644 
1677	 0.266426701104166 
1678	 0.266448171274366 
1679	 0.26645555707093 
1680	 0.266429042325605 
1681	 0.266420922263309 
1682	 0.26641681555836 
1683	 0.266430119325979 
1684	 0.266457142887138 
1685	 0.266469904605714 
1686	 0.266505457595375 
1687	 0.26651000158827 
1688	 0.266475159633966 
1689	 0.266466585215085 
1690	 0.266467863299296 
1691	 0.26645473545037 
1692	 0.266442074486331 
1693	 0.266426949713033 
1694	 0.266394944627904 
1695	 0.266376387601601 
1696	 0.266364906520252 
1697	 0.266357635446138 
1698	 0.266360929262049 
1699	 0.26634966849858 
1700	 0.266341650195044 
1701	 0.266320918588508 
1702	 0.266268733227971 
1703	 0.266257669677031 
1704	 0.266274454207766 
1705	 0.266261264308655 
1706	 0.266258239748305 
1707	 0.266239492221168 
1708	 0.266189441924264 
1709	 0.266154114512445 
1710	 0.266115658078553 
1711	 0.266099711776739 
1712	 0.266094729135618 
1713	 0.266083051195191 
1714	 0.266090633031448 
1715	 0.266089904497347 
1716	 0.266073948613549 
1717	 0.266064367182843 
1718	 0.266070501168931 
1719	 0.26605869883343 
1720	 0.266035986526923 
1721	 0.266010918422681 
1722	 0.265970736656847 
1723	 0.265949769314461 
1724	 0.265931213383022 
1725	 0.265918307167882 
1726	 0.265930333319456 
1727	 0.265910517828438 
1728	 0.26588459847077 
1729	 0.265835652670085 
1730	 0.265763920184877 
1731	 0.265691503736933 
1732	 0.265589769572359 
1733	 0.265522951491428 
1734	 0.265469786089842 
1735	 0.265411443764476 
1736	 0.265369346237502 
1737	 0.265313497743266 
1738	 0.26524115470336 
1739	 0.265183654607437 
1740	 0.265131516371588 
1741	 0.265090212701791 
1742	 0.265066809186538 
1743	 0.265018704748927 
1744	 0.264960148871874 
1745	 0.264914608390223 
1746	 0.264861134025977 
1747	 0.264810276056452 
1748	 0.264780312602501 
1749	 0.264762087362271 
1750	 0.264708724442272 
1751	 0.264668577840069 
1752	 0.264637206938419 
1753	 0.26453844127671 
1754	 0.264450485290372 
1755	 0.2643975430401 
1756	 0.264322779703999 
1757	 0.264267582288669 
1758	 0.264241934326904 
1759	 0.264182917847538 
1760	 0.264117840255628 
1761	 0.26408538415942 
1762	 0.264051830617498 
1763	 0.263996321351075 
1764	 0.263944009324615 
1765	 0.263902050016663 
1766	 0.263822682272173 
1767	 0.263774022370286 
1768	 0.263770687585519 
1769	 0.263714555790117 
1770	 0.263675053934354 
1771	 0.26365263740088 
1772	 0.263586590819992 
1773	 0.263550014344632 
1774	 0.263524429793178 
1775	 0.263493391602325 
1776	 0.263438683079086 
1777	 0.263347170595137 
1778	 0.263300307314964 
1779	 0.263231876112846 
1780	 0.263195582495994 
1781	 0.26325870492332 
1782	 0.263262052214777 
1783	 0.263279243955662 
1784	 0.263279372573268 
1785	 0.263217578200276 
1786	 0.263210301611964 
1787	 0.26324195096504 
1788	 0.263229279773033 
1789	 0.263231306177847 
1790	 0.263215957333921 
1791	 0.263145370690481 
1792	 0.263120580222687 
1793	 0.263116275963243 
1794	 0.263097755715551 
1795	 0.263097641923687 
1796	 0.263080889185778 
1797	 0.263030322458022 
1798	 0.263027019496594 
1799	 0.26306411130693 
1800	 0.263055867038767 
1801	 0.258367307024005 
1802	 0.258590488145803 
1803	 0.258827061847713 
1804	 0.259092279480656 
1805	 0.259373983773653 
1806	 0.259659073910301 
1807	 0.259932880553183 
1808	 0.260157708135169 
1809	 0.260373752839684 
1810	 0.260545800348734 
1811	 0.260655467014378 
1812	 0.260772901333785 
1813	 0.260902876689127 
1814	 0.260998180698558 
1815	 0.261048671818248 
1816	 0.261103407609687 
1817	 0.261147864433552 
1818	 0.261149694406065 
1819	 0.261182076330826 
1820	 0.261240192060247 
1821	 0.261266542826682 
1822	 0.261269600405161 
1823	 0.261297590850568 
1824	 0.261349084776993 
1825	 0.261380030050146 
1826	 0.26143384128859 
1827	 0.261511335940222 
1828	 0.261549313851565 
1829	 0.261552823534212 
1830	 0.261565866616868 
1831	 0.261575461865969 
1832	 0.261569275163136 
1833	 0.261531905618957 
1834	 0.261562494750958 
1835	 0.261599290058503 
1836	 0.261594761132907 
1837	 0.261622989977211 
1838	 0.261647794417974 
1839	 0.261681865836467 
1840	 0.261714309578821 
1841	 0.261768177519739 
1842	 0.261814649566329 
1843	 0.261829585687063 
1844	 0.261815179111446 
1845	 0.261799951213385 
1846	 0.261792437804693 
1847	 0.261808286960627 
1848	 0.261826549834252 
1849	 0.26182340997388 
1850	 0.261814821049796 
1851	 0.261788415234592 
1852	 0.261764971597766 
1853	 0.26176624430425 
1854	 0.261778639419119 
1855	 0.261805839660423 
1856	 0.261788309064858 
1857	 0.261717607217544 
1858	 0.261636388152985 
1859	 0.261530370070358 
1860	 0.261410455227982 
1861	 0.261286191706153 
1862	 0.261136161156706 
1863	 0.260959164032571 
1864	 0.260765902600887 
1865	 0.260521857142795 
1866	 0.260268164138599 
1867	 0.260012478095047 
1868	 0.259715997812289 
1869	 0.259428079131189 
1870	 0.259131537250431 
1871	 0.258806382535487 
1872	 0.258448527254332 
1873	 0.258105601937915 
1874	 0.257742883354106 
1875	 0.257360582755249 
1876	 0.256957226328246 
1877	 0.256488402096432 
1878	 0.255961380318885 
1879	 0.255410129608735 
1880	 0.254811782231968 
1881	 0.254171497679363 
1882	 0.253487225096157 
1883	 0.252777782952556 
1884	 0.251970374531459 
1885	 0.251122177074204 
1886	 0.250248238451238 
1887	 0.24929094081096 
1888	 0.248305441008409 
1889	 0.247263355938926 
1890	 0.246152826322014 
1891	 0.245040374122966 
1892	 0.243867831581804 
1893	 0.2427169776698 
1894	 0.241557008032396 
1895	 0.240399614551551 
1896	 0.239245112905572 
1897	 0.238112285195079 
1898	 0.23695384242113 
1899	 0.235810839352229 
1900	 0.234689501947746 
1901	 0.233591737504895 
1902	 0.2325633538166 
1903	 0.231607827794938 
1904	 0.230676211663395 
1905	 0.229786300156033 
1906	 0.228944672850921 
1907	 0.228148595395784 
1908	 0.227392687936397 
1909	 0.226675954260761 
1910	 0.225996478352072 
1911	 0.22535136725622 
1912	 0.224744486960262 
1913	 0.224170385071158 
1914	 0.22364973379686 
1915	 0.223136269611566 
1916	 0.22263877336812 
1917	 0.222174023784273 
1918	 0.221747958802598 
1919	 0.221362404912166 
1920	 0.221034493435963 
1921	 0.220732250288383 
1922	 0.220446685491303 
1923	 0.220208818247633 
1924	 0.220002624955347 
1925	 0.219823452658449 
1926	 0.219688548251207 
1927	 0.219600068517455 
1928	 0.21953404116051 
1929	 0.219503673417584 
1930	 0.219504332592227 
1931	 0.219511549928095 
1932	 0.219514625512114 
1933	 0.219549532790395 
1934	 0.219602266350968 
1935	 0.21965673300306 
1936	 0.219727975590934 
1937	 0.219814369813712 
1938	 0.21989291255194 
1939	 0.220002460426314 
1940	 0.22013566608223 
1941	 0.220287300422938 
1942	 0.220473927630211 
1943	 0.220667703279777 
1944	 0.220869932056464 
1945	 0.221094611245963 
1946	 0.221299078342676 
1947	 0.221487113176166 
1948	 0.221698616630576 
1949	 0.221904432738024 
1950	 0.222124848334931 
1951	 0.222360935462293 
1952	 0.222606861246155 
1953	 0.222844854820526 
1954	 0.223132024739799 
1955	 0.223451432961964 
1956	 0.223766885552437 
1957	 0.224085287953326 
1958	 0.224419187901151 
1959	 0.224750761775246 
1960	 0.22507816818666 
1961	 0.225414965329461 
1962	 0.225768507052105 
1963	 0.226118935596681 
1964	 0.226463872337668 
1965	 0.226807188379294 
1966	 0.227199690049905 
1967	 0.227581196635484 
1968	 0.227962532152077 
1969	 0.228374912226959 
1970	 0.228751754323497 
1971	 0.229099611055509 
1972	 0.229459228574574 
1973	 0.229805583533401 
1974	 0.230167890762864 
1975	 0.230540533810597 
1976	 0.23090816264105 
1977	 0.231298063267278 
1978	 0.231652730427139 
1979	 0.231986694387701 
1980	 0.232336811160615 
1981	 0.232672099854631 
1982	 0.232984442810553 
1983	 0.233322075949969 
1984	 0.233663358908901 
1985	 0.234007325410159 
1986	 0.23436584118943 
1987	 0.234720540344695 
1988	 0.23507513734879 
1989	 0.235434109263107 
1990	 0.235791783221727 
1991	 0.236137462736476 
1992	 0.236477420042229 
1993	 0.236813160525119 
1994	 0.237133843609786 
1995	 0.23742866714345 
1996	 0.237750815443907 
1997	 0.238072473609923 
1998	 0.238400526475898 
1999	 0.238753846044336 
2000	 0.239093238831857 
2001	 0.23942572256144 
2002	 0.239749430650947 
2003	 0.240101381587852 
2004	 0.240442513266023 
2005	 0.24076634032404 
2006	 0.24109058025343 
2007	 0.241397585828694 
2008	 0.241673533762603 
2009	 0.241964399760013 
2010	 0.242256740194493 
2011	 0.242544549609578 
2012	 0.2428265376217 
2013	 0.24311028248844 
2014	 0.243393913632541 
2015	 0.243680876401081 
2016	 0.243936269859769 
2017	 0.24420841687759 
2018	 0.244492285572131 
2019	 0.244771266068073 
2020	 0.245063153869331 
2021	 0.24538396284212 
2022	 0.245690395638423 
2023	 0.245999680250147 
2024	 0.246297937125035 
2025	 0.246594659645038 
2026	 0.246884894803693 
2027	 0.247175435331577 
2028	 0.247439690831228 
2029	 0.247700866525146 
2030	 0.247958214850806 
2031	 0.248210107480796 
2032	 0.248442032424258 
2033	 0.248683690125216 
2034	 0.24893262322853 
2035	 0.249167703069514 
2036	 0.249394556343238 
2037	 0.249623815523475 
2038	 0.249843111186499 
2039	 0.250066904619752 
2040	 0.250304854917153 
2041	 0.250524958089911 
2042	 0.250719092812722 
2043	 0.250927656550191 
2044	 0.25113184907922 
2045	 0.251326212628449 
2046	 0.251519933958682 
2047	 0.251720634148741 
2048	 0.251914355165176 
2049	 0.25209981565066 
2050	 0.252278859400623 
2051	 0.25245283662132 
2052	 0.252630267778088 
2053	 0.252810513357241 
2054	 0.252973742702898 
2055	 0.253129407965208 
2056	 0.253287575806592 
2057	 0.253438484194654 
2058	 0.253563801482161 
2059	 0.253716057753202 
2060	 0.253883630253707 
2061	 0.254044011201506 
2062	 0.254209048204932 
2063	 0.254370464042547 
2064	 0.254529361271963 
2065	 0.254690021366723 
2066	 0.254861979234725 
2067	 0.255015226161578 
2068	 0.255155254876309 
2069	 0.255299258821959 
2070	 0.255438255496851 
2071	 0.255554515373214 
2072	 0.255705618483326 
2073	 0.255873906446417 
2074	 0.256036825134586 
2075	 0.256221661482515 
2076	 0.256384526888971 
2077	 0.256537074519073 
2078	 0.256688467622042 
2079	 0.256829463927921 
2080	 0.256972203349767 
2081	 0.257100836166724 
2082	 0.257251145031214 
2083	 0.257413745266421 
2084	 0.257580771547319 
2085	 0.25773981900023 
2086	 0.257915015832956 
2087	 0.258068496519858 
2088	 0.25819663579829 
2089	 0.258348053999031 
2090	 0.258509145172648 
2091	 0.258658068050569 
2092	 0.258819697794859 
2093	 0.258958125319959 
2094	 0.259069666479385 
2095	 0.259196018707169 
2096	 0.259296492877982 
2097	 0.259433718152464 
2098	 0.25960194187689 
2099	 0.259771168830746 
2100	 0.259929881320753 
2101	 0.260103669192147 
2102	 0.260262368478809 
2103	 0.260395121348194 
2104	 0.260554506607598 
2105	 0.260731056649968 
2106	 0.260899396796315 
2107	 0.26106664003954 
2108	 0.26124302269678 
2109	 0.261425392046272 
2110	 0.261604823966576 
2111	 0.261794935294884 
2112	 0.261975556801855 
2113	 0.262147694677989 
2114	 0.26232488940515 
2115	 0.262483587686148 
2116	 0.262630795875803 
2117	 0.262784993809267 
2118	 0.262921198134116 
2119	 0.26308389048471 
2120	 0.263268012245015 
2121	 0.263438523340008 
2122	 0.263620665158465 
2123	 0.263784123321592 
2124	 0.263948714932212 
2125	 0.264085770346335 
2126	 0.264204365622 
2127	 0.264313828446929 
2128	 0.264395288441421 
2129	 0.264476466709043 
2130	 0.264548019672269 
2131	 0.264617071226269 
2132	 0.264690775735476 
2133	 0.26476536417104 
2134	 0.264828229284465 
2135	 0.264907553093035 
2136	 0.264938645607643 
2137	 0.264937551076081 
2138	 0.264935146579959 
2139	 0.264896217125493 
2140	 0.26487708327635 
2141	 0.264868679143421 
2142	 0.26484282082339 
2143	 0.264831238715385 
2144	 0.2647815486198 
2145	 0.264684113186596 
2146	 0.264607391022586 
2147	 0.26451305723718 
2148	 0.264430858898633 
2149	 0.264343351150021 
2150	 0.264284275791818 
2151	 0.264172266203797 
2152	 0.264019370724037 
2153	 0.263895866902477 
2154	 0.263760733165642 
2155	 0.263630144912856 
2156	 0.263542751077067 
2157	 0.263392683079924 
2158	 0.263201168795814 
2159	 0.263015418725967 
2160	 0.262796406434721 
2161	 0.262584206521716 
2162	 0.262377579898599 
2163	 0.262163993293127 
2164	 0.261948207965979 
2165	 0.261708803017239 
2166	 0.26149543140179 
2167	 0.261286218747754 
2168	 0.261081082803876 
2169	 0.260882887895294 
2170	 0.260696656039231 
2171	 0.260507926659979 
2172	 0.260343083220909 
2173	 0.260219706783476 
2174	 0.260057003646003 
2175	 0.259898820041456 
2176	 0.259722052464567 
2177	 0.259510114506718 
2178	 0.259309982119918 
2179	 0.259102534128576 
2180	 0.258901441826784 
2181	 0.258708530395042 
2182	 0.25850818940843 
2183	 0.258296745092846 
2184	 0.258100299874915 
2185	 0.257916602519645 
2186	 0.257722211356063 
2187	 0.257571256149162 
2188	 0.257463287206467 
2189	 0.257334566910146 
2190	 0.257226240731746 
2191	 0.257098897838278 
2192	 0.256960241122925 
2193	 0.256823590999667 
2194	 0.256671425554786 
2195	 0.256541145663968 
2196	 0.256412920490532 
2197	 0.256297246669127 
2198	 0.256199530662451 
2199	 0.256110209595075 
2200	 0.256024584278606 
2201	 0.255956160954064 
2202	 0.255924362111867 
2203	 0.255864149318322 
2204	 0.255816019653947 
2205	 0.255770285565598 
2206	 0.255739677859815 
2207	 0.255711395079618 
2208	 0.255691909825326 
2209	 0.255708803260031 
2210	 0.255682518023032 
2211	 0.25562631282332 
2212	 0.255595728787411 
2213	 0.255543731080577 
2214	 0.255525299732014 
2215	 0.255543209269691 
2216	 0.255552149589259 
2217	 0.255567870129683 
2218	 0.255586976757181 
2219	 0.255610808233445 
2220	 0.255637763847297 
2221	 0.255667094639415 
2222	 0.255707674602025 
2223	 0.255738036946201 
2224	 0.255780673072394 
2225	 0.255821755271127 
2226	 0.255871196505678 
2227	 0.255897272729698 
2228	 0.255926849257484 
2229	 0.255924229890458 
2230	 0.255873474259351 
2231	 0.255877551043941 
2232	 0.25589736582933 
2233	 0.255901038147288 
2234	 0.255932544109085 
2235	 0.255936885855777 
2236	 0.255916829223258 
2237	 0.255890083022748 
2238	 0.255829365205466 
2239	 0.255811821536517 
2240	 0.255809016145406 
2241	 0.255803120902286 
2242	 0.255844200957007 
2243	 0.255854292817085 
2244	 0.255860849259124 
2245	 0.255805721233887 
2246	 0.255767012894299 
2247	 0.255773841485975 
2248	 0.255767013714981 
2249	 0.255774899235071 
2250	 0.255764452650351 
2251	 0.25574113377775 
2252	 0.255737275273712 
2253	 0.255729595983909 
2254	 0.255733343603834 
2255	 0.255764269157699 
2256	 0.255770377263338 
2257	 0.25576260546781 
2258	 0.255769469153653 
2259	 0.255773789948684 
2260	 0.255782310471967 
2261	 0.255809600402726 
2262	 0.255819864107775 
2263	 0.255834595382266 
2264	 0.255822992180415 
2265	 0.25577722899623 
2266	 0.255749883305402 
2267	 0.255675632916794 
2268	 0.255666154430589 
2269	 0.255689919704425 
2270	 0.255764442684388 
2271	 0.255862190413146 
2272	 0.255921771644725 
2273	 0.255947270624601 
2274	 0.255924574593002 
2275	 0.255878711762186 
2276	 0.25577179073177 
2277	 0.255705506902575 
2278	 0.25561977926544 
2279	 0.255565457497121 
2280	 0.255536113834452 
2281	 0.255504705611453 
2282	 0.255478275772771 
2283	 0.25546411811051 
2284	 0.25545545654172 
2285	 0.255458070555815 
2286	 0.255486290175929 
2287	 0.255497321184522 
2288	 0.255528173129891 
2289	 0.255519764320227 
2290	 0.255447198598361 
2291	 0.255441040325166 
2292	 0.25547138821248 
2293	 0.255462966368335 
2294	 0.255506361831738 
2295	 0.255495043450907 
2296	 0.255405384484806 
2297	 0.255309318957771 
2298	 0.255309731009144 
2299	 0.255284622274478 
2300	 0.255317582993281 
2301	 0.255377621069387 
2302	 0.2553238111602 
2303	 0.255297146117696 
2304	 0.255281269081476 
2305	 0.255216248216033 
2306	 0.255176199573975 
2307	 0.255176925814907 
2308	 0.255115686081109 
2309	 0.254999604951246 
2310	 0.254935774557313 
2311	 0.254864915919415 
2312	 0.254817864314667 
2313	 0.254810494027994 
2314	 0.254787961434923 
2315	 0.254776464660784 
2316	 0.254742526961368 
2317	 0.254712371522606 
2318	 0.254655871036411 
2319	 0.25458515439067 
2320	 0.25447589530996 
2321	 0.254288479597334 
2322	 0.254184466612005 
2323	 0.254095397384442 
2324	 0.254009888800817 
2325	 0.253986785085815 
2326	 0.253942291806246 
2327	 0.253860000952714 
2328	 0.253814122943841 
2329	 0.253783760213856 
2330	 0.253795894510578 
2331	 0.253813768767985 
2332	 0.253795212141594 
2333	 0.25378437142768 
2334	 0.253754971785334 
2335	 0.253795154438083 
2336	 0.253833599719838 
2337	 0.25384525218399 
2338	 0.253860851161669 
2339	 0.25377271104486 
2340	 0.253658679615681 
2341	 0.253577290923875 
2342	 0.25351842439083 
2343	 0.253469537996815 
2344	 0.253391468448177 
2345	 0.253297527375349 
2346	 0.25317450793576 
2347	 0.253055677104448 
2348	 0.252901653839814 
2349	 0.252825438416087 
2350	 0.252827407416608 
2351	 0.252728140858887 
2352	 0.252603406420244 
2353	 0.252500837846416 
2354	 0.252333332818063 
2355	 0.25219248073199 
2356	 0.252129949222173 
2357	 0.251989953941118 
2358	 0.251781011943476 
2359	 0.25161945776186 
2360	 0.251429473438959 
2361	 0.251293440357088 
2362	 0.251196428547217 
2363	 0.251088374648179 
2364	 0.251025494682975 
2365	 0.25095840321878 
2366	 0.25090138108031 
2367	 0.250809898312199 
2368	 0.250727510148198 
2369	 0.250592175655056 
2370	 0.250379259962975 
2371	 0.250204337304803 
2372	 0.250098475462381 
2373	 0.249939549327748 
2374	 0.249821808523653 
2375	 0.249701252223266 
2376	 0.249502545333386 
2377	 0.24934028768535 
2378	 0.249205111719062 
2379	 0.249032462486831 
2380	 0.248822838020187 
2381	 0.248655029077903 
2382	 0.248517473958651 
2383	 0.248358330817276 
2384	 0.248219848587992 
2385	 0.248089957345477 
2386	 0.247831396201628 
2387	 0.247562717687802 
2388	 0.247364910535627 
2389	 0.247121496166193 
2390	 0.246942802952384 
2391	 0.246809030826268 
2392	 0.246647864122631 
2393	 0.246426760546003 
2394	 0.246233197511253 
2395	 0.246071924542154 
2396	 0.24587401888595 
2397	 0.245815957203879 
2398	 0.245696436042071 
2399	 0.245471705578398 
2400	 0.245302235898402 
2401	 0.245005687720709 
2402	 0.244622479138246 
2403	 0.244359411089101 
2404	 0.244159288588888 
2405	 0.243974462958194 
2406	 0.243872223844615 
2407	 0.243679815586983 
2408	 0.243475227105557 
2409	 0.243248231389107 
2410	 0.242931272247645 
2411	 0.242745961980421 
2412	 0.242482523442972 
2413	 0.242207432749009 
2414	 0.242020042656612 
2415	 0.241712988811871 
2416	 0.241456351267296 
2417	 0.241222307686187 
2418	 0.240944589130399 
2419	 0.240670320897243 
2420	 0.24040096791285 
2421	 0.240065103649641 
2422	 0.239837081246722 
2423	 0.23969236900471 
2424	 0.239482107798237 
2425	 0.239332338199483 
2426	 0.239088703660563 
2427	 0.238741557138952 
2428	 0.238382578058121 
2429	 0.237941928513496 
2430	 0.237604308223527 
2431	 0.237252205614744 
2432	 0.237045274827609 
2433	 0.237089784854492 
2434	 0.236886439152013 
2435	 0.236596076762311 
2436	 0.236350188694882 
2437	 0.23592842089028 
2438	 0.235664096285116 
2439	 0.235589292943464 
2440	 0.23535964073093 
2441	 0.235129709642225 
2442	 0.234859643510042 
2443	 0.234501464457229 
2444	 0.234178768915582 
2445	 0.233819818656959 
2446	 0.233485307235718 
2447	 0.233136331727851 
2448	 0.232815863624668 
2449	 0.232567077962141 
2450	 0.232297195793256 
2451	 0.232028798809964 
2452	 0.231782272071324 
2453	 0.231506477660977 
2454	 0.231227110011484 
2455	 0.231018998283547 
2456	 0.230697343983232 
2457	 0.230294293879721 
2458	 0.229982748553983 
2459	 0.229656114093992 
2460	 0.229358212056206 
2461	 0.229075398768129 
2462	 0.228866297995239 
2463	 0.228695298630683 
2464	 0.228405189301411 
2465	 0.228243504745525 
2466	 0.227882492603017 
2467	 0.227243538728501 
2468	 0.22690972433455 
2469	 0.226620644598219 
2470	 0.226385356786732 
2471	 0.226267274842365 
2472	 0.226022725929498 
2473	 0.22568627671284 
2474	 0.225358982934757 
2475	 0.225068744848641 
2476	 0.224790641948398 
2477	 0.224546854770439 
2478	 0.224430651971643 
2479	 0.224158316211081 
2480	 0.223751387606194 
2481	 0.223396854435843 
2482	 0.223045771340131 
2483	 0.222720759149004 
2484	 0.222471091508834 
2485	 0.222403276381676 
2486	 0.222311407231927 
2487	 0.222127627944351 
2488	 0.221919287777801 
2489	 0.221599508299055 
2490	 0.221318079604787 
2491	 0.221156364535441 
2492	 0.220948667853469 
2493	 0.220604146522269 
2494	 0.220233498486772 
2495	 0.219759623346803 
2496	 0.219502815334572 
2497	 0.21958862817462 
2498	 0.219546977463112 
2499	 0.219464597733028 
2500	 0.219298438580604 
