Wavelength	mm2700002.asd
350	 6.87077907557641E-02 
351	 6.63920669932974E-02 
352	 5.70719801074425E-02 
353	 5.01233889230346E-02 
354	 5.69377457306026E-02 
355	 6.50834847417982E-02 
356	 6.89945943414496E-02 
357	 6.81339933522871E-02 
358	 7.14022676138846E-02 
359	 6.69147873218651E-02 
360	 5.92562219096648E-02 
361	 6.21272115286238E-02 
362	 6.33606943643124E-02 
363	 6.48056460048698E-02 
364	 0.067610507683425 
365	 6.94353631428672E-02 
366	 6.76769773601967E-02 
367	 6.72968249454154E-02 
368	 7.18815671024115E-02 
369	 7.17056207943613E-02 
370	 6.98162495779236E-02 
371	 6.89183575132997E-02 
372	 7.07970769896708E-02 
373	 7.28969402359434E-02 
374	 7.34518094434552E-02 
375	 7.24894343647375E-02 
376	 7.27908543374816E-02 
377	 7.20734331066268E-02 
378	 7.27368094710356E-02 
379	 7.67214090366139E-02 
380	 7.88508026758874E-02 
381	 7.73978473421685E-02 
382	 0.075131540461273 
383	 7.73724316393768E-02 
384	 7.91566527100964E-02 
385	 7.79373384141646E-02 
386	 7.52611497804759E-02 
387	 7.99946766179622E-02 
388	 8.15833475147734E-02 
389	 8.03331006724446E-02 
390	 7.97457259760388E-02 
391	 8.05382666675914E-02 
392	 8.08775901011078E-02 
393	 8.09732396552444E-02 
394	 8.26457732343988E-02 
395	 0.083527652742456 
396	 0.082966541329489 
397	 8.17439396381945E-02 
398	 8.31335802780438E-02 
399	 0.083658329391733 
400	 8.42589014975069E-02 
401	 8.64183034234298E-02 
402	 8.51862299769643E-02 
403	 8.34923362037844E-02 
404	 8.30630950028772E-02 
405	 8.38195887564621E-02 
406	 8.51789769438589E-02 
407	 0.086144534957731 
408	 8.60752467836305E-02 
409	 8.50859282338211E-02 
410	 8.47691690623238E-02 
411	 8.51513637912151E-02 
412	 8.55263608271799E-02 
413	 8.61300659472171E-02 
414	 8.63274326259686E-02 
415	 8.59817251386341E-02 
416	 8.56412316905744E-02 
417	 8.52615809556789E-02 
418	 8.53920422589401E-02 
419	 8.62030494111983E-02 
420	 8.62916090034306E-02 
421	 8.60921513131395E-02 
422	 0.086076994400375 
423	 0.086610165731867 
424	 8.69404850337056E-02 
425	 8.66042377726365E-02 
426	 0.085960734645799 
427	 8.68639680665668E-02 
428	 0.086725136598739 
429	 8.61677597595779E-02 
430	 8.64137740232623E-02 
431	 8.61300545658752E-02 
432	 8.55848141553527E-02 
433	 8.53346124625115E-02 
434	 8.60564710220649E-02 
435	 8.64256456219559E-02 
436	 8.62562948854195E-02 
437	 8.58143947710687E-02 
438	 8.58441531789215E-02 
439	 8.60413405627634E-02 
440	 8.61642137585333E-02 
441	 8.60551916245339E-02 
442	 8.59989480835943E-02 
443	 8.61579968641688E-02 
444	 8.63539966995648E-02 
445	 8.59054381002069E-02 
446	 8.59114641673579E-02 
447	 8.59399377998753E-02 
448	 8.54934667917737E-02 
449	 8.57487852948813E-02 
450	 8.62708756242901E-02 
451	 8.66012510273765E-02 
452	 8.63599638521321E-02 
453	 8.60365847687572E-02 
454	 8.58176723260449E-02 
455	 8.57796464851507E-02 
456	 8.59394401662692E-02 
457	 8.58434323058997E-02 
458	 8.55696856068857E-02 
459	 8.54746996731852E-02 
460	 0.08594417939762 
461	 8.60145306533602E-02 
462	 8.54880238551427E-02 
463	 8.53755232522544E-02 
464	 8.55648140350733E-02 
465	 8.58223679128018E-02 
466	 8.58955642573025E-02 
467	 8.57041408502338E-02 
468	 0.085549766997031 
469	 8.54833211842406E-02 
470	 8.53622988171591E-02 
471	 8.55138796105947E-02 
472	 8.56674708679646E-02 
473	 8.56269980873364E-02 
474	 8.56147778982098E-02 
475	 8.54430337711645E-02 
476	 8.53348695910047E-02 
477	 8.55732791647133E-02 
478	 8.55176717993171E-02 
479	 8.53735091793406E-02 
480	 0.08530205031965 
481	 8.52924741123089E-02 
482	 8.54083195352728E-02 
483	 8.55175150650413E-02 
484	 8.55022756622456E-02 
485	 8.55438006817031E-02 
486	 8.54833123428704E-02 
487	 0.085331797824595 
488	 8.52535778288113E-02 
489	 8.54832660534944E-02 
490	 8.55435149501998E-02 
491	 8.52156328124713E-02 
492	 8.52056084072682E-02 
493	 0.085216128454846 
494	 0.08519163034354 
495	 8.51929209222586E-02 
496	 8.53665222259107E-02 
497	 0.085417584755477 
498	 8.52860247004211E-02 
499	 8.53172339610722E-02 
500	 8.52430908838648E-02 
501	 8.52324847316697E-02 
502	 8.54427988455605E-02 
503	 0.085445654572079 
504	 8.53050801475037E-02 
505	 8.51504043234168E-02 
506	 8.51405830308778E-02 
507	 8.51437842011055E-02 
508	 8.51249528405436E-02 
509	 8.50985131501687E-02 
510	 8.51636734858453E-02 
511	 0.085228258434251 
512	 8.52328002331445E-02 
513	 8.51504689634784E-02 
514	 8.50498536306976E-02 
515	 8.50483149393806E-02 
516	 8.51689642025177E-02 
517	 8.52932382085412E-02 
518	 8.52180067071054E-02 
519	 8.51085117463625E-02 
520	 8.51987119812463E-02 
521	 8.53835096700144E-02 
522	 8.53628310137723E-02 
523	 8.51960914111382E-02 
524	 8.53141018655737E-02 
525	 8.53345673899384E-02 
526	 8.53076570117094E-02 
527	 8.53348794106639E-02 
528	 0.08537077235584 
529	 8.53837388402963E-02 
530	 8.54112744483132E-02 
531	 8.55137116353719E-02 
532	 8.54296058624243E-02 
533	 8.53657903816847E-02 
534	 8.54515913662041E-02 
535	 8.55275306432431E-02 
536	 8.55797419744911E-02 
537	 8.56081826356769E-02 
538	 8.56323230780806E-02 
539	 8.57130240839522E-02 
540	 8.57782822511371E-02 
541	 8.58146492843857E-02 
542	 0.085900602329008 
543	 8.59328607322557E-02 
544	 8.59735733582471E-02 
545	 8.60857456369906E-02 
546	 8.61595645534507E-02 
547	 0.086150485612742 
548	 8.61242517908163E-02 
549	 8.62269848348383E-02 
550	 8.63295608683811E-02 
551	 8.64160089667095E-02 
552	 8.64983537054146E-02 
553	 8.66068893476721E-02 
554	 8.66937263252091E-02 
555	 8.68087973587628E-02 
556	 0.087030386244748 
557	 8.71970179379929E-02 
558	 8.73361117684868E-02 
559	 8.75113054377941E-02 
560	 8.78236807625848E-02 
561	 8.80111740474713E-02 
562	 0.08817211530187 
563	 8.84793474257527E-02 
564	 8.87582423902759E-02 
565	 8.90440600699162E-02 
566	 8.93302883069585E-02 
567	 8.95530652905041E-02 
568	 8.97625072818636E-02 
569	 9.00812330298061E-02 
570	 9.05779678628992E-02 
571	 9.11155331971041E-02 
572	 9.15769406432015E-02 
573	 0.091991444738117 
574	 9.24871226064135E-02 
575	 9.29879739128989E-02 
576	 9.35418217801238E-02 
577	 9.41660235042232E-02 
578	 9.47830550567064E-02 
579	 9.53369198678721E-02 
580	 0.095858602791664 
581	 9.64159243063485E-02 
582	 9.69931799663967E-02 
583	 9.75743895080416E-02 
584	 9.82136981215142E-02 
585	 9.90703101543509E-02 
586	 0.099982862806673 
587	 0.100923067584146 
588	 0.1018994230358 
589	 0.102914058264853 
590	 0.103917281617923 
591	 0.104883997338254 
592	 0.10581656929008 
593	 0.10669034825328 
594	 0.1075034675368 
595	 0.108264415306736 
596	 0.108995351497624 
597	 0.10968529730708 
598	 0.110352369817934 
599	 0.111040962134188 
600	 0.111847951441578 
601	 0.112711002256665 
602	 0.113563951668414 
603	 0.114371057488873 
604	 0.115198478754271 
605	 0.116035496198656 
606	 0.116850347152294 
607	 0.117661484633167 
608	 0.118432665253168 
609	 0.11918096090278 
610	 0.119985189319603 
611	 0.120668583581554 
612	 0.121244595271404 
613	 0.121761452253433 
614	 0.122204398654598 
615	 0.122661001408204 
616	 0.123159035516263 
617	 0.123670204148671 
618	 0.124091636032909 
619	 0.124457333973607 
620	 0.124827294158239 
621	 0.125283035034582 
622	 0.125623595062621 
623	 0.125894724694061 
624	 0.126226928158991 
625	 0.126559758598166 
626	 0.126870515791092 
627	 0.127168931090631 
628	 0.127503566530818 
629	 0.127811794041633 
630	 0.128080274914414 
631	 0.128317629682818 
632	 0.128545781033591 
633	 0.128820462582754 
634	 0.129118984246785 
635	 0.129359579456611 
636	 0.129598048387333 
637	 0.129855588598553 
638	 0.13012923668391 
639	 0.130372808162394 
640	 0.130612696548396 
641	 0.130857875329126 
642	 0.131110596451032 
643	 0.131385501201677 
644	 0.131636379230431 
645	 0.131865764941369 
646	 0.132155396645272 
647	 0.132393441087423 
648	 0.132640443463722 
649	 0.132962873745589 
650	 0.133230339028106 
651	 0.133499130794215 
652	 0.133785155068196 
653	 0.134068496791394 
654	 0.134409665667944 
655	 0.134736649780362 
656	 0.135016015128453 
657	 0.135370547427848 
658	 0.135726174519629 
659	 0.136071635997161 
660	 0.136419329192225 
661	 0.136729591279314 
662	 0.137071003146991 
663	 0.137454693002012 
664	 0.137792914451612 
665	 0.13819979144758 
666	 0.138589269577739 
667	 0.138886343158296 
668	 0.139302678262205 
669	 0.139739208378508 
670	 0.140176313160155 
671	 0.140659328129274 
672	 0.141080659981694 
673	 0.141505057615689 
674	 0.141978711396945 
675	 0.142431626402461 
676	 0.14288195140071 
677	 0.143354069912157 
678	 0.143865758940877 
679	 0.144354695537866 
680	 0.144854964235212 
681	 0.145379289729831 
682	 0.145901785787449 
683	 0.146436203517527 
684	 0.146971689708093 
685	 0.147502958032152 
686	 0.148066010095955 
687	 0.148664606048442 
688	 0.149247174074046 
689	 0.14974049763572 
690	 0.150308238766389 
691	 0.150911868219874 
692	 0.151505362211389 
693	 0.152091626296542 
694	 0.152672429813264 
695	 0.1532770440403 
696	 0.153924557554775 
697	 0.154518882265742 
698	 0.155132629279259 
699	 0.155785191057518 
700	 0.156429536887716 
701	 0.157082882132512 
702	 0.157708575632708 
703	 0.158290789280995 
704	 0.15889519027194 
705	 0.159530302050823 
706	 0.160169297079446 
707	 0.160773019348652 
708	 0.161383704381323 
709	 0.162031535284434 
710	 0.162700365635626 
711	 0.163312714809132 
712	 0.163910832678327 
713	 0.164496647931463 
714	 0.165079415671701 
715	 0.165741044791072 
716	 0.166336800290013 
717	 0.166867933046167 
718	 0.167443735167287 
719	 0.168063091151464 
720	 0.168644093747822 
721	 0.169147189651428 
722	 0.169634196395671 
723	 0.170163542826224 
724	 0.17067971915868 
725	 0.1711132775849 
726	 0.171549998225415 
727	 0.171989107818324 
728	 0.172412547373717 
729	 0.172793422018794 
730	 0.173182286165179 
731	 0.173554720640884 
732	 0.173890375442547 
733	 0.17421097479354 
734	 0.174526338509194 
735	 0.174807382410532 
736	 0.17502475090134 
737	 0.175256773790945 
738	 0.175470880270702 
739	 0.175663302092695 
740	 0.175867879719614 
741	 0.175999638171364 
742	 0.176104260184425 
743	 0.176221646198571 
744	 0.176302121822349 
745	 0.176305921673507 
746	 0.176290348885636 
747	 0.176338310634763 
748	 0.176353650248356 
749	 0.176279661635775 
750	 0.176167206266472 
751	 0.176184818678769 
752	 0.17611145047396 
753	 0.175953072808637 
754	 0.175776777776882 
755	 0.175659969182918 
756	 0.175548486721053 
757	 0.175390187813347 
758	 0.175155586103493 
759	 0.174966415086381 
760	 0.174750483801262 
761	 0.174479678714671 
762	 0.174204002067877 
763	 0.173941936307898 
764	 0.173672446586092 
765	 0.173373132748175 
766	 0.17303788644491 
767	 0.17278786936585 
768	 0.172548049339684 
769	 0.172176627801499 
770	 0.171840978033506 
771	 0.1715318341697 
772	 0.171209644300832 
773	 0.170821726517852 
774	 0.170457124980287 
775	 0.170105872965523 
776	 0.169737099633354 
777	 0.16932144809539 
778	 0.168944125608611 
779	 0.168615266797397 
780	 0.168293719039586 
781	 0.167874629005012 
782	 0.167474424695711 
783	 0.16712081131106 
784	 0.166732288043249 
785	 0.166332461061277 
786	 0.165953579811095 
787	 0.165600002294747 
788	 0.165195826163266 
789	 0.16487936694266 
790	 0.164547868561428 
791	 0.164080190010581 
792	 0.163764763872268 
793	 0.163457254624889 
794	 0.163084445166798 
795	 0.162663807862834 
796	 0.1622799279439 
797	 0.161956684598601 
798	 0.161670230034286 
799	 0.161336530784094 
800	 0.160978176022413 
801	 0.160605871721226 
802	 0.160243868499443 
803	 0.15997577924031 
804	 0.159686148927077 
805	 0.15935236285623 
806	 0.159017478870313 
807	 0.158696344924433 
808	 0.158388970238546 
809	 0.158088911620367 
810	 0.157784633669186 
811	 0.157496996426384 
812	 0.157215103483657 
813	 0.156938128932114 
814	 0.156719128260498 
815	 0.156463228701223 
816	 0.156182550357196 
817	 0.155926852326085 
818	 0.155667880890428 
819	 0.155477123209568 
820	 0.155293375112263 
821	 0.154967109452896 
822	 0.154745338409745 
823	 0.154521245813286 
824	 0.154253588545769 
825	 0.154094164281975 
826	 0.153957718243954 
827	 0.153817197194864 
828	 0.15365332522385 
829	 0.153422309451898 
830	 0.153163211528774 
831	 0.152954810445038 
832	 0.152862720240296 
833	 0.152780459474468 
834	 0.152621614649346 
835	 0.15241856798586 
836	 0.152303479008328 
837	 0.152206001649174 
838	 0.152133907489224 
839	 0.15206325244997 
840	 0.151899685343054 
841	 0.151721106122808 
842	 0.15157728708491 
843	 0.151492053369613 
844	 0.151441811378922 
845	 0.15139032921908 
846	 0.151317855160589 
847	 0.151233745411039 
848	 0.151246427638319 
849	 0.151223073377045 
850	 0.151141090539412 
851	 0.151083950391649 
852	 0.151057351901517 
853	 0.151042956207176 
854	 0.15102208572149 
855	 0.150984551611494 
856	 0.150994739835942 
857	 0.151048568698069 
858	 0.151112084810399 
859	 0.15112220096345 
860	 0.151149269895737 
861	 0.151173053131601 
862	 0.151158784991863 
863	 0.151148388729189 
864	 0.151204512191867 
865	 0.151284210343135 
866	 0.151302165451086 
867	 0.151381067200522 
868	 0.151450272432187 
869	 0.151494627750786 
870	 0.151573130681306 
871	 0.151728535643895 
872	 0.151847545350227 
873	 0.151900748775365 
874	 0.152031703225174 
875	 0.15214979761798 
876	 0.1522471543027 
877	 0.152346470538136 
878	 0.152492935589486 
879	 0.152690037399836 
880	 0.152885650812373 
881	 0.153032128899611 
882	 0.153190873953428 
883	 0.153343959405663 
884	 0.153486592441043 
885	 0.153633126653204 
886	 0.153861490576632 
887	 0.154083486630357 
888	 0.154265198149513 
889	 0.154438599377932 
890	 0.154676790990828 
891	 0.15493290689277 
892	 0.155180446055584 
893	 0.155438059854836 
894	 0.155654620824442 
895	 0.155902250248306 
896	 0.156198621978094 
897	 0.156422880897731 
898	 0.156738768593103 
899	 0.157052449000269 
900	 0.157286666660426 
901	 0.157594678971663 
902	 0.157879547465416 
903	 0.158120613810089 
904	 0.158355218648309 
905	 0.158725867430967 
906	 0.159131355660992 
907	 0.159514561624317 
908	 0.159867929426835 
909	 0.160298437225246 
910	 0.160694234618179 
911	 0.161018820271656 
912	 0.161308483277301 
913	 0.161647226422006 
914	 0.162037836211392 
915	 0.162446352289752 
916	 0.162827894590362 
917	 0.16327558193047 
918	 0.163713126955511 
919	 0.164110609165225 
920	 0.16451939207216 
921	 0.165036275512861 
922	 0.165496650266621 
923	 0.165866558861787 
924	 0.166359909730213 
925	 0.166900789261479 
926	 0.167415063252743 
927	 0.167864517941078 
928	 0.168279126302425 
929	 0.168753473665755 
930	 0.169257485183175 
931	 0.169759357769612 
932	 0.170310857033825 
933	 0.170853639366002 
934	 0.17139717477484 
935	 0.171974012128665 
936	 0.172632634283587 
937	 0.17315866805284 
938	 0.173641302194477 
939	 0.174236089642971 
940	 0.174936603667824 
941	 0.175583693005685 
942	 0.176146642487874 
943	 0.176680868271482 
944	 0.177318936295692 
945	 0.177897428609391 
946	 0.178472655492566 
947	 0.179151723656714 
948	 0.179779939430482 
949	 0.180435958476377 
950	 0.181117930470887 
951	 0.181797227541027 
952	 0.182551775069985 
953	 0.183237216816184 
954	 0.18388527806473 
955	 0.184606371074709 
956	 0.1853164340843 
957	 0.186012932544593 
958	 0.18671125019674 
959	 0.187424219707812 
960	 0.188094524157873 
961	 0.188785183382448 
962	 0.189536143293057 
963	 0.190325703115734 
964	 0.190926237999826 
965	 0.191663007573657 
966	 0.192516373818536 
967	 0.193248905207594 
968	 0.193983975100211 
969	 0.194770071562356 
970	 0.195540149131357 
971	 0.196187887268209 
972	 0.19683396036893 
973	 0.197715436813211 
974	 0.198645150327485 
975	 0.199272847343874 
976	 0.200096159245596 
977	 0.200871579252651 
978	 0.201564843160256 
979	 0.202310766923498 
980	 0.203179042994992 
981	 0.203971277705326 
982	 0.20471323107249 
983	 0.205524154405433 
984	 0.206138202889277 
985	 0.206896201737365 
986	 0.207785461329751 
987	 0.208590128154534 
988	 0.209322641156352 
989	 0.209954506690059 
990	 0.210638851959894 
991	 0.211520130129478 
992	 0.212306654005021 
993	 0.212941038836063 
994	 0.213579831888167 
995	 0.21438217290222 
996	 0.215104316469416 
997	 0.216005198737122 
998	 0.216791191674032 
999	 0.217245213471994 
1000	 0.218178153613736 
1001	 0.215911998573022 
1002	 0.216542186479636 
1003	 0.217238405345837 
1004	 0.217867860022476 
1005	 0.218463586956038 
1006	 0.219101049610541 
1007	 0.21974123728015 
1008	 0.22031733831876 
1009	 0.220982186094969 
1010	 0.22157707218118 
1011	 0.222096528893257 
1012	 0.222666635680206 
1013	 0.223204259983232 
1014	 0.223721607652269 
1015	 0.224256841509223 
1016	 0.224780723387736 
1017	 0.225301378794515 
1018	 0.225807503586545 
1019	 0.226298135777932 
1020	 0.226806823955586 
1021	 0.227307781045453 
1022	 0.227717518753321 
1023	 0.228177248897734 
1024	 0.228698172652885 
1025	 0.229177166454436 
1026	 0.229646797179806 
1027	 0.230086541543277 
1028	 0.230469485511527 
1029	 0.230831660439151 
1030	 0.231231525152732 
1031	 0.231623486050301 
1032	 0.232025364488595 
1033	 0.232428781126849 
1034	 0.232835742478786 
1035	 0.233211823053417 
1036	 0.233620453106617 
1037	 0.234023673831642 
1038	 0.234462753737258 
1039	 0.234934681639394 
1040	 0.235310372392713 
1041	 0.235702530158804 
1042	 0.236071130316559 
1043	 0.236352002518782 
1044	 0.23669593088466 
1045	 0.237095072317454 
1046	 0.237470390132474 
1047	 0.237811487289404 
1048	 0.238180753521376 
1049	 0.238569865833769 
1050	 0.239056326548274 
1051	 0.239487869525673 
1052	 0.239876987711009 
1053	 0.240224508401042 
1054	 0.240464796618134 
1055	 0.240792122923172 
1056	 0.241211522151041 
1057	 0.241602783913073 
1058	 0.242075071635686 
1059	 0.24244639932663 
1060	 0.242761287907565 
1061	 0.243052162273421 
1062	 0.243360396815887 
1063	 0.243718318719924 
1064	 0.2440961369397 
1065	 0.244449245120632 
1066	 0.244766980899727 
1067	 0.245038890219119 
1068	 0.245330713869154 
1069	 0.245694847530743 
1070	 0.246038656066011 
1071	 0.246427225337096 
1072	 0.246757667342787 
1073	 0.247046563681496 
1074	 0.247344676641073 
1075	 0.247629398815615 
1076	 0.247896407560334 
1077	 0.248193134682952 
1078	 0.248457598455227 
1079	 0.248695840301142 
1080	 0.248993567552626 
1081	 0.249260350846251 
1082	 0.249526600808332 
1083	 0.249795463916491 
1084	 0.250045545278328 
1085	 0.25031195738477 
1086	 0.250609986499967 
1087	 0.250866820756452 
1088	 0.251112535841475 
1089	 0.251356429503115 
1090	 0.251569516454794 
1091	 0.251773840035524 
1092	 0.251954728573459 
1093	 0.252154396520137 
1094	 0.252390922396343 
1095	 0.252633235037669 
1096	 0.252883779255513 
1097	 0.253123474749005 
1098	 0.253338354674741 
1099	 0.253500691405362 
1100	 0.253698524759864 
1101	 0.253905860691724 
1102	 0.254110155088628 
1103	 0.254330472637633 
1104	 0.254527054399986 
1105	 0.25471302806913 
1106	 0.254886250182935 
1107	 0.255062234056753 
1108	 0.255254260558271 
1109	 0.255435292368532 
1110	 0.255635673684032 
1111	 0.255818223066666 
1112	 0.255988106312684 
1113	 0.256160799323484 
1114	 0.25631676764204 
1115	 0.256493352396791 
1116	 0.256680427119309 
1117	 0.256869976952705 
1118	 0.257057551025031 
1119	 0.2572859264927 
1120	 0.257505917897158 
1121	 0.257666709995195 
1122	 0.257831449621858 
1123	 0.25799847926771 
1124	 0.258159902202647 
1125	 0.258315761610477 
1126	 0.25847281285588 
1127	 0.258621945682779 
1128	 0.258776733794734 
1129	 0.258922997488963 
1130	 0.25907877938599 
1131	 0.259259108242004 
1132	 0.259416057902154 
1133	 0.259556483418074 
1134	 0.259705967035084 
1135	 0.259836987793191 
1136	 0.260003281312787 
1137	 0.260149554793111 
1138	 0.26028774892835 
1139	 0.26043603729131 
1140	 0.260580425528122 
1141	 0.260714251783551 
1142	 0.260856882372765 
1143	 0.260996013009881 
1144	 0.261128718854045 
1145	 0.261248875488124 
1146	 0.261353271146705 
1147	 0.261474526664624 
1148	 0.261595678381152 
1149	 0.261712189734874 
1150	 0.261836713331206 
1151	 0.261975128235317 
1152	 0.262075642919317 
1153	 0.262167491121437 
1154	 0.262275496247047 
1155	 0.262378728489008 
1156	 0.262498259376439 
1157	 0.262645892738059 
1158	 0.262761366444136 
1159	 0.262873775131189 
1160	 0.262979743137947 
1161	 0.263058871656338 
1162	 0.263153010217482 
1163	 0.263265465336959 
1164	 0.26335897984913 
1165	 0.263439480378017 
1166	 0.263523606459555 
1167	 0.263623147868152 
1168	 0.263712879203472 
1169	 0.263805328182081 
1170	 0.26391364947052 
1171	 0.264011629901685 
1172	 0.264097911968419 
1173	 0.264182440111957 
1174	 0.264273026296361 
1175	 0.264353048977353 
1176	 0.264415436488292 
1177	 0.264491892802606 
1178	 0.264564717403063 
1179	 0.264651241380225 
1180	 0.264764152729298 
1181	 0.26485203849908 
1182	 0.2649349060611 
1183	 0.265015901637487 
1184	 0.265092650733668 
1185	 0.265149040670395 
1186	 0.265220080879004 
1187	 0.265302073516286 
1188	 0.265376817693137 
1189	 0.265433366098913 
1190	 0.265522629040347 
1191	 0.265635570131374 
1192	 0.265732618366619 
1193	 0.265854288347508 
1194	 0.265946455261267 
1195	 0.266009046498529 
1196	 0.266081211660191 
1197	 0.266141599176611 
1198	 0.266210308999606 
1199	 0.266282616386953 
1200	 0.266357324852247 
1201	 0.266440593362912 
1202	 0.266538451509831 
1203	 0.266615430465791 
1204	 0.266685249983275 
1205	 0.26676470163269 
1206	 0.266833652930022 
1207	 0.266912826852355 
1208	 0.26702453067268 
1209	 0.26709823569857 
1210	 0.267144058230947 
1211	 0.267203970139099 
1212	 0.267241874778874 
1213	 0.267300624622949 
1214	 0.267394379593659 
1215	 0.267464093086255 
1216	 0.267527238701967 
1217	 0.26758553270305 
1218	 0.267648013106994 
1219	 0.267698930757572 
1220	 0.267756310964885 
1221	 0.267825443481854 
1222	 0.267884224831522 
1223	 0.267938707418544 
1224	 0.267985825483545 
1225	 0.268020577719138 
1226	 0.268069397566839 
1227	 0.268112702290262 
1228	 0.268165974312189 
1229	 0.268236824906229 
1230	 0.268303928164283 
1231	 0.268381194235916 
1232	 0.268443471177232 
1233	 0.268499766032175 
1234	 0.268548385515697 
1235	 0.268609843391962 
1236	 0.268663405629958 
1237	 0.26872860133764 
1238	 0.26883751161995 
1239	 0.268873584384752 
1240	 0.268857168357501 
1241	 0.268881238945006 
1242	 0.268876817991599 
1243	 0.268898554100016 
1244	 0.268967163392377 
1245	 0.269014025680093 
1246	 0.26904684436578 
1247	 0.269085682799646 
1248	 0.269122039573234 
1249	 0.269169577545265 
1250	 0.269244120785783 
1251	 0.26928131001051 
1252	 0.269317485094844 
1253	 0.269353170363862 
1254	 0.26938527697156 
1255	 0.269397644699777 
1256	 0.269418880399714 
1257	 0.269456342411889 
1258	 0.269469913251443 
1259	 0.269465987830607 
1260	 0.26946452914847 
1261	 0.269444852504089 
1262	 0.26944301439882 
1263	 0.269451399303413 
1264	 0.269454491399479 
1265	 0.269460181501494 
1266	 0.26947137362224 
1267	 0.269479215850855 
1268	 0.269490218393867 
1269	 0.269511117330048 
1270	 0.269538816599669 
1271	 0.269582830620202 
1272	 0.269636651798462 
1273	 0.269698646469929 
1274	 0.269784703252303 
1275	 0.269852074351224 
1276	 0.269897405451881 
1277	 0.269983651449195 
1278	 0.270088598912896 
1279	 0.270193674013659 
1280	 0.270331443401041 
1281	 0.270455274619245 
1282	 0.270569102907077 
1283	 0.270684263021448 
1284	 0.270796879074104 
1285	 0.270922146514836 
1286	 0.271041120421851 
1287	 0.271157060465798 
1288	 0.27127601845551 
1289	 0.271408923059496 
1290	 0.271510037182492 
1291	 0.271594731237464 
1292	 0.271684486713893 
1293	 0.271761660415797 
1294	 0.271839090904126 
1295	 0.271925050593162 
1296	 0.2719936945589 
1297	 0.272045650557372 
1298	 0.272097003251784 
1299	 0.272145179180822 
1300	 0.272184470656612 
1301	 0.27220937952836 
1302	 0.272244082331356 
1303	 0.272280619364323 
1304	 0.272308258824997 
1305	 0.272361355079616 
1306	 0.272378315105044 
1307	 0.272359533121998 
1308	 0.272341952211682 
1309	 0.272322592668106 
1310	 0.272279796478709 
1311	 0.272253525662555 
1312	 0.27225056306927 
1313	 0.272214637231337 
1314	 0.272163830204839 
1315	 0.27210506838533 
1316	 0.272019650186319 
1317	 0.271957193187631 
1318	 0.271892221712315 
1319	 0.271836459277669 
1320	 0.271802531391621 
1321	 0.271755906428857 
1322	 0.27169808345311 
1323	 0.271660128319472 
1324	 0.271613911642251 
1325	 0.271545777780374 
1326	 0.271490487814227 
1327	 0.271443354035275 
1328	 0.271390933735872 
1329	 0.271346467002908 
1330	 0.271299410054916 
1331	 0.271253082450451 
1332	 0.27119508383717 
1333	 0.27113801543003 
1334	 0.271075670859987 
1335	 0.270989629825159 
1336	 0.270933842118726 
1337	 0.270897108499748 
1338	 0.270845781653985 
1339	 0.270809525647159 
1340	 0.270753323426902 
1341	 0.270679890164083 
1342	 0.270606943184238 
1343	 0.270516274611908 
1344	 0.270447814932613 
1345	 0.270382126674337 
1346	 0.27030180244959 
1347	 0.270251336427977 
1348	 0.270207783441458 
1349	 0.270166701109958 
1350	 0.270127674965776 
1351	 0.270065990685593 
1352	 0.269989233196188 
1353	 0.26991840893177 
1354	 0.269834815709731 
1355	 0.269756539592331 
1356	 0.269686698361657 
1357	 0.269606086174532 
1358	 0.269502415628911 
1359	 0.269428696969889 
1360	 0.26935764536535 
1361	 0.269305618842444 
1362	 0.269295451025749 
1363	 0.269256349975281 
1364	 0.269205145846261 
1365	 0.269168600743331 
1366	 0.269122305652285 
1367	 0.269081164835273 
1368	 0.269084919704367 
1369	 0.269084802241349 
1370	 0.26907723620998 
1371	 0.26906470103722 
1372	 0.269019806644983 
1373	 0.268971104276632 
1374	 0.268897321207028 
1375	 0.26879773771965 
1376	 0.268697729088236 
1377	 0.268579752358741 
1378	 0.268460595274155 
1379	 0.268332972411487 
1380	 0.26821576476719 
1381	 0.268086271974591 
1382	 0.267972836147571 
1383	 0.26789363693308 
1384	 0.267775060502611 
1385	 0.26764953353604 
1386	 0.267511042770184 
1387	 0.267337963359539 
1388	 0.267175829149008 
1389	 0.267015302823168 
1390	 0.266852476836272 
1391	 0.266690240189091 
1392	 0.26651724184929 
1393	 0.266304587778624 
1394	 0.266079777588167 
1395	 0.265817852525735 
1396	 0.26553790428982 
1397	 0.26529064530442 
1398	 0.265049883344925 
1399	 0.264810275288608 
1400	 0.264598154954386 
1401	 0.264358471830168 
1402	 0.264098619959909 
1403	 0.26385204001607 
1404	 0.263592431843349 
1405	 0.263358111224095 
1406	 0.263134098533115 
1407	 0.262920704052388 
1408	 0.262731759678134 
1409	 0.262534825346191 
1410	 0.26233256579919 
1411	 0.262152231288712 
1412	 0.261977765509371 
1413	 0.261807832909502 
1414	 0.261689241164446 
1415	 0.26157483149527 
1416	 0.261465089688465 
1417	 0.261377713658871 
1418	 0.261274089732436 
1419	 0.261187410259628 
1420	 0.261124459657994 
1421	 0.261059271809761 
1422	 0.26100572076256 
1423	 0.260936134360086 
1424	 0.260857351036849 
1425	 0.260765489069331 
1426	 0.26067900481746 
1427	 0.260565586397025 
1428	 0.260504258362489 
1429	 0.260461545694821 
1430	 0.260430841603646 
1431	 0.260450642187134 
1432	 0.260430626269574 
1433	 0.260400137224059 
1434	 0.260373796528609 
1435	 0.260310700385908 
1436	 0.260298938285867 
1437	 0.260313932599531 
1438	 0.260330985363131 
1439	 0.260375578842379 
1440	 0.260432874845036 
1441	 0.260455800421568 
1442	 0.260464400180677 
1443	 0.26045338582692 
1444	 0.260447374575385 
1445	 0.260458872467123 
1446	 0.260469601678516 
1447	 0.260501104735342 
1448	 0.260529546429824 
1449	 0.260532478890042 
1450	 0.260549255868706 
1451	 0.260557494158035 
1452	 0.260546818133728 
1453	 0.260557078697631 
1454	 0.260570651291952 
1455	 0.260599531878941 
1456	 0.260652713717644 
1457	 0.260689164659117 
1458	 0.260726099730011 
1459	 0.260767062683316 
1460	 0.260792488374797 
1461	 0.260837850936881 
1462	 0.260901257399187 
1463	 0.260964100493689 
1464	 0.261044880847108 
1465	 0.261107189609343 
1466	 0.261166108411042 
1467	 0.261216797882027 
1468	 0.261232349223273 
1469	 0.261284399418181 
1470	 0.261350046154423 
1471	 0.261426213738911 
1472	 0.261525639454547 
1473	 0.2616273485446 
1474	 0.261684422429175 
1475	 0.261733510843028 
1476	 0.261771739724687 
1477	 0.261802943324386 
1478	 0.261854863733966 
1479	 0.261917544101447 
1480	 0.261999025153886 
1481	 0.262082177147834 
1482	 0.262152330767673 
1483	 0.262225008127739 
1484	 0.262289569624987 
1485	 0.262333551055773 
1486	 0.262398020926234 
1487	 0.262465213161161 
1488	 0.262548875865355 
1489	 0.262654542616524 
1490	 0.262739308996527 
1491	 0.262835269301152 
1492	 0.262909268546913 
1493	 0.262951758938922 
1494	 0.263014783608294 
1495	 0.263077124624353 
1496	 0.263144841339334 
1497	 0.263231952649456 
1498	 0.263303355321229 
1499	 0.263369012695077 
1500	 0.263426673749203 
1501	 0.263472742450166 
1502	 0.263519174642432 
1503	 0.263556130927259 
1504	 0.263600312105137 
1505	 0.263658405639963 
1506	 0.263712595838564 
1507	 0.263761111973622 
1508	 0.263820452930579 
1509	 0.26386502482991 
1510	 0.26389397432707 
1511	 0.26393348721114 
1512	 0.263978234869904 
1513	 0.264020881033759 
1514	 0.264059600037858 
1515	 0.264112659041648 
1516	 0.264175128097557 
1517	 0.264226672010916 
1518	 0.26428754789273 
1519	 0.264336441606908 
1520	 0.264372676190521 
1521	 0.264402787738121 
1522	 0.26442132291219 
1523	 0.264460831494041 
1524	 0.264497311525552 
1525	 0.264539859020418 
1526	 0.264607096484022 
1527	 0.26465643504554 
1528	 0.264697977811218 
1529	 0.264737938327686 
1530	 0.264773920031606 
1531	 0.264809261074304 
1532	 0.264839174536921 
1533	 0.264865428767924 
1534	 0.264886988075173 
1535	 0.26491736487555 
1536	 0.264947610682378 
1537	 0.264979402135031 
1538	 0.265027038577753 
1539	 0.265057232897843 
1540	 0.265068290529669 
1541	 0.26509346885784 
1542	 0.265125170035206 
1543	 0.265146192762845 
1544	 0.265171414635158 
1545	 0.265187779436368 
1546	 0.26518535653815 
1547	 0.265191884728187 
1548	 0.265200760316684 
1549	 0.265216383757067 
1550	 0.265247454513481 
1551	 0.265274563446324 
1552	 0.265310363485646 
1553	 0.265367481729417 
1554	 0.265417553584566 
1555	 0.265461098773804 
1556	 0.265488530579225 
1557	 0.26551137105382 
1558	 0.26553710052228 
1559	 0.265548073219448 
1560	 0.265569166784411 
1561	 0.26559859328412 
1562	 0.265619585028993 
1563	 0.2656403583425 
1564	 0.265653307018941 
1565	 0.265663191136037 
1566	 0.265666404285568 
1567	 0.265656031949415 
1568	 0.265657971808967 
1569	 0.265662755818752 
1570	 0.265665755900367 
1571	 0.265673429307942 
1572	 0.265676814679551 
1573	 0.265668820451532 
1574	 0.265677397168134 
1575	 0.265697369643638 
1576	 0.265708985238114 
1577	 0.2657253373715 
1578	 0.265740497912864 
1579	 0.265748368111738 
1580	 0.265763631223822 
1581	 0.265790362080088 
1582	 0.265805615440378 
1583	 0.265813923735022 
1584	 0.265825016336957 
1585	 0.265834082217667 
1586	 0.265843645237175 
1587	 0.265856745597769 
1588	 0.265865239031773 
1589	 0.265880244483292 
1590	 0.26587157452642 
1591	 0.265843251305097 
1592	 0.26582360391953 
1593	 0.265775904721801 
1594	 0.26576015508792 
1595	 0.265777887685567 
1596	 0.265780934330988 
1597	 0.265793370721277 
1598	 0.265797903683267 
1599	 0.26579644944164 
1600	 0.265786248608499 
1601	 0.26576910304579 
1602	 0.265754044777777 
1603	 0.265713906836223 
1604	 0.265700167217009 
1605	 0.265699327386263 
1606	 0.265710199338645 
1607	 0.265741829598198 
1608	 0.265784547920246 
1609	 0.265817162028945 
1610	 0.265841701071027 
1611	 0.265851091766087 
1612	 0.265843768057423 
1613	 0.265819453505091 
1614	 0.265798621112928 
1615	 0.265794818512877 
1616	 0.26579613534785 
1617	 0.265811775246446 
1618	 0.265827810326761 
1619	 0.265815082312621 
1620	 0.2658052435221 
1621	 0.265807941394359 
1622	 0.265817095119262 
1623	 0.265814940516839 
1624	 0.265816821902044 
1625	 0.265819046057489 
1626	 0.265804335652448 
1627	 0.265817867357506 
1628	 0.265852498051861 
1629	 0.265875661288592 
1630	 0.265904767672775 
1631	 0.265931786357794 
1632	 0.265958962753908 
1633	 0.265981025233306 
1634	 0.266007448841672 
1635	 0.266015796516205 
1636	 0.266012722034561 
1637	 0.266006240447148 
1638	 0.265979506398587 
1639	 0.265981747303088 
1640	 0.265993523351084 
1641	 0.266001593025364 
1642	 0.266024784142859 
1643	 0.26603835028553 
1644	 0.266042296417071 
1645	 0.266051054006295 
1646	 0.266060789556316 
1647	 0.266078913017452 
1648	 0.266106889302311 
1649	 0.266114896384607 
1650	 0.26613263557209 
1651	 0.266118581590201 
1652	 0.266062223512016 
1653	 0.266041060305974 
1654	 0.266015350923745 
1655	 0.266007609266734 
1656	 0.266035807023787 
1657	 0.26602571747771 
1658	 0.266003859198629 
1659	 0.265982636996385 
1660	 0.265944807439586 
1661	 0.265910590807104 
1662	 0.265870028009323 
1663	 0.265850352263692 
1664	 0.265829087963821 
1665	 0.265824741236495 
1666	 0.265844988058714 
1667	 0.265864642556441 
1668	 0.265895641070712 
1669	 0.265915520972111 
1670	 0.265942429861549 
1671	 0.265959432717956 
1672	 0.265965245756841 
1673	 0.265968960194758 
1674	 0.265967624787996 
1675	 0.265971745739331 
1676	 0.265977885583022 
1677	 0.265971058117449 
1678	 0.265960610572007 
1679	 0.265952757187655 
1680	 0.265923075787 
1681	 0.265921416850027 
1682	 0.265943827607295 
1683	 0.265954356412511 
1684	 0.265969277689951 
1685	 0.265984704318168 
1686	 0.266013309305898 
1687	 0.266007713733908 
1688	 0.265978870565799 
1689	 0.265969238299158 
1690	 0.265948865965406 
1691	 0.265923320339767 
1692	 0.265902949350971 
1693	 0.265896361536015 
1694	 0.265876297973423 
1695	 0.265869088081518 
1696	 0.265896255180989 
1697	 0.265904252856645 
1698	 0.265898657728062 
1699	 0.265897539018193 
1700	 0.26590541377779 
1701	 0.265897675494153 
1702	 0.265871201044111 
1703	 0.265861579559745 
1704	 0.265860711482006 
1705	 0.265844705607676 
1706	 0.265829065955256 
1707	 0.265809636841472 
1708	 0.265773608377254 
1709	 0.26575061264214 
1710	 0.265734077491471 
1711	 0.26571934679491 
1712	 0.265710468302017 
1713	 0.26569111659646 
1714	 0.265675142871262 
1715	 0.265652838384401 
1716	 0.265615821712451 
1717	 0.265586681466549 
1718	 0.265560971445916 
1719	 0.2655302299227 
1720	 0.265491302814158 
1721	 0.26547444109407 
1722	 0.265472517349314 
1723	 0.265454738032595 
1724	 0.265451253546835 
1725	 0.265416863766463 
1726	 0.265340086592443 
1727	 0.26531207932491 
1728	 0.265300930683301 
1729	 0.265280956227352 
1730	 0.265284119205158 
1731	 0.265264033249256 
1732	 0.265224569124084 
1733	 0.265187605564838 
1734	 0.265156942182118 
1735	 0.265110786843445 
1736	 0.265038887356933 
1737	 0.264996922241225 
1738	 0.264966866502863 
1739	 0.264921016343605 
1740	 0.264885802957665 
1741	 0.264828121900164 
1742	 0.264746946793105 
1743	 0.26468689243382 
1744	 0.264637149719562 
1745	 0.264562602557736 
1746	 0.264473195434539 
1747	 0.264388487169884 
1748	 0.264323973370405 
1749	 0.264312295696952 
1750	 0.264302806178248 
1751	 0.264294436487016 
1752	 0.264266946770288 
1753	 0.264200906798334 
1754	 0.264149587718747 
1755	 0.264085139997362 
1756	 0.264011306298421 
1757	 0.263953496433573 
1758	 0.263905785241121 
1759	 0.263869225863386 
1760	 0.263849201592008 
1761	 0.263850858585695 
1762	 0.263806018686807 
1763	 0.263718941349271 
1764	 0.263662529446561 
1765	 0.263630490610431 
1766	 0.263605320481323 
1767	 0.263593493801309 
1768	 0.263579292778513 
1769	 0.263513103572534 
1770	 0.263449215688766 
1771	 0.263437561153106 
1772	 0.263407827509167 
1773	 0.263378072218504 
1774	 0.263361902592531 
1775	 0.263306856257244 
1776	 0.263240845428444 
1777	 0.263187967123869 
1778	 0.263124437019683 
1779	 0.263066156181714 
1780	 0.263033649302179 
1781	 0.263013466986381 
1782	 0.263008949808719 
1783	 0.2630332252227 
1784	 0.263044686968457 
1785	 0.263068967193939 
1786	 0.263075742659892 
1787	 0.26306448890404 
1788	 0.263052828362914 
1789	 0.263037040585924 
1790	 0.263015453784718 
1791	 0.262994971666196 
1792	 0.262967305498575 
1793	 0.262910669162539 
1794	 0.262900139208661 
1795	 0.262910135999783 
1796	 0.262904699922571 
1797	 0.262936357762422 
1798	 0.262917298636325 
1799	 0.262853842316539 
1800	 0.262819208916489 
1801	 0.25832756406183 
1802	 0.258528577308241 
1803	 0.258741739059039 
1804	 0.25899661779574 
1805	 0.259263978551925 
1806	 0.25952507186534 
1807	 0.259810873561598 
1808	 0.260036722900443 
1809	 0.260248949697606 
1810	 0.2604201189552 
1811	 0.260549630278147 
1812	 0.260648620715015 
1813	 0.260759194769208 
1814	 0.260843850917282 
1815	 0.260928691357401 
1816	 0.261003716761693 
1817	 0.261052005966798 
1818	 0.261071212218593 
1819	 0.261102442456695 
1820	 0.261115263317256 
1821	 0.261127740210283 
1822	 0.261197553986023 
1823	 0.261256240896656 
1824	 0.261327440234098 
1825	 0.261398484522602 
1826	 0.261450684229733 
1827	 0.261505794903699 
1828	 0.261531819801527 
1829	 0.261540320109408 
1830	 0.261548714388514 
1831	 0.261527594896688 
1832	 0.261524408546468 
1833	 0.261524469582449 
1834	 0.261546523927114 
1835	 0.261597313226261 
1836	 0.261586361772533 
1837	 0.261648164589204 
1838	 0.261739238917187 
1839	 0.261791492491074 
1840	 0.261829206416999 
1841	 0.261912843573691 
1842	 0.261941056125767 
1843	 0.261948693026649 
1844	 0.261974819505545 
1845	 0.26197010299473 
1846	 0.261967128807179 
1847	 0.261974371348724 
1848	 0.261990300230783 
1849	 0.262016287875482 
1850	 0.262031967580961 
1851	 0.262049415106363 
1852	 0.262041625860644 
1853	 0.262045570755987 
1854	 0.262065311003779 
1855	 0.262096525686963 
1856	 0.262139822734204 
1857	 0.262154040823719 
1858	 0.262136223316861 
1859	 0.262070112892844 
1860	 0.261978418290593 
1861	 0.261842131376042 
1862	 0.261700536230309 
1863	 0.261553692826284 
1864	 0.261403401275024 
1865	 0.261258405518006 
1866	 0.26110693262882 
1867	 0.260915695759601 
1868	 0.260687637027686 
1869	 0.260454842679035 
1870	 0.260223319196009 
1871	 0.259986679746463 
1872	 0.259751031166369 
1873	 0.259522595468814 
1874	 0.259271444110953 
1875	 0.258997049010255 
1876	 0.258705811168416 
1877	 0.258390719666174 
1878	 0.258023159837387 
1879	 0.257606846256005 
1880	 0.257164883416637 
1881	 0.256684829901317 
1882	 0.256164305239755 
1883	 0.255618707977197 
1884	 0.255015523786802 
1885	 0.25439150363158 
1886	 0.253683700813976 
1887	 0.252931974698532 
1888	 0.252178951656029 
1889	 0.251341315724804 
1890	 0.25047474497029 
1891	 0.249604117923106 
1892	 0.248710268263174 
1893	 0.247789822820129 
1894	 0.246836223578527 
1895	 0.245893890989013 
1896	 0.244950610213125 
1897	 0.244022194877585 
1898	 0.243100491444033 
1899	 0.242167253207309 
1900	 0.241241848507778 
1901	 0.240316235461656 
1902	 0.23943875315738 
1903	 0.238611445393237 
1904	 0.23779905803731 
1905	 0.237001666066615 
1906	 0.236247967782248 
1907	 0.235539396539645 
1908	 0.234872851994418 
1909	 0.2342497573278 
1910	 0.233663354788088 
1911	 0.233086683168626 
1912	 0.232500145906399 
1913	 0.231971156239552 
1914	 0.231482919926873 
1915	 0.231016575221137 
1916	 0.230575159308877 
1917	 0.230185563481147 
1918	 0.229830745325766 
1919	 0.2294595056716 
1920	 0.229135671469258 
1921	 0.228847945898605 
1922	 0.228575532011685 
1923	 0.228354436995806 
1924	 0.228156035623472 
1925	 0.227992075371856 
1926	 0.227857120983644 
1927	 0.227751820875615 
1928	 0.227674179975554 
1929	 0.227622480804194 
1930	 0.227598651893165 
1931	 0.227589593351955 
1932	 0.227563692337579 
1933	 0.227575615161629 
1934	 0.227603429397667 
1935	 0.227630083352572 
1936	 0.227663763363017 
1937	 0.22772073548965 
1938	 0.227783164343992 
1939	 0.227864444340331 
1940	 0.227976841042545 
1941	 0.228087859521372 
1942	 0.228200370287374 
1943	 0.228299831291345 
1944	 0.228425422434136 
1945	 0.22859568325506 
1946	 0.228739984280956 
1947	 0.228887366242221 
1948	 0.229045584929978 
1949	 0.229183503836216 
1950	 0.229345781720069 
1951	 0.229519013347828 
1952	 0.229729619771901 
1953	 0.229949383122103 
1954	 0.230209007139891 
1955	 0.230463700709998 
1956	 0.23071651688013 
1957	 0.230985822746894 
1958	 0.231253697335238 
1959	 0.231527075221746 
1960	 0.231827021166559 
1961	 0.232116335278315 
1962	 0.232390217360303 
1963	 0.232680532432802 
1964	 0.232972355647879 
1965	 0.233288632025144 
1966	 0.233617680700178 
1967	 0.233925983569848 
1968	 0.234234638364814 
1969	 0.234546373602498 
1970	 0.2348487771469 
1971	 0.235134247355547 
1972	 0.235438848233019 
1973	 0.235755081221415 
1974	 0.236058793869006 
1975	 0.236363314732414 
1976	 0.236663267696859 
1977	 0.236974129571501 
1978	 0.237274864310005 
1979	 0.237574771255961 
1980	 0.237879839881395 
1981	 0.23816612615362 
1982	 0.238414774873913 
1983	 0.23870422983279 
1984	 0.238993072162271 
1985	 0.239304749921428 
1986	 0.239676634936235 
1987	 0.239997842405565 
1988	 0.240300888243302 
1989	 0.240613366247352 
1990	 0.240899291763846 
1991	 0.241152541637167 
1992	 0.241440366851371 
1993	 0.241755501037698 
1994	 0.24203092405905 
1995	 0.242288821022975 
1996	 0.242565031776833 
1997	 0.242824772581404 
1998	 0.243098548194197 
1999	 0.24341394493389 
2000	 0.243692247191228 
2001	 0.243949268904255 
2002	 0.244194807987578 
2003	 0.24445315085347 
2004	 0.244720816603653 
2005	 0.244980178972962 
2006	 0.245251013053527 
2007	 0.24551529824902 
2008	 0.245762068358913 
2009	 0.246018525350389 
2010	 0.246297411823551 
2011	 0.246552051586027 
2012	 0.246799036885234 
2013	 0.247037309483074 
2014	 0.247261774293626 
2015	 0.247466556569191 
2016	 0.247697511157308 
2017	 0.247949629156673 
2018	 0.24820402412361 
2019	 0.248490987272856 
2020	 0.24874969673062 
2021	 0.248990481813702 
2022	 0.249248023343835 
2023	 0.249509229679946 
2024	 0.249770948760659 
2025	 0.250055174323151 
2026	 0.250313775591619 
2027	 0.250564560913559 
2028	 0.250793236499085 
2029	 0.251027974725032 
2030	 0.251255374382651 
2031	 0.251473902882153 
2032	 0.251688467198655 
2033	 0.251897414333248 
2034	 0.252085105326927 
2035	 0.252289340505581 
2036	 0.252508293593528 
2037	 0.252710595355611 
2038	 0.252912436008056 
2039	 0.253105611993251 
2040	 0.253283997709854 
2041	 0.253458280780891 
2042	 0.253644545720412 
2043	 0.25382842322224 
2044	 0.254020444296238 
2045	 0.254227937813419 
2046	 0.254416143026746 
2047	 0.254612660609619 
2048	 0.254779676285178 
2049	 0.254928660311382 
2050	 0.255067698677886 
2051	 0.255171049012415 
2052	 0.255296525398359 
2053	 0.255421599849679 
2054	 0.255546030703787 
2055	 0.25567007721373 
2056	 0.255816971311005 
2057	 0.255944987807934 
2058	 0.256065967213049 
2059	 0.256189787547149 
2060	 0.256301496035897 
2061	 0.25643507413773 
2062	 0.256584045601268 
2063	 0.256722913201217 
2064	 0.256877506634214 
2065	 0.257014813161547 
2066	 0.257135015736673 
2067	 0.257256765161034 
2068	 0.257353341716306 
2069	 0.257489651578311 
2070	 0.257622288866013 
2071	 0.257761177642268 
2072	 0.257892449530473 
2073	 0.258042743103641 
2074	 0.258161571043586 
2075	 0.258248031375681 
2076	 0.258363292646984 
2077	 0.258473351118258 
2078	 0.258596474370211 
2079	 0.258739875398204 
2080	 0.258879733637589 
2081	 0.259026557882538 
2082	 0.259168492713984 
2083	 0.259318802745974 
2084	 0.259454158380813 
2085	 0.259592749641631 
2086	 0.259723960427999 
2087	 0.259862114771494 
2088	 0.260015368017704 
2089	 0.26013715999901 
2090	 0.260236930490218 
2091	 0.260353459377634 
2092	 0.260448353286789 
2093	 0.260566170897347 
2094	 0.260710075033432 
2095	 0.260849405651124 
2096	 0.260987653400933 
2097	 0.26113395747916 
2098	 0.261311486759587 
2099	 0.261445959881954 
2100	 0.261594646621046 
2101	 0.261743391437717 
2102	 0.26189556474815 
2103	 0.26204764280241 
2104	 0.262194479577189 
2105	 0.262333453915213 
2106	 0.262491953880567 
2107	 0.262646840926464 
2108	 0.26281578888572 
2109	 0.263024388843868 
2110	 0.263203618780278 
2111	 0.26336609613721 
2112	 0.263536623924511 
2113	 0.2637201476803 
2114	 0.263869690873996 
2115	 0.264018475758741 
2116	 0.264164979913183 
2117	 0.26431010095102 
2118	 0.264436499066058 
2119	 0.264572648679267 
2120	 0.264717013380167 
2121	 0.264858974844941 
2122	 0.265003046257496 
2123	 0.265132939498251 
2124	 0.265277907371677 
2125	 0.265386346659728 
2126	 0.265450954540654 
2127	 0.265534553414254 
2128	 0.265605327472603 
2129	 0.265678969745641 
2130	 0.265772220680252 
2131	 0.265855320627197 
2132	 0.265905633140551 
2133	 0.265928646789521 
2134	 0.265968995653725 
2135	 0.265992342636229 
2136	 0.266019471736033 
2137	 0.266077287647915 
2138	 0.266083003736414 
2139	 0.266047387346383 
2140	 0.266026866677652 
2141	 0.265981038864674 
2142	 0.265949234011963 
2143	 0.26595933459752 
2144	 0.265912896957988 
2145	 0.265838113559122 
2146	 0.26575578544647 
2147	 0.265630395795536 
2148	 0.265505314961754 
2149	 0.265386273484575 
2150	 0.265270201806089 
2151	 0.265151991969551 
2152	 0.265026538956889 
2153	 0.2649114916574 
2154	 0.264826346623807 
2155	 0.264686864705011 
2156	 0.264537423640065 
2157	 0.264363032631386 
2158	 0.264126718604563 
2159	 0.263920033861999 
2160	 0.263723876824398 
2161	 0.263511355734024 
2162	 0.263282835670276 
2163	 0.263071327638348 
2164	 0.262842121260342 
2165	 0.262643355770464 
2166	 0.262446553899547 
2167	 0.262273204559495 
2168	 0.262085787517687 
2169	 0.261903392567765 
2170	 0.261704883107572 
2171	 0.261487831587075 
2172	 0.26129956598524 
2173	 0.261112372445912 
2174	 0.260934399349403 
2175	 0.260791229159119 
2176	 0.260621851651082 
2177	 0.260447481004163 
2178	 0.260257228126709 
2179	 0.260035602513455 
2180	 0.259839391405977 
2181	 0.259658995872545 
2182	 0.25945638360329 
2183	 0.259233897505764 
2184	 0.259048949968929 
2185	 0.258857384674776 
2186	 0.258638081675788 
2187	 0.258466529472523 
2188	 0.258334886708182 
2189	 0.258191855394547 
2190	 0.258061483778177 
2191	 0.257927344677525 
2192	 0.257803396033526 
2193	 0.257668024050298 
2194	 0.257517100454425 
2195	 0.257385647386611 
2196	 0.257249611326497 
2197	 0.257134613330181 
2198	 0.257038778727257 
2199	 0.256953126304109 
2200	 0.256880924031099 
2201	 0.256817007859911 
2202	 0.256779301375122 
2203	 0.256720717316215 
2204	 0.256686778367519 
2205	 0.256680432252321 
2206	 0.256630147131479 
2207	 0.256566052794227 
2208	 0.256512892948472 
2209	 0.25642644480482 
2210	 0.256382415275859 
2211	 0.256370393165186 
2212	 0.256354299160068 
2213	 0.256336561450927 
2214	 0.256344451955297 
2215	 0.25638835167567 
2216	 0.256404719968471 
2217	 0.256432075038221 
2218	 0.256445323801434 
2219	 0.256418443956936 
2220	 0.256422257803749 
2221	 0.25644796156051 
2222	 0.256461743307249 
2223	 0.256488243364301 
2224	 0.256528798099023 
2225	 0.256553681878401 
2226	 0.256570208008021 
2227	 0.256599647497259 
2228	 0.256628652402225 
2229	 0.256660973704159 
2230	 0.256714496376836 
2231	 0.256736192387441 
2232	 0.256744523167408 
2233	 0.256748597988857 
2234	 0.256732500703593 
2235	 0.256722943582744 
2236	 0.256717314729653 
2237	 0.256702229663094 
2238	 0.256661802889377 
2239	 0.256652256544284 
2240	 0.25664599198468 
2241	 0.256655129399071 
2242	 0.256718456359279 
2243	 0.256740355341899 
2244	 0.256751245438881 
2245	 0.256749736733339 
2246	 0.256716027112432 
2247	 0.256691995613592 
2248	 0.256694901862073 
2249	 0.256713458386847 
2250	 0.256737489692311 
2251	 0.256795717071859 
2252	 0.256805557639583 
2253	 0.256808516789036 
2254	 0.256785947343097 
2255	 0.256712751667292 
2256	 0.256685647556636 
2257	 0.256651843360993 
2258	 0.256648359874182 
2259	 0.256681560268396 
2260	 0.256707427781683 
2261	 0.25676238652526 
2262	 0.256783288881728 
2263	 0.256793235387612 
2264	 0.256797517188238 
2265	 0.256753316628671 
2266	 0.256757017827602 
2267	 0.256808994365162 
2268	 0.256821621502971 
2269	 0.256818983794663 
2270	 0.256844074569649 
2271	 0.256865655563391 
2272	 0.25688107472495 
2273	 0.256915119665715 
2274	 0.256913403428996 
2275	 0.256891102042993 
2276	 0.256805653846073 
2277	 0.256773620068697 
2278	 0.256762350334027 
2279	 0.256731185858643 
2280	 0.256689360316939 
2281	 0.25667472141806 
2282	 0.256652901298653 
2283	 0.256658602840144 
2284	 0.256721472187829 
2285	 0.256738586011251 
2286	 0.256729345805366 
2287	 0.256741105700074 
2288	 0.256755907775976 
2289	 0.256760002676215 
2290	 0.256779404487032 
2291	 0.256782359133025 
2292	 0.256759952606172 
2293	 0.256742796505705 
2294	 0.256719834446517 
2295	 0.256705826407766 
2296	 0.256709870475149 
2297	 0.256677371630784 
2298	 0.256640542989004 
2299	 0.256630657082406 
2300	 0.256607863311333 
2301	 0.256597354634069 
2302	 0.256629819450299 
2303	 0.256661693712233 
2304	 0.256678320587829 
2305	 0.25669742444742 
2306	 0.256670245195298 
2307	 0.256590844166331 
2308	 0.256546880788279 
2309	 0.25648554921089 
2310	 0.256436649242018 
2311	 0.256415180378863 
2312	 0.256374249351276 
2313	 0.256312594845443 
2314	 0.256272074479219 
2315	 0.256253339625109 
2316	 0.256208628573809 
2317	 0.256159096366131 
2318	 0.256098240006423 
2319	 0.255995735835818 
2320	 0.255932336356547 
2321	 0.255897985404009 
2322	 0.25585070472914 
2323	 0.255799942798125 
2324	 0.255769705384715 
2325	 0.255735844788708 
2326	 0.255717387204341 
2327	 0.255702011777608 
2328	 0.255758321584017 
2329	 0.255797687715795 
2330	 0.255796034938656 
2331	 0.255822390537733 
2332	 0.255787118438822 
2333	 0.255698219298751 
2334	 0.255682696205459 
2335	 0.255702367439125 
2336	 0.255674788749467 
2337	 0.255662141216595 
2338	 0.255634530058847 
2339	 0.255584830947043 
2340	 0.255585366000611 
2341	 0.255599403577101 
2342	 0.255625346849155 
2343	 0.255657779239974 
2344	 0.2556558976204 
2345	 0.2555966129912 
2346	 0.255499964096015 
2347	 0.255398778411262 
2348	 0.255208834366239 
2349	 0.255098088244146 
2350	 0.255045135851324 
2351	 0.25496020826069 
2352	 0.254870465949543 
2353	 0.254787437240726 
2354	 0.254711392544863 
2355	 0.254612181313548 
2356	 0.254528842032132 
2357	 0.254404835152009 
2358	 0.254195381017389 
2359	 0.254069951031625 
2360	 0.253976487865646 
2361	 0.253876833491432 
2362	 0.253849555998553 
2363	 0.253762486687595 
2364	 0.253621615316553 
2365	 0.253489238304546 
2366	 0.253341280204278 
2367	 0.253200070523536 
2368	 0.253051074051948 
2369	 0.252914206490976 
2370	 0.252762959595297 
2371	 0.252655822249669 
2372	 0.252612445703298 
2373	 0.252518014904559 
2374	 0.252437671819734 
2375	 0.252349231853115 
2376	 0.252139339786034 
2377	 0.251983118421098 
2378	 0.251891697433266 
2379	 0.251767332777783 
2380	 0.251644661392001 
2381	 0.251537748115026 
2382	 0.251421532543791 
2383	 0.251274729086864 
2384	 0.251128165383539 
2385	 0.2510053377471 
2386	 0.250816462208438 
2387	 0.250551573284772 
2388	 0.250365390255768 
2389	 0.25022024426014 
2390	 0.250008347283466 
2391	 0.249903148919101 
2392	 0.249861124513275 
2393	 0.24971125209073 
2394	 0.249585820518864 
2395	 0.249389345296398 
2396	 0.249173114770245 
2397	 0.249061404068655 
2398	 0.248944354409916 
2399	 0.248846433744472 
2400	 0.248726955834059 
2401	 0.248520730532167 
2402	 0.248239178829282 
2403	 0.248078814936613 
2404	 0.247895705739513 
2405	 0.247603458805071 
2406	 0.247444384036851 
2407	 0.247213492994848 
2408	 0.246980632672022 
2409	 0.246854848364448 
2410	 0.246613496385721 
2411	 0.246392097820591 
2412	 0.246225292421469 
2413	 0.246049569907194 
2414	 0.245896651992805 
2415	 0.245727840743793 
2416	 0.245548416365621 
2417	 0.245307741951412 
2418	 0.245039736272383 
2419	 0.244796753578165 
2420	 0.244542676825917 
2421	 0.244228612101932 
2422	 0.244011417043828 
2423	 0.24380947739977 
2424	 0.243614076962925 
2425	 0.243482327772152 
2426	 0.243271215137199 
2427	 0.243092052941858 
2428	 0.242816521026635 
2429	 0.242410021728048 
2430	 0.242107913905354 
2431	 0.241790178182461 
2432	 0.241508353223671 
2433	 0.24130535583373 
2434	 0.241063828571967 
2435	 0.240773520110248 
2436	 0.240530930558001 
2437	 0.240337579952928 
2438	 0.240159828464088 
2439	 0.240042612331446 
2440	 0.239803914819901 
2441	 0.239509669417796 
2442	 0.239228304223808 
2443	 0.23891071509701 
2444	 0.238570243147401 
2445	 0.238218999519637 
2446	 0.237875939290794 
2447	 0.23741587332821 
2448	 0.237156639437433 
2449	 0.237025272945838 
2450	 0.236801284294342 
2451	 0.236673039465963 
2452	 0.2364410167306 
2453	 0.236136462363182 
2454	 0.235914910555074 
2455	 0.235700562858938 
2456	 0.235469445221631 
2457	 0.2352554457844 
2458	 0.235020981161591 
2459	 0.234747453290412 
2460	 0.234500848973495 
2461	 0.234267432481706 
2462	 0.233994413943777 
2463	 0.233716874367442 
2464	 0.233457976752953 
2465	 0.233160467019937 
2466	 0.232882850453585 
2467	 0.232653353201967 
2468	 0.232444028624215 
2469	 0.232222246175177 
2470	 0.231972502182742 
2471	 0.231795858402894 
2472	 0.231458955842536 
2473	 0.231175788717377 
2474	 0.230931228788286 
2475	 0.230566383044856 
2476	 0.23038309058506 
2477	 0.230264218095637 
2478	 0.230038909643572 
2479	 0.229665445578428 
2480	 0.229192009628713 
2481	 0.228798347233488 
2482	 0.228412992396145 
2483	 0.228224658742373 
2484	 0.228172778047624 
2485	 0.227944336248023 
2486	 0.227690997212998 
2487	 0.227493316599689 
2488	 0.2272474889435 
2489	 0.22707893654366 
2490	 0.22724796870603 
2491	 0.227256204927803 
2492	 0.226920142743991 
2493	 0.226685874467453 
2494	 0.22622679780385 
2495	 0.225771417050127 
2496	 0.225673638376933 
2497	 0.22557039353006 
2498	 0.225378628150566 
2499	 0.225164100320005 
2500	 0.224919727063245 
