Wavelength	mm2700004.asd
350	 7.24893129191706E-02 
351	 7.24118671155348E-02 
352	 6.64859996354802E-02 
353	 5.96636419047422E-02 
354	 6.58570570696237E-02 
355	 7.03209387544297E-02 
356	 7.14661858452364E-02 
357	 7.16722577791194E-02 
358	 0.073583446503125 
359	 6.86678341337455E-02 
360	 6.21678410283557E-02 
361	 6.63402477882521E-02 
362	 6.67686330509972E-02 
363	 6.66363094500809E-02 
364	 6.83383978562877E-02 
365	 6.97243788119668E-02 
366	 7.02017151501366E-02 
367	 7.13445070293857E-02 
368	 7.39549532303942E-02 
369	 7.33227410541418E-02 
370	 7.25769159820587E-02 
371	 7.32437749090712E-02 
372	 7.52830142153437E-02 
373	 7.64871634034507E-02 
374	 7.59360055178437E-02 
375	 7.46005522933239E-02 
376	 7.63988292186557E-02 
377	 7.64393547116585E-02 
378	 7.57792669153854E-02 
379	 7.66470234547187E-02 
380	 7.84103948582171E-02 
381	 7.83364624621432E-02 
382	 0.077691685688896 
383	 8.01583071820937E-02 
384	 7.93530153131262E-02 
385	 7.88767537900948E-02 
386	 8.08646978765752E-02 
387	 8.20585524992411E-02 
388	 8.22663700086933E-02 
389	 8.19722972993937E-02 
390	 8.20058698255619E-02 
391	 8.34140296734789E-02 
392	 8.29053670177667E-02 
393	 8.15721681301925E-02 
394	 8.38352707874473E-02 
395	 8.38472654178799E-02 
396	 8.38748146651526E-02 
397	 8.54478646667312E-02 
398	 8.55769616800216E-02 
399	 8.66571517118429E-02 
400	 8.70735267561824E-02 
401	 8.49521169596981E-02 
402	 8.51287675128725E-02 
403	 8.60932444112508E-02 
404	 8.69106208254637E-02 
405	 8.76792095467208E-02 
406	 8.85450224033917E-02 
407	 8.82567770491595E-02 
408	 8.65041398842253E-02 
409	 8.57126233885808E-02 
410	 8.63152203212206E-02 
411	 8.75024651746071E-02 
412	 8.80117376775668E-02 
413	 8.84028804755291E-02 
414	 0.088098888680865 
415	 0.087380736782801 
416	 8.76921533898557E-02 
417	 8.79837592166738E-02 
418	 8.80312241404622E-02 
419	 8.79112824228031E-02 
420	 8.79721520373364E-02 
421	 8.80919691270666E-02 
422	 8.82693653511882E-02 
423	 8.84970857331965E-02 
424	 8.76189312091588E-02 
425	 8.71057432730926E-02 
426	 8.76270686327586E-02 
427	 8.79601033043251E-02 
428	 0.087433573136895 
429	 8.70126245999106E-02 
430	 8.77021238129876E-02 
431	 8.77751230244629E-02 
432	 8.74472126536153E-02 
433	 8.71477180588123E-02 
434	 8.73664523841984E-02 
435	 8.75881473305258E-02 
436	 8.75934236014541E-02 
437	 8.73416690275836E-02 
438	 8.69737783985503E-02 
439	 8.73030943131425E-02 
440	 8.77731135054335E-02 
441	 8.73694644970373E-02 
442	 8.75190686951249E-02 
443	 8.77144729988521E-02 
444	 8.76174180867832E-02 
445	 8.74207123261113E-02 
446	 8.73451970504934E-02 
447	 8.74295092039793E-02 
448	 8.75385638235186E-02 
449	 8.70477841524679E-02 
450	 8.70525083527163E-02 
451	 8.75220469357421E-02 
452	 8.74748144922221E-02 
453	 0.087374552651148 
454	 8.72007562016509E-02 
455	 8.69959456889418E-02 
456	 8.71766635615313E-02 
457	 8.71692281949811E-02 
458	 8.70801479702775E-02 
459	 0.087240429475763 
460	 8.71813728148357E-02 
461	 8.68037970178414E-02 
462	 8.63820860994689E-02 
463	 8.66548089920523E-02 
464	 8.68668380831963E-02 
465	 8.68433138980441E-02 
466	 8.66892201423863E-02 
467	 8.69408438751265E-02 
468	 8.69786610661905E-02 
469	 8.67148633186645E-02 
470	 0.0865244973905 
471	 8.66412677528657E-02 
472	 8.67897336682433E-02 
473	 8.67663250992795E-02 
474	 8.67654078049725E-02 
475	 8.66620543687769E-02 
476	 0.086472419501336 
477	 8.63147178698811E-02 
478	 8.65640273203828E-02 
479	 8.67093383396497E-02 
480	 8.65772886571281E-02 
481	 8.65607330354776E-02 
482	 8.65127221959209E-02 
483	 8.65589700781147E-02 
484	 8.67595536561575E-02 
485	 8.66582180874572E-02 
486	 8.64635451063816E-02 
487	 0.086338037781352 
488	 8.63846654613076E-02 
489	 8.66964933183724E-02 
490	 8.67827938915978E-02 
491	 8.64523228206763E-02 
492	 8.64635608363811E-02 
493	 8.65202695894179E-02 
494	 8.65221520581053E-02 
495	 0.086475898422399 
496	 8.65884570363188E-02 
497	 8.65914555788978E-02 
498	 8.64662609839638E-02 
499	 0.086637875201988 
500	 8.65650184868941E-02 
501	 0.086419163224811 
502	 8.64648214293662E-02 
503	 8.63918775479994E-02 
504	 8.63168873286712E-02 
505	 8.63234019819094E-02 
506	 8.64388096606948E-02 
507	 8.63981057550074E-02 
508	 8.63330818210744E-02 
509	 8.63533413513187E-02 
510	 8.62627117732379E-02 
511	 8.64028420240133E-02 
512	 8.65590705493127E-02 
513	 8.63073934810063E-02 
514	 8.62057447547096E-02 
515	 8.63343613531735E-02 
516	 8.65489304992249E-02 
517	 0.086415085107179 
518	 8.64150510992762E-02 
519	 8.64494618449949E-02 
520	 8.63301343889428E-02 
521	 8.64513744936137E-02 
522	 8.65847680413042E-02 
523	 8.65941183996472E-02 
524	 8.64805507804764E-02 
525	 0.086478855156177 
526	 8.64909178128824E-02 
527	 8.64147722607617E-02 
528	 8.63897500713138E-02 
529	 8.63888635202409E-02 
530	 8.64350631125261E-02 
531	 8.65684054236428E-02 
532	 8.66405114943811E-02 
533	 8.66652774565972E-02 
534	 8.66804871354365E-02 
535	 8.67157921809654E-02 
536	 8.67841599669259E-02 
537	 8.68435329395487E-02 
538	 8.68422707535989E-02 
539	 8.68283917676221E-02 
540	 0.086841907173554 
541	 8.68966942208999E-02 
542	 8.69738828155888E-02 
543	 8.71038623745304E-02 
544	 8.72183781290787E-02 
545	 8.72512502840067E-02 
546	 8.72516289088095E-02 
547	 8.72292941898049E-02 
548	 8.72473989976585E-02 
549	 8.73992074324186E-02 
550	 8.74467717442602E-02 
551	 8.74989921589987E-02 
552	 8.76494510409653E-02 
553	 8.77943842361454E-02 
554	 8.78254386264341E-02 
555	 8.78668121638507E-02 
556	 8.81242030586215E-02 
557	 8.83002911894906E-02 
558	 8.84368415492293E-02 
559	 8.86138086464224E-02 
560	 8.89181165801869E-02 
561	 8.91455268857092E-02 
562	 8.93434136700856E-02 
563	 0.089623076190608 
564	 8.99208848388212E-02 
565	 9.01887066175276E-02 
566	 9.04054353156706E-02 
567	 9.05811618507212E-02 
568	 9.08811415963644E-02 
569	 0.091238335028159 
570	 9.15974420232746E-02 
571	 9.21756662353395E-02 
572	 9.26612158534033E-02 
573	 9.30374285796138E-02 
574	 9.34990993377008E-02 
575	 9.40170427934158E-02 
576	 9.46075232643066E-02 
577	 9.52363043099827E-02 
578	 9.57352041968238E-02 
579	 9.63272394337647E-02 
580	 9.69581589543394E-02 
581	 9.74804016853942E-02 
582	 9.79815030909595E-02 
583	 9.85592641371269E-02 
584	 9.92667163231659E-02 
585	 0.100098405462232 
586	 0.101044259925018 
587	 0.102000850496894 
588	 0.102892551684338 
589	 0.103887050383247 
590	 0.104884356316262 
591	 0.105847154758862 
592	 0.106803277006836 
593	 0.107657899421972 
594	 0.10846913939243 
595	 0.109272946789625 
596	 0.109955037409852 
597	 0.110646223456024 
598	 0.111342613966287 
599	 0.111992095745227 
600	 0.112790871272429 
601	 0.113640079568219 
602	 0.114456439238334 
603	 0.115248725606138 
604	 0.116070419543271 
605	 0.116925608867518 
606	 0.117791282295299 
607	 0.118618183881801 
608	 0.11940651261584 
609	 0.120177977268425 
610	 0.12097329979527 
611	 0.121603929314977 
612	 0.122141433637892 
613	 0.122683839164192 
614	 0.123187450424996 
615	 0.123662288054492 
616	 0.12411148810842 
617	 0.124535597919574 
618	 0.125001342230767 
619	 0.125429982025979 
620	 0.125783958951074 
621	 0.126153936041172 
622	 0.126544776283063 
623	 0.126926450144749 
624	 0.127259727130265 
625	 0.127574007721018 
626	 0.127859969152033 
627	 0.128148475058023 
628	 0.128526648642299 
629	 0.128841453981295 
630	 0.129093339407318 
631	 0.129331016516616 
632	 0.129603994087999 
633	 0.129856038692689 
634	 0.130076048106419 
635	 0.130295969588078 
636	 0.130579944999057 
637	 0.130889115897266 
638	 0.131164190367146 
639	 0.131332649344377 
640	 0.131556004875265 
641	 0.131834963695054 
642	 0.132095821878919 
643	 0.132344466670896 
644	 0.132593796602073 
645	 0.132857677052257 
646	 0.133149966331314 
647	 0.133415862351398 
648	 0.133662844608819 
649	 0.13392294543477 
650	 0.134247454086941 
651	 0.134531517905483 
652	 0.134792476881391 
653	 0.135148133891045 
654	 0.135473849270044 
655	 0.135755049657655 
656	 0.136026558558197 
657	 0.136396717713196 
658	 0.136748802698855 
659	 0.137070929172697 
660	 0.137402319385759 
661	 0.137759051432584 
662	 0.13812718926479 
663	 0.138488058321959 
664	 0.138819523682379 
665	 0.139189984976825 
666	 0.139575375808876 
667	 0.139942233947318 
668	 0.140337073502352 
669	 0.140760682638839 
670	 0.141196932231053 
671	 0.141618058816578 
672	 0.142044470347228 
673	 0.142471246746653 
674	 0.142906355804968 
675	 0.143407322537306 
676	 0.143850907133826 
677	 0.144286074567803 
678	 0.144814172068418 
679	 0.145315235912692 
680	 0.145836200515914 
681	 0.146382563132884 
682	 0.146888543157186 
683	 0.147399848188205 
684	 0.147940814637818 
685	 0.148511078937832 
686	 0.149044643726814 
687	 0.149597766378877 
688	 0.150176383175832 
689	 0.150747073040945 
690	 0.151278320815906 
691	 0.151851348235138 
692	 0.152493032308721 
693	 0.153093067902471 
694	 0.153684068161425 
695	 0.154276196255362 
696	 0.154874452293779 
697	 0.155480013176194 
698	 0.156086187799627 
699	 0.15670577173732 
700	 0.1573687367237 
701	 0.158011958521028 
702	 0.158634049259859 
703	 0.15924682569047 
704	 0.159855422263684 
705	 0.160470889715702 
706	 0.161103184153543 
707	 0.161751073900999 
708	 0.162341238576195 
709	 0.162954407199904 
710	 0.163615032782533 
711	 0.164245919290864 
712	 0.164861036452901 
713	 0.165448766937464 
714	 0.16601569912118 
715	 0.166655482281647 
716	 0.167261898961025 
717	 0.167820550195474 
718	 0.168388872366017 
719	 0.168993363802564 
720	 0.169544643615486 
721	 0.170016532292021 
722	 0.170539636129673 
723	 0.17103952522981 
724	 0.171521064553453 
725	 0.172001643287622 
726	 0.172424362232083 
727	 0.172863515592069 
728	 0.173303587243743 
729	 0.173650806439794 
730	 0.174066201024973 
731	 0.174476674184559 
732	 0.174815531320939 
733	 0.175134469438309 
734	 0.175443035132886 
735	 0.175706833143965 
736	 0.175895402100466 
737	 0.176126497819545 
738	 0.176352418803738 
739	 0.176543871295877 
740	 0.17670609204958 
741	 0.176844065455934 
742	 0.176973801693548 
743	 0.177098878794494 
744	 0.177190518989051 
745	 0.177209611422855 
746	 0.177191322117312 
747	 0.177200357275319 
748	 0.177227400292523 
749	 0.177176256525025 
750	 0.177071574067024 
751	 0.177086524994028 
752	 0.177011239308839 
753	 0.17685777796107 
754	 0.176688251279885 
755	 0.17654488311916 
756	 0.176425967931475 
757	 0.176279679757894 
758	 0.176051741242602 
759	 0.175877731344874 
760	 0.175670332963797 
761	 0.175400187497581 
762	 0.17513587161844 
763	 0.174878344526059 
764	 0.174609409925603 
765	 0.174312249030455 
766	 0.173983967352631 
767	 0.173699021591725 
768	 0.173432116695438 
769	 0.173113721852136 
770	 0.17276897003126 
771	 0.172428115012846 
772	 0.172085915475848 
773	 0.171696513433842 
774	 0.171352396835613 
775	 0.171004189641745 
776	 0.170607793600043 
777	 0.170221929376681 
778	 0.169839538169275 
779	 0.169483209583043 
780	 0.169167419093432 
781	 0.168782928768404 
782	 0.168401440565327 
783	 0.168041624053109 
784	 0.167653530211164 
785	 0.167242450203235 
786	 0.166869878509618 
787	 0.166548107052159 
788	 0.166139858756514 
789	 0.165801923266066 
790	 0.165457124750111 
791	 0.165001897642944 
792	 0.164677953638937 
793	 0.164365573551355 
794	 0.163999360810991 
795	 0.163586652167822 
796	 0.163207491160963 
797	 0.162896033372169 
798	 0.162626061833412 
799	 0.162284069585234 
800	 0.161906934985054 
801	 0.161518870150075 
802	 0.161156936736915 
803	 0.160917702750307 
804	 0.160637493414007 
805	 0.160287340978171 
806	 0.15993556107014 
807	 0.15962651666985 
808	 0.159339291976362 
809	 0.159050192247626 
810	 0.158744185927244 
811	 0.158441795778094 
812	 0.158145164998759 
813	 0.157865324967138 
814	 0.15765613708004 
815	 0.157418385440476 
816	 0.157143170424683 
817	 0.156867477258263 
818	 0.156632562474002 
819	 0.156433957723148 
820	 0.156214046909456 
821	 0.155896226317453 
822	 0.155693142634551 
823	 0.155482545564779 
824	 0.155219852328863 
825	 0.15506964367293 
826	 0.154935559634124 
827	 0.154786387530903 
828	 0.154609364871909 
829	 0.154397525471463 
830	 0.15412264664548 
831	 0.153889792546111 
832	 0.153818448194157 
833	 0.153714040656381 
834	 0.153549047787032 
835	 0.153367696491418 
836	 0.153262121203075 
837	 0.153184383228194 
838	 0.15310142694803 
839	 0.152986954439978 
840	 0.152823262151901 
841	 0.152663084122174 
842	 0.152545492110675 
843	 0.152484189379739 
844	 0.152442789004212 
845	 0.152367029950917 
846	 0.152272937167219 
847	 0.152212450541155 
848	 0.152220690697025 
849	 0.152195419131986 
850	 0.152120407037724 
851	 0.152059697833162 
852	 0.152011191871722 
853	 0.151978846067531 
854	 0.151954389685257 
855	 0.151914258988148 
856	 0.15192870337159 
857	 0.151980947358885 
858	 0.152033625778049 
859	 0.152054951628846 
860	 0.152084539866472 
861	 0.152109274578641 
862	 0.152099782774948 
863	 0.15202669951848 
864	 0.152094713948637 
865	 0.152240239512114 
866	 0.152263122186559 
867	 0.152313894152758 
868	 0.152371127060784 
869	 0.152439419724939 
870	 0.152558985729058 
871	 0.152705608074485 
872	 0.15282313947217 
873	 0.152903885808456 
874	 0.153022919235658 
875	 0.153136145871153 
876	 0.153220576144732 
877	 0.153294263982409 
878	 0.153468488796702 
879	 0.153649195195987 
880	 0.15383259246148 
881	 0.154023703913843 
882	 0.154122679605951 
883	 0.154294983248429 
884	 0.154504287929977 
885	 0.154629600493867 
886	 0.15480882438441 
887	 0.155001826857839 
888	 0.15519133526951 
889	 0.155389371677325 
890	 0.155589376545754 
891	 0.155799423640207 
892	 0.156037797103635 
893	 0.156326601789176 
894	 0.15656650498933 
895	 0.156787274882741 
896	 0.157036098014432 
897	 0.157340227112532 
898	 0.157644832521185 
899	 0.157928709263846 
900	 0.158195655790188 
901	 0.158487316871661 
902	 0.158767434459393 
903	 0.159047388746175 
904	 0.159346990187666 
905	 0.15964646219021 
906	 0.160033406289837 
907	 0.160452359675314 
908	 0.160810172573581 
909	 0.161214534110736 
910	 0.161588683783474 
911	 0.161922267845815 
912	 0.162255041463569 
913	 0.162596425311714 
914	 0.16296164343661 
915	 0.163367764246292 
916	 0.163820274242955 
917	 0.164207905252394 
918	 0.164597758150659 
919	 0.165018383832635 
920	 0.165430694441584 
921	 0.165923153359409 
922	 0.166410553538566 
923	 0.166836855219218 
924	 0.167239290378422 
925	 0.16775745554045 
926	 0.168307645361386 
927	 0.168789010544824 
928	 0.169169253676797 
929	 0.169650307450956 
930	 0.170190925753988 
931	 0.170701005903666 
932	 0.171137449639061 
933	 0.171710445751436 
934	 0.172342733986233 
935	 0.172931932920894 
936	 0.173585527425288 
937	 0.174100628334072 
938	 0.174560600094781 
939	 0.175124479905932 
940	 0.17584762507482 
941	 0.176492666864477 
942	 0.177067085926928 
943	 0.177659712499043 
944	 0.178223708239051 
945	 0.178789459320769 
946	 0.179372751968054 
947	 0.179995165636449 
948	 0.180758855102076 
949	 0.181375622447983 
950	 0.181945936979764 
951	 0.182701805595829 
952	 0.183412886160117 
953	 0.184106301483574 
954	 0.184776209182271 
955	 0.185408338947354 
956	 0.186040908716279 
957	 0.186810356785318 
958	 0.187590703012675 
959	 0.18817516292757 
960	 0.188865090397799 
961	 0.189603047564253 
962	 0.190375689492884 
963	 0.191175083383676 
964	 0.191794129404846 
965	 0.192482933605509 
966	 0.193274549776807 
967	 0.194045132220743 
968	 0.194835535156116 
969	 0.195625761772888 
970	 0.196374894303877 
971	 0.19705605639569 
972	 0.197792268303025 
973	 0.198551798052415 
974	 0.199329435203359 
975	 0.200123757253553 
976	 0.200801691283162 
977	 0.20159047457899 
978	 0.202463147253502 
979	 0.20323772004068 
980	 0.203964592770322 
981	 0.204826019923306 
982	 0.205668765291218 
983	 0.206237004806914 
984	 0.206890844400714 
985	 0.207706536358895 
986	 0.208549907623061 
987	 0.209261482774186 
988	 0.210175526513979 
989	 0.210881971050851 
990	 0.211477761554447 
991	 0.212264518173771 
992	 0.213084226546716 
993	 0.213873570706079 
994	 0.21460214655253 
995	 0.215270564113452 
996	 0.215892867188053 
997	 0.216717302215314 
998	 0.21755698856235 
999	 0.218188985497238 
1000	 0.218921622777026 
1001	 0.216572872571414 
1002	 0.217195881616491 
1003	 0.217816134003494 
1004	 0.218458943118831 
1005	 0.219141500435356 
1006	 0.219732850063747 
1007	 0.220293809936881 
1008	 0.220873579416568 
1009	 0.221432232269692 
1010	 0.221940253926918 
1011	 0.222545317578621 
1012	 0.2231880889944 
1013	 0.223723873251667 
1014	 0.224267621448996 
1015	 0.22485307865583 
1016	 0.225385860108212 
1017	 0.22592311231622 
1018	 0.226454387005127 
1019	 0.22701555714803 
1020	 0.227534761001471 
1021	 0.22805224302789 
1022	 0.228566137433901 
1023	 0.229035080065937 
1024	 0.229448987116698 
1025	 0.229804784147038 
1026	 0.230201208057973 
1027	 0.230637590953614 
1028	 0.231071251969567 
1029	 0.231501050874162 
1030	 0.231896607359018 
1031	 0.232295742730829 
1032	 0.232649769266178 
1033	 0.233037234179117 
1034	 0.233449324063944 
1035	 0.23385338078585 
1036	 0.234260748502801 
1037	 0.234644581584701 
1038	 0.235037655873182 
1039	 0.235423254869307 
1040	 0.235765697666342 
1041	 0.236148104780595 
1042	 0.23652322877954 
1043	 0.236853562700476 
1044	 0.237223898288484 
1045	 0.237619798380104 
1046	 0.23800372307216 
1047	 0.238374361727557 
1048	 0.238785097909744 
1049	 0.239193600127425 
1050	 0.239576360212941 
1051	 0.23992750086506 
1052	 0.240277282514042 
1053	 0.240680835000591 
1054	 0.241077907281518 
1055	 0.241463561059597 
1056	 0.241873308728496 
1057	 0.242261337629147 
1058	 0.24261849985855 
1059	 0.242951723823541 
1060	 0.243272850679304 
1061	 0.243585385540113 
1062	 0.243881877197123 
1063	 0.244245767325993 
1064	 0.244609044307505 
1065	 0.244971791770366 
1066	 0.245369560732802 
1067	 0.245674994291221 
1068	 0.245983715298205 
1069	 0.246334765454799 
1070	 0.246673778386387 
1071	 0.247028694995971 
1072	 0.247336594863985 
1073	 0.247611525995932 
1074	 0.247902342123013 
1075	 0.24816625528935 
1076	 0.248423466929753 
1077	 0.248723904860912 
1078	 0.249010630999661 
1079	 0.249288483812729 
1080	 0.249550424989405 
1081	 0.249813054833705 
1082	 0.250115588411265 
1083	 0.250394277420365 
1084	 0.250667080929609 
1085	 0.250946436398784 
1086	 0.251226572155914 
1087	 0.25148602229194 
1088	 0.251752501423941 
1089	 0.251994076588636 
1090	 0.25219932587825 
1091	 0.252421825687187 
1092	 0.252638390466651 
1093	 0.252868576614276 
1094	 0.253092693444475 
1095	 0.253287923003077 
1096	 0.253507195416651 
1097	 0.253697470103042 
1098	 0.253902675966929 
1099	 0.254129807525182 
1100	 0.254338898909758 
1101	 0.25453322507749 
1102	 0.25474182032823 
1103	 0.254966815441255 
1104	 0.255147899217693 
1105	 0.255334229223366 
1106	 0.255548683777668 
1107	 0.255734908878802 
1108	 0.255920869116332 
1109	 0.256140738910404 
1110	 0.25631057733166 
1111	 0.256492387509896 
1112	 0.25667832957573 
1113	 0.256862879133719 
1114	 0.25704523691815 
1115	 0.257217916878447 
1116	 0.257379054034945 
1117	 0.257547288587676 
1118	 0.257708781738519 
1119	 0.257873799583848 
1120	 0.258053175975392 
1121	 0.258221805989871 
1122	 0.258382370087853 
1123	 0.258562895192023 
1124	 0.258741145819868 
1125	 0.258931771999195 
1126	 0.259101476887409 
1127	 0.259270164266371 
1128	 0.259420297190619 
1129	 0.259541683482816 
1130	 0.259696874552921 
1131	 0.259860199887406 
1132	 0.260012873931453 
1133	 0.260180076601759 
1134	 0.260335373445414 
1135	 0.260463935936513 
1136	 0.260625289928441 
1137	 0.260783082393697 
1138	 0.260895040805869 
1139	 0.26102637129757 
1140	 0.261138680939407 
1141	 0.261281799826385 
1142	 0.261455167258894 
1143	 0.261598267630727 
1144	 0.261743616409487 
1145	 0.261875674869413 
1146	 0.261978126738416 
1147	 0.262102400531351 
1148	 0.262240805427508 
1149	 0.262364161997917 
1150	 0.262493714926174 
1151	 0.262605831647297 
1152	 0.262706918768975 
1153	 0.262801669203672 
1154	 0.262898328191196 
1155	 0.26297751593135 
1156	 0.263092697625857 
1157	 0.263234173461649 
1158	 0.263349391854661 
1159	 0.26348053541537 
1160	 0.263590822229754 
1161	 0.26365896400667 
1162	 0.263758910537497 
1163	 0.263890528444274 
1164	 0.2639894495796 
1165	 0.264063714510726 
1166	 0.264170375617348 
1167	 0.264255751957904 
1168	 0.264338927356548 
1169	 0.264430410185219 
1170	 0.264540518332762 
1171	 0.264633566280406 
1172	 0.264715589606684 
1173	 0.264803453124701 
1174	 0.264896356899422 
1175	 0.264981651597922 
1176	 0.265060916574522 
1177	 0.265144529529478 
1178	 0.265224127060289 
1179	 0.265308550621979 
1180	 0.265401996438825 
1181	 0.265488010229451 
1182	 0.265573668189761 
1183	 0.265654464472036 
1184	 0.265735947171927 
1185	 0.26581406158179 
1186	 0.265892356739136 
1187	 0.265970746860008 
1188	 0.26605020366507 
1189	 0.266123934445656 
1190	 0.266206076870449 
1191	 0.266297927714509 
1192	 0.266380830239085 
1193	 0.266460514805235 
1194	 0.266545936102376 
1195	 0.26663483003538 
1196	 0.266715648651512 
1197	 0.266799109350376 
1198	 0.266877977811724 
1199	 0.266951809995682 
1200	 0.267008479017846 
1201	 0.267089906806968 
1202	 0.26718641632314 
1203	 0.267265579858238 
1204	 0.267344874056951 
1205	 0.267427394033174 
1206	 0.267503299798412 
1207	 0.267577985339721 
1208	 0.267663794258022 
1209	 0.267738172501158 
1210	 0.267801648145801 
1211	 0.267862478612368 
1212	 0.267915918704781 
1213	 0.267975065060933 
1214	 0.268029405740189 
1215	 0.268086786660115 
1216	 0.26814723717196 
1217	 0.268215985559698 
1218	 0.268278656706505 
1219	 0.268339967019266 
1220	 0.268400260868101 
1221	 0.26846072328095 
1222	 0.268519575512535 
1223	 0.268580228237246 
1224	 0.268632101781951 
1225	 0.268680382677141 
1226	 0.268725564417712 
1227	 0.268745479851838 
1228	 0.268796933190311 
1229	 0.26886904019677 
1230	 0.268933821346648 
1231	 0.269024199717515 
1232	 0.269096144426196 
1233	 0.269158336616928 
1234	 0.26920282199554 
1235	 0.269258856681802 
1236	 0.269314150991576 
1237	 0.269364417922492 
1238	 0.269411428217404 
1239	 0.269462923339159 
1240	 0.269509836798128 
1241	 0.26956089094243 
1242	 0.269630118088861 
1243	 0.269676335723699 
1244	 0.269705929200142 
1245	 0.269742793594363 
1246	 0.269770045140681 
1247	 0.269800508612871 
1248	 0.269834301143154 
1249	 0.269870005444354 
1250	 0.269905279106306 
1251	 0.269951241523102 
1252	 0.269995735364376 
1253	 0.270057684453333 
1254	 0.270089465618679 
1255	 0.270108981682645 
1256	 0.270127828917607 
1257	 0.270129374409218 
1258	 0.270138187134311 
1259	 0.270148666244295 
1260	 0.270156710979722 
1261	 0.270162501643343 
1262	 0.270167778429242 
1263	 0.270172246156196 
1264	 0.270177828242527 
1265	 0.270177881475881 
1266	 0.270184529406044 
1267	 0.270200519412364 
1268	 0.270206455026944 
1269	 0.270222520317848 
1270	 0.270235463998165 
1271	 0.270276195797687 
1272	 0.270333113560836 
1273	 0.270386751046674 
1274	 0.270460518817977 
1275	 0.270524152797793 
1276	 0.270560328069501 
1277	 0.270647475877632 
1278	 0.27077126014638 
1279	 0.270880390251879 
1280	 0.271018678384151 
1281	 0.271137189728269 
1282	 0.271235082210847 
1283	 0.271341604631479 
1284	 0.271442769279348 
1285	 0.271558759747947 
1286	 0.271687299668793 
1287	 0.271797563155235 
1288	 0.27191639620801 
1289	 0.272047925798386 
1290	 0.272160740644603 
1291	 0.272270316005979 
1292	 0.272364888834467 
1293	 0.272441637299788 
1294	 0.272524429966234 
1295	 0.272601891751134 
1296	 0.272672150824901 
1297	 0.272750589154894 
1298	 0.272806858788518 
1299	 0.272836718363428 
1300	 0.27287792008058 
1301	 0.272917918835276 
1302	 0.272947582533412 
1303	 0.272980583220986 
1304	 0.273003184988583 
1305	 0.27299880935172 
1306	 0.272986841191576 
1307	 0.272991113383359 
1308	 0.272977075973867 
1309	 0.272957773649053 
1310	 0.272939467954861 
1311	 0.272912027258853 
1312	 0.272866627052692 
1313	 0.27282947962848 
1314	 0.272802217212932 
1315	 0.272754369776542 
1316	 0.272687004135363 
1317	 0.272634980601209 
1318	 0.272583165183937 
1319	 0.272525338380391 
1320	 0.272469998327871 
1321	 0.272416738911251 
1322	 0.272359473738597 
1323	 0.272298850507213 
1324	 0.272241335100095 
1325	 0.272189872568072 
1326	 0.272127524059057 
1327	 0.272064570942894 
1328	 0.272011796895474 
1329	 0.271958729551419 
1330	 0.271901186194559 
1331	 0.271843457017836 
1332	 0.27178003372496 
1333	 0.271710887950559 
1334	 0.271643057378643 
1335	 0.271564507074774 
1336	 0.271506145157697 
1337	 0.271458725723929 
1338	 0.271407072352811 
1339	 0.271370133737255 
1340	 0.271319099264235 
1341	 0.271270458149512 
1342	 0.271202724593509 
1343	 0.271117277988374 
1344	 0.271028642662489 
1345	 0.270959980073312 
1346	 0.270892053289342 
1347	 0.270837001523852 
1348	 0.270820975564424 
1349	 0.270775950990214 
1350	 0.270707785417965 
1351	 0.270654637193102 
1352	 0.270611164893469 
1353	 0.2705418823228 
1354	 0.270469030261342 
1355	 0.270381733409037 
1356	 0.270264231180141 
1357	 0.270166639929879 
1358	 0.270064128891425 
1359	 0.269978572367709 
1360	 0.269894677070025 
1361	 0.269830953527102 
1362	 0.269793132724101 
1363	 0.269749035797059 
1364	 0.26970819936044 
1365	 0.269678908888837 
1366	 0.269663803250589 
1367	 0.26962857969276 
1368	 0.269604128867451 
1369	 0.269608343035893 
1370	 0.269589257617251 
1371	 0.269564165141042 
1372	 0.269519066736556 
1373	 0.26945832694723 
1374	 0.269388236516193 
1375	 0.269297029953874 
1376	 0.269198183357781 
1377	 0.269100362689625 
1378	 0.268972310836265 
1379	 0.268806047208369 
1380	 0.268668868431319 
1381	 0.268507283607963 
1382	 0.268387756123735 
1383	 0.26832695269909 
1384	 0.268212336753471 
1385	 0.268104443677836 
1386	 0.267967594784664 
1387	 0.267783698418841 
1388	 0.267609942744162 
1389	 0.267434546029812 
1390	 0.267248548330357 
1391	 0.267059427135947 
1392	 0.266855746831177 
1393	 0.266621052695836 
1394	 0.266375547354945 
1395	 0.266106960003817 
1396	 0.265814957462199 
1397	 0.265549551147631 
1398	 0.265290664602446 
1399	 0.26502877199035 
1400	 0.264789656851281 
1401	 0.264514352913061 
1402	 0.26420386830744 
1403	 0.263930230222153 
1404	 0.263639431474577 
1405	 0.263394085585997 
1406	 0.263201847158731 
1407	 0.262979346397387 
1408	 0.262760297211089 
1409	 0.262544984477855 
1410	 0.262308641820972 
1411	 0.262106441008677 
1412	 0.261922143778141 
1413	 0.261749548715639 
1414	 0.26161844413353 
1415	 0.261495636883608 
1416	 0.261366584770506 
1417	 0.261260648720459 
1418	 0.261140680176957 
1419	 0.261012925124348 
1420	 0.260919302830234 
1421	 0.260832541394663 
1422	 0.260763947005831 
1423	 0.260708073104165 
1424	 0.260622825699838 
1425	 0.260523227979401 
1426	 0.260436978131666 
1427	 0.260317525020867 
1428	 0.260253775455458 
1429	 0.260223682666917 
1430	 0.260203255916685 
1431	 0.260229743883599 
1432	 0.260214945436575 
1433	 0.260195187230755 
1434	 0.260172604179901 
1435	 0.260112616811219 
1436	 0.260088957254306 
1437	 0.260079085966275 
1438	 0.260081203854771 
1439	 0.260106462122016 
1440	 0.260136036210467 
1441	 0.260144377417745 
1442	 0.260155089815871 
1443	 0.260144609082883 
1444	 0.260127383962694 
1445	 0.260148073952088 
1446	 0.26017737787901 
1447	 0.260225186485924 
1448	 0.260269933732365 
1449	 0.260260144630652 
1450	 0.260252135670753 
1451	 0.260251676299392 
1452	 0.260218583868901 
1453	 0.260234352807024 
1454	 0.260285741465396 
1455	 0.260328554494898 
1456	 0.260397614490228 
1457	 0.260440399953114 
1458	 0.260469511980083 
1459	 0.260508762673954 
1460	 0.260525770507516 
1461	 0.260575034198609 
1462	 0.260649465932709 
1463	 0.260723022323467 
1464	 0.260830830740813 
1465	 0.260899946405956 
1466	 0.260955977607271 
1467	 0.261005528357797 
1468	 0.261005754046345 
1469	 0.261050454225036 
1470	 0.261114717371763 
1471	 0.261182387645287 
1472	 0.261277169710466 
1473	 0.261386961915273 
1474	 0.261476007622456 
1475	 0.261556802381953 
1476	 0.261627580813057 
1477	 0.261691091456487 
1478	 0.261752891529342 
1479	 0.261826805762487 
1480	 0.261922589289728 
1481	 0.262013548917173 
1482	 0.262100844502128 
1483	 0.262204365750471 
1484	 0.262276014702391 
1485	 0.262316011923289 
1486	 0.26238837140076 
1487	 0.262455977074175 
1488	 0.262537519388943 
1489	 0.262648077796022 
1490	 0.26274078842725 
1491	 0.262839286237961 
1492	 0.262914551130065 
1493	 0.262970080081292 
1494	 0.263036007256958 
1495	 0.263076917074649 
1496	 0.263144415018616 
1497	 0.263245798202491 
1498	 0.26332231932955 
1499	 0.263401190247901 
1500	 0.263473357983255 
1501	 0.263526774210964 
1502	 0.263584992318672 
1503	 0.26364506558201 
1504	 0.263697052969665 
1505	 0.263754347535057 
1506	 0.263819791601826 
1507	 0.263895720001985 
1508	 0.263957592552692 
1509	 0.26400108406625 
1510	 0.264047324681476 
1511	 0.264088064800327 
1512	 0.264131941551707 
1513	 0.264196720657901 
1514	 0.264261478382109 
1515	 0.264313156905731 
1516	 0.264368556345378 
1517	 0.264422302515406 
1518	 0.264475105726467 
1519	 0.264519415706068 
1520	 0.264561554242284 
1521	 0.264596757831327 
1522	 0.264612599063763 
1523	 0.264654033609352 
1524	 0.264705505511673 
1525	 0.264757460787747 
1526	 0.264824622649428 
1527	 0.26487696547349 
1528	 0.264920960403524 
1529	 0.264972802874562 
1530	 0.265028204718599 
1531	 0.265076092153631 
1532	 0.265123817487146 
1533	 0.265163880571134 
1534	 0.265195850756109 
1535	 0.265232416042231 
1536	 0.265268042214841 
1537	 0.265302452571088 
1538	 0.265333838951055 
1539	 0.265365505967955 
1540	 0.265393166021953 
1541	 0.265428918193236 
1542	 0.265483264015274 
1543	 0.265514613619612 
1544	 0.265530333766171 
1545	 0.265555154512957 
1546	 0.265576227522464 
1547	 0.265584994022685 
1548	 0.265609436360187 
1549	 0.265630580639501 
1550	 0.265652218213953 
1551	 0.265670188628051 
1552	 0.265696201164599 
1553	 0.265745922708743 
1554	 0.265788222495615 
1555	 0.265826347352313 
1556	 0.265847741337711 
1557	 0.265862937520856 
1558	 0.265889360218083 
1559	 0.265914637692975 
1560	 0.265945764558972 
1561	 0.266004129465051 
1562	 0.266017038963538 
1563	 0.266001614750244 
1564	 0.266009165360663 
1565	 0.266003301237619 
1566	 0.266010952076352 
1567	 0.266044516263095 
1568	 0.266049698550608 
1569	 0.266030669455865 
1570	 0.266041973162746 
1571	 0.266064174449961 
1572	 0.266073342021688 
1573	 0.266093565675715 
1574	 0.26610576228649 
1575	 0.266099178552298 
1576	 0.266104513526363 
1577	 0.266120661732438 
1578	 0.26613203363655 
1579	 0.266128179757984 
1580	 0.266148517002861 
1581	 0.266190446734377 
1582	 0.266219387955563 
1583	 0.266264767753283 
1584	 0.26628778116723 
1585	 0.266295836727691 
1586	 0.266298247236874 
1587	 0.266280665321396 
1588	 0.266276403840662 
1589	 0.266273425779385 
1590	 0.26626539400686 
1591	 0.266260946981317 
1592	 0.266256784407033 
1593	 0.266239270732456 
1594	 0.266238120267277 
1595	 0.266247707158541 
1596	 0.266257593369048 
1597	 0.266284217739376 
1598	 0.266297165156468 
1599	 0.266324494710435 
1600	 0.266318794761504 
1601	 0.26626597395013 
1602	 0.266243039043221 
1603	 0.266199471796213 
1604	 0.266183758631866 
1605	 0.266213449148901 
1606	 0.266231592836181 
1607	 0.266247933377196 
1608	 0.266281061853538 
1609	 0.266303003739007 
1610	 0.266305010591395 
1611	 0.266308509409159 
1612	 0.2662992273134 
1613	 0.266288384184149 
1614	 0.266277374433524 
1615	 0.266271655426336 
1616	 0.266264038474056 
1617	 0.266245677293618 
1618	 0.266251839267735 
1619	 0.266270874938906 
1620	 0.266274638049206 
1621	 0.266286736044545 
1622	 0.266317953288391 
1623	 0.266316518096712 
1624	 0.266289214845279 
1625	 0.266297411270618 
1626	 0.266307965025002 
1627	 0.266317321633367 
1628	 0.266346957271451 
1629	 0.266365751973265 
1630	 0.266370637638198 
1631	 0.266386720176465 
1632	 0.266408395135361 
1633	 0.266440263590244 
1634	 0.266485124895422 
1635	 0.266499158967285 
1636	 0.266517053487298 
1637	 0.266520252259302 
1638	 0.266483914045075 
1639	 0.266481160442516 
1640	 0.266490318189538 
1641	 0.266505473916573 
1642	 0.266525407683606 
1643	 0.266556555662723 
1644	 0.266613468903408 
1645	 0.266636622236662 
1646	 0.26665538619324 
1647	 0.266663673809061 
1648	 0.266648791952725 
1649	 0.266641509824394 
1650	 0.266636472237865 
1651	 0.266622498575809 
1652	 0.266595163098338 
1653	 0.2665795880513 
1654	 0.266559598799961 
1655	 0.266555869781578 
1656	 0.266577717626789 
1657	 0.266566068274714 
1658	 0.266544257651773 
1659	 0.266528468551822 
1660	 0.266490615558146 
1661	 0.266471844445137 
1662	 0.266472856992869 
1663	 0.266464502341509 
1664	 0.266450108496858 
1665	 0.266443723202773 
1666	 0.266428866728597 
1667	 0.266447914781264 
1668	 0.266498764718904 
1669	 0.266522339849457 
1670	 0.266571573944981 
1671	 0.26657837923437 
1672	 0.266542487869176 
1673	 0.266520280321405 
1674	 0.266476664513631 
1675	 0.266462332907537 
1676	 0.266459407454423 
1677	 0.266457889062767 
1678	 0.266484021505202 
1679	 0.266481461931998 
1680	 0.266454308104362 
1681	 0.266451421435399 
1682	 0.266449971481932 
1683	 0.266449794206111 
1684	 0.266471453815984 
1685	 0.266473491498457 
1686	 0.266461339241023 
1687	 0.266450739817655 
1688	 0.266426302857934 
1689	 0.266425188791416 
1690	 0.266449716072872 
1691	 0.266435557080601 
1692	 0.266410387089362 
1693	 0.266394190701242 
1694	 0.266340470420958 
1695	 0.266327477985542 
1696	 0.266357610844251 
1697	 0.26636485554583 
1698	 0.26638064296102 
1699	 0.266375643270756 
1700	 0.266353340991534 
1701	 0.266337680199146 
1702	 0.26630111501057 
1703	 0.266294570024363 
1704	 0.266317121659082 
1705	 0.266313777855772 
1706	 0.266315403935182 
1707	 0.266304313398131 
1708	 0.266263845805263 
1709	 0.266249882557256 
1710	 0.266252355214049 
1711	 0.266239000263937 
1712	 0.266229690787393 
1713	 0.26620808003923 
1714	 0.266168119853787 
1715	 0.266142261980893 
1716	 0.266117631431235 
1717	 0.266098850315955 
1718	 0.266091116225374 
1719	 0.266068403465749 
1720	 0.266046029298635 
1721	 0.266012307003697 
1722	 0.265952783131048 
1723	 0.26592637492826 
1724	 0.265909682820904 
1725	 0.265898454159543 
1726	 0.265918256965726 
1727	 0.265902965397782 
1728	 0.26588037291439 
1729	 0.265837170840341 
1730	 0.265765179610368 
1731	 0.265710590621698 
1732	 0.265637948361019 
1733	 0.265593782702883 
1734	 0.265576396446934 
1735	 0.265538739239162 
1736	 0.265510522800341 
1737	 0.265472372777011 
1738	 0.265416780159399 
1739	 0.26536290916711 
1740	 0.265307569796203 
1741	 0.265253915858265 
1742	 0.265191703475178 
1743	 0.265148242754196 
1744	 0.265123661594517 
1745	 0.265075073149924 
1746	 0.265021370440164 
1747	 0.264967950148617 
1748	 0.26491208809557 
1749	 0.264846872478399 
1750	 0.264794816384067 
1751	 0.264761513912442 
1752	 0.264713375448117 
1753	 0.264682251650741 
1754	 0.264665846261028 
1755	 0.264623405065803 
1756	 0.264571069390082 
1757	 0.264502590186793 
1758	 0.264430712376219 
1759	 0.264363132603207 
1760	 0.264319325995456 
1761	 0.264307071762576 
1762	 0.264269368183408 
1763	 0.264217447327 
1764	 0.26416488351204 
1765	 0.264111119700779 
1766	 0.264069168952937 
1767	 0.264038797174956 
1768	 0.263999070178741 
1769	 0.263944005409497 
1770	 0.263921419092807 
1771	 0.263904643988486 
1772	 0.263873334919957 
1773	 0.263846482735918 
1774	 0.263807694754019 
1775	 0.263762994631825 
1776	 0.2637158717542 
1777	 0.263681578432998 
1778	 0.263614406588372 
1779	 0.263533692053847 
1780	 0.263504812914206 
1781	 0.263457178616981 
1782	 0.26344651647592 
1783	 0.263467845869148 
1784	 0.263451037583942 
1785	 0.26342663378211 
1786	 0.263409135666116 
1787	 0.26338496186209 
1788	 0.263360593467645 
1789	 0.263327055372242 
1790	 0.263315013113372 
1791	 0.263309661594819 
1792	 0.263300836484967 
1793	 0.263329776506346 
1794	 0.263330949554145 
1795	 0.263291016873799 
1796	 0.263273960823176 
1797	 0.263270263935677 
1798	 0.263238412283184 
1799	 0.263193965102845 
1800	 0.263176308613738 
1801	 0.258711429504965 
1802	 0.258894972609495 
1803	 0.259097544095824 
1804	 0.259347062851964 
1805	 0.259634917448562 
1806	 0.259927317227665 
1807	 0.260206684872398 
1808	 0.260432913671649 
1809	 0.260617574150603 
1810	 0.260791251159952 
1811	 0.260933382746787 
1812	 0.261060781171844 
1813	 0.261192281422856 
1814	 0.261280326866907 
1815	 0.26132610818881 
1816	 0.261372426611039 
1817	 0.261428699682795 
1818	 0.261477299712781 
1819	 0.26152094584996 
1820	 0.261561678425058 
1821	 0.261624201199141 
1822	 0.261676985382434 
1823	 0.261706998913453 
1824	 0.261788976320203 
1825	 0.261834759296505 
1826	 0.261856502250212 
1827	 0.261922902741046 
1828	 0.261958083706173 
1829	 0.261980724144922 
1830	 0.261999771553439 
1831	 0.262017337422021 
1832	 0.261997749310979 
1833	 0.261990339133488 
1834	 0.261993595450005 
1835	 0.262007644298054 
1836	 0.262034443107475 
1837	 0.262077572372389 
1838	 0.262122496859723 
1839	 0.262168231968859 
1840	 0.262226591268833 
1841	 0.26228246924368 
1842	 0.262296278886732 
1843	 0.262303729309922 
1844	 0.26231938823055 
1845	 0.262316723664669 
1846	 0.262301972870226 
1847	 0.262309709671349 
1848	 0.262324124232672 
1849	 0.262324826256526 
1850	 0.262331436745887 
1851	 0.262361539771497 
1852	 0.262371385933992 
1853	 0.262367009121031 
1854	 0.262360215573362 
1855	 0.262338627045327 
1856	 0.262328318765369 
1857	 0.262324192917241 
1858	 0.262309744543119 
1859	 0.262275381358353 
1860	 0.262203220705147 
1861	 0.262109808628081 
1862	 0.261963727665584 
1863	 0.26178657328533 
1864	 0.261597472074647 
1865	 0.261415343903568 
1866	 0.261213302086381 
1867	 0.260983640349481 
1868	 0.260735557907729 
1869	 0.260460633978945 
1870	 0.260181969118249 
1871	 0.259895834057653 
1872	 0.259603097623843 
1873	 0.259312966621105 
1874	 0.259025013957036 
1875	 0.25871507946885 
1876	 0.258389808533221 
1877	 0.25805312744155 
1878	 0.257641814800266 
1879	 0.257171969252598 
1880	 0.256666013531297 
1881	 0.256099889148154 
1882	 0.25550652637463 
1883	 0.254887944946594 
1884	 0.254203212367216 
1885	 0.253492021233945 
1886	 0.252734055990013 
1887	 0.251886993955046 
1888	 0.251029849989808 
1889	 0.250129001257335 
1890	 0.249192851557803 
1891	 0.248236998426823 
1892	 0.247248890718308 
1893	 0.246248826308312 
1894	 0.245228500102459 
1895	 0.24416664621968 
1896	 0.24310896497662 
1897	 0.242093587165801 
1898	 0.241048346902474 
1899	 0.240027279541959 
1900	 0.239039742179951 
1901	 0.238045201528921 
1902	 0.237111163668828 
1903	 0.236236323810382 
1904	 0.235380048681775 
1905	 0.234551074810463 
1906	 0.233764830118644 
1907	 0.233019940318562 
1908	 0.232307993604664 
1909	 0.231655182430639 
1910	 0.23103194842526 
1911	 0.230441107879749 
1912	 0.229883496184568 
1913	 0.229347722840091 
1914	 0.228841346292853 
1915	 0.228366151196406 
1916	 0.227921252226476 
1917	 0.227484599848199 
1918	 0.227100033187207 
1919	 0.226732390357383 
1920	 0.226391473309853 
1921	 0.2260911717485 
1922	 0.225825014103739 
1923	 0.225574010805872 
1924	 0.225363941619283 
1925	 0.225191241095639 
1926	 0.225058971013899 
1927	 0.224957819256165 
1928	 0.224897758518712 
1929	 0.224891620570001 
1930	 0.224872918318539 
1931	 0.224865265099868 
1932	 0.224873390530222 
1933	 0.224858478350653 
1934	 0.224866611194545 
1935	 0.224898871683532 
1936	 0.224941584323898 
1937	 0.225009592204125 
1938	 0.225122955594067 
1939	 0.225223375249152 
1940	 0.225336261124704 
1941	 0.225441000662973 
1942	 0.225547295024414 
1943	 0.225670748479897 
1944	 0.22582225138755 
1945	 0.225988656770418 
1946	 0.226159220953473 
1947	 0.22635229265836 
1948	 0.226537975796813 
1949	 0.226706720866898 
1950	 0.226913100024891 
1951	 0.227145165094664 
1952	 0.227376542667887 
1953	 0.22761235141914 
1954	 0.227880222201152 
1955	 0.228138251344735 
1956	 0.228410027401283 
1957	 0.228692318616531 
1958	 0.228990765720335 
1959	 0.229292361654284 
1960	 0.229597435951949 
1961	 0.229918552315692 
1962	 0.230273130222437 
1963	 0.230602359127788 
1964	 0.230933964060586 
1965	 0.231253179871423 
1966	 0.231549144626353 
1967	 0.231871411321059 
1968	 0.232206916769884 
1969	 0.23256450993646 
1970	 0.232907302764195 
1971	 0.233270873633555 
1972	 0.233602951083116 
1973	 0.233902528455519 
1974	 0.234224973390079 
1975	 0.234552312007092 
1976	 0.23486749280337 
1977	 0.235194578586588 
1978	 0.235527189768685 
1979	 0.235839580626477 
1980	 0.236168977135224 
1981	 0.236483316466115 
1982	 0.236786516964948 
1983	 0.237104623591522 
1984	 0.237417507727276 
1985	 0.237738446337622 
1986	 0.23808838306576 
1987	 0.23841147187406 
1988	 0.238718952004637 
1989	 0.239036647094012 
1990	 0.239328133042387 
1991	 0.239622231091028 
1992	 0.239928003164765 
1993	 0.24024617960769 
1994	 0.240542920687846 
1995	 0.240830199990699 
1996	 0.241130755128683 
1997	 0.241422913186653 
1998	 0.241723122774553 
1999	 0.242055377600894 
2000	 0.242361246071942 
2001	 0.242658413480562 
2002	 0.242933377409027 
2003	 0.24322078317778 
2004	 0.243496693339066 
2005	 0.243764651247915 
2006	 0.24402470378292 
2007	 0.24429174242793 
2008	 0.244538496235785 
2009	 0.244812239935507 
2010	 0.245115834834863 
2011	 0.245397088586037 
2012	 0.245687397562842 
2013	 0.245960583734799 
2014	 0.246208819597559 
2015	 0.246464116819264 
2016	 0.246728032154212 
2017	 0.246988746143954 
2018	 0.247249273829598 
2019	 0.247509479217858 
2020	 0.247781455987209 
2021	 0.248057432695882 
2022	 0.248330082046022 
2023	 0.248626581833679 
2024	 0.248896823650189 
2025	 0.249142258076046 
2026	 0.249395761557837 
2027	 0.249647586809704 
2028	 0.249889437064075 
2029	 0.250136269883684 
2030	 0.250396145644335 
2031	 0.250631205525968 
2032	 0.250847919830395 
2033	 0.251071682382101 
2034	 0.251283192282029 
2035	 0.251503419360899 
2036	 0.251735153673376 
2037	 0.251957755074098 
2038	 0.25218168277197 
2039	 0.25239299234972 
2040	 0.252588033802732 
2041	 0.252793660084509 
2042	 0.252994368030536 
2043	 0.253188737673538 
2044	 0.253371854147875 
2045	 0.253546149084602 
2046	 0.253724919194718 
2047	 0.253901404195424 
2048	 0.254063649513381 
2049	 0.254219853292066 
2050	 0.254377973875209 
2051	 0.254531497049416 
2052	 0.254670186280919 
2053	 0.254787946981864 
2054	 0.254930479836683 
2055	 0.255070648717316 
2056	 0.255218722113135 
2057	 0.255357912833238 
2058	 0.255520469633343 
2059	 0.255663538540023 
2060	 0.25578321030234 
2061	 0.255907792021305 
2062	 0.256032150029662 
2063	 0.256163924394841 
2064	 0.256286071116256 
2065	 0.256418270991911 
2066	 0.256574201016231 
2067	 0.256717414025663 
2068	 0.256854490144789 
2069	 0.256988716167429 
2070	 0.257127094388311 
2071	 0.25726147875367 
2072	 0.25740389071117 
2073	 0.257554424506939 
2074	 0.25769736939556 
2075	 0.257846813009477 
2076	 0.257983572095018 
2077	 0.258106704558789 
2078	 0.258238101779915 
2079	 0.258354511792089 
2080	 0.258492284537693 
2081	 0.258647815297295 
2082	 0.258800124282787 
2083	 0.258957205989998 
2084	 0.259130485737598 
2085	 0.259288603657538 
2086	 0.259451039354484 
2087	 0.259586227789271 
2088	 0.259699179730968 
2089	 0.259829777926275 
2090	 0.259943910016709 
2091	 0.260071105183543 
2092	 0.260223982031786 
2093	 0.260359342438579 
2094	 0.26047276694208 
2095	 0.260608821384342 
2096	 0.260750677041049 
2097	 0.260897528314131 
2098	 0.261070117984413 
2099	 0.261229024630724 
2100	 0.261372963465338 
2101	 0.261505213969324 
2102	 0.261645603325134 
2103	 0.26176405792585 
2104	 0.261917753546156 
2105	 0.262097266628909 
2106	 0.262264229593771 
2107	 0.262440729030442 
2108	 0.262613656144568 
2109	 0.262773431857462 
2110	 0.262952567142585 
2111	 0.26315751205417 
2112	 0.26334115940177 
2113	 0.263533519157985 
2114	 0.263707009908887 
2115	 0.263867339935419 
2116	 0.26400217053446 
2117	 0.264154299178661 
2118	 0.264309686195738 
2119	 0.264447177834336 
2120	 0.264587127028348 
2121	 0.264707991297163 
2122	 0.264792753783357 
2123	 0.264904704064597 
2124	 0.265022789229584 
2125	 0.26513648277445 
2126	 0.265274154137024 
2127	 0.265381765009241 
2128	 0.265467496643541 
2129	 0.265552936838015 
2130	 0.265625745672855 
2131	 0.265692208648243 
2132	 0.265751613567256 
2133	 0.265812226454996 
2134	 0.265850583608976 
2135	 0.265863444654854 
2136	 0.265893438174229 
2137	 0.265917054844909 
2138	 0.265945655812065 
2139	 0.26599970634854 
2140	 0.26601657307821 
2141	 0.266034589159264 
2142	 0.266009554094828 
2143	 0.265936020220692 
2144	 0.265869019254315 
2145	 0.265784328308949 
2146	 0.265684314371226 
2147	 0.265568772779833 
2148	 0.265443875750976 
2149	 0.265351535372567 
2150	 0.265262041667318 
2151	 0.265161709197666 
2152	 0.265097167455903 
2153	 0.264991109878113 
2154	 0.264850472304241 
2155	 0.264705787299641 
2156	 0.264560534805635 
2157	 0.264393996901347 
2158	 0.264200833932094 
2159	 0.264003598459654 
2160	 0.263791627386158 
2161	 0.263578478005408 
2162	 0.263340043791607 
2163	 0.263122598574992 
2164	 0.262904693971517 
2165	 0.262707050873517 
2166	 0.262513333489022 
2167	 0.262334450429076 
2168	 0.262154780624334 
2169	 0.261984607816584 
2170	 0.261805094459175 
2171	 0.261631979263728 
2172	 0.261448070912619 
2173	 0.261254416418187 
2174	 0.26106308166769 
2175	 0.260866916637472 
2176	 0.260670653144145 
2177	 0.26047780895626 
2178	 0.260275460804971 
2179	 0.260054244156802 
2180	 0.259854766270728 
2181	 0.259673872442566 
2182	 0.259472694797007 
2183	 0.25925542444249 
2184	 0.259070281828518 
2185	 0.258877901773801 
2186	 0.258655813980331 
2187	 0.258492473485651 
2188	 0.258375548310141 
2189	 0.258233573399256 
2190	 0.258110290575031 
2191	 0.257971209802136 
2192	 0.25781006539662 
2193	 0.257674222215036 
2194	 0.257552263368112 
2195	 0.257424512441675 
2196	 0.25729045832109 
2197	 0.257181529031892 
2198	 0.257073423774432 
2199	 0.256988723586426 
2200	 0.256954841628855 
2201	 0.256897243701851 
2202	 0.256849741174365 
2203	 0.256771214397171 
2204	 0.256716169704027 
2205	 0.256651827734502 
2206	 0.256608280951228 
2207	 0.256589075759301 
2208	 0.256552694587748 
2209	 0.256517065535135 
2210	 0.256477945371885 
2211	 0.256427647101022 
2212	 0.256391466427999 
2213	 0.256340828386363 
2214	 0.256330507755768 
2215	 0.256351376583609 
2216	 0.256368567352546 
2217	 0.256428605364141 
2218	 0.256455317660075 
2219	 0.256441600821681 
2220	 0.256466756517847 
2221	 0.256504070668345 
2222	 0.256542526411017 
2223	 0.256599097430171 
2224	 0.256640873146161 
2225	 0.256678450688028 
2226	 0.256697201031769 
2227	 0.256721015578412 
2228	 0.256750355202756 
2229	 0.25677134690535 
2230	 0.256787936147512 
2231	 0.256791178702722 
2232	 0.256782277650155 
2233	 0.256781678244284 
2234	 0.256768839348558 
2235	 0.256759226334264 
2236	 0.256769287883391 
2237	 0.256760442878178 
2238	 0.256723129530881 
2239	 0.256710341175444 
2240	 0.256695841647595 
2241	 0.256696033768911 
2242	 0.256729070203544 
2243	 0.256742028575648 
2244	 0.256776384135362 
2245	 0.25677089114688 
2246	 0.256697786380922 
2247	 0.256654136001382 
2248	 0.256621784691954 
2249	 0.256564579886444 
2250	 0.25655320309808 
2251	 0.256589110462161 
2252	 0.25660478142701 
2253	 0.256620260104505 
2254	 0.256638010347046 
2255	 0.256669561123559 
2256	 0.256687061409561 
2257	 0.256702576920757 
2258	 0.256714731947394 
2259	 0.256722330385599 
2260	 0.256722282322161 
2261	 0.256701946843799 
2262	 0.256702898182424 
2263	 0.25671435254129 
2264	 0.256720381696631 
2265	 0.256742455263694 
2266	 0.256754786204163 
2267	 0.256740742677643 
2268	 0.256742485683277 
2269	 0.256751713454888 
2270	 0.256772701277942 
2271	 0.256775960215884 
2272	 0.256806352986138 
2273	 0.256799591631569 
2274	 0.256767985484641 
2275	 0.256752160252678 
2276	 0.25673306522119 
2277	 0.256704641192981 
2278	 0.25667404878215 
2279	 0.256643838833275 
2280	 0.256590576931802 
2281	 0.256563663936554 
2282	 0.256556117844759 
2283	 0.256553611120512 
2284	 0.256571518911977 
2285	 0.256567813352132 
2286	 0.256553313544734 
2287	 0.256551207673947 
2288	 0.256523500533331 
2289	 0.256541325291144 
2290	 0.256629765972033 
2291	 0.256655112138724 
2292	 0.256671600258913 
2293	 0.256676641534787 
2294	 0.256629982899446 
2295	 0.256602347928675 
2296	 0.256585697741023 
2297	 0.256559099820906 
2298	 0.256561336651451 
2299	 0.256570460542418 
2300	 0.256577686398447 
2301	 0.256632916071639 
2302	 0.256606712254769 
2303	 0.256561660401125 
2304	 0.256595348780578 
2305	 0.256574358504091 
2306	 0.256530342569538 
2307	 0.256494932598718 
2308	 0.256440235734442 
2309	 0.256324650506043 
2310	 0.256242589061309 
2311	 0.256188401125334 
2312	 0.256116001605116 
2313	 0.255989434327783 
2314	 0.25594250058895 
2315	 0.25595506709274 
2316	 0.255936755194252 
2317	 0.255967881378655 
2318	 0.255932861527993 
2319	 0.255851843801251 
2320	 0.255782424827011 
2321	 0.255679394605845 
2322	 0.255595518110346 
2323	 0.255500799815802 
2324	 0.255435691287718 
2325	 0.255368496111093 
2326	 0.255346412561854 
2327	 0.255396484959774 
2328	 0.255397750291108 
2329	 0.255410242604971 
2330	 0.255454857837911 
2331	 0.255409037118598 
2332	 0.255353076637348 
2333	 0.255288274283434 
2334	 0.255244340446005 
2335	 0.255250480375064 
2336	 0.255254478340679 
2337	 0.255259735138316 
2338	 0.255225198927686 
2339	 0.25520148545697 
2340	 0.255207829821679 
2341	 0.255177715480198 
2342	 0.255198723196084 
2343	 0.255196469858894 
2344	 0.255142286584568 
2345	 0.255092472705898 
2346	 0.255040156636185 
2347	 0.254947876433262 
2348	 0.254823664056857 
2349	 0.254710449596305 
2350	 0.254585075046958 
2351	 0.254463210452013 
2352	 0.254325791236527 
2353	 0.254209776531161 
2354	 0.254105056994018 
2355	 0.25397895385951 
2356	 0.253858650096191 
2357	 0.253752558786099 
2358	 0.253624930492833 
2359	 0.253522064096135 
2360	 0.253467328865523 
2361	 0.253365255959121 
2362	 0.253246851237707 
2363	 0.253128144868346 
2364	 0.252968782462327 
2365	 0.252843317522405 
2366	 0.25271375199483 
2367	 0.252621159095031 
2368	 0.252614595551091 
2369	 0.252533161174337 
2370	 0.252443538274805 
2371	 0.252328100217813 
2372	 0.252137564200083 
2373	 0.251922145592703 
2374	 0.251721461449748 
2375	 0.251535081253435 
2376	 0.251371199423209 
2377	 0.251258583861619 
2378	 0.251199855128017 
2379	 0.251094527920952 
2380	 0.250972628548998 
2381	 0.250831819483177 
2382	 0.250639521408347 
2383	 0.250488196826069 
2384	 0.250334493624224 
2385	 0.25019351930687 
2386	 0.250038481718757 
2387	 0.249767237331938 
2388	 0.249527000686105 
2389	 0.249376189835978 
2390	 0.249256867442368 
2391	 0.249168132591184 
2392	 0.24903369858405 
2393	 0.248829791078505 
2394	 0.248626326531395 
2395	 0.248467079200067 
2396	 0.248375391283072 
2397	 0.24828188466494 
2398	 0.248087985762099 
2399	 0.247894776763628 
2400	 0.247750243175152 
2401	 0.247513696005347 
2402	 0.247285035350443 
2403	 0.247156914797088 
2404	 0.246968733948564 
2405	 0.246741255726309 
2406	 0.246560153523395 
2407	 0.246361513434799 
2408	 0.24614767699025 
2409	 0.245900085315328 
2410	 0.245559332040865 
2411	 0.245189933091654 
2412	 0.24481387823966 
2413	 0.244518164752662 
2414	 0.244340900883417 
2415	 0.244216227091854 
2416	 0.244071424503519 
2417	 0.243946735478497 
2418	 0.24377468329122 
2419	 0.243598887758211 
2420	 0.243394251193978 
2421	 0.243149814286016 
2422	 0.242973396294957 
2423	 0.242808759073403 
2424	 0.242589884086521 
2425	 0.242404570199001 
2426	 0.242118433563554 
2427	 0.241726611848486 
2428	 0.241433986573724 
2429	 0.241164992707795 
2430	 0.240872127305035 
2431	 0.240580525071444 
2432	 0.24025566947358 
2433	 0.239868070679357 
2434	 0.239567789638126 
2435	 0.239358415160941 
2436	 0.239106548846368 
2437	 0.238884998037825 
2438	 0.238549714305814 
2439	 0.238053178622838 
2440	 0.237695375069776 
2441	 0.237385016087195 
2442	 0.237149201038182 
2443	 0.237067496692814 
2444	 0.236844077014094 
2445	 0.236540816355614 
2446	 0.236193971784114 
2447	 0.235769045860108 
2448	 0.235480066849796 
2449	 0.235237016118317 
2450	 0.234976832535092 
2451	 0.234771052692511 
2452	 0.234481136859967 
2453	 0.234136923465457 
2454	 0.233819492974026 
2455	 0.233483000927208 
2456	 0.233311792755302 
2457	 0.23318408866366 
2458	 0.233054318944609 
2459	 0.233090298301335 
2460	 0.232849788584567 
2461	 0.23242744976603 
2462	 0.23219486430896 
2463	 0.231988579825701 
2464	 0.231724872696528 
2465	 0.231507042269115 
2466	 0.231216772890422 
2467	 0.230759369473327 
2468	 0.230450116368777 
2469	 0.230274112711658 
2470	 0.230058907528925 
2471	 0.229858979830438 
2472	 0.229558419771274 
2473	 0.229212384789105 
2474	 0.229022169196335 
2475	 0.228765433404866 
2476	 0.228427645896704 
2477	 0.228196851293258 
2478	 0.227851498242725 
2479	 0.2274516974506 
2480	 0.227228495851956 
2481	 0.22700419350064 
2482	 0.22676237942664 
2483	 0.226514078125857 
2484	 0.22622374650539 
2485	 0.225815348187403 
2486	 0.225443882668845 
2487	 0.225179806432883 
2488	 0.224940180239979 
2489	 0.224990113478712 
2490	 0.22485299670238 
2491	 0.224496454398064 
2492	 0.224342906702857 
2493	 0.223951147438592 
2494	 0.223803920175404 
2495	 0.22401877469904 
2496	 0.223888446920967 
2497	 0.223795588967589 
2498	 0.223631457725956 
2499	 0.223128361744689 
2500	 0.222856363089365 
