Wavelength	mm2700003.asd
350	 6.57139281669868E-02 
351	 7.06746930486251E-02 
352	 6.70116636595061E-02 
353	 5.87661929523348E-02 
354	 6.22840662256657E-02 
355	 6.38691341242979E-02 
356	 6.33769539254269E-02 
357	 6.39147783746088E-02 
358	 6.65726060193144E-02 
359	 6.74267044232174E-02 
360	 6.67692657237894E-02 
361	 6.71728050767931E-02 
362	 6.30815199551714E-02 
363	 6.30751547532491E-02 
364	 6.82987064971524E-02 
365	 0.06597853344572 
366	 6.55177895289188E-02 
367	 6.80061457382245E-02 
368	 7.16026625468067E-02 
369	 7.31004325362799E-02 
370	 0.072496014804935 
371	 7.15593749693096E-02 
372	 7.27573928320993E-02 
373	 7.27641142873657E-02 
374	 7.28023473968133E-02 
375	 7.39944325201656E-02 
376	 7.64888888206563E-02 
377	 7.64290791510074E-02 
378	 7.54642777267165E-02 
379	 7.63671553283514E-02 
380	 7.92549279500438E-02 
381	 7.84960146085614E-02 
382	 7.66786219332176E-02 
383	 8.14554900763516E-02 
384	 8.13815802611924E-02 
385	 7.97949667410273E-02 
386	 7.97406227592495E-02 
387	 7.93823429246324E-02 
388	 8.06767764768968E-02 
389	 8.11761723098068E-02 
390	 7.86649590710603E-02 
391	 7.86037208303409E-02 
392	 7.94457616568148E-02 
393	 8.07901428393091E-02 
394	 8.32512828318053E-02 
395	 8.31358184942366E-02 
396	 8.28008212293625E-02 
397	 8.40957414686354E-02 
398	 8.58743426884601E-02 
399	 8.61126909387302E-02 
400	 8.57364017589626E-02 
401	 8.63685889569392E-02 
402	 8.66176516114881E-02 
403	 0.085618510584198 
404	 0.084135293103633 
405	 8.43649116208095E-02 
406	 8.50368393821067E-02 
407	 8.60379017971986E-02 
408	 8.70060952169459E-02 
409	 8.62840036080832E-02 
410	 8.56679815655084E-02 
411	 8.56348317595556E-02 
412	 8.60051943345774E-02 
413	 8.70986133513664E-02 
414	 8.70893414620819E-02 
415	 8.61322565646339E-02 
416	 8.70675415789005E-02 
417	 8.68659581698248E-02 
418	 8.65647352784327E-02 
419	 8.73033340994927E-02 
420	 8.71873139313968E-02 
421	 8.65936528587464E-02 
422	 8.64430169629457E-02 
423	 8.76560183683619E-02 
424	 8.74302706992796E-02 
425	 8.68447788240714E-02 
426	 8.67708408449771E-02 
427	 8.67759460060602E-02 
428	 8.68599880964961E-02 
429	 8.70580419435454E-02 
430	 0.087325635090596 
431	 8.70894660380748E-02 
432	 8.71423922726154E-02 
433	 8.74851321174595E-02 
434	 0.087339791365741 
435	 8.71005573042066E-02 
436	 8.68828856030845E-02 
437	 8.67517403661823E-02 
438	 8.68040728846156E-02 
439	 0.086766985214577 
440	 8.67045737679829E-02 
441	 8.68361324794839E-02 
442	 8.71604926148085E-02 
443	 8.73644847772447E-02 
444	 8.72699324559902E-02 
445	 8.69120478400194E-02 
446	 8.68258352103356E-02 
447	 8.69128263809814E-02 
448	 8.69297123949869E-02 
449	 8.68994652637808E-02 
450	 8.71511796896287E-02 
451	 8.74301791520825E-02 
452	 8.70542125011275E-02 
453	 8.69091164107563E-02 
454	 8.69080406468361E-02 
455	 8.68560528842929E-02 
456	 0.086728955549357 
457	 8.66479686341345E-02 
458	 8.66599394951768E-02 
459	 8.67321650593753E-02 
460	 8.65599354144376E-02 
461	 8.63300905737525E-02 
462	 0.08626959616705 
463	 8.66072384883685E-02 
464	 8.65900686036888E-02 
465	 8.64256027594416E-02 
466	 0.086490266699903 
467	 8.66661080559083E-02 
468	 8.67305227244242E-02 
469	 0.086624088448275 
470	 8.64401503507068E-02 
471	 8.64099453392083E-02 
472	 0.086447119466784 
473	 8.64434256838533E-02 
474	 8.63581091575323E-02 
475	 8.64996828335814E-02 
476	 8.65731860161539E-02 
477	 8.61871299287357E-02 
478	 8.63425704808585E-02 
479	 8.65122816798011E-02 
480	 8.63922416481347E-02 
481	 8.61612829103835E-02 
482	 8.63000318068327E-02 
483	 8.63844715000305E-02 
484	 0.086054405519652 
485	 8.63295709392884E-02 
486	 8.65035054328346E-02 
487	 8.63500844215221E-02 
488	 8.61011117275977E-02 
489	 8.61133195402877E-02 
490	 8.61902863018602E-02 
491	 8.61711384363469E-02 
492	 8.62761222912253E-02 
493	 8.61401553131876E-02 
494	 8.60367063973199E-02 
495	 8.63930170561426E-02 
496	 8.63323999217137E-02 
497	 8.61442056915357E-02 
498	 8.60875071183374E-02 
499	 8.62094297084326E-02 
500	 8.62680180022755E-02 
501	 8.62649679957988E-02 
502	 8.62587833276878E-02 
503	 8.61895040973633E-02 
504	 8.61353309038118E-02 
505	 8.61012423275199E-02 
506	 0.08602629356058 
507	 8.59864734020913E-02 
508	 8.60146694958469E-02 
509	 8.60917641881837E-02 
510	 8.61037724046988E-02 
511	 8.59874861939078E-02 
512	 8.58553937832792E-02 
513	 8.58937515780697E-02 
514	 8.60088951459482E-02 
515	 8.60988650110656E-02 
516	 8.61261594004049E-02 
517	 8.61649045537639E-02 
518	 8.61160110169515E-02 
519	 8.60440234748461E-02 
520	 8.60567666641159E-02 
521	 8.62044703354854E-02 
522	 8.62231981813742E-02 
523	 8.61265501137373E-02 
524	 8.62256838810319E-02 
525	 8.62324002952096E-02 
526	 8.61876638392416E-02 
527	 8.61729633408531E-02 
528	 8.61511726333323E-02 
529	 8.61771177329108E-02 
530	 8.62232958102607E-02 
531	 8.62172141677851E-02 
532	 8.62357158554359E-02 
533	 8.63119470872129E-02 
534	 8.64248271190653E-02 
535	 0.086454837376647 
536	 8.64769827166864E-02 
537	 0.086516876817054 
538	 8.65749440362916E-02 
539	 8.66056322109044E-02 
540	 8.66528497087755E-02 
541	 8.67206320123588E-02 
542	 8.67502737965014E-02 
543	 8.68229527396125E-02 
544	 8.68932263110653E-02 
545	 8.69092111698616E-02 
546	 8.69301575269617E-02 
547	 0.0870029160405 
548	 8.71079461509381E-02 
549	 8.71726133468325E-02 
550	 8.72171321754376E-02 
551	 8.72427088160574E-02 
552	 8.72853425693974E-02 
553	 8.74990282157189E-02 
554	 0.087603776721946 
555	 8.76489420120978E-02 
556	 0.087833803963763 
557	 8.79898309664258E-02 
558	 0.088145125250798 
559	 8.83451454185442E-02 
560	 8.86373003127696E-02 
561	 8.88544319688193E-02 
562	 8.90613539329189E-02 
563	 8.93700984615891E-02 
564	 8.96671216291726E-02 
565	 8.99316803813684E-02 
566	 9.01735455156181E-02 
567	 0.09042961295321 
568	 9.06485807493129E-02 
569	 9.09488325641021E-02 
570	 9.14169944350018E-02 
571	 9.19157294101326E-02 
572	 9.24092831624264E-02 
573	 9.28718118569131E-02 
574	 9.32946591311912E-02 
575	 9.37467172246775E-02 
576	 9.43292334741718E-02 
577	 0.095024462477381 
578	 9.55385966401982E-02 
579	 9.61260165723607E-02 
580	 0.096742899786178 
581	 9.72497637606447E-02 
582	 9.77591216999582E-02 
583	 9.83380590749255E-02 
584	 9.90319005256413E-02 
585	 9.98672403105725E-02 
586	 0.10080303514595 
587	 0.101755833013425 
588	 0.102669935352453 
589	 0.103663741708879 
590	 0.104687864850251 
591	 0.105692260909578 
592	 0.106636296006094 
593	 0.107496632130195 
594	 0.108292203638195 
595	 0.109043896957213 
596	 0.109749130209173 
597	 0.110420576698254 
598	 0.111097352279285 
599	 0.111833077980041 
600	 0.11264953446052 
601	 0.113492055398764 
602	 0.114318514402678 
603	 0.115129508292621 
604	 0.115930157089369 
605	 0.11673874316315 
606	 0.117573249033746 
607	 0.118430847317708 
608	 0.119226429239536 
609	 0.119949892668636 
610	 0.120681521961633 
611	 0.121394214176529 
612	 0.122024806328469 
613	 0.122529493277518 
614	 0.122950687315139 
615	 0.12341387047628 
616	 0.123924298351299 
617	 0.124399296560777 
618	 0.124857223427713 
619	 0.125271199933132 
620	 0.125636529622686 
621	 0.126001705640962 
622	 0.126365235798055 
623	 0.126713653173057 
624	 0.127033377377988 
625	 0.12735168177632 
626	 0.127685683018591 
627	 0.128022907816787 
628	 0.12831320667929 
629	 0.128608280446105 
630	 0.128904934146615 
631	 0.129181504012698 
632	 0.12939754180125 
633	 0.129637236180775 
634	 0.129909611002211 
635	 0.130161216290431 
636	 0.130405413967138 
637	 0.130663124739258 
638	 0.130933757978579 
639	 0.131161073466048 
640	 0.131368806756192 
641	 0.131593228326939 
642	 0.131866901744868 
643	 0.132135229525334 
644	 0.132424224216009 
645	 0.132730897055478 
646	 0.133000454738125 
647	 0.133214957947606 
648	 0.133431777811873 
649	 0.133712617625252 
650	 0.134038222233916 
651	 0.134322419043191 
652	 0.134568884137511 
653	 0.134861567927387 
654	 0.135233349971408 
655	 0.13557931547018 
656	 0.135845064971314 
657	 0.136160015531286 
658	 0.136509382678482 
659	 0.13687312608929 
660	 0.137226085451041 
661	 0.137564318684688 
662	 0.137914404374355 
663	 0.138266551624609 
664	 0.138549672059382 
665	 0.138962107890207 
666	 0.139388584715033 
667	 0.139703336992553 
668	 0.140140319769684 
669	 0.140581239856846 
670	 0.140991613068384 
671	 0.141414153799666 
672	 0.141862833655778 
673	 0.142308527927323 
674	 0.142736505228476 
675	 0.143184748866075 
676	 0.143631285540859 
677	 0.144097001781946 
678	 0.144608897560447 
679	 0.14509886902615 
680	 0.145617739978171 
681	 0.146168165457611 
682	 0.1466774747102 
683	 0.147238378107418 
684	 0.147787576238133 
685	 0.148271334385736 
686	 0.148818067820641 
687	 0.149400112331533 
688	 0.149977042480995 
689	 0.150507638848856 
690	 0.151047044481105 
691	 0.151631935942402 
692	 0.152271668235827 
693	 0.152942539955309 
694	 0.153523333236265 
695	 0.154070221615273 
696	 0.154681244760188 
697	 0.155257430681922 
698	 0.155889840826404 
699	 0.156577413995488 
700	 0.157213292744027 
701	 0.157786912017773 
702	 0.158388456961662 
703	 0.159065761754903 
704	 0.159685901493938 
705	 0.160292835735422 
706	 0.160921998002216 
707	 0.161588678405106 
708	 0.162177661318497 
709	 0.162778109748627 
710	 0.163431578988596 
711	 0.164083029891861 
712	 0.164692500969397 
713	 0.16526499834189 
714	 0.165836476260473 
715	 0.166497908894903 
716	 0.167117354907842 
717	 0.167670680917557 
718	 0.168219935274538 
719	 0.168802601280175 
720	 0.169359198191937 
721	 0.169858315307727 
722	 0.170349961407668 
723	 0.170871947198731 
724	 0.171378675139337 
725	 0.1718169590994 
726	 0.172256280330641 
727	 0.172714807325396 
728	 0.17316926709858 
729	 0.173564265321853 
730	 0.173941295389884 
731	 0.174295225460724 
732	 0.174622061059359 
733	 0.174937796627384 
734	 0.175266331393482 
735	 0.175558394655562 
736	 0.175758872547024 
737	 0.175981326466678 
738	 0.176185028268442 
739	 0.17635858809511 
740	 0.176533562200225 
741	 0.176670542927802 
742	 0.176812531847745 
743	 0.176971719848523 
744	 0.177034839621401 
745	 0.177016122797595 
746	 0.176999636472738 
747	 0.1770686995035 
748	 0.177040178172177 
749	 0.176971593850897 
750	 0.176919574657736 
751	 0.17691019400187 
752	 0.176843303123295 
753	 0.176688412720695 
754	 0.176474978204053 
755	 0.176339626299577 
756	 0.176262702754439 
757	 0.176142315096763 
758	 0.175875353723091 
759	 0.175694529878681 
760	 0.175480539622449 
761	 0.175199310384397 
762	 0.174962793824538 
763	 0.174724034155565 
764	 0.174439062832201 
765	 0.174099896986606 
766	 0.173793914006534 
767	 0.173538881349813 
768	 0.173274435611599 
769	 0.172921925979362 
770	 0.172591585756582 
771	 0.172270290437481 
772	 0.171929193703816 
773	 0.171536964397339 
774	 0.171158686739958 
775	 0.170803925270936 
776	 0.170454983277875 
777	 0.170055241634848 
778	 0.169675072318226 
779	 0.16933562688088 
780	 0.169018651697643 
781	 0.168627967827603 
782	 0.168237978605821 
783	 0.167867091585213 
784	 0.167464348331266 
785	 0.167089174314948 
786	 0.166729706544935 
787	 0.166359485101506 
788	 0.165940780227768 
789	 0.165619311224491 
790	 0.165287793463551 
791	 0.164817246995887 
792	 0.164506529673957 
793	 0.164203904110874 
794	 0.163828674804554 
795	 0.163394708553643 
796	 0.163019991924221 
797	 0.162726737309152 
798	 0.162466275186518 
799	 0.162098148909255 
800	 0.161724713053937 
801	 0.16134439482547 
802	 0.160960507247241 
803	 0.160719612203271 
804	 0.16046347698855 
805	 0.160132558612846 
806	 0.15975590824838 
807	 0.159470081106212 
808	 0.159182060130693 
809	 0.158854610443458 
810	 0.158555790693097 
811	 0.15824278698318 
812	 0.157934426595127 
813	 0.157663442585157 
814	 0.157473753250404 
815	 0.157233383663928 
816	 0.15695148048554 
817	 0.156691284168376 
818	 0.156432629538089 
819	 0.156234340753046 
820	 0.156036945949484 
821	 0.155706729010504 
822	 0.155509035588177 
823	 0.155307138035461 
824	 0.155032814615097 
825	 0.15482737104801 
826	 0.154706968100257 
827	 0.154590169623903 
828	 0.154400704658109 
829	 0.154177506546146 
830	 0.153929350834103 
831	 0.153741281715681 
832	 0.153685306598297 
833	 0.153553942055445 
834	 0.15335765570857 
835	 0.153160856488502 
836	 0.153053812546958 
837	 0.152992391610747 
838	 0.152928194727496 
839	 0.152820334466439 
840	 0.152643825851324 
841	 0.152448999369029 
842	 0.15232668816842 
843	 0.152309694029775 
844	 0.1522299296327 
845	 0.15215714727509 
846	 0.152091533918373 
847	 0.152019115713374 
848	 0.152036586470416 
849	 0.151998042220927 
850	 0.151905673289691 
851	 0.15188683885319 
852	 0.151844079437868 
853	 0.151795896923851 
854	 0.151761319333641 
855	 0.151737213403235 
856	 0.151769737946745 
857	 0.151823629275296 
858	 0.151857719307483 
859	 0.151865000835027 
860	 0.15191107583053 
861	 0.151948327885046 
862	 0.151914811322291 
863	 0.151866390382934 
864	 0.151913795429596 
865	 0.152014445335567 
866	 0.152052406052903 
867	 0.152146161336699 
868	 0.152223344645242 
869	 0.152273289405086 
870	 0.152360152521551 
871	 0.15244892768494 
872	 0.152562260888773 
873	 0.152699493894522 
874	 0.152810750622356 
875	 0.152916327145957 
876	 0.153001276005679 
877	 0.153074815762998 
878	 0.15322502389646 
879	 0.153429004536294 
880	 0.15361371792574 
881	 0.1537339023797 
882	 0.153935110270799 
883	 0.154139637965804 
884	 0.154299888646785 
885	 0.154414948215801 
886	 0.154624511236227 
887	 0.154833881380214 
888	 0.155012458758985 
889	 0.155201097753093 
890	 0.155416481747565 
891	 0.155646022422433 
892	 0.155875679532148 
893	 0.15609773722725 
894	 0.15633884743665 
895	 0.156596402090764 
896	 0.156867874282894 
897	 0.157161860427272 
898	 0.157499303760343 
899	 0.157801606936786 
900	 0.158026314165421 
901	 0.158291579922959 
902	 0.15856378032408 
903	 0.158841467909544 
904	 0.1591324698891 
905	 0.159437751895676 
906	 0.159854860282246 
907	 0.160280441595549 
908	 0.160573165086706 
909	 0.160921309085875 
910	 0.161338307661792 
911	 0.161728390042413 
912	 0.161981487307836 
913	 0.162357223142965 
914	 0.162778964032744 
915	 0.163173562575695 
916	 0.163518418732311 
917	 0.163957129229656 
918	 0.164373818715339 
919	 0.164753167295026 
920	 0.165223078227926 
921	 0.165738922809266 
922	 0.166214556183727 
923	 0.166632826631829 
924	 0.167087700020332 
925	 0.167620200796412 
926	 0.168103576110811 
927	 0.168503254772976 
928	 0.169014368142852 
929	 0.169506048139762 
930	 0.170013290378384 
931	 0.170551581231128 
932	 0.171000281042404 
933	 0.171505579200668 
934	 0.172092404540226 
935	 0.172729157833597 
936	 0.173351934215899 
937	 0.173884900849329 
938	 0.174363299166719 
939	 0.174891101894792 
940	 0.175654211686546 
941	 0.176278239797736 
942	 0.176845508819507 
943	 0.17753526873 
944	 0.178115577933017 
945	 0.178595699769599 
946	 0.179151510884654 
947	 0.179914029310762 
948	 0.180490413634455 
949	 0.181146122478985 
950	 0.181845431610137 
951	 0.18245365633228 
952	 0.183219627881925 
953	 0.183908031264684 
954	 0.184509690635662 
955	 0.185161997581558 
956	 0.185946614873741 
957	 0.186725819982479 
958	 0.187402560098438 
959	 0.187972105956792 
960	 0.188677582955101 
961	 0.189457961318578 
962	 0.190220881432263 
963	 0.190906990124981 
964	 0.191692335983147 
965	 0.192461545056068 
966	 0.193200061479594 
967	 0.193970487857186 
968	 0.194777337672913 
969	 0.195509584890682 
970	 0.196146966734015 
971	 0.196764776550433 
972	 0.197548129039065 
973	 0.198373989751081 
974	 0.199173420974511 
975	 0.199933128576547 
976	 0.200609890585925 
977	 0.201398306430114 
978	 0.20223239232829 
979	 0.202930880833778 
980	 0.2037476861677 
981	 0.204609880125945 
982	 0.205423326807427 
983	 0.206129540899361 
984	 0.206818089396685 
985	 0.207656311721824 
986	 0.208546467760424 
987	 0.209295575411169 
988	 0.210081579392149 
989	 0.210783050587621 
990	 0.211402475279354 
991	 0.212040343354245 
992	 0.212873400370716 
993	 0.213585990747076 
994	 0.214277096716854 
995	 0.21512473970577 
996	 0.215767389324654 
997	 0.216539487429653 
998	 0.217337095323236 
999	 0.217973789774548 
1000	 0.218623880722535 
1001	 0.216676017064341 
1002	 0.217287605415745 
1003	 0.217857356319835 
1004	 0.218444598530999 
1005	 0.219046514894268 
1006	 0.219671420284652 
1007	 0.220322837946695 
1008	 0.220911395452957 
1009	 0.221488762308377 
1010	 0.222071526484011 
1011	 0.22263710554035 
1012	 0.223162623348938 
1013	 0.223708006920245 
1014	 0.224309256139279 
1015	 0.22480534130417 
1016	 0.225282922697544 
1017	 0.225815372931469 
1018	 0.226393281999744 
1019	 0.226863500105231 
1020	 0.227329228807705 
1021	 0.227875815075742 
1022	 0.228349855790327 
1023	 0.228775329481396 
1024	 0.229283011920863 
1025	 0.229762568494579 
1026	 0.23018318297699 
1027	 0.23064540277586 
1028	 0.231083490423224 
1029	 0.231455040582835 
1030	 0.231818700669661 
1031	 0.232193112485781 
1032	 0.232549394939498 
1033	 0.232899789332246 
1034	 0.233286621911394 
1035	 0.233688191225102 
1036	 0.234117434173423 
1037	 0.234557098786451 
1038	 0.234991391762028 
1039	 0.235447670475195 
1040	 0.235804065420837 
1041	 0.236123016422406 
1042	 0.236506611819441 
1043	 0.236867529413199 
1044	 0.237230052033195 
1045	 0.237631175899721 
1046	 0.238007241467951 
1047	 0.238289022254843 
1048	 0.238631205519966 
1049	 0.239011394130487 
1050	 0.239403175568175 
1051	 0.239830074140864 
1052	 0.240209189227235 
1053	 0.240566099002354 
1054	 0.240921712396387 
1055	 0.241297733749427 
1056	 0.241713078051984 
1057	 0.242091270095099 
1058	 0.242448788273785 
1059	 0.242809893404286 
1060	 0.243170126076192 
1061	 0.243493911269314 
1062	 0.243819645412761 
1063	 0.244159006904583 
1064	 0.244496854574896 
1065	 0.244859314932266 
1066	 0.24524027700323 
1067	 0.245587083585136 
1068	 0.245897959009438 
1069	 0.246216402350904 
1070	 0.246561857834014 
1071	 0.24692831555163 
1072	 0.247281840777698 
1073	 0.247672364821175 
1074	 0.247984794831448 
1075	 0.248251054952022 
1076	 0.248506763772357 
1077	 0.248708135003848 
1078	 0.248944190823489 
1079	 0.249207150246715 
1080	 0.249463169433572 
1081	 0.249736029557535 
1082	 0.250037610417072 
1083	 0.250309132654337 
1084	 0.250551325691338 
1085	 0.25082023721788 
1086	 0.251110241669729 
1087	 0.251347959619571 
1088	 0.251557487444413 
1089	 0.251803868767891 
1090	 0.25204270593649 
1091	 0.252298966613756 
1092	 0.25257612050111 
1093	 0.25281970858911 
1094	 0.253034158649794 
1095	 0.253224833719886 
1096	 0.253424914163278 
1097	 0.253634022619436 
1098	 0.253826982622338 
1099	 0.253982434137634 
1100	 0.254187044826676 
1101	 0.254423365549061 
1102	 0.254630978674455 
1103	 0.254850039785989 
1104	 0.255052730269633 
1105	 0.255244970422355 
1106	 0.255412640569014 
1107	 0.255608345616506 
1108	 0.255826417509471 
1109	 0.256002680348957 
1110	 0.25621950568648 
1111	 0.256419088353443 
1112	 0.256613924764303 
1113	 0.25678979792471 
1114	 0.256963298263096 
1115	 0.2571267777051 
1116	 0.257253741428807 
1117	 0.257421280089102 
1118	 0.257613832385504 
1119	 0.257787803404803 
1120	 0.257974199010303 
1121	 0.25817166037581 
1122	 0.258321393438749 
1123	 0.258474756623619 
1124	 0.258660424607991 
1125	 0.258878610695456 
1126	 0.259039725021556 
1127	 0.259195615702013 
1128	 0.25935476451334 
1129	 0.259463352657524 
1130	 0.259605713147835 
1131	 0.25979842808396 
1132	 0.259953336473133 
1133	 0.260076289171893 
1134	 0.260221088477364 
1135	 0.260365764437429 
1136	 0.260514039982655 
1137	 0.260673876432946 
1138	 0.260830511485313 
1139	 0.26098186367704 
1140	 0.261126880329702 
1141	 0.261275470441451 
1142	 0.261439562204225 
1143	 0.261567210279618 
1144	 0.261664607720642 
1145	 0.261786189980383 
1146	 0.261902504921379 
1147	 0.262012598952072 
1148	 0.262134129908373 
1149	 0.262253747394699 
1150	 0.262354177926387 
1151	 0.262466266974096 
1152	 0.262595318947393 
1153	 0.262713360531406 
1154	 0.262821533471016 
1155	 0.262912247531804 
1156	 0.263020925112822 
1157	 0.263127685637938 
1158	 0.263242346146449 
1159	 0.263381844085742 
1160	 0.263492412184786 
1161	 0.263582272900841 
1162	 0.263687605824068 
1163	 0.263800410918468 
1164	 0.263893597012019 
1165	 0.263972447149715 
1166	 0.264069308852435 
1167	 0.264167323495527 
1168	 0.264262078823827 
1169	 0.264372194041612 
1170	 0.264528288278644 
1171	 0.264624040477895 
1172	 0.264683239514426 
1173	 0.264768350031008 
1174	 0.264842562629641 
1175	 0.264922494415472 
1176	 0.265022819631514 
1177	 0.265108247550673 
1178	 0.265176323552319 
1179	 0.265252611536188 
1180	 0.265335032556027 
1181	 0.265413169801919 
1182	 0.265490148819033 
1183	 0.265562825807824 
1184	 0.265642153461793 
1185	 0.265716154872767 
1186	 0.265807009501147 
1187	 0.265920263456039 
1188	 0.26600252334826 
1189	 0.266074817536555 
1190	 0.26615761505677 
1191	 0.266227677510255 
1192	 0.266304233637794 
1193	 0.266403137623899 
1194	 0.266482413589721 
1195	 0.266544164294364 
1196	 0.266609781633981 
1197	 0.266661623681561 
1198	 0.266731080606451 
1199	 0.266807736002434 
1200	 0.266892291306947 
1201	 0.266968972680899 
1202	 0.267054392259483 
1203	 0.267134336439901 
1204	 0.267201388585498 
1205	 0.267282230162563 
1206	 0.26737843080743 
1207	 0.267460702964657 
1208	 0.267545793693631 
1209	 0.267618220421883 
1210	 0.267679083982404 
1211	 0.267739731975491 
1212	 0.267782200532816 
1213	 0.267841442033382 
1214	 0.267912029893927 
1215	 0.267977205126244 
1216	 0.268044133732352 
1217	 0.26812084308557 
1218	 0.268187221786878 
1219	 0.268247648349168 
1220	 0.268306148039297 
1221	 0.268363035527059 
1222	 0.268419004606132 
1223	 0.268464239900691 
1224	 0.268522500891696 
1225	 0.268592617134994 
1226	 0.268652033127561 
1227	 0.268719455296607 
1228	 0.268772787439156 
1229	 0.268803208658199 
1230	 0.268848705671191 
1231	 0.268896334851377 
1232	 0.268943490947139 
1233	 0.268993750402573 
1234	 0.269050933088637 
1235	 0.269109961443204 
1236	 0.269170409888909 
1237	 0.26922812406856 
1238	 0.269297875615596 
1239	 0.269348594767667 
1240	 0.269384398417441 
1241	 0.269425256446533 
1242	 0.269458749647156 
1243	 0.269497981430518 
1244	 0.26953975431565 
1245	 0.269580792665478 
1246	 0.269622721964652 
1247	 0.269663750836337 
1248	 0.269699432847104 
1249	 0.269748493120618 
1250	 0.269781473768371 
1251	 0.269816572311659 
1252	 0.269865149625699 
1253	 0.269928001352524 
1254	 0.269964284709042 
1255	 0.270010030423644 
1256	 0.270027677745528 
1257	 0.270003732088292 
1258	 0.270005856467097 
1259	 0.270006295849467 
1260	 0.270014184220333 
1261	 0.27003653600442 
1262	 0.27004615481121 
1263	 0.270049316712029 
1264	 0.270058601180356 
1265	 0.270061890852352 
1266	 0.270073705096079 
1267	 0.270101405618353 
1268	 0.270115331131468 
1269	 0.270136773974603 
1270	 0.270154860006661 
1271	 0.270188594547527 
1272	 0.270226362522646 
1273	 0.270278387022516 
1274	 0.270345952535737 
1275	 0.270414316800247 
1276	 0.270487053065822 
1277	 0.270571208511069 
1278	 0.270667008352103 
1279	 0.270763681498587 
1280	 0.270866416386724 
1281	 0.270977072358349 
1282	 0.271090883427555 
1283	 0.27121080652031 
1284	 0.271340590530845 
1285	 0.271479372853012 
1286	 0.271615182834742 
1287	 0.271746098672119 
1288	 0.271858204123102 
1289	 0.271957892333985 
1290	 0.272060559121994 
1291	 0.272148377989699 
1292	 0.272241536713362 
1293	 0.27234894816114 
1294	 0.272429091980876 
1295	 0.272492933894549 
1296	 0.272555697006258 
1297	 0.27260130367061 
1298	 0.272652926343642 
1299	 0.27271391944166 
1300	 0.272753760242217 
1301	 0.272786534302598 
1302	 0.27280968691752 
1303	 0.272808178848234 
1304	 0.272810079556754 
1305	 0.272846503196741 
1306	 0.272851152830241 
1307	 0.272841260423092 
1308	 0.27284538611031 
1309	 0.272826230045111 
1310	 0.272771711206311 
1311	 0.272740959547331 
1312	 0.272726004720536 
1313	 0.272685876533051 
1314	 0.272632624766889 
1315	 0.272585062097196 
1316	 0.272524199904062 
1317	 0.272469247744074 
1318	 0.27242456237159 
1319	 0.272375730844723 
1320	 0.272319454072674 
1321	 0.272269345958746 
1322	 0.272224844879833 
1323	 0.272169818826064 
1324	 0.272141322465004 
1325	 0.272114472295043 
1326	 0.272068420687099 
1327	 0.272017880384688 
1328	 0.271944534003987 
1329	 0.271867703865168 
1330	 0.271803317958175 
1331	 0.271747533214551 
1332	 0.271688246275684 
1333	 0.27163272574871 
1334	 0.271576958205525 
1335	 0.271524844318505 
1336	 0.271466323618924 
1337	 0.271396852105548 
1338	 0.271341411460507 
1339	 0.2712962775688 
1340	 0.271237592801323 
1341	 0.271192970820799 
1342	 0.271127615039669 
1343	 0.271024368862676 
1344	 0.270947806629611 
1345	 0.270905245892464 
1346	 0.270851685383023 
1347	 0.270807636791542 
1348	 0.270761325292025 
1349	 0.270682299459663 
1350	 0.270604351895049 
1351	 0.270540449190134 
1352	 0.270494988182647 
1353	 0.270425057899845 
1354	 0.270352199973458 
1355	 0.270272422885484 
1356	 0.270170086595579 
1357	 0.270088002430684 
1358	 0.270009722025546 
1359	 0.269937936008099 
1360	 0.269875091508403 
1361	 0.269812002341262 
1362	 0.26974359435524 
1363	 0.269696013046719 
1364	 0.26966254851013 
1365	 0.269629542461175 
1366	 0.269608948178532 
1367	 0.269594050761419 
1368	 0.269575135375221 
1369	 0.269554228825818 
1370	 0.269524512155948 
1371	 0.269495487993369 
1372	 0.269458686538871 
1373	 0.269388555114044 
1374	 0.269316751619039 
1375	 0.269240382264855 
1376	 0.2691450494883 
1377	 0.269034901563973 
1378	 0.268913149280192 
1379	 0.268765495748092 
1380	 0.268632357694074 
1381	 0.268481060922288 
1382	 0.268355311843302 
1383	 0.268259490856379 
1384	 0.268140926653151 
1385	 0.268037930774215 
1386	 0.26790442656399 
1387	 0.267747118318152 
1388	 0.267583953653924 
1389	 0.26740471084404 
1390	 0.267216938586961 
1391	 0.267032159930711 
1392	 0.266835637133072 
1393	 0.266593847539255 
1394	 0.26635162340572 
1395	 0.266099713757964 
1396	 0.265819191438606 
1397	 0.265563664942234 
1398	 0.265324281329703 
1399	 0.265072363589769 
1400	 0.264828247102589 
1401	 0.2645600324683 
1402	 0.264265982525607 
1403	 0.264000460912565 
1404	 0.263719455725173 
1405	 0.263477146949347 
1406	 0.263275340864066 
1407	 0.263059778067993 
1408	 0.26285998571863 
1409	 0.262646024255383 
1410	 0.262401261037237 
1411	 0.262204496026763 
1412	 0.262023971109448 
1413	 0.26185157770196 
1414	 0.261732468115893 
1415	 0.261622017829814 
1416	 0.261494499517296 
1417	 0.261393349248421 
1418	 0.261269900506794 
1419	 0.261146330933594 
1420	 0.261066751909556 
1421	 0.260979238453698 
1422	 0.260908961565235 
1423	 0.26086056475857 
1424	 0.260785487148718 
1425	 0.260695604608262 
1426	 0.260611008883549 
1427	 0.260500938148734 
1428	 0.260435122831411 
1429	 0.260379161482797 
1430	 0.260343472126721 
1431	 0.260352331623409 
1432	 0.260341816612328 
1433	 0.260339744100514 
1434	 0.260329989703632 
1435	 0.260305769212058 
1436	 0.260296159140898 
1437	 0.260281751218388 
1438	 0.260284775334191 
1439	 0.260307039846755 
1440	 0.260334041466169 
1441	 0.260346091900411 
1442	 0.260350574871077 
1443	 0.260332495017958 
1444	 0.26032355294915 
1445	 0.260345535963692 
1446	 0.260367743552396 
1447	 0.260393661666643 
1448	 0.260418899200809 
1449	 0.260423612613241 
1450	 0.260435848539572 
1451	 0.260447364334389 
1452	 0.260454301413778 
1453	 0.260475075330889 
1454	 0.260497191215612 
1455	 0.260529333101135 
1456	 0.260582262832211 
1457	 0.260619059425782 
1458	 0.260656043050722 
1459	 0.26069276093407 
1460	 0.26070974834698 
1461	 0.260754902605032 
1462	 0.260814616726911 
1463	 0.260874171260283 
1464	 0.260962003003382 
1465	 0.261027068955848 
1466	 0.261075667333136 
1467	 0.261131817332911 
1468	 0.261172526567197 
1469	 0.26123350808542 
1470	 0.261305030009602 
1471	 0.261389780350869 
1472	 0.261488192286664 
1473	 0.261569392838848 
1474	 0.261643913122869 
1475	 0.26171950560256 
1476	 0.261773928795696 
1477	 0.261836378516493 
1478	 0.26190501070127 
1479	 0.261977190843271 
1480	 0.262062420052272 
1481	 0.262146614962232 
1482	 0.26222069844437 
1483	 0.262289214140755 
1484	 0.26235251599548 
1485	 0.262397488290464 
1486	 0.262474018411618 
1487	 0.26255890301745 
1488	 0.262653380845103 
1489	 0.262784594199455 
1490	 0.262873376363487 
1491	 0.26294557690648 
1492	 0.263019653539033 
1493	 0.263069292853195 
1494	 0.263137400792897 
1495	 0.263223713923874 
1496	 0.263288998318096 
1497	 0.263344264227831 
1498	 0.26340604685262 
1499	 0.263460470898274 
1500	 0.263519336898166 
1501	 0.263585260868831 
1502	 0.263646840742729 
1503	 0.263697836976955 
1504	 0.263762904532254 
1505	 0.26383393488984 
1506	 0.26391293264989 
1507	 0.263996128569945 
1508	 0.264051257716689 
1509	 0.264085222784768 
1510	 0.264124901969189 
1511	 0.264159812146544 
1512	 0.26419152918451 
1513	 0.264249853928059 
1514	 0.264303667175275 
1515	 0.264343611077494 
1516	 0.264408401736528 
1517	 0.264467698976266 
1518	 0.264532303677204 
1519	 0.26457765894315 
1520	 0.264617286242051 
1521	 0.264655117230744 
1522	 0.264667529512996 
1523	 0.264705812963929 
1524	 0.264766400374382 
1525	 0.264813285414643 
1526	 0.264860293907099 
1527	 0.264908068098962 
1528	 0.264953492467597 
1529	 0.264997901236658 
1530	 0.265045256412152 
1531	 0.265086320966841 
1532	 0.265116252448043 
1533	 0.265157731304249 
1534	 0.265209119323052 
1535	 0.265247506522042 
1536	 0.265287355075421 
1537	 0.265321749575196 
1538	 0.265341535985974 
1539	 0.26536895441188 
1540	 0.265399887511806 
1541	 0.265426722423113 
1542	 0.26545137641849 
1543	 0.265475144465576 
1544	 0.265496721559961 
1545	 0.265520383522559 
1546	 0.265538100480736 
1547	 0.265576252917497 
1548	 0.265593150214975 
1549	 0.265600231894032 
1550	 0.265623900709303 
1551	 0.265630923377864 
1552	 0.265659583675922 
1553	 0.26571932386587 
1554	 0.2657748395407 
1555	 0.265828348327941 
1556	 0.265862705679836 
1557	 0.265887325406226 
1558	 0.265912166663332 
1559	 0.265915376579773 
1560	 0.26592894137241 
1561	 0.265947626457041 
1562	 0.265960846644808 
1563	 0.265967864510467 
1564	 0.265984208388736 
1565	 0.266008035238733 
1566	 0.266021509239616 
1567	 0.266034958199439 
1568	 0.266039573861422 
1569	 0.26603178386452 
1570	 0.266030180611589 
1571	 0.266031967302054 
1572	 0.266027815110765 
1573	 0.26601157950138 
1574	 0.266017669633123 
1575	 0.266027228286905 
1576	 0.266041553043368 
1577	 0.266081588474186 
1578	 0.266103062765161 
1579	 0.266117185176587 
1580	 0.266128704518308 
1581	 0.266123176137617 
1582	 0.26614086491175 
1583	 0.266173037638135 
1584	 0.266193294641491 
1585	 0.266227149706371 
1586	 0.266246917192405 
1587	 0.266257590103884 
1588	 0.266254047955321 
1589	 0.266232313265485 
1590	 0.266224861817812 
1591	 0.26620831410401 
1592	 0.266195486645314 
1593	 0.266194947508858 
1594	 0.266194878135985 
1595	 0.266180081888617 
1596	 0.266185336066693 
1597	 0.266223549011436 
1598	 0.266234984591631 
1599	 0.266253892451839 
1600	 0.266249693991545 
1601	 0.266194723831925 
1602	 0.266177198527365 
1603	 0.26616504136705 
1604	 0.266159070709664 
1605	 0.266184300099093 
1606	 0.266200173848552 
1607	 0.266217578659225 
1608	 0.266222884291245 
1609	 0.26622759712832 
1610	 0.26623286838791 
1611	 0.266229716174516 
1612	 0.26623163043416 
1613	 0.266230347914514 
1614	 0.266235448259355 
1615	 0.266243686448674 
1616	 0.266239589528687 
1617	 0.266239701081726 
1618	 0.266247721028866 
1619	 0.26624381376226 
1620	 0.266239006297852 
1621	 0.266234067533652 
1622	 0.266223381211473 
1623	 0.266227202585352 
1624	 0.266237054488163 
1625	 0.266242767972262 
1626	 0.266256731816807 
1627	 0.266263660873403 
1628	 0.266261769297603 
1629	 0.266274341824673 
1630	 0.266293204230005 
1631	 0.266312507120012 
1632	 0.266335801340287 
1633	 0.266359098696687 
1634	 0.26638724945034 
1635	 0.26640905566598 
1636	 0.266435309075578 
1637	 0.266445336134626 
1638	 0.266439225319559 
1639	 0.266448932835548 
1640	 0.266458421329752 
1641	 0.266463859776064 
1642	 0.266475242396688 
1643	 0.266484621145733 
1644	 0.266483337870766 
1645	 0.266492457715203 
1646	 0.266514851055435 
1647	 0.266526716269398 
1648	 0.266536070873613 
1649	 0.266540159897896 
1650	 0.266541879582826 
1651	 0.266537324225285 
1652	 0.266519704486264 
1653	 0.266517080025863 
1654	 0.266518956572919 
1655	 0.266517622168249 
1656	 0.266535234769272 
1657	 0.26651751939254 
1658	 0.266465191016837 
1659	 0.266447980930207 
1660	 0.266435445419977 
1661	 0.266411786654795 
1662	 0.266402466716264 
1663	 0.266387373711687 
1664	 0.266339137680846 
1665	 0.266332000455065 
1666	 0.266351755021274 
1667	 0.266375328265148 
1668	 0.266427410162971 
1669	 0.266449630008045 
1670	 0.266481768633506 
1671	 0.266478972039713 
1672	 0.2664342633534 
1673	 0.26641201587894 
1674	 0.26637482509107 
1675	 0.266358824151762 
1676	 0.266357033755944 
1677	 0.266359145917173 
1678	 0.26637337435068 
1679	 0.266381926089187 
1680	 0.266397430234076 
1681	 0.26640529564205 
1682	 0.26640804145894 
1683	 0.26641153139279 
1684	 0.266408370202997 
1685	 0.266416900431696 
1686	 0.266443775457216 
1687	 0.266438605067346 
1688	 0.266410624680657 
1689	 0.266410262789807 
1690	 0.266414565289871 
1691	 0.266398366349595 
1692	 0.266395118823893 
1693	 0.266382374765717 
1694	 0.266322704032225 
1695	 0.266307658003276 
1696	 0.266333194381531 
1697	 0.266332381010988 
1698	 0.266336361106317 
1699	 0.266328363999896 
1700	 0.266296177778851 
1701	 0.266289870608781 
1702	 0.266294201738472 
1703	 0.266290947954878 
1704	 0.2663005498839 
1705	 0.266297164362483 
1706	 0.266283475072693 
1707	 0.266267818279028 
1708	 0.266247784553267 
1709	 0.266230515440227 
1710	 0.266211673683326 
1711	 0.266185347101829 
1712	 0.266156720218568 
1713	 0.266129489530306 
1714	 0.266081921169444 
1715	 0.266064871695477 
1716	 0.266079066634964 
1717	 0.266065085559005 
1718	 0.266055246387718 
1719	 0.266035871336348 
1720	 0.265990319405684 
1721	 0.265958745567519 
1722	 0.265938703954481 
1723	 0.265912513630707 
1724	 0.265885008015068 
1725	 0.265853715089055 
1726	 0.265812838295521 
1727	 0.265780807587482 
1728	 0.265750926759598 
1729	 0.265722783729026 
1730	 0.265709069247608 
1731	 0.265675653131189 
1732	 0.265630128160591 
1733	 0.265583160069486 
1734	 0.265525955948065 
1735	 0.265476848728716 
1736	 0.265423180656177 
1737	 0.265392059556066 
1738	 0.265380759129961 
1739	 0.265336412940096 
1740	 0.265293133450664 
1741	 0.265242684668967 
1742	 0.265170102477402 
1743	 0.26510685561323 
1744	 0.265044090815072 
1745	 0.264988810028224 
1746	 0.264926761547696 
1747	 0.264868044297233 
1748	 0.264847620697742 
1749	 0.264821439742482 
1750	 0.2647722132229 
1751	 0.264739600382967 
1752	 0.264696853815256 
1753	 0.264635841853024 
1754	 0.264587570529174 
1755	 0.264530607810582 
1756	 0.264451570898578 
1757	 0.264395199081485 
1758	 0.264355820555593 
1759	 0.264311458341911 
1760	 0.264294394421685 
1761	 0.264256797081666 
1762	 0.26419479105311 
1763	 0.264147202273127 
1764	 0.264096196719475 
1765	 0.264069545908724 
1766	 0.264046721338003 
1767	 0.264008493423982 
1768	 0.263981409763618 
1769	 0.263946872508409 
1770	 0.263903670031398 
1771	 0.263876656430145 
1772	 0.263855079534659 
1773	 0.263816871164956 
1774	 0.263776570972442 
1775	 0.263728735209995 
1776	 0.263658936590706 
1777	 0.263604241203101 
1778	 0.263549309010464 
1779	 0.263485910493895 
1780	 0.263451361790895 
1781	 0.263417461895154 
1782	 0.263395296503983 
1783	 0.26339870193787 
1784	 0.263399402677665 
1785	 0.263416177495663 
1786	 0.263421148037991 
1787	 0.263425167460228 
1788	 0.263421065075017 
1789	 0.263417375929234 
1790	 0.263399045383385 
1791	 0.263362379913026 
1792	 0.263332217198197 
1793	 0.263279578780375 
1794	 0.263256883349645 
1795	 0.263264814016885 
1796	 0.263251935470089 
1797	 0.263248616923428 
1798	 0.263225530491562 
1799	 0.263172111465442 
1800	 0.263136749008627 
1801	 0.25866276844504 
1802	 0.258851510162227 
1803	 0.259086583524614 
1804	 0.259328953837926 
1805	 0.259595222964244 
1806	 0.259897447956585 
1807	 0.260190050532953 
1808	 0.260424505814965 
1809	 0.260628846012881 
1810	 0.260799618195872 
1811	 0.260922392184694 
1812	 0.261039864650118 
1813	 0.261141182214243 
1814	 0.261246132835817 
1815	 0.26131293536475 
1816	 0.261333607179104 
1817	 0.261382127239711 
1818	 0.261407598491033 
1819	 0.261456704519223 
1820	 0.26151928480239 
1821	 0.261615655338038 
1822	 0.261654961979466 
1823	 0.261661206775072 
1824	 0.261708077352866 
1825	 0.261740096245171 
1826	 0.261817176035939 
1827	 0.26193993919219 
1828	 0.261986334534384 
1829	 0.261983322885151 
1830	 0.261997101036165 
1831	 0.261985207684821 
1832	 0.26195398560994 
1833	 0.261952895497222 
1834	 0.261980006741132 
1835	 0.26200953087543 
1836	 0.262027184561182 
1837	 0.262078001765114 
1838	 0.262150203000412 
1839	 0.262194624378429 
1840	 0.262234272113145 
1841	 0.262264566845422 
1842	 0.262268384916938 
1843	 0.26225731109983 
1844	 0.26224981578108 
1845	 0.262249962776474 
1846	 0.262252571498127 
1847	 0.262265154538745 
1848	 0.262287879258728 
1849	 0.26229228396947 
1850	 0.262310490429247 
1851	 0.26234043659323 
1852	 0.262378317136083 
1853	 0.262394246301744 
1854	 0.262402027467887 
1855	 0.262410925499043 
1856	 0.262400843320511 
1857	 0.262371688086337 
1858	 0.262352995263231 
1859	 0.262309126418418 
1860	 0.262228612819209 
1861	 0.262111072980106 
1862	 0.261972616956022 
1863	 0.261822004785372 
1864	 0.261664605068432 
1865	 0.261488395287969 
1866	 0.261301285542131 
1867	 0.261090769195896 
1868	 0.260827914807749 
1869	 0.260564666822575 
1870	 0.260306795914377 
1871	 0.26004522948026 
1872	 0.259778818890456 
1873	 0.259541250016588 
1874	 0.259260463685908 
1875	 0.258945851519385 
1876	 0.258643380839514 
1877	 0.258293324582604 
1878	 0.257905766317139 
1879	 0.257492333912096 
1880	 0.257005364574634 
1881	 0.256429525306038 
1882	 0.255841873979692 
1883	 0.255214933881978 
1884	 0.254536449129268 
1885	 0.253847521504385 
1886	 0.25312019008686 
1887	 0.252330406483381 
1888	 0.251501358669629 
1889	 0.25061939166333 
1890	 0.249672050277995 
1891	 0.248731783311203 
1892	 0.247760358892028 
1893	 0.246789134758546 
1894	 0.245797675237347 
1895	 0.244828347321732 
1896	 0.243835133331108 
1897	 0.2428211609557 
1898	 0.241818965022069 
1899	 0.240813377068449 
1900	 0.239824173043385 
1901	 0.238882018188722 
1902	 0.237966223505093 
1903	 0.237076749045737 
1904	 0.23622649399581 
1905	 0.235410241954467 
1906	 0.234626809737893 
1907	 0.233883315731493 
1908	 0.233190719783964 
1909	 0.232546167901789 
1910	 0.231933399444123 
1911	 0.231346515619136 
1912	 0.23080241852054 
1913	 0.230284705817748 
1914	 0.22979171406782 
1915	 0.229332135575131 
1916	 0.228915339063199 
1917	 0.228511378359467 
1918	 0.228125991585341 
1919	 0.227750096098371 
1920	 0.22740380409351 
1921	 0.227081924899389 
1922	 0.226793876391524 
1923	 0.226569672478783 
1924	 0.226375874266833 
1925	 0.226231005950423 
1926	 0.226104385875547 
1927	 0.226016658762737 
1928	 0.225947321092276 
1929	 0.225893035663432 
1930	 0.225858143251811 
1931	 0.225850034921818 
1932	 0.225833448012499 
1933	 0.225826072930838 
1934	 0.225849386882896 
1935	 0.225886358689189 
1936	 0.225933490229475 
1937	 0.226008099837732 
1938	 0.226123567795921 
1939	 0.226226984362763 
1940	 0.226345333855373 
1941	 0.226455969321925 
1942	 0.226573019123317 
1943	 0.226692050528527 
1944	 0.226821839332705 
1945	 0.226979158141143 
1946	 0.227133883012256 
1947	 0.227293258025712 
1948	 0.227460275282836 
1949	 0.227628686741598 
1950	 0.227814181950154 
1951	 0.228008492118725 
1952	 0.228221652928939 
1953	 0.228438796208986 
1954	 0.228693366412527 
1955	 0.228954684873481 
1956	 0.229224083329648 
1957	 0.229509499220024 
1958	 0.229810934362257 
1959	 0.230115881660569 
1960	 0.230439075305441 
1961	 0.230761275525145 
1962	 0.231100058047778 
1963	 0.231425569626494 
1964	 0.231746892893766 
1965	 0.232064751019196 
1966	 0.232391468120521 
1967	 0.232712688464186 
1968	 0.23303182775787 
1969	 0.233352362413884 
1970	 0.23367758307335 
1971	 0.234003039610642 
1972	 0.23432058871171 
1973	 0.234640510246711 
1974	 0.234960843192131 
1975	 0.235265976517469 
1976	 0.235587936874156 
1977	 0.235917003771368 
1978	 0.236227892862697 
1979	 0.236549364848029 
1980	 0.23686510682045 
1981	 0.237176679586461 
1982	 0.237493769560741 
1983	 0.237800321241356 
1984	 0.238088952292282 
1985	 0.238388048689584 
1986	 0.238681156456904 
1987	 0.238985425533872 
1988	 0.239300474825132 
1989	 0.239618285280332 
1990	 0.239925795564203 
1991	 0.240236782629233 
1992	 0.240540492040058 
1993	 0.240839373137665 
1994	 0.241129269362665 
1995	 0.24141417891436 
1996	 0.241693376980287 
1997	 0.241956694177542 
1998	 0.242228790878921 
1999	 0.242484029741627 
2000	 0.242774374879721 
2001	 0.243101882801636 
2002	 0.243401170069341 
2003	 0.243709717706363 
2004	 0.244023133507219 
2005	 0.244293609269479 
2006	 0.244510948722874 
2007	 0.244762846008516 
2008	 0.245009511183652 
2009	 0.245254177579306 
2010	 0.245506012553821 
2011	 0.245759582846645 
2012	 0.246007957034492 
2013	 0.246254388972766 
2014	 0.246502899911996 
2015	 0.246753410298179 
2016	 0.246995726500878 
2017	 0.247247623159479 
2018	 0.247519851036297 
2019	 0.247815155675698 
2020	 0.24810195815085 
2021	 0.248411470120806 
2022	 0.248697766206743 
2023	 0.248974695803896 
2024	 0.249246944715145 
2025	 0.249508738286906 
2026	 0.249768989929609 
2027	 0.250030643154467 
2028	 0.25028173695036 
2029	 0.250518897575051 
2030	 0.250747850402866 
2031	 0.250963694860791 
2032	 0.251148376831555 
2033	 0.251364993978862 
2034	 0.251594321414501 
2035	 0.251808726719045 
2036	 0.252018777942899 
2037	 0.252245163561995 
2038	 0.25247442692543 
2039	 0.252696180202899 
2040	 0.252936539179818 
2041	 0.253172109819146 
2042	 0.25337468639843 
2043	 0.253554390626605 
2044	 0.253733959693557 
2045	 0.253893891123233 
2046	 0.2540726032666 
2047	 0.254254762710986 
2048	 0.254427578081802 
2049	 0.254627390065031 
2050	 0.254776902549793 
2051	 0.254869540947752 
2052	 0.255001217740803 
2053	 0.255127294627356 
2054	 0.255251826053321 
2055	 0.255384394752175 
2056	 0.255542935292992 
2057	 0.255683197168055 
2058	 0.255809252200323 
2059	 0.25593826757564 
2060	 0.256069553344403 
2061	 0.256205958442641 
2062	 0.256333577267909 
2063	 0.256470435182032 
2064	 0.256628115169801 
2065	 0.256770420969923 
2066	 0.256906474457671 
2067	 0.257038948845866 
2068	 0.257156225785168 
2069	 0.257291099213535 
2070	 0.257423541893232 
2071	 0.257550708370493 
2072	 0.257692248448096 
2073	 0.257855439354643 
2074	 0.257989266514742 
2075	 0.258115194872966 
2076	 0.2582433412585 
2077	 0.258351025361527 
2078	 0.258473267506067 
2079	 0.258606821203772 
2080	 0.258738362137803 
2081	 0.258863766777853 
2082	 0.259002107441472 
2083	 0.259150850009665 
2084	 0.259303097818849 
2085	 0.259447875634602 
2086	 0.259598600465419 
2087	 0.259742052982098 
2088	 0.259878135737965 
2089	 0.260012486012013 
2090	 0.260145244897374 
2091	 0.260275587728764 
2092	 0.260393301371025 
2093	 0.260524616499416 
2094	 0.260665373308824 
2095	 0.260802414855757 
2096	 0.260946722360043 
2097	 0.261085638345648 
2098	 0.261220498329399 
2099	 0.261346266295711 
2100	 0.261491806946358 
2101	 0.261646143680416 
2102	 0.261793192729739 
2103	 0.261951437919904 
2104	 0.262100326270482 
2105	 0.262222622193352 
2106	 0.262384029400683 
2107	 0.26256821522851 
2108	 0.262745066667279 
2109	 0.262938394396002 
2110	 0.263131458704402 
2111	 0.263330740391615 
2112	 0.263516831040323 
2113	 0.26370319864834 
2114	 0.263891557374839 
2115	 0.264062378457468 
2116	 0.264218131575948 
2117	 0.264359422204322 
2118	 0.264485575278788 
2119	 0.264617948347664 
2120	 0.264737108411253 
2121	 0.264857156505087 
2122	 0.264984295808948 
2123	 0.265102989601832 
2124	 0.265211432900172 
2125	 0.265313631163501 
2126	 0.265414256376543 
2127	 0.265510609475937 
2128	 0.265591867348723 
2129	 0.265677664857174 
2130	 0.265773540835821 
2131	 0.265859699553162 
2132	 0.265926352499229 
2133	 0.265993075451584 
2134	 0.266024886109675 
2135	 0.266009099480154 
2136	 0.266032201437328 
2137	 0.266054733759243 
2138	 0.266071078209174 
2139	 0.266118541597174 
2140	 0.266125727440294 
2141	 0.266098400269869 
2142	 0.266074664934551 
2143	 0.266059889105123 
2144	 0.26600310552593 
2145	 0.265915178495617 
2146	 0.265826278214419 
2147	 0.265688392767421 
2148	 0.265570726078928 
2149	 0.265470635388819 
2150	 0.265394234753724 
2151	 0.26529233766567 
2152	 0.265203329046185 
2153	 0.265085187117834 
2154	 0.264945374025163 
2155	 0.264798994617365 
2156	 0.264649320491847 
2157	 0.26447430540121 
2158	 0.264271578922273 
2159	 0.264070977514019 
2160	 0.263850167308013 
2161	 0.263633117880105 
2162	 0.263402966347042 
2163	 0.263192424884119 
2164	 0.262993840710761 
2165	 0.262791360356355 
2166	 0.262587425395121 
2167	 0.262395597154236 
2168	 0.262193878154165 
2169	 0.261979242443378 
2170	 0.261773523897258 
2171	 0.261569487365316 
2172	 0.261375606489177 
2173	 0.2611841937325 
2174	 0.26099479827949 
2175	 0.260811081271826 
2176	 0.260636161012348 
2177	 0.260469997722283 
2178	 0.26029669019748 
2179	 0.260142062233752 
2180	 0.259967812643403 
2181	 0.259773855511596 
2182	 0.259581385384439 
2183	 0.259372198752268 
2184	 0.259173509388092 
2185	 0.25898578537914 
2186	 0.258795885226155 
2187	 0.258630364245258 
2188	 0.258493010881159 
2189	 0.258338438231992 
2190	 0.258183897922525 
2191	 0.258041280476946 
2192	 0.25789588087918 
2193	 0.257758412795099 
2194	 0.257639590620814 
2195	 0.257517345185489 
2196	 0.257384779750237 
2197	 0.257273441243969 
2198	 0.257182174759662 
2199	 0.257084175869204 
2200	 0.256983447241526 
2201	 0.256900848908646 
2202	 0.256829110250987 
2203	 0.256756454120726 
2204	 0.256691174612899 
2205	 0.256635755677089 
2206	 0.25660480397601 
2207	 0.256590948089596 
2208	 0.25655834850497 
2209	 0.25654475316641 
2210	 0.256521712893502 
2211	 0.256471281680329 
2212	 0.25644401628422 
2213	 0.256433361800801 
2214	 0.256427134214464 
2215	 0.256422995961099 
2216	 0.256420257000613 
2217	 0.256435956742415 
2218	 0.256442047649129 
2219	 0.256425366830242 
2220	 0.256440201420006 
2221	 0.256480168291809 
2222	 0.256503237328189 
2223	 0.256562433404014 
2224	 0.256622044741302 
2225	 0.256661764596423 
2226	 0.256694338527685 
2227	 0.256724729190198 
2228	 0.256735952020094 
2229	 0.256765076142704 
2230	 0.25681289671726 
2231	 0.256831997950385 
2232	 0.25685481615629 
2233	 0.256848912305559 
2234	 0.256794645850836 
2235	 0.256777391032899 
2236	 0.256772382230647 
2237	 0.25675035371419 
2238	 0.256724642004545 
2239	 0.256713324757885 
2240	 0.256676755444764 
2241	 0.256673516258858 
2242	 0.256728866460355 
2243	 0.25675046828316 
2244	 0.25677147090317 
2245	 0.256783104193994 
2246	 0.256764781404818 
2247	 0.256734861106633 
2248	 0.256733297297364 
2249	 0.2567391288714 
2250	 0.256742088898337 
2251	 0.256770673031399 
2252	 0.256759033766335 
2253	 0.256711632052497 
2254	 0.256698726829592 
2255	 0.256676938063122 
2256	 0.256680271229087 
2257	 0.256718800193783 
2258	 0.25674081815753 
2259	 0.256763079318684 
2260	 0.256786421869987 
2261	 0.25681719667268 
2262	 0.256835290346086 
2263	 0.256861323113676 
2264	 0.256865887658346 
2265	 0.256827189445359 
2266	 0.256823419938214 
2267	 0.256822147798669 
2268	 0.256826065139857 
2269	 0.25686640181606 
2270	 0.25689004649352 
2271	 0.256879456200718 
2272	 0.256893776850097 
2273	 0.256900495312707 
2274	 0.256878582610282 
2275	 0.256871311121734 
2276	 0.256881755041064 
2277	 0.25684951459796 
2278	 0.256784335768348 
2279	 0.256750589805044 
2280	 0.25669156190213 
2281	 0.256673792522347 
2282	 0.256708090124798 
2283	 0.256716681257916 
2284	 0.256713022939977 
2285	 0.25672819004792 
2286	 0.25676120568758 
2287	 0.256771364564032 
2288	 0.256788091839959 
2289	 0.256800563019588 
2290	 0.256788666435871 
2291	 0.256784397575283 
2292	 0.256793179543185 
2293	 0.256798784392361 
2294	 0.256807473811827 
2295	 0.256796769034144 
2296	 0.256779605945688 
2297	 0.256744604165987 
2298	 0.256739286101062 
2299	 0.256694237670489 
2300	 0.256685041826489 
2301	 0.256721128261479 
2302	 0.256663346320584 
2303	 0.256656176895098 
2304	 0.256705810714155 
2305	 0.256678653750705 
2306	 0.256650640254412 
2307	 0.256643213747621 
2308	 0.256597437361761 
2309	 0.256488378977561 
2310	 0.256414353086461 
2311	 0.256354675501516 
2312	 0.256296312078658 
2313	 0.256221475487325 
2314	 0.256172848961707 
2315	 0.256135570554267 
2316	 0.256109180540128 
2317	 0.256140047763877 
2318	 0.256093483247512 
2319	 0.255999443767847 
2320	 0.255945735640277 
2321	 0.255862575092786 
2322	 0.255790379457908 
2323	 0.255759680925774 
2324	 0.255716146634038 
2325	 0.255632305256458 
2326	 0.255575396554539 
2327	 0.255525600288549 
2328	 0.255532365361925 
2329	 0.255509334047694 
2330	 0.255494302448207 
2331	 0.2555036358241 
2332	 0.25551543177838 
2333	 0.255525948980732 
2334	 0.255552823046104 
2335	 0.255593944170885 
2336	 0.255569438440589 
2337	 0.255550013185262 
2338	 0.255584860720571 
2339	 0.255554879662693 
2340	 0.255535560536083 
2341	 0.255547440250395 
2342	 0.255470395014662 
2343	 0.255373078768654 
2344	 0.255330188526249 
2345	 0.255281723276287 
2346	 0.255232069116861 
2347	 0.255144689666425 
2348	 0.255072590242624 
2349	 0.254965771532743 
2350	 0.254791372670455 
2351	 0.254679213135271 
2352	 0.254584565336046 
2353	 0.254481032955911 
2354	 0.254398594285646 
2355	 0.25427581541372 
2356	 0.25414190027133 
2357	 0.25401961050003 
2358	 0.253842189842134 
2359	 0.25374084896532 
2360	 0.253724506702475 
2361	 0.253630566782233 
2362	 0.253530777013089 
2363	 0.253429383601494 
2364	 0.253257572469256 
2365	 0.253136456742355 
2366	 0.253083829864155 
2367	 0.252996593784989 
2368	 0.252883668254332 
2369	 0.252788250231037 
2370	 0.252717226632737 
2371	 0.252601201580406 
2372	 0.252413803916277 
2373	 0.252254579939574 
2374	 0.252044410323559 
2375	 0.251820645688138 
2376	 0.251712831121948 
2377	 0.251590194455997 
2378	 0.251458087664583 
2379	 0.251327485698574 
2380	 0.251176764384564 
2381	 0.251059652470399 
2382	 0.25091260408984 
2383	 0.250807139266304 
2384	 0.250635881807149 
2385	 0.250421434875612 
2386	 0.250301475504127 
2387	 0.250092856995749 
2388	 0.249924050185123 
2389	 0.249825770137976 
2390	 0.249659857956787 
2391	 0.249476238081347 
2392	 0.249255109470957 
2393	 0.249020545626487 
2394	 0.248815591630822 
2395	 0.248668992176892 
2396	 0.248604687936639 
2397	 0.248520385697607 
2398	 0.248348402207467 
2399	 0.24819928776793 
2400	 0.248019307628954 
2401	 0.247783152960139 
2402	 0.247589263662198 
2403	 0.247363733847469 
2404	 0.247100621893323 
2405	 0.246833655048393 
2406	 0.246643517602291 
2407	 0.246513888523984 
2408	 0.24639936240892 
2409	 0.246293271908962 
2410	 0.24609450016263 
2411	 0.245893655546424 
2412	 0.245684462378617 
2413	 0.24544965282841 
2414	 0.245281468586875 
2415	 0.245039524481019 
2416	 0.244785329552727 
2417	 0.244484656231354 
2418	 0.244240265302367 
2419	 0.244039014080097 
2420	 0.24374977575416 
2421	 0.243377556019421 
2422	 0.243161048739195 
2423	 0.24298383301249 
2424	 0.242765863332306 
2425	 0.24267396693825 
2426	 0.242430244738015 
2427	 0.241981730075246 
2428	 0.241721678930767 
2429	 0.241572695002725 
2430	 0.241379215318747 
2431	 0.241237097009444 
2432	 0.241018954198114 
2433	 0.24075113511809 
2434	 0.240435283255695 
2435	 0.240082441410423 
2436	 0.239730466387396 
2437	 0.239269336892435 
2438	 0.239003986843021 
2439	 0.238855055412802 
2440	 0.238614809684863 
2441	 0.238452237388961 
2442	 0.238242074238523 
2443	 0.23794934120464 
2444	 0.23770933777421 
2445	 0.237493236465681 
2446	 0.237263886826002 
2447	 0.237034754629285 
2448	 0.23682191759225 
2449	 0.236686351643407 
2450	 0.236425887504322 
2451	 0.236076879523069 
2452	 0.235661949385011 
2453	 0.235095106952783 
2454	 0.234713559277068 
2455	 0.234388012773672 
2456	 0.234121060268959 
2457	 0.234028504637866 
2458	 0.233789977907206 
2459	 0.233427082202834 
2460	 0.233199225914101 
2461	 0.233004334682635 
2462	 0.232760711455911 
2463	 0.232652495451613 
2464	 0.232394857619779 
2465	 0.231934235482348 
2466	 0.231659146585884 
2467	 0.231448817593955 
2468	 0.231136531985063 
2469	 0.230926303141926 
2470	 0.230545651030958 
2471	 0.230064051730551 
2472	 0.229758939186012 
2473	 0.229436533512425 
2474	 0.22911063821278 
2475	 0.229054034427736 
2476	 0.229008422026573 
2477	 0.228857172502659 
2478	 0.228781020745704 
2479	 0.228432545087568 
2480	 0.22807115102976 
2481	 0.227832658520247 
2482	 0.227459683158247 
2483	 0.227191541879123 
2484	 0.226936055699248 
2485	 0.22656186153184 
2486	 0.226325776290323 
2487	 0.226166189674836 
2488	 0.225754251110608 
2489	 0.225457614346304 
2490	 0.225381226443957 
2491	 0.225076687498589 
2492	 0.224782056359914 
2493	 0.224800834352419 
2494	 0.224869972188152 
2495	 0.224837486893131 
2496	 0.224930064361861 
2497	 0.224810456424193 
2498	 0.224237251813046 
2499	 0.223691966299391 
2500	 0.223396135245864 
