Wavelength	mm2700008.asd
350	 6.46879515836508E-02 
351	 6.93020915665312E-02 
352	 6.94206099288973E-02 
353	 6.14708127337379E-02 
354	 6.39110572346807E-02 
355	 6.96618555339156E-02 
356	 6.97831786082177E-02 
357	 0.061613445622818 
358	 6.60716586418722E-02 
359	 6.84563092869444E-02 
360	 6.73027936705206E-02 
361	 6.97870760968181E-02 
362	 7.32963854360909E-02 
363	 7.21095501080854E-02 
364	 0.066744065666408 
365	 6.75206449320298E-02 
366	 6.88188019427173E-02 
367	 7.10585360019167E-02 
368	 7.46575758567224E-02 
369	 7.38904252013872E-02 
370	 7.35144842667212E-02 
371	 0.073268889697798 
372	 7.01727389696659E-02 
373	 7.39473788623911E-02 
374	 7.69700808898895E-02 
375	 7.53288907363255E-02 
376	 7.51292304459706E-02 
377	 7.55155780957559E-02 
378	 0.077134594374212 
379	 7.98170566829028E-02 
380	 7.93603650017373E-02 
381	 0.076129853368309 
382	 7.41896887429513E-02 
383	 7.89821925860021E-02 
384	 8.00532488277945E-02 
385	 7.92499948890721E-02 
386	 7.91204453181021E-02 
387	 7.98810179268684E-02 
388	 0.081424442494504 
389	 0.082048201701279 
390	 8.07215684475571E-02 
391	 8.19093353648053E-02 
392	 8.31593337631311E-02 
393	 8.33024257623441E-02 
394	 8.26501323337447E-02 
395	 8.28661912215864E-02 
396	 8.43583663048768E-02 
397	 0.086276914034201 
398	 8.54510614940151E-02 
399	 8.59722881900665E-02 
400	 8.76379632341258E-02 
401	 8.87051305904465E-02 
402	 8.87604126340009E-02 
403	 8.79937413916981E-02 
404	 8.68795447638668E-02 
405	 8.60836006004876E-02 
406	 8.66731809642129E-02 
407	 8.80519619266651E-02 
408	 8.88733346250736E-02 
409	 8.64486561741615E-02 
410	 8.57183743683961E-02 
411	 8.66350006100446E-02 
412	 8.69379955003356E-02 
413	 8.74457836070338E-02 
414	 8.69559313892374E-02 
415	 8.58428483333386E-02 
416	 8.66070540713799E-02 
417	 8.75744364141662E-02 
418	 0.088319898704044 
419	 8.87531167792526E-02 
420	 8.88979876568013E-02 
421	 8.82207180871605E-02 
422	 8.75177312325959E-02 
423	 8.81934119072715E-02 
424	 0.088503789198247 
425	 8.83060713451891E-02 
426	 8.79372697818342E-02 
427	 8.82234047036537E-02 
428	 8.80912557238294E-02 
429	 8.76437075756493E-02 
430	 8.73795945479118E-02 
431	 8.77497986918948E-02 
432	 8.77942715728262E-02 
433	 8.74717741279735E-02 
434	 8.76402767594302E-02 
435	 8.78877095204128E-02 
436	 8.78557279391451E-02 
437	 8.75275152816107E-02 
438	 8.77469777380784E-02 
439	 8.79354862254382E-02 
440	 8.80551008784749E-02 
441	 8.82971494132392E-02 
442	 8.84218499167324E-02 
443	 8.83581603553854E-02 
444	 8.80899144823588E-02 
445	 8.76070688677511E-02 
446	 8.78829854461994E-02 
447	 8.81511245797584E-02 
448	 0.087632207425932 
449	 8.77937686743226E-02 
450	 8.79006855657447E-02 
451	 0.087892197860889 
452	 8.82732002541372E-02 
453	 8.80845279806163E-02 
454	 8.77915952680323E-02 
455	 8.78160735760772E-02 
456	 8.78870285653238E-02 
457	 8.76614967827154E-02 
458	 8.74569940840605E-02 
459	 8.77610545815564E-02 
460	 8.78206865895726E-02 
461	 8.76247170245951E-02 
462	 8.74066983867379E-02 
463	 0.087644283423246 
464	 8.74881620674846E-02 
465	 8.73658673054041E-02 
466	 8.77331932424216E-02 
467	 8.76599598091896E-02 
468	 8.77126111553112E-02 
469	 8.78292502225167E-02 
470	 8.74796406240351E-02 
471	 8.74836200631635E-02 
472	 8.76088826757246E-02 
473	 0.087568102736582 
474	 8.73439180413063E-02 
475	 8.73449200674037E-02 
476	 8.73560349718682E-02 
477	 8.70339947950139E-02 
478	 8.73143782196445E-02 
479	 8.75825773022283E-02 
480	 8.75201472130162E-02 
481	 8.73961617301858E-02 
482	 8.74423402722876E-02 
483	 8.74849149362504E-02 
484	 8.73385688549464E-02 
485	 0.087293781630775 
486	 8.72599716649517E-02 
487	 8.72166193118026E-02 
488	 8.72090366086424E-02 
489	 8.72894775235558E-02 
490	 8.72688323625416E-02 
491	 8.70860816004906E-02 
492	 8.71012221829759E-02 
493	 8.69799236305373E-02 
494	 8.69330468758809E-02 
495	 8.72883406278975E-02 
496	 8.72031815286779E-02 
497	 8.70540892399368E-02 
498	 0.087111982795486 
499	 8.73290009810325E-02 
500	 8.72915235136025E-02 
501	 8.71152253944671E-02 
502	 8.70479589158121E-02 
503	 8.71261525402965E-02 
504	 8.71581558480698E-02 
505	 8.71100236080393E-02 
506	 8.70983780572712E-02 
507	 8.71558260140572E-02 
508	 8.71924344611455E-02 
509	 0.087138436353017 
510	 8.70338009994822E-02 
511	 8.69610235690604E-02 
512	 0.086941471835045 
513	 8.69580057522408E-02 
514	 8.70018017119097E-02 
515	 8.70434643849859E-02 
516	 8.70780615723338E-02 
517	 8.71510329491301E-02 
518	 8.71373320315476E-02 
519	 8.70921614882211E-02 
520	 8.71118663014895E-02 
521	 8.71714213872735E-02 
522	 8.71732508815153E-02 
523	 8.71424233668842E-02 
524	 8.72300447777043E-02 
525	 8.71724001384688E-02 
526	 8.71195628013011E-02 
527	 8.72066541539338E-02 
528	 8.72286396848889E-02 
529	 8.71958646229731E-02 
530	 0.087174819689325 
531	 8.72529512522053E-02 
532	 0.087286719138983 
533	 8.73265215142149E-02 
534	 8.73954763632771E-02 
535	 8.73904382005449E-02 
536	 8.74574397523186E-02 
537	 8.75460817514605E-02 
538	 8.75534748032716E-02 
539	 8.75914187954334E-02 
540	 8.76395544704865E-02 
541	 8.76768657086231E-02 
542	 8.76955811469133E-02 
543	 8.76940573707304E-02 
544	 8.77464691768487E-02 
545	 8.79011080838139E-02 
546	 8.80483015133195E-02 
547	 8.80462557243522E-02 
548	 8.79856202746976E-02 
549	 8.81337921969841E-02 
550	 8.82358475821354E-02 
551	 8.82814284882128E-02 
552	 0.088326317829335 
553	 8.84872375318325E-02 
554	 8.85862243331435E-02 
555	 8.86504973105225E-02 
556	 8.88097062992254E-02 
557	 8.90604757051302E-02 
558	 0.089256785098704 
559	 8.93878357189845E-02 
560	 8.97170638417644E-02 
561	 8.99315553675106E-02 
562	 9.01002809360404E-02 
563	 9.03814001581717E-02 
564	 9.06512439107088E-02 
565	 9.08737522357272E-02 
566	 9.10600878325088E-02 
567	 0.091267991419027 
568	 9.15436326446578E-02 
569	 9.19194523528088E-02 
570	 9.23919383065181E-02 
571	 9.28799771238741E-02 
572	 9.33378823863739E-02 
573	 9.37732293876539E-02 
574	 9.42320052795662E-02 
575	 9.47048677057997E-02 
576	 9.52462994975467E-02 
577	 0.095860807088889 
578	 9.64300683079958E-02 
579	 9.69653033914621E-02 
580	 9.75174224313936E-02 
581	 9.81280149162098E-02 
582	 0.09858136692298 
583	 9.91654863009647E-02 
584	 9.99731483154157E-02 
585	 0.100767877218804 
586	 0.101629592641837 
587	 0.102561337548803 
588	 0.103537627164019 
589	 0.104502263928368 
590	 0.105461908516007 
591	 0.106417569307139 
592	 0.107364420614892 
593	 0.108257876168096 
594	 0.109080725386973 
595	 0.109825124562379 
596	 0.110479787114894 
597	 0.111118080974102 
598	 0.111790239057992 
599	 0.112529442693777 
600	 0.113332953393887 
601	 0.1141357688089 
602	 0.114922194326379 
603	 0.11578450807858 
604	 0.11662352769564 
605	 0.117461853385652 
606	 0.118334198695741 
607	 0.11908883843073 
608	 0.119858299814184 
609	 0.120680257979689 
610	 0.121466621637666 
611	 0.122120849572189 
612	 0.12266767179245 
613	 0.123164148200857 
614	 0.123654204576087 
615	 0.124105271703326 
616	 0.124547453971209 
617	 0.125042734185065 
618	 0.125515167548258 
619	 0.125928522404062 
620	 0.126296773331977 
621	 0.126732291314783 
622	 0.127098889675877 
623	 0.127411958421144 
624	 0.127746569679797 
625	 0.128131338535402 
626	 0.128445355402687 
627	 0.128678525896127 
628	 0.128979139924375 
629	 0.129298402591307 
630	 0.129605276495943 
631	 0.129881102733628 
632	 0.130146387625911 
633	 0.130380530755955 
634	 0.130613702850394 
635	 0.130909836176754 
636	 0.131172967159568 
637	 0.131413204079177 
638	 0.131651264303127 
639	 0.131886208502275 
640	 0.132112112648866 
641	 0.132363410837697 
642	 0.132674322980015 
643	 0.13293618413314 
644	 0.133167011608809 
645	 0.133399553561235 
646	 0.133668434150623 
647	 0.133933573282819 
648	 0.134197282866417 
649	 0.134473195375088 
650	 0.134766216491874 
651	 0.135073620816075 
652	 0.13537967021082 
653	 0.135662888575075 
654	 0.135995451092978 
655	 0.136301194349578 
656	 0.136552863329977 
657	 0.136915531780727 
658	 0.137261643690502 
659	 0.137604086577539 
660	 0.138001172654814 
661	 0.138331064770637 
662	 0.138631564311813 
663	 0.138945869866567 
664	 0.139299212522675 
665	 0.139729183940769 
666	 0.140143512552085 
667	 0.140470639036029 
668	 0.140887518852755 
669	 0.141305817497669 
670	 0.141710448915786 
671	 0.142149335793715 
672	 0.142589659284156 
673	 0.143036276551055 
674	 0.143486991805006 
675	 0.143904316380484 
676	 0.144326789813628 
677	 0.144798141110406 
678	 0.145344146163931 
679	 0.145858570327812 
680	 0.146357383648212 
681	 0.146862209864507 
682	 0.147386644014508 
683	 0.147923268495211 
684	 0.14844507321741 
685	 0.148947857885326 
686	 0.149526365370181 
687	 0.150134330754621 
688	 0.150728327747335 
689	 0.151273739532551 
690	 0.151798127551093 
691	 0.152365395275634 
692	 0.152989169852456 
693	 0.153575644099811 
694	 0.154184765599616 
695	 0.154793569863181 
696	 0.155366246273615 
697	 0.155953954154552 
698	 0.156574608129805 
699	 0.157218868060839 
700	 0.157851275996143 
701	 0.158479379281023 
702	 0.15910768153478 
703	 0.159737420099696 
704	 0.16036350011728 
705	 0.160961418786835 
706	 0.161563591021784 
707	 0.162216900215434 
708	 0.162824919271284 
709	 0.163450629839933 
710	 0.164107400566892 
711	 0.164715465556893 
712	 0.165315415030627 
713	 0.165897119073813 
714	 0.166461240811684 
715	 0.167101843400719 
716	 0.16769690938957 
717	 0.168224381923334 
718	 0.168746968992561 
719	 0.169364392504621 
720	 0.169955751500777 
721	 0.170452462603857 
722	 0.170949591765157 
723	 0.171462698502876 
724	 0.171955611805272 
725	 0.172388291362011 
726	 0.172805711543371 
727	 0.173259937029871 
728	 0.17372154162401 
729	 0.174093267795352 
730	 0.174467576962774 
731	 0.174841336793394 
732	 0.175194697648092 
733	 0.175509263044508 
734	 0.17582285844461 
735	 0.176099088375265 
736	 0.176293896708348 
737	 0.176516855466257 
738	 0.176720246961317 
739	 0.17689651921539 
740	 0.177091233998735 
741	 0.17719604966507 
742	 0.177301288764612 
743	 0.177472208512998 
744	 0.177602865134559 
745	 0.177604306387403 
746	 0.177557185482308 
747	 0.177601749303788 
748	 0.177646059034594 
749	 0.177585174240704 
750	 0.177453310559296 
751	 0.177447170529864 
752	 0.177415439263114 
753	 0.177270239712966 
754	 0.177022238784137 
755	 0.176916485240155 
756	 0.176825848445086 
757	 0.17667898982245 
758	 0.176453180166665 
759	 0.176260046743223 
760	 0.176046831272519 
761	 0.175784971469311 
762	 0.175496881301122 
763	 0.175269627747935 
764	 0.175021780982602 
765	 0.174690514390263 
766	 0.174382387754323 
767	 0.174136826143803 
768	 0.173884831665143 
769	 0.173526758562312 
770	 0.173189480744459 
771	 0.172860917786307 
772	 0.172511130833552 
773	 0.172107541891035 
774	 0.171771623707986 
775	 0.171446447586362 
776	 0.171070795326858 
777	 0.170685770151555 
778	 0.170307733818507 
779	 0.169958996239407 
780	 0.169641541087037 
781	 0.169230528324071 
782	 0.168841378727753 
783	 0.168490361063185 
784	 0.168076728913044 
785	 0.167710562744332 
786	 0.167370940200027 
787	 0.167017460442248 
788	 0.166617869505077 
789	 0.166293534794115 
790	 0.165943758370405 
791	 0.165458265392518 
792	 0.165142524082537 
793	 0.164847252065198 
794	 0.164490188142404 
795	 0.16407749244312 
796	 0.163684643132842 
797	 0.163352026682309 
798	 0.163064025657008 
799	 0.162720801243641 
800	 0.162377480447208 
801	 0.162018991144973 
802	 0.161645005042362 
803	 0.161391206881285 
804	 0.161125944591492 
805	 0.160801430969014 
806	 0.160441891249901 
807	 0.160134758529877 
808	 0.15985188400273 
809	 0.159561745161147 
810	 0.159248152986698 
811	 0.158947234218558 
812	 0.158656623292551 
813	 0.158377900161003 
814	 0.158153823712639 
815	 0.157915676890269 
816	 0.157653778648871 
817	 0.157387387172412 
818	 0.157127113259567 
819	 0.156940889855125 
820	 0.156766312487048 
821	 0.156455050029108 
822	 0.156239065484838 
823	 0.156025624645591 
824	 0.155772441825865 
825	 0.155598430804319 
826	 0.155461700407725 
827	 0.155318547993445 
828	 0.155129070778981 
829	 0.154864392578679 
830	 0.154621987597783 
831	 0.154460647486472 
832	 0.154386860042372 
833	 0.154269808485367 
834	 0.15408288563689 
835	 0.153883566382956 
836	 0.153785749100546 
837	 0.153673026395047 
838	 0.153605258478147 
839	 0.153566026406255 
840	 0.153365110703568 
841	 0.153174328022046 
842	 0.1530662748338 
843	 0.15303719428401 
844	 0.152946780104126 
845	 0.152861246212265 
846	 0.152779806815382 
847	 0.152692818606318 
848	 0.152721569343292 
849	 0.152727214413088 
850	 0.152657355737947 
851	 0.152558280419641 
852	 0.152521367017851 
853	 0.152506989808279 
854	 0.152484094158795 
855	 0.152465263083765 
856	 0.152461960450521 
857	 0.152490015381301 
858	 0.152542089384114 
859	 0.152550607502125 
860	 0.152585860070174 
861	 0.152636757634736 
862	 0.152662500821369 
863	 0.152623930301053 
864	 0.152656077113866 
865	 0.152742679102909 
866	 0.152786673434981 
867	 0.15287525066589 
868	 0.152964807639735 
869	 0.153025209041488 
870	 0.153059566834747 
871	 0.153158671794386 
872	 0.153290520326049 
873	 0.153421105262713 
874	 0.153550368825384 
875	 0.153664755019473 
876	 0.153748867003907 
877	 0.153818609952065 
878	 0.153965256882661 
879	 0.154157327017304 
880	 0.154354084227489 
881	 0.154515217275308 
882	 0.154618641743176 
883	 0.154789277744104 
884	 0.155007609094952 
885	 0.155176802466041 
886	 0.155293416146898 
887	 0.155446207197951 
888	 0.155636895768541 
889	 0.155800371050767 
890	 0.156054682501452 
891	 0.156326514423435 
892	 0.156564491046238 
893	 0.156780925038102 
894	 0.157037109698409 
895	 0.157313780030556 
896	 0.157583424543768 
897	 0.157836512369632 
898	 0.158118101680518 
899	 0.158412195566023 
900	 0.158690554491484 
901	 0.158935355949863 
902	 0.159220094636618 
903	 0.15952883736817 
904	 0.15982554324784 
905	 0.160128353498591 
906	 0.160477380471191 
907	 0.160847424555775 
908	 0.161199207591908 
909	 0.161605442264842 
910	 0.16198091701003 
911	 0.162312384338482 
912	 0.162645928665909 
913	 0.163035000242134 
914	 0.163418939834965 
915	 0.163784421994511 
916	 0.164173403362033 
917	 0.164635740561039 
918	 0.165055558196737 
919	 0.165419763707894 
920	 0.165849744039332 
921	 0.166323905291173 
922	 0.166780846117341 
923	 0.167215219430668 
924	 0.167711041165143 
925	 0.168179367471245 
926	 0.168652261435479 
927	 0.169140709878044 
928	 0.169571027156764 
929	 0.170034645930701 
930	 0.17055681116284 
931	 0.171103761867861 
932	 0.171556293781068 
933	 0.172053314174549 
934	 0.17266125029447 
935	 0.173353637350922 
936	 0.173930678273552 
937	 0.174404015302553 
938	 0.174883954680116 
939	 0.175481812022133 
940	 0.17618152854003 
941	 0.17683143839306 
942	 0.177457122249166 
943	 0.178110573555895 
944	 0.178620629301712 
945	 0.179179092774641 
946	 0.179795594882778 
947	 0.180394528249812 
948	 0.180956689082706 
949	 0.18157296187472 
950	 0.182230508311741 
951	 0.182887968481497 
952	 0.183672006104412 
953	 0.184372038356514 
954	 0.184980420103011 
955	 0.185630277536807 
956	 0.186457923008935 
957	 0.187223591409972 
958	 0.187863835111845 
959	 0.188464807198154 
960	 0.189150255558718 
961	 0.189915684810066 
962	 0.190662970924305 
963	 0.191287905671595 
964	 0.191968308297316 
965	 0.192757830251447 
966	 0.193576737597584 
967	 0.194298368301818 
968	 0.195043005126251 
969	 0.195827475380296 
970	 0.19658359377168 
971	 0.197233050817895 
972	 0.197962703579282 
973	 0.198780970823294 
974	 0.199592957556883 
975	 0.200283919713602 
976	 0.200983660941255 
977	 0.201739895915718 
978	 0.202556483270699 
979	 0.203401267737497 
980	 0.204228764655394 
981	 0.20502324331178 
982	 0.205771280144473 
983	 0.20647699255503 
984	 0.207211018199063 
985	 0.20797227994857 
986	 0.208710329649131 
987	 0.209406229623988 
988	 0.210340737132905 
989	 0.211029568949402 
990	 0.21159013278423 
991	 0.212387951448692 
992	 0.213280853090679 
993	 0.214000720918977 
994	 0.214699332404921 
995	 0.215559383431837 
996	 0.216019164840129 
997	 0.216839829998572 
998	 0.2177598481823 
999	 0.218337507058553 
1000	 0.219078097070747 
1001	 0.216732421599775 
1002	 0.217315691555433 
1003	 0.217917061697245 
1004	 0.218546637185285 
1005	 0.219243958036271 
1006	 0.219903787655273 
1007	 0.220591640287001 
1008	 0.22120130864776 
1009	 0.221773318333269 
1010	 0.22232775688637 
1011	 0.222836912525876 
1012	 0.223351700728828 
1013	 0.223878485297122 
1014	 0.224401837766956 
1015	 0.224896833414646 
1016	 0.22544815854722 
1017	 0.226008533194741 
1018	 0.226592856891735 
1019	 0.227125019492537 
1020	 0.227656553930678 
1021	 0.228128145762129 
1022	 0.228523732226928 
1023	 0.228941000808491 
1024	 0.229435005396427 
1025	 0.229894578215871 
1026	 0.230362534837385 
1027	 0.230845327015932 
1028	 0.23121834797786 
1029	 0.231596871807184 
1030	 0.231979001341808 
1031	 0.232357270712543 
1032	 0.232707893447291 
1033	 0.233112844561032 
1034	 0.233527288762012 
1035	 0.233930920864827 
1036	 0.234310384529132 
1037	 0.234695121181211 
1038	 0.235076933340391 
1039	 0.235439380195127 
1040	 0.235842017762606 
1041	 0.236238342774621 
1042	 0.236621871911259 
1043	 0.236996757612914 
1044	 0.2373693318844 
1045	 0.237741340601448 
1046	 0.238087018931117 
1047	 0.238420168312223 
1048	 0.238822319189094 
1049	 0.239197594405767 
1050	 0.239591057647749 
1051	 0.239999854009856 
1052	 0.240327985305884 
1053	 0.240669411234829 
1054	 0.241023841049036 
1055	 0.241380700163181 
1056	 0.241773780822695 
1057	 0.242177714577719 
1058	 0.242641905266846 
1059	 0.243022207042354 
1060	 0.243370774684428 
1061	 0.243719232889787 
1062	 0.244079961051372 
1063	 0.24439526122569 
1064	 0.244729751183331 
1065	 0.245093420890205 
1066	 0.245391199690784 
1067	 0.245672424713459 
1068	 0.246019244358567 
1069	 0.246363057224544 
1070	 0.246689640706608 
1071	 0.247025057515049 
1072	 0.247347710893913 
1073	 0.247641378162992 
1074	 0.247949062299435 
1075	 0.248256309008658 
1076	 0.248558669854812 
1077	 0.248893849645811 
1078	 0.249153151236801 
1079	 0.249446326676543 
1080	 0.249772017772771 
1081	 0.249990214443347 
1082	 0.250252161611557 
1083	 0.250513483853589 
1084	 0.250732061540372 
1085	 0.250991487837101 
1086	 0.251317077828737 
1087	 0.251566416825726 
1088	 0.251781947261782 
1089	 0.252016241721645 
1090	 0.252229031944422 
1091	 0.252465660593748 
1092	 0.252760088513841 
1093	 0.253011646762197 
1094	 0.253251984237735 
1095	 0.253505109634948 
1096	 0.253699481334489 
1097	 0.253891636186659 
1098	 0.254091089588963 
1099	 0.254269952404414 
1100	 0.254458086500226 
1101	 0.254667848459648 
1102	 0.254867706950234 
1103	 0.255060564847576 
1104	 0.255242147237062 
1105	 0.255446758993219 
1106	 0.255643061249129 
1107	 0.255867751831979 
1108	 0.256099208296371 
1109	 0.256283496122518 
1110	 0.256454393795152 
1111	 0.256617625890941 
1112	 0.256731911531975 
1113	 0.256886927473848 
1114	 0.257052314649964 
1115	 0.25722776073965 
1116	 0.257422172676768 
1117	 0.257608250974643 
1118	 0.257801297634923 
1119	 0.257995146834196 
1120	 0.25819057649509 
1121	 0.258346792779339 
1122	 0.258478415565398 
1123	 0.258659776095917 
1124	 0.258827320299936 
1125	 0.25898644706226 
1126	 0.259148187979098 
1127	 0.259319276725146 
1128	 0.259478692729667 
1129	 0.259629109397229 
1130	 0.259785608700054 
1131	 0.259951036409357 
1132	 0.260103539250357 
1133	 0.260229997079043 
1134	 0.260392232317594 
1135	 0.26058086251106 
1136	 0.260746385147472 
1137	 0.26092850008552 
1138	 0.261080259434332 
1139	 0.26121389578829 
1140	 0.261304902780795 
1141	 0.261423066842861 
1142	 0.26153152292711 
1143	 0.261669099258079 
1144	 0.261831613472377 
1145	 0.261964300149407 
1146	 0.262115555118191 
1147	 0.262230065336329 
1148	 0.262287413492915 
1149	 0.262390932654471 
1150	 0.262507445694553 
1151	 0.26262153034637 
1152	 0.262744344103754 
1153	 0.262860403978056 
1154	 0.262972028901927 
1155	 0.263059063452178 
1156	 0.263172682385208 
1157	 0.263309719586862 
1158	 0.263421113844434 
1159	 0.263528848332706 
1160	 0.263636403144596 
1161	 0.263725203590974 
1162	 0.263828494245686 
1163	 0.263953698878061 
1164	 0.264056453742628 
1165	 0.264153045349121 
1166	 0.264248751637197 
1167	 0.264309210413155 
1168	 0.264368228882796 
1169	 0.264460883891189 
1170	 0.264562048000485 
1171	 0.264669524954478 
1172	 0.264818783262221 
1173	 0.264924646835918 
1174	 0.265010133484308 
1175	 0.265096014322999 
1176	 0.265165637604194 
1177	 0.265244712817379 
1178	 0.265323819430741 
1179	 0.265405241181068 
1180	 0.265491771207073 
1181	 0.265572518801685 
1182	 0.265643100582799 
1183	 0.265731367616007 
1184	 0.26580797376908 
1185	 0.26587451578188 
1186	 0.265958318301848 
1187	 0.266053612880279 
1188	 0.266134518035587 
1189	 0.266222131814471 
1190	 0.266299998374957 
1191	 0.266355176851656 
1192	 0.266430709298732 
1193	 0.266519163740151 
1194	 0.266598962349838 
1195	 0.266675049490559 
1196	 0.266760571817579 
1197	 0.266854605709032 
1198	 0.266938897579069 
1199	 0.267022142438181 
1200	 0.26711815843683 
1201	 0.267187066995547 
1202	 0.267223278914984 
1203	 0.267300508596812 
1204	 0.26738829913798 
1205	 0.267470806024291 
1206	 0.267573730186235 
1207	 0.267663698783416 
1208	 0.267742862390463 
1209	 0.26782102947965 
1210	 0.267913911800882 
1211	 0.267981934490413 
1212	 0.268015842119204 
1213	 0.268071883331285 
1214	 0.268120742230973 
1215	 0.26818091818735 
1216	 0.268251124528182 
1217	 0.268350321183482 
1218	 0.268411299776532 
1219	 0.268457292168769 
1220	 0.268516687210586 
1221	 0.268562533111791 
1222	 0.268620829712414 
1223	 0.268706581791404 
1224	 0.268762543886922 
1225	 0.268796775714664 
1226	 0.268844553272038 
1227	 0.268880818999143 
1228	 0.268930469602021 
1229	 0.269003779606882 
1230	 0.26905980056495 
1231	 0.269100505711489 
1232	 0.269156410463611 
1233	 0.269215841853065 
1234	 0.269272443941932 
1235	 0.269333361607002 
1236	 0.269411488981042 
1237	 0.269473578661881 
1238	 0.269527918515189 
1239	 0.269579691785677 
1240	 0.269629755731635 
1241	 0.269674860165399 
1242	 0.26970778907028 
1243	 0.269748907305835 
1244	 0.269794332503399 
1245	 0.269835269637302 
1246	 0.269877595932185 
1247	 0.269917680938188 
1248	 0.269952300736757 
1249	 0.269985528387576 
1250	 0.27003599709941 
1251	 0.270079283679921 
1252	 0.270117786732676 
1253	 0.270161964138796 
1254	 0.270191655439552 
1255	 0.270208359730599 
1256	 0.270224289450566 
1257	 0.27023077560871 
1258	 0.270244040204057 
1259	 0.270254501014549 
1260	 0.270267932312233 
1261	 0.270289632248843 
1262	 0.270302366985767 
1263	 0.270309414836699 
1264	 0.270318571862442 
1265	 0.270318535166674 
1266	 0.270329220785795 
1267	 0.270351655757757 
1268	 0.270361574817595 
1269	 0.270388365348489 
1270	 0.270427752607037 
1271	 0.270465269175617 
1272	 0.270501533242991 
1273	 0.270554850073758 
1274	 0.270615496283371 
1275	 0.270678739748019 
1276	 0.270749074415776 
1277	 0.27083643957206 
1278	 0.270930294187679 
1279	 0.27103107851478 
1280	 0.271162481753081 
1281	 0.271277727244642 
1282	 0.271389590318258 
1283	 0.271499494027623 
1284	 0.271616582425378 
1285	 0.271704626554633 
1286	 0.271808683026102 
1287	 0.271913536985678 
1288	 0.272016503612731 
1289	 0.272121768927267 
1290	 0.272230768567026 
1291	 0.272342275800613 
1292	 0.27244410652402 
1293	 0.272554826871681 
1294	 0.272641503470221 
1295	 0.272711429305 
1296	 0.272775753413121 
1297	 0.272825157839235 
1298	 0.272878512156113 
1299	 0.272924116456748 
1300	 0.272967840528701 
1301	 0.273023271982638 
1302	 0.273053228264707 
1303	 0.273058770306562 
1304	 0.27307413655773 
1305	 0.273085339380701 
1306	 0.273085392760587 
1307	 0.273098821896943 
1308	 0.273101558005538 
1309	 0.273082395146563 
1310	 0.273033729969364 
1311	 0.273010357009318 
1312	 0.272986214927556 
1313	 0.272955275286909 
1314	 0.272947582436598 
1315	 0.272901465334908 
1316	 0.27281384236605 
1317	 0.272754596358635 
1318	 0.272688717118428 
1319	 0.272629675981691 
1320	 0.272584554469931 
1321	 0.272539149344473 
1322	 0.27249086810408 
1323	 0.272454743019532 
1324	 0.272408727473879 
1325	 0.272357317669438 
1326	 0.272317503396645 
1327	 0.272255676203077 
1328	 0.272195119141816 
1329	 0.27215409746943 
1330	 0.27209246178368 
1331	 0.272015616028074 
1332	 0.271948434271923 
1333	 0.27188341590565 
1334	 0.27180692221502 
1335	 0.271718998444283 
1336	 0.271643286934462 
1337	 0.27155788693794 
1338	 0.271491533610352 
1339	 0.271452201476969 
1340	 0.271396502215213 
1341	 0.27135030574592 
1342	 0.271287975938343 
1343	 0.271211585637375 
1344	 0.27112392804226 
1345	 0.271062686293901 
1346	 0.270996281566426 
1347	 0.270932029075123 
1348	 0.270885073886382 
1349	 0.270825584904384 
1350	 0.270762431708837 
1351	 0.270705626261338 
1352	 0.270670959043576 
1353	 0.270594471009511 
1354	 0.270499303062028 
1355	 0.270405064845561 
1356	 0.270281324081503 
1357	 0.270181560476264 
1358	 0.270080164188191 
1359	 0.270000446761225 
1360	 0.269938517561891 
1361	 0.269876878897208 
1362	 0.269837879416545 
1363	 0.269788662326491 
1364	 0.26972511153599 
1365	 0.269676102646964 
1366	 0.269628324672304 
1367	 0.269591704122952 
1368	 0.269587148066616 
1369	 0.269580021179283 
1370	 0.269539738775187 
1371	 0.26951379275736 
1372	 0.269454153263244 
1373	 0.269362886093491 
1374	 0.269279794115767 
1375	 0.269199903967429 
1376	 0.26909046992181 
1377	 0.268970616244181 
1378	 0.2688300862735 
1379	 0.268652007127703 
1380	 0.268503137959523 
1381	 0.268340815653769 
1382	 0.268198391676069 
1383	 0.268092404915671 
1384	 0.267955026316445 
1385	 0.267824096712363 
1386	 0.267666870507464 
1387	 0.267470186338476 
1388	 0.267291246302288 
1389	 0.267114206598803 
1390	 0.266927465489773 
1391	 0.266733113309353 
1392	 0.266539239600361 
1393	 0.266288275129442 
1394	 0.266004430644862 
1395	 0.265692881367359 
1396	 0.265370619414092 
1397	 0.265074612567511 
1398	 0.264782090427609 
1399	 0.264485952829891 
1400	 0.264214599855764 
1401	 0.263910670560069 
1402	 0.263574376799309 
1403	 0.263271369346102 
1404	 0.262953733270486 
1405	 0.262676255372189 
1406	 0.262444033879013 
1407	 0.262187080958565 
1408	 0.261932129757945 
1409	 0.261693529036738 
1410	 0.261439270154934 
1411	 0.261217030694417 
1412	 0.261015596260646 
1413	 0.260837757227348 
1414	 0.260696860105219 
1415	 0.260550671460277 
1416	 0.260410902708446 
1417	 0.260296255446212 
1418	 0.2601615394194 
1419	 0.260026736497913 
1420	 0.259928245025845 
1421	 0.259851307569064 
1422	 0.259780230402925 
1423	 0.259711424196137 
1424	 0.259614626235784 
1425	 0.259486642445173 
1426	 0.259387018763774 
1427	 0.259264198693044 
1428	 0.259197695415094 
1429	 0.259171820617981 
1430	 0.259142520176163 
1431	 0.259153754886231 
1432	 0.259130333455935 
1433	 0.25909887087448 
1434	 0.259065607281092 
1435	 0.258996962583584 
1436	 0.258968994516548 
1437	 0.258959061346856 
1438	 0.258956660175488 
1439	 0.258983313380974 
1440	 0.259005980832449 
1441	 0.259004261775148 
1442	 0.258999066672233 
1443	 0.258995411200569 
1444	 0.258996111751044 
1445	 0.259014893115577 
1446	 0.259049021290675 
1447	 0.259087912172387 
1448	 0.259118428528715 
1449	 0.259123804387887 
1450	 0.259120539150278 
1451	 0.259125232404735 
1452	 0.259103479204778 
1453	 0.259124552912543 
1454	 0.259171959201334 
1455	 0.259219055551483 
1456	 0.259290825915158 
1457	 0.259339470615979 
1458	 0.259382147950174 
1459	 0.259429949309116 
1460	 0.259456413356558 
1461	 0.259515695324352 
1462	 0.25960573424226 
1463	 0.25968031869182 
1464	 0.259772654428297 
1465	 0.25984344998205 
1466	 0.259893410556349 
1467	 0.259946974090812 
1468	 0.259977978119983 
1469	 0.260036442397938 
1470	 0.260106586570854 
1471	 0.260184358233928 
1472	 0.260281955050653 
1473	 0.26038667325988 
1474	 0.26046454167078 
1475	 0.260558880679654 
1476	 0.260639810259154 
1477	 0.260713882053924 
1478	 0.260805115054428 
1479	 0.260882845702005 
1480	 0.260986493029674 
1481	 0.261103491304096 
1482	 0.261199858879527 
1483	 0.261303450288623 
1484	 0.261386552107685 
1485	 0.261434794104935 
1486	 0.261518332087077 
1487	 0.261607079530401 
1488	 0.261701027229709 
1489	 0.261820866347612 
1490	 0.261918217674798 
1491	 0.262012218140798 
1492	 0.262098214699271 
1493	 0.262161571633168 
1494	 0.26224700566175 
1495	 0.262336255968712 
1496	 0.262426787728628 
1497	 0.262542450685169 
1498	 0.262633530186485 
1499	 0.262715103311241 
1500	 0.262789227576089 
1501	 0.262833035377931 
1502	 0.262901987054835 
1503	 0.26297989257185 
1504	 0.263049657012447 
1505	 0.263152291028719 
1506	 0.263266186603822 
1507	 0.263354542086288 
1508	 0.26343751270573 
1509	 0.263501464198122 
1510	 0.26354560377557 
1511	 0.263577727467705 
1512	 0.263612087259089 
1513	 0.263668471565269 
1514	 0.263735750748171 
1515	 0.263809549283287 
1516	 0.263900258509765 
1517	 0.263968072595447 
1518	 0.264017447665372 
1519	 0.264068447026967 
1520	 0.26411863370454 
1521	 0.264161390719002 
1522	 0.264185096973083 
1523	 0.264237856640017 
1524	 0.264302712724884 
1525	 0.264355241189651 
1526	 0.26442298759826 
1527	 0.264477813207618 
1528	 0.264516841179251 
1529	 0.264562864569749 
1530	 0.264605086216219 
1531	 0.264656587433937 
1532	 0.264714616985166 
1533	 0.264761517005852 
1534	 0.264822874768932 
1535	 0.264862678605688 
1536	 0.264867200676067 
1537	 0.264901138199718 
1538	 0.264942325322939 
1539	 0.264982132723003 
1540	 0.265039426853524 
1541	 0.265089629379126 
1542	 0.265129061310582 
1543	 0.265168892689312 
1544	 0.26522327983296 
1545	 0.265261017876201 
1546	 0.265279108871718 
1547	 0.265305623693677 
1548	 0.265356676063533 
1549	 0.265375538650142 
1550	 0.265408031162542 
1551	 0.26547443374498 
1552	 0.265511627428606 
1553	 0.265551161666736 
1554	 0.265602865312396 
1555	 0.265630531001243 
1556	 0.265663336380551 
1557	 0.265692955860192 
1558	 0.265722814257245 
1559	 0.265766141781822 
1560	 0.265793326440374 
1561	 0.265823495044175 
1562	 0.265832638738801 
1563	 0.265816599795519 
1564	 0.265825949280215 
1565	 0.265839791033761 
1566	 0.265846514843528 
1567	 0.265862770119095 
1568	 0.265867571418552 
1569	 0.265854621216856 
1570	 0.265855453197563 
1571	 0.265873852142845 
1572	 0.265865401692661 
1573	 0.265828001647863 
1574	 0.265829761580079 
1575	 0.265828550128315 
1576	 0.265848660381675 
1577	 0.265921286108895 
1578	 0.265955174793998 
1579	 0.265970781297576 
1580	 0.265997064723753 
1581	 0.2660142278909 
1582	 0.266040016925586 
1583	 0.266083134036636 
1584	 0.266108115596545 
1585	 0.266127666916245 
1586	 0.266141015509343 
1587	 0.266148163894066 
1588	 0.266148056215461 
1589	 0.266131538207434 
1590	 0.266127695204747 
1591	 0.266119613361285 
1592	 0.26611924091899 
1593	 0.266133937110826 
1594	 0.266142470134815 
1595	 0.266148007473587 
1596	 0.266153367591242 
1597	 0.266163211567299 
1598	 0.266165124715551 
1599	 0.266166841488985 
1600	 0.266163416169107 
1601	 0.266149871592639 
1602	 0.26613827219125 
1603	 0.266112240106611 
1604	 0.266102878496765 
1605	 0.266095955799648 
1606	 0.266104408300676 
1607	 0.266125299457083 
1608	 0.266168962675341 
1609	 0.266218977987472 
1610	 0.266242273482586 
1611	 0.266238792713771 
1612	 0.266222423205472 
1613	 0.266194459174268 
1614	 0.266167517208705 
1615	 0.266172272771428 
1616	 0.266185155676858 
1617	 0.266197261083838 
1618	 0.266213725105394 
1619	 0.266232005847769 
1620	 0.266252911959852 
1621	 0.266260206936617 
1622	 0.266269703002394 
1623	 0.266263904216995 
1624	 0.266232842091507 
1625	 0.266232161656219 
1626	 0.266236240905628 
1627	 0.266245429050107 
1628	 0.26626967343494 
1629	 0.266289394951059 
1630	 0.266306012466942 
1631	 0.26633314322254 
1632	 0.266373063408212 
1633	 0.26640072781669 
1634	 0.266433161152119 
1635	 0.266445692389268 
1636	 0.266443480918871 
1637	 0.266446209122817 
1638	 0.266430876500084 
1639	 0.266445356131477 
1640	 0.266479753992784 
1641	 0.266496890427444 
1642	 0.266522324861828 
1643	 0.266538294611229 
1644	 0.266539458949981 
1645	 0.266545395257846 
1646	 0.266555322816845 
1647	 0.266562679492246 
1648	 0.266569764944419 
1649	 0.26656550659872 
1650	 0.266556613298762 
1651	 0.266546050127054 
1652	 0.266518060756261 
1653	 0.266509072622341 
1654	 0.266509333837142 
1655	 0.26651191645548 
1656	 0.266530990430537 
1657	 0.266525440816967 
1658	 0.266516262984265 
1659	 0.266495814346659 
1660	 0.266459657962443 
1661	 0.266416559370644 
1662	 0.266346085583733 
1663	 0.266319325845667 
1664	 0.266292641567495 
1665	 0.266293345319456 
1666	 0.266342333676611 
1667	 0.266370894004237 
1668	 0.266401007990898 
1669	 0.266431903428627 
1670	 0.266480876497519 
1671	 0.266493130312611 
1672	 0.266495706645213 
1673	 0.266476870562597 
1674	 0.266406480273844 
1675	 0.266382619202092 
1676	 0.266362945610466 
1677	 0.266357932082654 
1678	 0.266391532327226 
1679	 0.266394014268365 
1680	 0.266379227645605 
1681	 0.266382485195814 
1682	 0.266380956641823 
1683	 0.266391310479142 
1684	 0.266424275405781 
1685	 0.266443709045821 
1686	 0.266471688084974 
1687	 0.266471116370826 
1688	 0.266444307923608 
1689	 0.26643856157034 
1690	 0.266428090556875 
1691	 0.26641189981379 
1692	 0.266405444618339 
1693	 0.266396685777584 
1694	 0.266372667454675 
1695	 0.266355167335545 
1696	 0.266349564259304 
1697	 0.26633927953768 
1698	 0.26632377841526 
1699	 0.266306461056209 
1700	 0.266292917570904 
1701	 0.266276190350224 
1702	 0.266235619034318 
1703	 0.266232477731154 
1704	 0.266263157855746 
1705	 0.266263786899952 
1706	 0.266285251360127 
1707	 0.266263689537628 
1708	 0.266187725236151 
1709	 0.266154559774325 
1710	 0.266120486881381 
1711	 0.266096720372065 
1712	 0.266100910259892 
1713	 0.266084648791652 
1714	 0.266055131425747 
1715	 0.266038863326761 
1716	 0.266026065734785 
1717	 0.266011812431732 
1718	 0.266005327254324 
1719	 0.265989015162892 
1720	 0.265962391002709 
1721	 0.265947589025264 
1722	 0.265940330648326 
1723	 0.265922227917943 
1724	 0.265906014830712 
1725	 0.265884394448217 
1726	 0.265854487772701 
1727	 0.265821785117781 
1728	 0.265779348657277 
1729	 0.265754466126862 
1730	 0.265742518806906 
1731	 0.265699046388397 
1732	 0.265662239101478 
1733	 0.265604278206507 
1734	 0.265505252807877 
1735	 0.26542951998533 
1736	 0.265346047670119 
1737	 0.265302019541178 
1738	 0.265283695681442 
1739	 0.265243223059393 
1740	 0.265225568985436 
1741	 0.265182297800819 
1742	 0.265109398093807 
1743	 0.265050347825416 
1744	 0.264999933770019 
1745	 0.264938200896878 
1746	 0.264862043184785 
1747	 0.264806644760366 
1748	 0.26475903557277 
1749	 0.264726257340013 
1750	 0.264671212785181 
1751	 0.264616482624119 
1752	 0.264549383382037 
1753	 0.264464719672737 
1754	 0.264395889256075 
1755	 0.264339500368646 
1756	 0.264278727816239 
1757	 0.264201665808604 
1758	 0.264139840708524 
1759	 0.264085866983552 
1760	 0.264050679831946 
1761	 0.264054713345946 
1762	 0.264018458814968 
1763	 0.263957499813239 
1764	 0.263905960227842 
1765	 0.263842433504824 
1766	 0.263810436930879 
1767	 0.263779690390648 
1768	 0.263723844772037 
1769	 0.263680137963097 
1770	 0.263663865529108 
1771	 0.263671770630319 
1772	 0.263674136159515 
1773	 0.263663306816071 
1774	 0.263634014861858 
1775	 0.263587278370958 
1776	 0.263519977564656 
1777	 0.263448896998098 
1778	 0.263381774551879 
1779	 0.263299701229929 
1780	 0.263268191718352 
1781	 0.263282313728532 
1782	 0.263272321126313 
1783	 0.263269095210599 
1784	 0.263263312730802 
1785	 0.263242129601535 
1786	 0.26324507587668 
1787	 0.263279709282377 
1788	 0.263281386375477 
1789	 0.263280833746556 
1790	 0.263246117307049 
1791	 0.263161868047526 
1792	 0.263127701873341 
1793	 0.26309505004699 
1794	 0.263077324134673 
1795	 0.263081207338766 
1796	 0.263093080192742 
1797	 0.263146097184091 
1798	 0.263126765764719 
1799	 0.263083847763734 
1800	 0.263046838153613 
1801	 0.258451546496115 
1802	 0.258627168877213 
1803	 0.258841469882471 
1804	 0.259100828258859 
1805	 0.259353927016814 
1806	 0.259611368803088 
1807	 0.25989163778018 
1808	 0.26012509766224 
1809	 0.260336075510936 
1810	 0.260517562035646 
1811	 0.260675879910251 
1812	 0.260816428650911 
1813	 0.260942642405834 
1814	 0.261028324056926 
1815	 0.261093617899653 
1816	 0.261161093400342 
1817	 0.261200577868434 
1818	 0.261181101435747 
1819	 0.261219552203228 
1820	 0.261284323948833 
1821	 0.261307136468348 
1822	 0.261364572944123 
1823	 0.261407658926083 
1824	 0.261431746968277 
1825	 0.261470739266718 
1826	 0.26151655727625 
1827	 0.261587403093203 
1828	 0.261632979769268 
1829	 0.26169437999949 
1830	 0.261706746358661 
1831	 0.261681298371007 
1832	 0.261653690069128 
1833	 0.261624648819537 
1834	 0.261604536556166 
1835	 0.261626078320998 
1836	 0.261647567646017 
1837	 0.261684121636792 
1838	 0.26172279414432 
1839	 0.261758141153898 
1840	 0.261801046458292 
1841	 0.261840559336671 
1842	 0.261854679650079 
1843	 0.26187968177026 
1844	 0.261896141361693 
1845	 0.261888874657994 
1846	 0.261888273840508 
1847	 0.261904427628303 
1848	 0.261935157051133 
1849	 0.261955610862667 
1850	 0.261958703652482 
1851	 0.261956073499433 
1852	 0.261936008811937 
1853	 0.261905595568263 
1854	 0.261900646804511 
1855	 0.26192435382051 
1856	 0.261909138133392 
1857	 0.261875841376176 
1858	 0.261829126713869 
1859	 0.261731016674372 
1860	 0.261616087899809 
1861	 0.261489634554235 
1862	 0.261326624349428 
1863	 0.261123050575932 
1864	 0.26090806703243 
1865	 0.260678714155895 
1866	 0.260436325752299 
1867	 0.260189894546408 
1868	 0.259918199117327 
1869	 0.259625884897914 
1870	 0.259353139424016 
1871	 0.25905006096139 
1872	 0.258728040183545 
1873	 0.258398876670105 
1874	 0.258062209294127 
1875	 0.257677994046857 
1876	 0.257276226658915 
1877	 0.256827763925978 
1878	 0.256310966022339 
1879	 0.255775134558873 
1880	 0.255192751523139 
1881	 0.254559744853902 
1882	 0.253891817934735 
1883	 0.253211408891111 
1884	 0.252423591354406 
1885	 0.251593552949324 
1886	 0.250735658186945 
1887	 0.249800056596027 
1888	 0.24883030471344 
1889	 0.247796744671171 
1890	 0.246715490535747 
1891	 0.245632309521921 
1892	 0.244495905625628 
1893	 0.243380821105532 
1894	 0.242272601819061 
1895	 0.241146703404233 
1896	 0.239988039426877 
1897	 0.23884724498257 
1898	 0.237699833753603 
1899	 0.236573011534476 
1900	 0.235508579952455 
1901	 0.234464067084206 
1902	 0.233459266928308 
1903	 0.232502594969047 
1904	 0.231577321637286 
1905	 0.230668084715399 
1906	 0.229822853472793 
1907	 0.229054677054572 
1908	 0.228295962846977 
1909	 0.227597775639424 
1910	 0.22695203849019 
1911	 0.226320567980639 
1912	 0.225746853384079 
1913	 0.225187015500001 
1914	 0.224655443672409 
1915	 0.224152584714219 
1916	 0.223683785826513 
1917	 0.223215252619668 
1918	 0.222791578389624 
1919	 0.222393250574703 
1920	 0.222013057499481 
1921	 0.221678406465833 
1922	 0.221391390127461 
1923	 0.221165833736883 
1924	 0.220967943525816 
1925	 0.220827136035354 
1926	 0.220701006496773 
1927	 0.220606097045885 
1928	 0.220525192321342 
1929	 0.220482231172251 
1930	 0.220473051023851 
1931	 0.220483010471282 
1932	 0.220513851288625 
1933	 0.220548281349219 
1934	 0.22057609862052 
1935	 0.220630149231777 
1936	 0.220684399342842 
1937	 0.220775354384458 
1938	 0.220913461777004 
1939	 0.221040890496262 
1940	 0.221184716014114 
1941	 0.22132329121351 
1942	 0.221479156109646 
1943	 0.221612789555516 
1944	 0.221773878217345 
1945	 0.221980787215295 
1946	 0.222184846329045 
1947	 0.222412724026463 
1948	 0.222636249684817 
1949	 0.222865697291837 
1950	 0.223091289377801 
1951	 0.223314117294911 
1952	 0.223542785223651 
1953	 0.223765415632384 
1954	 0.224035292735409 
1955	 0.224326866985312 
1956	 0.224627195303836 
1957	 0.224950960538365 
1958	 0.22532008241026 
1959	 0.225661262376111 
1960	 0.226005761539535 
1961	 0.226349008122484 
1962	 0.226686412971256 
1963	 0.227024962604186 
1964	 0.227354044062961 
1965	 0.227705736342077 
1966	 0.228078088470474 
1967	 0.228450808493171 
1968	 0.228821068235914 
1969	 0.229210481414054 
1970	 0.229584953046408 
1971	 0.229951292221314 
1972	 0.230310679417005 
1973	 0.23066862771158 
1974	 0.231027566703313 
1975	 0.231379381329163 
1976	 0.231720726856474 
1977	 0.232092065581084 
1978	 0.232436533681886 
1979	 0.23275581069642 
1980	 0.233080482165189 
1981	 0.23339468983805 
1982	 0.233669136836595 
1983	 0.233994508421505 
1984	 0.234340034004119 
1985	 0.234686794208113 
1986	 0.235066711133823 
1987	 0.235428046876909 
1988	 0.235793523244414 
1989	 0.236145934129404 
1990	 0.236463636199221 
1991	 0.236788569026861 
1992	 0.237121963306926 
1993	 0.237444962229407 
1994	 0.237774455717278 
1995	 0.238125359505313 
1996	 0.23845608480179 
1997	 0.238766624257578 
1998	 0.23909049754557 
1999	 0.23942343592577 
2000	 0.239749568698186 
2001	 0.240082335148668 
2002	 0.240395382472667 
2003	 0.240709184759737 
2004	 0.241026666392061 
2005	 0.241345588370595 
2006	 0.241681350351622 
2007	 0.241982592681419 
2008	 0.242267170269107 
2009	 0.242553047643973 
2010	 0.242806824978917 
2011	 0.243085860160437 
2012	 0.243393797181652 
2013	 0.243676706774162 
2014	 0.243953578369941 
2015	 0.244223031956841 
2016	 0.244482165253841 
2017	 0.244751889687653 
2018	 0.245033756036316 
2019	 0.24533752072013 
2020	 0.245624569267844 
2021	 0.245912306406241 
2022	 0.246198129993482 
2023	 0.24647501038348 
2024	 0.246759262470161 
2025	 0.247064369725168 
2026	 0.247343232882969 
2027	 0.247610413859017 
2028	 0.247874424223958 
2029	 0.248126143702484 
2030	 0.24835378711705 
2031	 0.248598303243831 
2032	 0.248841158652217 
2033	 0.249087303569651 
2034	 0.249342902107391 
2035	 0.249584575024552 
2036	 0.249827402159607 
2037	 0.250059752413534 
2038	 0.250274579370798 
2039	 0.250496664101752 
2040	 0.250711933264433 
2041	 0.250932066964439 
2042	 0.251179792998508 
2043	 0.251399509587186 
2044	 0.251607594766279 
2045	 0.25181068623066 
2046	 0.252000857132687 
2047	 0.25215545317211 
2048	 0.252339735651116 
2049	 0.252542339970951 
2050	 0.252724466399475 
2051	 0.252908707396682 
2052	 0.253082234781927 
2053	 0.253243162051106 
2054	 0.253395481648878 
2055	 0.253533908831033 
2056	 0.253676319391285 
2057	 0.253822541603921 
2058	 0.25395125358603 
2059	 0.254109021334779 
2060	 0.254300582943948 
2061	 0.2544569530714 
2062	 0.254605657371434 
2063	 0.254760532287796 
2064	 0.254901337039255 
2065	 0.255047403856147 
2066	 0.255214870793717 
2067	 0.255358894600223 
2068	 0.255474917818492 
2069	 0.255602746012705 
2070	 0.255747090294575 
2071	 0.255889474677226 
2072	 0.256049076256002 
2073	 0.256239430375152 
2074	 0.25640725544217 
2075	 0.256576817003745 
2076	 0.25673638142344 
2077	 0.25689206302309 
2078	 0.257035025008575 
2079	 0.257150620416183 
2080	 0.257292481926377 
2081	 0.257441938212026 
2082	 0.257588430321382 
2083	 0.257753656003294 
2084	 0.257909852619969 
2085	 0.258058814503739 
2086	 0.258191965553008 
2087	 0.258338396055197 
2088	 0.258484327991783 
2089	 0.258637472457474 
2090	 0.25880677420463 
2091	 0.258952195414476 
2092	 0.259086394664179 
2093	 0.259228976121199 
2094	 0.259346886423361 
2095	 0.259493209612644 
2096	 0.259677171743947 
2097	 0.259838782243406 
2098	 0.260023544402149 
2099	 0.26015989184689 
2100	 0.260301929525248 
2101	 0.260423804683387 
2102	 0.260557383328781 
2103	 0.260677075413027 
2104	 0.260825898764452 
2105	 0.260981610985087 
2106	 0.261150486361401 
2107	 0.261356474594999 
2108	 0.261532057429614 
2109	 0.261688893257915 
2110	 0.261869715017898 
2111	 0.262066645411053 
2112	 0.262239445803479 
2113	 0.262409914505302 
2114	 0.262593974107804 
2115	 0.262752769526435 
2116	 0.262871852669093 
2117	 0.263027282113293 
2118	 0.263196294819225 
2119	 0.263359073419023 
2120	 0.263537397134598 
2121	 0.263689247106551 
2122	 0.263828946791965 
2123	 0.263968343654008 
2124	 0.26409436959899 
2125	 0.264217595473672 
2126	 0.264348909549986 
2127	 0.264460813796358 
2128	 0.264558142814775 
2129	 0.264645427626042 
2130	 0.264721508474786 
2131	 0.26478718390714 
2132	 0.264840726610084 
2133	 0.264883643320855 
2134	 0.26491379915318 
2135	 0.264919043460468 
2136	 0.264945630428144 
2137	 0.264975818923005 
2138	 0.264993527239649 
2139	 0.265033740240846 
2140	 0.265029558493001 
2141	 0.264985292260236 
2142	 0.2649497216917 
2143	 0.264908953803507 
2144	 0.264845993709406 
2145	 0.264756402067154 
2146	 0.264683295283536 
2147	 0.264593404002914 
2148	 0.264515417527816 
2149	 0.264433269761501 
2150	 0.264375531795171 
2151	 0.264286022037926 
2152	 0.264171049231311 
2153	 0.264067283025547 
2154	 0.263975037726806 
2155	 0.263848231774593 
2156	 0.263730816442105 
2157	 0.263558729510897 
2158	 0.263308286108809 
2159	 0.263105073913156 
2160	 0.262887526622003 
2161	 0.262680248128567 
2162	 0.26250923541513 
2163	 0.262322960542887 
2164	 0.262140669002169 
2165	 0.261920319654304 
2166	 0.26171905695659 
2167	 0.261525459996578 
2168	 0.261311485712115 
2169	 0.261079363567508 
2170	 0.260868662960018 
2171	 0.260631291536926 
2172	 0.260452871316106 
2173	 0.260332680685056 
2174	 0.260173342625899 
2175	 0.260038519263175 
2176	 0.259878273824708 
2177	 0.259681766117616 
2178	 0.259496236338194 
2179	 0.259311119604666 
2180	 0.25912543167299 
2181	 0.258949818978588 
2182	 0.258751824473367 
2183	 0.258522739802652 
2184	 0.258317928584261 
2185	 0.258126879919414 
2186	 0.257916859320925 
2187	 0.257759000682668 
2188	 0.257657977881123 
2189	 0.257524418418329 
2190	 0.257401050391346 
2191	 0.257266592109407 
2192	 0.257133790386854 
2193	 0.256980784848873 
2194	 0.256790555692465 
2195	 0.256649125257879 
2196	 0.256512667706797 
2197	 0.256385368964874 
2198	 0.256287585076257 
2199	 0.256202662512461 
2200	 0.256122359036599 
2201	 0.256048812064593 
2202	 0.255994953163634 
2203	 0.255962717678681 
2204	 0.255914653943864 
2205	 0.25585110737833 
2206	 0.255818098145972 
2207	 0.255797722200075 
2208	 0.255782749430868 
2209	 0.255791206534209 
2210	 0.255784629445752 
2211	 0.255787908120294 
2212	 0.255768993304525 
2213	 0.255719802305151 
2214	 0.255701587612599 
2215	 0.25568311055271 
2216	 0.255669467997302 
2217	 0.255683935218455 
2218	 0.255688220596064 
2219	 0.255664771164773 
2220	 0.25567834682791 
2221	 0.255732092102806 
2222	 0.255752333662348 
2223	 0.255789471163341 
2224	 0.255852141042934 
2225	 0.255907951140758 
2226	 0.255971638485541 
2227	 0.256001918604623 
2228	 0.256027832009586 
2229	 0.256041977554045 
2230	 0.256015301727246 
2231	 0.256023268139838 
2232	 0.256055938366352 
2233	 0.256069847006354 
2234	 0.256084559175773 
2235	 0.256084139044749 
2236	 0.256073431829082 
2237	 0.256054404360655 
2238	 0.256007338014627 
2239	 0.255988232733697 
2240	 0.255978530812901 
2241	 0.255968986769382 
2242	 0.255971249753246 
2243	 0.255976371798183 
2244	 0.255986761764171 
2245	 0.255985971216915 
2246	 0.255989495492162 
2247	 0.256018120389821 
2248	 0.256017684071632 
2249	 0.256001456725521 
2250	 0.255990751001839 
2251	 0.255979126661085 
2252	 0.255953148569088 
2253	 0.255913620356042 
2254	 0.255894260855113 
2255	 0.255863648670722 
2256	 0.255852287446082 
2257	 0.255862881525751 
2258	 0.255873350810839 
2259	 0.255885216513995 
2260	 0.255909007399574 
2261	 0.255975465081004 
2262	 0.25598638507071 
2263	 0.255971180127417 
2264	 0.255960712332271 
2265	 0.25589978223282 
2266	 0.255877649432296 
2267	 0.255886445610091 
2268	 0.255886118672109 
2269	 0.255881848994268 
2270	 0.255906551000924 
2271	 0.255916944541324 
2272	 0.255928237249287 
2273	 0.255932773448858 
2274	 0.255916868086758 
2275	 0.255893266331159 
2276	 0.255841937409716 
2277	 0.255817973673104 
2278	 0.255799226622981 
2279	 0.255775077585078 
2280	 0.255769570707906 
2281	 0.255740858367704 
2282	 0.255682495240335 
2283	 0.255652074040222 
2284	 0.255610415114394 
2285	 0.25560166693847 
2286	 0.255626067995237 
2287	 0.255647003476492 
2288	 0.255694179767551 
2289	 0.255725024673645 
2290	 0.255754281073868 
2291	 0.255774338187997 
2292	 0.255813498964937 
2293	 0.255808841649966 
2294	 0.255748734670202 
2295	 0.25571951895676 
2296	 0.255694586709946 
2297	 0.255622418848408 
2298	 0.255603074903811 
2299	 0.25562924455977 
2300	 0.255605628459516 
2301	 0.255607471724629 
2302	 0.255593068504974 
2303	 0.255570179887217 
2304	 0.255564843263021 
2305	 0.255518564651427 
2306	 0.255464812662849 
2307	 0.255389157273704 
2308	 0.255320247174841 
2309	 0.255228813923739 
2310	 0.255157155056629 
2311	 0.255100843043292 
2312	 0.255041919046784 
2313	 0.254984201383809 
2314	 0.25493433945639 
2315	 0.254877128157011 
2316	 0.254837339914585 
2317	 0.254828954192016 
2318	 0.254783879919097 
2319	 0.254743493590804 
2320	 0.254681444521385 
2321	 0.254573242907009 
2322	 0.254499135448258 
2323	 0.25440845196318 
2324	 0.254359349749789 
2325	 0.254361856250389 
2326	 0.254336808953279 
2327	 0.254314369038807 
2328	 0.254315213143796 
2329	 0.25430886160915 
2330	 0.254244716992159 
2331	 0.254196888192463 
2332	 0.25417845224317 
2333	 0.254093559634478 
2334	 0.254061388322367 
2335	 0.25411996075245 
2336	 0.254108201427447 
2337	 0.254097829060875 
2338	 0.254091043907547 
2339	 0.254039518336089 
2340	 0.254012885696774 
2341	 0.253970480770357 
2342	 0.253912047040624 
2343	 0.253860912369887 
2344	 0.253789936820075 
2345	 0.253713080612688 
2346	 0.253693123301208 
2347	 0.25357310283137 
2348	 0.253353125586536 
2349	 0.253195967681073 
2350	 0.253003249564329 
2351	 0.252863467011868 
2352	 0.252752416139463 
2353	 0.252672842948333 
2354	 0.252698888383001 
2355	 0.25257187397523 
2356	 0.25240243455007 
2357	 0.2522323696173 
2358	 0.251924874169179 
2359	 0.251726700348632 
2360	 0.251593042164697 
2361	 0.251457222156362 
2362	 0.251329826602841 
2363	 0.251210177223464 
2364	 0.251130677766542 
2365	 0.251045305059086 
2366	 0.250991856579525 
2367	 0.250913418968617 
2368	 0.250803213762364 
2369	 0.250700843887105 
2370	 0.25059445777677 
2371	 0.25046618441166 
2372	 0.250388670189096 
2373	 0.250309086543136 
2374	 0.25012704490325 
2375	 0.249895847889951 
2376	 0.249672307330853 
2377	 0.249416570010286 
2378	 0.249273151830479 
2379	 0.24922611585756 
2380	 0.249067180160959 
2381	 0.248920897153613 
2382	 0.248773992662518 
2383	 0.248538506905267 
2384	 0.248398239741093 
2385	 0.248264263428583 
2386	 0.248051936358698 
2387	 0.247888833112448 
2388	 0.247649968895235 
2389	 0.247437704119886 
2390	 0.247331317485237 
2391	 0.247130956433539 
2392	 0.246940659799094 
2393	 0.246750851502545 
2394	 0.246520592701459 
2395	 0.246408981393526 
2396	 0.246295233607485 
2397	 0.246140501270711 
2398	 0.245935958174539 
2399	 0.245672262476058 
2400	 0.245483449625534 
2401	 0.245280774651405 
2402	 0.245074887024247 
2403	 0.244906292554176 
2404	 0.244677914865985 
2405	 0.244400721110225 
2406	 0.244237017866985 
2407	 0.244042126288734 
2408	 0.243749295508497 
2409	 0.243624013889091 
2410	 0.24342028807986 
2411	 0.243150773691413 
2412	 0.242965054275748 
2413	 0.242694485899074 
2414	 0.242479658121868 
2415	 0.242300094822046 
2416	 0.242097856418053 
2417	 0.24191829851965 
2418	 0.241727118827989 
2419	 0.241542715976875 
2420	 0.241296058209289 
2421	 0.241029307094597 
2422	 0.240747101458258 
2423	 0.240355754393888 
2424	 0.240063156609997 
2425	 0.239845089343926 
2426	 0.239556193300652 
2427	 0.239281176201995 
2428	 0.238995602042631 
2429	 0.238645170486483 
2430	 0.238366486910924 
2431	 0.238128898407473 
2432	 0.237866715924879 
2433	 0.237624524438835 
2434	 0.23732694038533 
2435	 0.236974578211956 
2436	 0.23672532001931 
2437	 0.23651107935584 
2438	 0.236294318025718 
2439	 0.236193229392508 
2440	 0.235915231749386 
2441	 0.235500104034787 
2442	 0.235180382690844 
2443	 0.234816835172392 
2444	 0.234534907418443 
2445	 0.234351498863732 
2446	 0.234047951623634 
2447	 0.233710289459769 
2448	 0.233390136086473 
2449	 0.232983283644323 
2450	 0.232724794422158 
2451	 0.232599612719986 
2452	 0.232342171071088 
2453	 0.232091108237741 
2454	 0.231813720904111 
2455	 0.231446264681678 
2456	 0.23108325762669 
2457	 0.23072533767876 
2458	 0.230449565975066 
2459	 0.230176796534939 
2460	 0.229974730226597 
2461	 0.229875480813413 
2462	 0.22965254724883 
2463	 0.229451051284326 
2464	 0.229091288644307 
2465	 0.228564437951524 
2466	 0.228184915855739 
2467	 0.22768561693273 
2468	 0.227357534870859 
2469	 0.227291106892168 
2470	 0.227072675576468 
2471	 0.22689778838787 
2472	 0.226759396313704 
2473	 0.226502149271689 
2474	 0.226154582019081 
2475	 0.225860953468745 
2476	 0.225538748658605 
2477	 0.225215958239835 
2478	 0.224954216746925 
2479	 0.224586570437071 
2480	 0.224246154641869 
2481	 0.22402507086258 
2482	 0.223747769001187 
2483	 0.223504265106774 
2484	 0.223192987924344 
2485	 0.222712239620177 
2486	 0.222425120253538 
2487	 0.222012653353563 
2488	 0.221642761616597 
2489	 0.22157045570171 
2490	 0.221483209441577 
2491	 0.221638971619488 
2492	 0.221687594901185 
2493	 0.221482851113291 
2494	 0.221284556675448 
2495	 0.220900075356113 
2496	 0.220478455574516 
2497	 0.220257007170828 
2498	 0.219976279200067 
2499	 0.219739193666495 
2500	 0.219734642240748 
