Wavelength	mm2800010.asd
350	 0.058243946758052 
351	 6.44316785325718E-02 
352	 5.79134098384409E-02 
353	 4.54132906188579E-02 
354	 6.04682028094379E-02 
355	 6.27936948950109E-02 
356	 0.05581305519823 
357	 5.31939302337903E-02 
358	 6.09297796687516E-02 
359	 5.88776929133823E-02 
360	 5.20046807171445E-02 
361	 5.89032881522476E-02 
362	 5.60285258021001E-02 
363	 5.54063225833622E-02 
364	 6.08277016733037E-02 
365	 5.65606835335915E-02 
366	 0.054911628360191 
367	 5.84857936172115E-02 
368	 6.49190493346688E-02 
369	 0.065101778603333 
370	 6.15895885723784E-02 
371	 5.79932702817623E-02 
372	 5.78801437207478E-02 
373	 0.058473101661775 
374	 0.058727384782389 
375	 5.92712347635472E-02 
376	 6.36115589896881E-02 
377	 6.18010066732784E-02 
378	 5.92078577066891E-02 
379	 6.25601475978428E-02 
380	 6.37167693062967E-02 
381	 6.15542327999928E-02 
382	 5.88534882274481E-02 
383	 6.05377352681734E-02 
384	 6.27708284076943E-02 
385	 6.37361287520686E-02 
386	 0.063171975135902 
387	 6.29651768521384E-02 
388	 0.064018826842355 
389	 6.57300226946444E-02 
390	 6.68224745460142E-02 
391	 6.56221339678407E-02 
392	 0.065901950509158 
393	 6.74332151388217E-02 
394	 6.66794749327825E-02 
395	 6.62069480876688E-02 
396	 6.54306429656005E-02 
397	 6.45201766509028E-02 
398	 6.66011095418275E-02 
399	 6.75198097036327E-02 
400	 6.75802812124994E-02 
401	 6.83119019473461E-02 
402	 6.78400844093997E-02 
403	 6.81764674597229E-02 
404	 6.93319119372067E-02 
405	 6.92099745943884E-02 
406	 0.069410214923348 
407	 7.02804160243964E-02 
408	 7.09785021259678E-02 
409	 6.77523619264632E-02 
410	 6.76425719395454E-02 
411	 6.98347572103529E-02 
412	 7.01808442414287E-02 
413	 7.00023153695202E-02 
414	 6.98833760537363E-02 
415	 6.98804757424653E-02 
416	 6.94227645580263E-02 
417	 6.99067852961723E-02 
418	 7.07575098915564E-02 
419	 7.11266742361443E-02 
420	 7.09739803543233E-02 
421	 7.07648557132066E-02 
422	 0.071089736759986 
423	 7.23602788958848E-02 
424	 7.23753575184227E-02 
425	 7.19563872113217E-02 
426	 7.19742236984573E-02 
427	 7.27379234678037E-02 
428	 7.29992088131806E-02 
429	 7.29069170883616E-02 
430	 7.29496663409589E-02 
431	 7.27009495939629E-02 
432	 7.27341920657042E-02 
433	 7.31480807124374E-02 
434	 7.35547918471539E-02 
435	 0.073905532859095 
436	 0.073869441742442 
437	 7.33712538567958E-02 
438	 7.29550401104156E-02 
439	 7.33894373732462E-02 
440	 0.074205290940139 
441	 7.44065130067648E-02 
442	 7.44416127208528E-02 
443	 7.43672468889689E-02 
444	 7.43339338555098E-02 
445	 7.46971189309388E-02 
446	 7.48851851101823E-02 
447	 7.50242097692639E-02 
448	 7.53459260341426E-02 
449	 7.56438364809869E-02 
450	 7.57388736339664E-02 
451	 7.56838810110911E-02 
452	 7.57238513150837E-02 
453	 7.59125423305646E-02 
454	 7.61098520252333E-02 
455	 7.62640312666954E-02 
456	 7.66764571125216E-02 
457	 7.67907670971036E-02 
458	 7.67818524362379E-02 
459	 7.70580972988149E-02 
460	 7.70081589021324E-02 
461	 7.70560160785762E-02 
462	 0.077346762224593 
463	 7.75165090312507E-02 
464	 7.75950663615246E-02 
465	 7.77028952945985E-02 
466	 7.79379571558067E-02 
467	 7.81851859729615E-02 
468	 7.83448667631811E-02 
469	 7.84404595648956E-02 
470	 7.85912173228398E-02 
471	 7.88063233189753E-02 
472	 7.88409897140107E-02 
473	 7.86801696768685E-02 
474	 7.89438913127935E-02 
475	 7.92738753091194E-02 
476	 7.95212981078141E-02 
477	 7.96534496807526E-02 
478	 7.98289771561262E-02 
479	 8.00178568363855E-02 
480	 8.01786904821951E-02 
481	 8.02762416411228E-02 
482	 8.05000926935546E-02 
483	 8.07533076316195E-02 
484	 8.09236247150196E-02 
485	 8.12009091346069E-02 
486	 8.14198565187059E-02 
487	 8.15368701506273E-02 
488	 8.16168142913763E-02 
489	 8.16298982706816E-02 
490	 8.16761481196306E-02 
491	 8.18307346986572E-02 
492	 8.20988787054795E-02 
493	 8.21219819652789E-02 
494	 8.20960588360839E-02 
495	 8.24044537554675E-02 
496	 8.26410824216645E-02 
497	 0.082716563761152 
498	 8.27206828859704E-02 
499	 8.29589512172546E-02 
500	 8.31388068405874E-02 
501	 8.32397729570351E-02 
502	 8.33397480621249E-02 
503	 8.35949194137936E-02 
504	 8.36895231227691E-02 
505	 8.36218997786265E-02 
506	 0.083681574070216 
507	 8.38323034454521E-02 
508	 8.40358905005884E-02 
509	 8.42108305804882E-02 
510	 8.41573047163592E-02 
511	 8.41471752003102E-02 
512	 8.43203724760489E-02 
513	 8.46748408421361E-02 
514	 8.46756596021426E-02 
515	 8.45818043546342E-02 
516	 8.46373095109728E-02 
517	 8.49219560849581E-02 
518	 8.50685234539141E-02 
519	 8.50889969426183E-02 
520	 8.51302547310791E-02 
521	 8.52915659576225E-02 
522	 8.53956810175117E-02 
523	 8.54283937954423E-02 
524	 8.55577939580445E-02 
525	 8.56334899750352E-02 
526	 8.56801205261977E-02 
527	 8.57497679134104E-02 
528	 8.58577599325009E-02 
529	 8.59529184530737E-02 
530	 8.60173258411549E-02 
531	 8.60575081488878E-02 
532	 8.60642042924992E-02 
533	 8.61568194795385E-02 
534	 8.63388747195907E-02 
535	 8.63306744511925E-02 
536	 8.63726054087082E-02 
537	 8.64364819141151E-02 
538	 8.64375625797881E-02 
539	 0.086661282605685 
540	 8.68060606240085E-02 
541	 8.67941505247836E-02 
542	 8.68997012726394E-02 
543	 8.69996945667904E-02 
544	 8.70881071256735E-02 
545	 8.71752125363968E-02 
546	 8.72186712818522E-02 
547	 8.72798130659467E-02 
548	 8.73412446062744E-02 
549	 8.73266505392274E-02 
550	 8.74018828613832E-02 
551	 0.087525348709115 
552	 8.76244803493566E-02 
553	 8.76500278113483E-02 
554	 8.76609263803295E-02 
555	 8.77035268514662E-02 
556	 8.78087137105749E-02 
557	 0.087939638601568 
558	 8.80281126308496E-02 
559	 8.80776033063788E-02 
560	 0.088227536405944 
561	 8.82881810079688E-02 
562	 0.088311792161844 
563	 8.84068370999632E-02 
564	 0.088502738660083 
565	 8.85206623147162E-02 
566	 8.84816798322491E-02 
567	 8.85155970709032E-02 
568	 8.85857105128931E-02 
569	 8.86544608031234E-02 
570	 8.87140634620104E-02 
571	 8.88740799068016E-02 
572	 8.89983047093099E-02 
573	 8.90507928226017E-02 
574	 8.90732152152596E-02 
575	 8.90856244136329E-02 
576	 8.91640757132029E-02 
577	 8.93041193147376E-02 
578	 8.93071949431127E-02 
579	 8.93135956515716E-02 
580	 8.93125941356637E-02 
581	 8.92512569762897E-02 
582	 8.92380278679849E-02 
583	 8.92162628862759E-02 
584	 8.92130249554361E-02 
585	 8.93964859210793E-02 
586	 8.95933125400199E-02 
587	 8.97750391982598E-02 
588	 0.089952756708527 
589	 9.01164513099373E-02 
590	 9.02647988431052E-02 
591	 9.03861014970822E-02 
592	 9.04613304742109E-02 
593	 9.05200298949108E-02 
594	 9.05084514146277E-02 
595	 9.04033834158246E-02 
596	 9.02951860584533E-02 
597	 9.01936699403761E-02 
598	 9.00997455105751E-02 
599	 0.090017605435508 
600	 9.00511602541781E-02 
601	 0.090148798842058 
602	 9.02554740000023E-02 
603	 9.03443850922891E-02 
604	 9.04389551056318E-02 
605	 9.05303287687221E-02 
606	 9.06117177816372E-02 
607	 9.07500305552459E-02 
608	 9.08713256200738E-02 
609	 9.09682350216397E-02 
610	 9.11164212577329E-02 
611	 9.11962310821699E-02 
612	 9.12276848135263E-02 
613	 9.12470174141189E-02 
614	 9.12101647618361E-02 
615	 9.12233091779713E-02 
616	 9.12837446997443E-02 
617	 9.13190026601744E-02 
618	 9.14346663063529E-02 
619	 9.14910669627502E-02 
620	 9.14395787263398E-02 
621	 9.15039702554884E-02 
622	 9.15590773743239E-02 
623	 9.15986583590876E-02 
624	 9.16542914931126E-02 
625	 9.17029380312458E-02 
626	 9.17348725960909E-02 
627	 9.17622234881523E-02 
628	 9.18241520956153E-02 
629	 9.18632598411873E-02 
630	 9.19107414747703E-02 
631	 9.19920107795198E-02 
632	 9.20107251130728E-02 
633	 9.20291669672827E-02 
634	 0.092083447350791 
635	 9.21789469540057E-02 
636	 9.22371180849512E-02 
637	 9.22715974947057E-02 
638	 9.23040248448746E-02 
639	 0.09232492412507 
640	 9.23985474123327E-02 
641	 9.24830866485723E-02 
642	 9.25005925062608E-02 
643	 9.25173538515169E-02 
644	 9.25766360451433E-02 
645	 9.26646476765644E-02 
646	 9.26887171608527E-02 
647	 9.27288408368181E-02 
648	 9.27821677299448E-02 
649	 9.28310265975056E-02 
650	 9.29039150672677E-02 
651	 9.29562417874198E-02 
652	 9.29915040881995E-02 
653	 9.30545143631647E-02 
654	 9.31280996634249E-02 
655	 9.31694985144502E-02 
656	 9.31779169040518E-02 
657	 0.093273913825747 
658	 0.093336737119528 
659	 9.33660395780949E-02 
660	 9.34142688092301E-02 
661	 0.093456274321907 
662	 9.35426212202887E-02 
663	 9.36548568372331E-02 
664	 9.36656758534628E-02 
665	 9.36935167612542E-02 
666	 9.37338800005048E-02 
667	 9.37641049228353E-02 
668	 0.093837570256701 
669	 9.39264549628692E-02 
670	 9.39986026628202E-02 
671	 9.40271024806189E-02 
672	 9.41023497458462E-02 
673	 9.41629807751983E-02 
674	 9.41768015520602E-02 
675	 9.42466083324986E-02 
676	 9.42987356650369E-02 
677	 9.43447480959024E-02 
678	 9.44182929796596E-02 
679	 9.44355000926162E-02 
680	 9.44699245778249E-02 
681	 9.45459682967846E-02 
682	 0.094607449987075 
683	 0.09465943371353 
684	 9.47142005611298E-02 
685	 0.094774653290426 
686	 9.47908297642937E-02 
687	 9.48635987441013E-02 
688	 9.49575279878585E-02 
689	 0.09495519280959 
690	 9.50154340939141E-02 
691	 0.095076379522173 
692	 9.50980655092112E-02 
693	 9.51479200788937E-02 
694	 9.52153552034875E-02 
695	 9.52689297254905E-02 
696	 9.52795603428531E-02 
697	 9.52787566999334E-02 
698	 0.095322566509483 
699	 9.53990336784571E-02 
700	 9.54273816051826E-02 
701	 9.54697654026413E-02 
702	 9.55352980129789E-02 
703	 9.56057818182964E-02 
704	 0.095615769774868 
705	 9.56390712237267E-02 
706	 9.56796102809397E-02 
707	 9.57067339827892E-02 
708	 9.57337328973713E-02 
709	 9.57791449633306E-02 
710	 9.58347338534271E-02 
711	 9.58523075191153E-02 
712	 9.59163355705607E-02 
713	 9.59648389251998E-02 
714	 9.59423898939404E-02 
715	 9.59809995596742E-02 
716	 9.60012967570081E-02 
717	 9.60032695690037E-02 
718	 9.60443147603265E-02 
719	 9.61101426882143E-02 
720	 9.61430024486932E-02 
721	 9.61305738953111E-02 
722	 9.61576558670925E-02 
723	 9.62012126901999E-02 
724	 9.62201201629966E-02 
725	 0.096189814604305 
726	 0.096208265937938 
727	 9.62127988082238E-02 
728	 9.62075469557691E-02 
729	 9.62580453799376E-02 
730	 9.62452090749375E-02 
731	 9.62347113879007E-02 
732	 9.62792199841681E-02 
733	 9.63228262439108E-02 
734	 9.63510981696994E-02 
735	 9.63432174122891E-02 
736	 0.096294922063456 
737	 9.62909199832208E-02 
738	 9.63115762184754E-02 
739	 9.63438958109723E-02 
740	 0.096389814644682 
741	 9.63910143265854E-02 
742	 9.63647329537547E-02 
743	 9.63409982033391E-02 
744	 9.63365619900651E-02 
745	 9.63100935212161E-02 
746	 9.62952120718739E-02 
747	 9.63410665619432E-02 
748	 9.63420616964881E-02 
749	 9.62944400686787E-02 
750	 9.62521247580046E-02 
751	 0.096321462131934 
752	 9.63437196928271E-02 
753	 9.63062985262632E-02 
754	 0.096249042445474 
755	 9.62514649354221E-02 
756	 9.62758215338724E-02 
757	 9.62847017403276E-02 
758	 9.62541478448022E-02 
759	 9.62579339375804E-02 
760	 9.62735678945845E-02 
761	 9.62710829582742E-02 
762	 9.62250509247384E-02 
763	 9.62265180138487E-02 
764	 9.62284096057851E-02 
765	 9.61913660186931E-02 
766	 9.62011215315668E-02 
767	 9.62110746811852E-02 
768	 9.62161142679135E-02 
769	 9.62258444590632E-02 
770	 9.61971185300271E-02 
771	 9.61753022333533E-02 
772	 9.61682592504482E-02 
773	 9.61308712823561E-02 
774	 9.60877203657491E-02 
775	 0.096078628400757 
776	 9.61102933171725E-02 
777	 0.096090352845731 
778	 9.60826450767031E-02 
779	 0.096097041642973 
780	 9.61122938878682E-02 
781	 9.60784191761685E-02 
782	 9.60642803555628E-02 
783	 9.60708671693061E-02 
784	 9.60229900995763E-02 
785	 9.60110587167651E-02 
786	 9.60083928709473E-02 
787	 9.59864073785774E-02 
788	 9.59638732005437E-02 
789	 9.59810898138847E-02 
790	 9.59889797385602E-02 
791	 9.59340237156772E-02 
792	 9.59346556459897E-02 
793	 9.59328451727637E-02 
794	 0.095917223221354 
795	 9.59198693394859E-02 
796	 9.58841862453591E-02 
797	 9.58625647580922E-02 
798	 9.58768553695147E-02 
799	 0.095861881276105 
800	 9.58661642753934E-02 
801	 9.58703669527432E-02 
802	 9.58489146244144E-02 
803	 9.58323751093325E-02 
804	 9.58212032735157E-02 
805	 9.58040371381798E-02 
806	 0.095769030828727 
807	 9.57658244757423E-02 
808	 9.57558043951237E-02 
809	 9.57215133545512E-02 
810	 0.095686337442456 
811	 9.57035479741296E-02 
812	 9.57001216754603E-02 
813	 9.56402716332697E-02 
814	 9.56710647411998E-02 
815	 0.095690394614899 
816	 9.56639699875601E-02 
817	 9.56034818139304E-02 
818	 9.55955016789134E-02 
819	 9.56214256104069E-02 
820	 9.56222173672449E-02 
821	 0.095531487123466 
822	 9.55491967387078E-02 
823	 9.55651500532551E-02 
824	 9.55173900437293E-02 
825	 9.55005534372143E-02 
826	 9.55244938013178E-02 
827	 9.55335937629536E-02 
828	 9.54912125526819E-02 
829	 9.54857743317816E-02 
830	 9.54781026526421E-02 
831	 9.54705064958046E-02 
832	 9.54837325038353E-02 
833	 9.55288398508892E-02 
834	 0.095521751078642 
835	 9.54599262592473E-02 
836	 9.54236499883861E-02 
837	 9.54387588261434E-02 
838	 9.54683954828744E-02 
839	 9.54663372470088E-02 
840	 9.53915577862066E-02 
841	 9.53653279325362E-02 
842	 9.53865179281433E-02 
843	 9.54147235707538E-02 
844	 9.54086753916169E-02 
845	 9.54231489819857E-02 
846	 9.54178025131548E-02 
847	 9.53481842947792E-02 
848	 9.54088293516258E-02 
849	 9.54671239978101E-02 
850	 9.54616205608682E-02 
851	 9.54160461070257E-02 
852	 9.53582079976653E-02 
853	 9.53663989642054E-02 
854	 9.54299436874901E-02 
855	 9.54079807218283E-02 
856	 9.54236524005033E-02 
857	 9.54548151647753E-02 
858	 9.54599673906256E-02 
859	 9.54335412385137E-02 
860	 9.54262913318514E-02 
861	 9.54303823064895E-02 
862	 9.54180248242427E-02 
863	 9.53779277500145E-02 
864	 9.53693803302223E-02 
865	 9.53848746615796E-02 
866	 9.53824416715751E-02 
867	 9.54128505616823E-02 
868	 9.54193546742652E-02 
869	 9.53899669738589E-02 
870	 9.53697635453535E-02 
871	 9.54087112278085E-02 
872	 9.54318113112764E-02 
873	 9.54110907166004E-02 
874	 9.54275012566071E-02 
875	 0.095417213981777 
876	 9.54048231180214E-02 
877	 9.54203978713965E-02 
878	 9.54503294002816E-02 
879	 9.55037752592964E-02 
880	 9.55370028679028E-02 
881	 9.55099584699881E-02 
882	 9.54622429442367E-02 
883	 0.095504999177237 
884	 9.55653720668958E-02 
885	 9.55158074738006E-02 
886	 9.55834891141533E-02 
887	 9.56702645155004E-02 
888	 9.56932090278024E-02 
889	 9.56292784417878E-02 
890	 9.56754131226378E-02 
891	 9.56980879230694E-02 
892	 9.56644882802128E-02 
893	 9.57146991037412E-02 
894	 9.57875167108143E-02 
895	 9.58098457223868E-02 
896	 9.57780706883442E-02 
897	 9.58140730319741E-02 
898	 9.58499848167384E-02 
899	 9.58572795116735E-02 
900	 9.58416361609717E-02 
901	 9.58682912871484E-02 
902	 9.59321165625957E-02 
903	 9.59770593571484E-02 
904	 9.59631973151153E-02 
905	 9.59784370064898E-02 
906	 9.60145669764505E-02 
907	 9.60696207695309E-02 
908	 9.61412839616879E-02 
909	 9.62304117569154E-02 
910	 9.62169226672045E-02 
911	 9.61762722087938E-02 
912	 0.09626924412595 
913	 9.62704142431743E-02 
914	 9.63126119920909E-02 
915	 9.63819165536824E-02 
916	 9.63370338812973E-02 
917	 9.63623967104739E-02 
918	 9.64054805818294E-02 
919	 9.64406554579041E-02 
920	 0.096505096623968 
921	 9.65755895004055E-02 
922	 9.66277890753323E-02 
923	 0.096652890822983 
924	 9.66665054262901E-02 
925	 9.67269499872387E-02 
926	 9.68056593840153E-02 
927	 9.68546191291082E-02 
928	 9.68313589552779E-02 
929	 9.68934587907919E-02 
930	 9.69510541431756E-02 
931	 9.69352637751726E-02 
932	 9.69761371027258E-02 
933	 9.70307243500398E-02 
934	 9.71143384516243E-02 
935	 0.097219701675829 
936	 9.72382529305572E-02 
937	 0.097218889102664 
938	 9.72373254988089E-02 
939	 9.73395481327903E-02 
940	 9.74497892163327E-02 
941	 0.097496082462465 
942	 9.75576765031572E-02 
943	 9.77092909465182E-02 
944	 9.77621831804852E-02 
945	 9.77124944990549E-02 
946	 9.77060619961122E-02 
947	 0.097855046350053 
948	 9.78258555052492E-02 
949	 9.77918508356938E-02 
950	 9.78461595509713E-02 
951	 9.80037959037365E-02 
952	 9.82041634646225E-02 
953	 9.82564319312965E-02 
954	 9.82010236158441E-02 
955	 0.098212082386919 
956	 9.83626322444744E-02 
957	 9.84680224418575E-02 
958	 9.84657768352138E-02 
959	 9.84174556718771E-02 
960	 9.85159218776951E-02 
961	 9.85668732097846E-02 
962	 9.86444886399159E-02 
963	 9.89040024293787E-02 
964	 9.88155618967968E-02 
965	 9.88027568914368E-02 
966	 9.89360648332807E-02 
967	 9.90097642297132E-02 
968	 9.90135446225441E-02 
969	 9.90083990802308E-02 
970	 9.90319446688324E-02 
971	 9.90841558385611E-02 
972	 9.90867165900802E-02 
973	 9.91722822581794E-02 
974	 0.099277525764848 
975	 9.92542614451901E-02 
976	 9.93347320646482E-02 
977	 0.099380984847928 
978	 9.93512026496654E-02 
979	 9.93195545109905E-02 
980	 9.95151697056963E-02 
981	 9.96535580693679E-02 
982	 9.96513395946314E-02 
983	 9.96143832731395E-02 
984	 9.97582077599536E-02 
985	 9.98478369839598E-02 
986	 9.98450977302016E-02 
987	 9.98457353211682E-02 
988	 9.98953121770138E-02 
989	 0.099918053759698 
990	 9.98748428102107E-02 
991	 9.98172587395973E-02 
992	 0.100063335658495 
993	 0.100210920326112 
994	 0.100294841721546 
995	 0.10044273331963 
996	 0.100209706103077 
997	 0.100194493289495 
998	 0.100352324680742 
999	 0.100415399132109 
1000	 0.100388942342182 
1001	 9.87669612731023E-02 
1002	 9.87896414561311E-02 
1003	 9.88482230253001E-02 
1004	 9.88628251769622E-02 
1005	 9.88898883899233E-02 
1006	 0.098915640879419 
1007	 0.098928168948427 
1008	 9.88651891248154E-02 
1009	 9.88482280876008E-02 
1010	 9.88603605155955E-02 
1011	 0.098845522694578 
1012	 9.88420902203166E-02 
1013	 9.89196468556222E-02 
1014	 9.90111631606397E-02 
1015	 9.90819133801185E-02 
1016	 9.91604677948569E-02 
1017	 9.91991412682029E-02 
1018	 0.099205038497196 
1019	 0.099175342113023 
1020	 9.91858030744109E-02 
1021	 9.91757262425391E-02 
1022	 9.91401332029492E-02 
1023	 9.91534750570553E-02 
1024	 9.91323832428031E-02 
1025	 0.09912388569813 
1026	 9.91634632115541E-02 
1027	 0.099161872422129 
1028	 9.91553329994381E-02 
1029	 9.91318330054157E-02 
1030	 9.90865055085793E-02 
1031	 9.90578680687035E-02 
1032	 9.90265891886453E-02 
1033	 9.90083859098884E-02 
1034	 9.90329806821062E-02 
1035	 9.90449523336141E-02 
1036	 0.099040881278635 
1037	 9.90495749876783E-02 
1038	 9.90431466916313E-02 
1039	 9.90365896191569E-02 
1040	 9.90440156095103E-02 
1041	 9.90910767948953E-02 
1042	 9.91351493501465E-02 
1043	 9.91708341172897E-02 
1044	 9.92024969078722E-02 
1045	 9.92630140362267E-02 
1046	 9.92459221636624E-02 
1047	 9.91878677906386E-02 
1048	 9.91844821303361E-02 
1049	 9.91923827215443E-02 
1050	 9.92335772319232E-02 
1051	 9.93557598436667E-02 
1052	 9.94274072769448E-02 
1053	 9.93974082464375E-02 
1054	 9.94121904019895E-02 
1055	 9.94459803586355E-02 
1056	 9.94440575936864E-02 
1057	 9.94713754646842E-02 
1058	 9.95675331791523E-02 
1059	 9.96193594400744E-02 
1060	 0.09963570507217 
1061	 9.96720817175063E-02 
1062	 9.97421966060886E-02 
1063	 9.97990522905995E-02 
1064	 9.98528405640033E-02 
1065	 9.98999020035028E-02 
1066	 9.99070405158084E-02 
1067	 9.99396760419881E-02 
1068	 9.99902361003117E-02 
1069	 0.100046060731121 
1070	 0.100095023381032 
1071	 0.100171632685486 
1072	 0.100219983382043 
1073	 0.100247931806689 
1074	 0.10025818447888 
1075	 0.100256638823346 
1076	 0.100248933649918 
1077	 0.100254170578477 
1078	 0.100308914068902 
1079	 0.100372954704798 
1080	 0.10040466995284 
1081	 0.100384144122006 
1082	 0.100361780880132 
1083	 0.100353988577903 
1084	 0.100342070077311 
1085	 0.10034351526479 
1086	 0.10036656889427 
1087	 0.100364193073982 
1088	 0.100342528335843 
1089	 0.100356487027245 
1090	 0.100344873117456 
1091	 0.100337537326559 
1092	 0.10036208072365 
1093	 0.100378838919703 
1094	 0.100387199850423 
1095	 0.100361366667942 
1096	 0.100332735298943 
1097	 0.100325899233255 
1098	 0.100310927709744 
1099	 0.100313138790812 
1100	 0.100302763764664 
1101	 0.100267676507606 
1102	 0.100252794129801 
1103	 0.100257052900391 
1104	 0.100236232315514 
1105	 0.100214078065338 
1106	 0.100214500835313 
1107	 0.10019789930579 
1108	 0.100207210699853 
1109	 0.100207621757289 
1110	 0.100179780547526 
1111	 0.100165514279262 
1112	 0.100129960092166 
1113	 0.100119279493742 
1114	 0.100135578955184 
1115	 0.100134246878776 
1116	 0.100123729547105 
1117	 0.100124300616517 
1118	 0.10013054375557 
1119	 0.100132428430785 
1120	 0.100131012497777 
1121	 0.100116288311226 
1122	 0.100095507598522 
1123	 0.100085608085165 
1124	 0.100090960746703 
1125	 0.100122611326979 
1126	 0.100127156119302 
1127	 0.100135391152897 
1128	 0.10012857501953 
1129	 0.100090314569113 
1130	 0.100082526492778 
1131	 0.100087235462554 
1132	 0.100087017239097 
1133	 0.100099022346637 
1134	 0.100105559918368 
1135	 0.100107011456514 
1136	 0.100101838014321 
1137	 0.100104945949652 
1138	 0.100117643222838 
1139	 0.100131405741573 
1140	 0.100159634176379 
1141	 0.100161150639422 
1142	 0.100157170522911 
1143	 0.100148081551719 
1144	 0.100111388450357 
1145	 0.100096200276699 
1146	 0.100102084369257 
1147	 0.100086792699295 
1148	 0.10005817215421 
1149	 0.100042642936874 
1150	 0.100015223686515 
1151	 9.99988563840643E-02 
1152	 0.10001239295378 
1153	 0.100026207901581 
1154	 0.100044887704973 
1155	 0.100085646734596 
1156	 0.10009422633996 
1157	 0.100093507007616 
1158	 0.100092257351196 
1159	 0.100062216686406 
1160	 0.100059237321403 
1161	 0.100088790101323 
1162	 0.100081396887113 
1163	 0.100057458991225 
1164	 0.100045789170115 
1165	 0.100016018204041 
1166	 9.99924509917429E-02 
1167	 9.99844765584973E-02 
1168	 9.99922489053992E-02 
1169	 0.099990408665065 
1170	 0.099975603164831 
1171	 9.99838993601537E-02 
1172	 0.100013875852123 
1173	 0.100021993748866 
1174	 0.100023203332539 
1175	 0.100041407136344 
1176	 0.100065332746263 
1177	 0.100074034572502 
1178	 0.100089183740049 
1179	 0.100103228993987 
1180	 0.100088538381759 
1181	 0.100095080965852 
1182	 0.100132660257066 
1183	 0.100155411476746 
1184	 0.100165924573305 
1185	 0.100172213012693 
1186	 0.100176421063139 
1187	 0.100157425538784 
1188	 0.10016773764709 
1189	 0.100198410217745 
1190	 0.100211442189188 
1191	 0.100227002151116 
1192	 0.100241650718501 
1193	 0.100244062952765 
1194	 0.10025433536437 
1195	 0.100272912692959 
1196	 0.10029043408573 
1197	 0.10030935094141 
1198	 0.100325687694558 
1199	 0.100341551647423 
1200	 0.100357675142869 
1201	 0.100375763905268 
1202	 0.100395843160174 
1203	 0.100407058591079 
1204	 0.100407069607864 
1205	 0.100431125382391 
1206	 0.100463482210182 
1207	 0.100488022010378 
1208	 0.100533725498026 
1209	 0.100560610344575 
1210	 0.100559248474201 
1211	 0.100576634464308 
1212	 0.100603332856323 
1213	 0.100626726930335 
1214	 0.10065642661444 
1215	 0.100681831119954 
1216	 0.100704952463428 
1217	 0.10072503663933 
1218	 0.100743933475809 
1219	 0.100760796900047 
1220	 0.100777407969119 
1221	 0.100792112111872 
1222	 0.10080665185025 
1223	 0.100819350117967 
1224	 0.100834275711109 
1225	 0.100847370367643 
1226	 0.100864541420682 
1227	 0.100883486397054 
1228	 0.100905634212614 
1229	 0.100931280092998 
1230	 0.100957934585679 
1231	 0.100991295092049 
1232	 0.10101985914622 
1233	 0.101046911917208 
1234	 0.101076131748773 
1235	 0.101095647082505 
1236	 0.101105621903434 
1237	 0.101124740048196 
1238	 0.101135932228057 
1239	 0.101163047920314 
1240	 0.101209475029835 
1241	 0.101239045799159 
1242	 0.101271605655626 
1243	 0.101295960949373 
1244	 0.101303613727746 
1245	 0.101320307362335 
1246	 0.101340044983297 
1247	 0.101359220296122 
1248	 0.101387745095117 
1249	 0.101397995176184 
1250	 0.101414183691401 
1251	 0.101443867814587 
1252	 0.101471236669929 
1253	 0.101513000466844 
1254	 0.101527231221519 
1255	 0.101530862409895 
1256	 0.101532562410887 
1257	 0.101510889304936 
1258	 0.101509808884244 
1259	 0.101517809288728 
1260	 0.101525959341235 
1261	 0.101543187236667 
1262	 0.101551572438318 
1263	 0.101551258120033 
1264	 0.101562499304904 
1265	 0.101580931077433 
1266	 0.101592360471349 
1267	 0.101600401536265 
1268	 0.101624722437562 
1269	 0.101637552492763 
1270	 0.101634380888088 
1271	 0.101653195851354 
1272	 0.101677398325378 
1273	 0.101713212557857 
1274	 0.101771654991237 
1275	 0.101808695334796 
1276	 0.101835860498076 
1277	 0.101882764257061 
1278	 0.101928184961509 
1279	 0.101978738343111 
1280	 0.102050421475522 
1281	 0.102117459964113 
1282	 0.102172174575715 
1283	 0.102239113321993 
1284	 0.102324939745359 
1285	 0.10240018377636 
1286	 0.102477192265853 
1287	 0.102548729927292 
1288	 0.102618571287709 
1289	 0.102682307552137 
1290	 0.102755880188274 
1291	 0.102831909034224 
1292	 0.102906006868061 
1293	 0.102991333076096 
1294	 0.103055000011416 
1295	 0.103103705943269 
1296	 0.103157843424686 
1297	 0.10320920414617 
1298	 0.103254495245243 
1299	 0.103291536109161 
1300	 0.103337786861285 
1301	 0.103394286147345 
1302	 0.103425570628497 
1303	 0.103441071727468 
1304	 0.103472591536576 
1305	 0.103488476618016 
1306	 0.103507529759178 
1307	 0.103532355659757 
1308	 0.103536473529247 
1309	 0.10354092226785 
1310	 0.103521184215879 
1311	 0.103517983933847 
1312	 0.1035334551227 
1313	 0.103529004882927 
1314	 0.103512847963977 
1315	 0.10349965952577 
1316	 0.103472604282464 
1317	 0.103458126990239 
1318	 0.1034568211088 
1319	 0.10344588945969 
1320	 0.10343713750143 
1321	 0.103421324012993 
1322	 0.103388069683678 
1323	 0.103372776214831 
1324	 0.103360837510161 
1325	 0.103344072535812 
1326	 0.10335630742425 
1327	 0.10335763176996 
1328	 0.103348122425691 
1329	 0.103339664248258 
1330	 0.103327588176296 
1331	 0.103298835918148 
1332	 0.103292679915208 
1333	 0.103307582860999 
1334	 0.103297355107504 
1335	 0.103279533026752 
1336	 0.103263653724218 
1337	 0.10322550911448 
1338	 0.103213579361993 
1339	 0.103224149486006 
1340	 0.103226383688539 
1341	 0.10323903138745 
1342	 0.10323964862011 
1343	 0.10323413720803 
1344	 0.103221427486839 
1345	 0.103213732211368 
1346	 0.103213988427084 
1347	 0.103225830107213 
1348	 0.103245042567803 
1349	 0.103246952268811 
1350	 0.103244801195248 
1351	 0.10324058739063 
1352	 0.103219478597961 
1353	 0.103213446109497 
1354	 0.103214864080363 
1355	 0.103216362445728 
1356	 0.103223509469926 
1357	 0.103226722190091 
1358	 0.10322663811376 
1359	 0.103233124201185 
1360	 0.103240566362866 
1361	 0.10325072496414 
1362	 0.103268442767396 
1363	 0.103284689878668 
1364	 0.103302484264657 
1365	 0.103314284796726 
1366	 0.103320635559852 
1367	 0.103333722327837 
1368	 0.103348393873185 
1369	 0.103366946966753 
1370	 0.103384317767249 
1371	 0.10339077084227 
1372	 0.103391757609682 
1373	 0.103381318503183 
1374	 0.103380983517622 
1375	 0.103394913279308 
1376	 0.10338252616672 
1377	 0.103360404191115 
1378	 0.103338606024751 
1379	 0.103296206518375 
1380	 0.103270112193996 
1381	 0.103249953610196 
1382	 0.103233433271254 
1383	 0.103222524206658 
1384	 0.103208158163497 
1385	 0.103202270423688 
1386	 0.103188673829643 
1387	 0.103166408936921 
1388	 0.103150158784855 
1389	 0.103141201893199 
1390	 0.103116808067061 
1391	 0.103092569336576 
1392	 0.103067585311305 
1393	 0.103027635210753 
1394	 0.10299487336524 
1395	 0.102961526998617 
1396	 0.102925295256465 
1397	 0.102901114862938 
1398	 0.102882714990765 
1399	 0.102863958482573 
1400	 0.102864224355884 
1401	 0.102836561350062 
1402	 0.102790452049283 
1403	 0.102757541783222 
1404	 0.102712452002513 
1405	 0.102678957874931 
1406	 0.102663653028742 
1407	 0.102638695517249 
1408	 0.10260427083287 
1409	 0.102580506151078 
1410	 0.102553803073499 
1411	 0.102540578989508 
1412	 0.102541605383225 
1413	 0.102538839037093 
1414	 0.102547160992302 
1415	 0.102565732923183 
1416	 0.102567429341289 
1417	 0.102576665755982 
1418	 0.102576562243853 
1419	 0.102575108951248 
1420	 0.102589174654764 
1421	 0.102597085103945 
1422	 0.102611739005665 
1423	 0.102622499218261 
1424	 0.102635363855851 
1425	 0.102647385304948 
1426	 0.102656053500515 
1427	 0.102659748220216 
1428	 0.102680890956925 
1429	 0.102703032325321 
1430	 0.102731929450381 
1431	 0.102788443656369 
1432	 0.102815400061141 
1433	 0.102825691826749 
1434	 0.102844266777341 
1435	 0.102845710649316 
1436	 0.102865617686194 
1437	 0.102901592085863 
1438	 0.102931337891091 
1439	 0.102960426029567 
1440	 0.10300733969237 
1441	 0.103039483420681 
1442	 0.103050960063898 
1443	 0.103062875525017 
1444	 0.103080484190261 
1445	 0.103105803449164 
1446	 0.103136451605882 
1447	 0.103177393596366 
1448	 0.103211056530531 
1449	 0.103226337069104 
1450	 0.103248857647095 
1451	 0.103268055199168 
1452	 0.103275100329129 
1453	 0.103300350656935 
1454	 0.103334374266792 
1455	 0.103364773399 
1456	 0.103402563050295 
1457	 0.103436140248155 
1458	 0.103472840872164 
1459	 0.103501678503324 
1460	 0.103523502470694 
1461	 0.103552231342151 
1462	 0.103575697625015 
1463	 0.103603173573301 
1464	 0.103645394504995 
1465	 0.103671230645801 
1466	 0.103690620751084 
1467	 0.10370633055128 
1468	 0.103699719187166 
1469	 0.103715420485882 
1470	 0.103745212354642 
1471	 0.103764312850676 
1472	 0.10378985951035 
1473	 0.103839013191429 
1474	 0.103867917155018 
1475	 0.103883787797398 
1476	 0.10390666940749 
1477	 0.103925496538608 
1478	 0.103938286973272 
1479	 0.103962734234298 
1480	 0.103999732505475 
1481	 0.104025003449806 
1482	 0.104049602228843 
1483	 0.104081463677986 
1484	 0.104100389634157 
1485	 0.104100761101442 
1486	 0.104118517998041 
1487	 0.104139035912354 
1488	 0.104162624309789 
1489	 0.10420089794557 
1490	 0.104222712269633 
1491	 0.104236167830108 
1492	 0.104253047248114 
1493	 0.104260076100158 
1494	 0.104277294189318 
1495	 0.104303526523743 
1496	 0.104326051196754 
1497	 0.104350392150276 
1498	 0.104371997618375 
1499	 0.104396053774821 
1500	 0.104411776751063 
1501	 0.104418129849925 
1502	 0.104434183435238 
1503	 0.104454584177754 
1504	 0.104463171095155 
1505	 0.104488802998871 
1506	 0.104503524885548 
1507	 0.104506294808884 
1508	 0.104521029964682 
1509	 0.1045316370198 
1510	 0.104542642506815 
1511	 0.104564207400821 
1512	 0.104585586810492 
1513	 0.104592437319237 
1514	 0.104601702709839 
1515	 0.104633108045276 
1516	 0.104656808440405 
1517	 0.104674499772776 
1518	 0.104707336478975 
1519	 0.104719526701486 
1520	 0.104696553601829 
1521	 0.104714269055274 
1522	 0.104756004357377 
1523	 0.104774600252803 
1524	 0.104801944186109 
1525	 0.10481504616593 
1526	 0.104801807886034 
1527	 0.104808029647944 
1528	 0.104821227638999 
1529	 0.10483409999062 
1530	 0.10485365861195 
1531	 0.104868133240555 
1532	 0.104876075372533 
1533	 0.104896754489674 
1534	 0.104930707307703 
1535	 0.104943799722883 
1536	 0.104947644581936 
1537	 0.104964414710493 
1538	 0.104976043243578 
1539	 0.104989203448697 
1540	 0.105021387685973 
1541	 0.105037046945373 
1542	 0.1050280155626 
1543	 0.105033609233175 
1544	 0.105046711400869 
1545	 0.105059708392434 
1546	 0.105076607310981 
1547	 0.105096163344447 
1548	 0.105116177223906 
1549	 0.105126433799613 
1550	 0.105137075537251 
1551	 0.10515629486646 
1552	 0.105161094296939 
1553	 0.105165601301151 
1554	 0.1051689793621 
1555	 0.105162370343191 
1556	 0.105177075633312 
1557	 0.105191135799972 
1558	 0.105201430811618 
1559	 0.105216080053615 
1560	 0.105223153053875 
1561	 0.105219402080476 
1562	 0.10522340698803 
1563	 0.105230747585695 
1564	 0.105236067342389 
1565	 0.10524183695889 
1566	 0.105242601266107 
1567	 0.105240377110923 
1568	 0.105239460253894 
1569	 0.105233412623034 
1570	 0.105235519136754 
1571	 0.105244818036282 
1572	 0.105245628749255 
1573	 0.105241141487353 
1574	 0.105248396977203 
1575	 0.105259038716232 
1576	 0.105266734240235 
1577	 0.105289871568978 
1578	 0.105292916918899 
1579	 0.10527240520523 
1580	 0.105272968357121 
1581	 0.105270831427609 
1582	 0.10527992753014 
1583	 0.105309486790046 
1584	 0.105328273982116 
1585	 0.105356661781028 
1586	 0.105365124645976 
1587	 0.105359600762341 
1588	 0.105355565823538 
1589	 0.10533552739281 
1590	 0.105326618382003 
1591	 0.105315445252559 
1592	 0.105316628984738 
1593	 0.105337065012164 
1594	 0.105341053280188 
1595	 0.10534653754767 
1596	 0.10534948938989 
1597	 0.105333761240112 
1598	 0.105329903438204 
1599	 0.105334761167474 
1600	 0.105341351057811 
1601	 0.105353611673693 
1602	 0.105362218470646 
1603	 0.105365551472937 
1604	 0.105380357615719 
1605	 0.105409348738682 
1606	 0.105424079739848 
1607	 0.105442070071823 
1608	 0.105454614923934 
1609	 0.105442973588802 
1610	 0.10542620268808 
1611	 0.105412582383342 
1612	 0.105403253042157 
1613	 0.105400921361682 
1614	 0.105410560411769 
1615	 0.105435850321204 
1616	 0.105445710084986 
1617	 0.105455409349372 
1618	 0.10547869871833 
1619	 0.105483680141279 
1620	 0.105492222585339 
1621	 0.105499131945961 
1622	 0.105506557166046 
1623	 0.105500108446746 
1624	 0.105487681482744 
1625	 0.105479623042738 
1626	 0.105459366935552 
1627	 0.105454762874531 
1628	 0.105460384205158 
1629	 0.10546573955138 
1630	 0.105475722573688 
1631	 0.10548182194398 
1632	 0.10548805573266 
1633	 0.105499437061695 
1634	 0.105513581233898 
1635	 0.105520871559266 
1636	 0.105533135107672 
1637	 0.105536298456589 
1638	 0.105528475639626 
1639	 0.105523384473896 
1640	 0.105513354024409 
1641	 0.105516817110259 
1642	 0.105523081566807 
1643	 0.105529841172294 
1644	 0.105551148465864 
1645	 0.105555774930158 
1646	 0.105542929202101 
1647	 0.105553818091046 
1648	 0.10557252448621 
1649	 0.105588421538908 
1650	 0.105620626217236 
1651	 0.105634906233087 
1652	 0.105635014351827 
1653	 0.105642210518501 
1654	 0.105643749531162 
1655	 0.105656949860252 
1656	 0.105686739903558 
1657	 0.105690212276155 
1658	 0.10568967217932 
1659	 0.105681954854904 
1660	 0.10564480180953 
1661	 0.105634016584681 
1662	 0.105633087844661 
1663	 0.105635891814406 
1664	 0.105656226981708 
1665	 0.105656456188972 
1666	 0.105648956537592 
1667	 0.10564757014198 
1668	 0.105630821589356 
1669	 0.105635567178058 
1670	 0.105665908082149 
1671	 0.105672612047888 
1672	 0.105670448544965 
1673	 0.105680178374593 
1674	 0.105690223034314 
1675	 0.105691104139483 
1676	 0.105699049122065 
1677	 0.105699331170199 
1678	 0.105675043302373 
1679	 0.105674576704829 
1680	 0.105690586569138 
1681	 0.105700478178335 
1682	 0.105719554922479 
1683	 0.105725680892246 
1684	 0.105723020796265 
1685	 0.105725761281335 
1686	 0.105725582124635 
1687	 0.10572434755828 
1688	 0.105715538841651 
1689	 0.105728501867955 
1690	 0.105757986290515 
1691	 0.105769110370517 
1692	 0.105785894289586 
1693	 0.105802344074048 
1694	 0.105797973645558 
1695	 0.105810691196395 
1696	 0.105843646322931 
1697	 0.105868449411883 
1698	 0.105894347392471 
1699	 0.105912934645925 
1700	 0.105937654057074 
1701	 0.10594079445019 
1702	 0.10591704984629 
1703	 0.105913123736662 
1704	 0.105906724336345 
1705	 0.105906141453044 
1706	 0.105918540652961 
1707	 0.10592654586947 
1708	 0.10594018943472 
1709	 0.105936303107108 
1710	 0.105919581462794 
1711	 0.105916595689843 
1712	 0.105909133631585 
1713	 0.105896855254106 
1714	 0.105888310691808 
1715	 0.105890770837653 
1716	 0.105888345643373 
1717	 0.105888811486199 
1718	 0.1059067257888 
1719	 0.105918982208267 
1720	 0.105924744476828 
1721	 0.10592749565639 
1722	 0.105939172670191 
1723	 0.105936971097278 
1724	 0.105912813055923 
1725	 0.105907797165248 
1726	 0.105904194365629 
1727	 0.105914459434399 
1728	 0.105950212810966 
1729	 0.105950386338152 
1730	 0.105940770745558 
1731	 0.105935080043477 
1732	 0.105903601207203 
1733	 0.105898312755634 
1734	 0.105921665401921 
1735	 0.105914427701942 
1736	 0.105892678747928 
1737	 0.105886502313632 
1738	 0.105875065357835 
1739	 0.105864389826669 
1740	 0.105866810473319 
1741	 0.105858974745481 
1742	 0.105835926620758 
1743	 0.105832325149415 
1744	 0.105843370278471 
1745	 0.10583789806083 
1746	 0.105832506821897 
1747	 0.105811546293127 
1748	 0.105794153802484 
1749	 0.105800831120397 
1750	 0.105791293123345 
1751	 0.105777865755549 
1752	 0.105779836993532 
1753	 0.105752404009766 
1754	 0.105727708906874 
1755	 0.10573514884596 
1756	 0.105715738094542 
1757	 0.1056894029923 
1758	 0.105694510841845 
1759	 0.105674858296511 
1760	 0.105661053850906 
1761	 0.105684498580736 
1762	 0.105667309835076 
1763	 0.105645426991447 
1764	 0.105652304604851 
1765	 0.10563986703583 
1766	 0.10561917174063 
1767	 0.105612614988444 
1768	 0.105600220346714 
1769	 0.105579005009316 
1770	 0.105578318251542 
1771	 0.105583097318221 
1772	 0.105575110550163 
1773	 0.105580883772081 
1774	 0.105590942645135 
1775	 0.105595643679975 
1776	 0.105604894130257 
1777	 0.105593071264195 
1778	 0.105594521452019 
1779	 0.105600045814559 
1780	 0.105578807069122 
1781	 0.10557649080283 
1782	 0.105571746382808 
1783	 0.105574256480188 
1784	 0.105579387646516 
1785	 0.105585953575619 
1786	 0.105589262564636 
1787	 0.105590988141672 
1788	 0.105595115410228 
1789	 0.105614158737915 
1790	 0.105612640826929 
1791	 0.105583528756316 
1792	 0.105582609911439 
1793	 0.105581336064492 
1794	 0.105585579129558 
1795	 0.105615051270801 
1796	 0.105645969215284 
1797	 0.105674763633843 
1798	 0.105680437826855 
1799	 0.10570026791899 
1800	 0.105693433198664 
1801	 0.103001406102538 
1802	 0.103093901384691 
1803	 0.10321614349919 
1804	 0.10331934401833 
1805	 0.103449037918526 
1806	 0.103582364538352 
1807	 0.103677553625883 
1808	 0.103781619755598 
1809	 0.103905741498379 
1810	 0.10398332215688 
1811	 0.104032253719511 
1812	 0.104077542148454 
1813	 0.104145567969538 
1814	 0.104181185748691 
1815	 0.104210783384207 
1816	 0.10427267638923 
1817	 0.104309768803936 
1818	 0.104296327099422 
1819	 0.104323760239975 
1820	 0.104372905080458 
1821	 0.104420391002518 
1822	 0.10445775796827 
1823	 0.104489009594447 
1824	 0.104504188686043 
1825	 0.104526219801786 
1826	 0.104566244116158 
1827	 0.104606196268991 
1828	 0.104632224500522 
1829	 0.104657229047124 
1830	 0.104672554591988 
1831	 0.104665071755911 
1832	 0.10467734564848 
1833	 0.104697032630454 
1834	 0.104720143991784 
1835	 0.104754922746029 
1836	 0.10475024530176 
1837	 0.104743809193009 
1838	 0.104755358701231 
1839	 0.104777994715781 
1840	 0.104804316075345 
1841	 0.104862535117155 
1842	 0.104915739491618 
1843	 0.104953572843011 
1844	 0.104988654606306 
1845	 0.105021522752279 
1846	 0.10504266535793 
1847	 0.105057798519553 
1848	 0.105094317087007 
1849	 0.10510852916202 
1850	 0.105124250156401 
1851	 0.105132154759797 
1852	 0.105186166969498 
1853	 0.105221765283299 
1854	 0.105236542324008 
1855	 0.10527234349984 
1856	 0.105284429226128 
1857	 0.105281285313611 
1858	 0.105283526466841 
1859	 0.105284958923626 
1860	 0.105274449205326 
1861	 0.10525325575337 
1862	 0.105208623559886 
1863	 0.105175527272598 
1864	 0.105138825501797 
1865	 0.105109507710374 
1866	 0.105105517165241 
1867	 0.105101647417223 
1868	 0.105095478660233 
1869	 0.105075419402712 
1870	 0.105060613827606 
1871	 0.105040487046599 
1872	 0.105013212023094 
1873	 0.104986122053783 
1874	 0.104975685180175 
1875	 0.104938206467564 
1876	 0.104908767970515 
1877	 0.104902085539498 
1878	 0.104867019840448 
1879	 0.104815518732172 
1880	 0.104760445712414 
1881	 0.104689669732179 
1882	 0.104615645565637 
1883	 0.104534203240051 
1884	 0.104453970303936 
1885	 0.104369375062399 
1886	 0.104273487184503 
1887	 0.104185096197858 
1888	 0.104090710320588 
1889	 0.103978741147354 
1890	 0.103858036998311 
1891	 0.103731488822512 
1892	 0.103583819622408 
1893	 0.103444150561245 
1894	 0.103306623897056 
1895	 0.103166924737534 
1896	 0.103014436350919 
1897	 0.102863668885427 
1898	 0.102717361885043 
1899	 0.102577592946526 
1900	 0.1024344504477 
1901	 0.102277417992127 
1902	 0.102132586505562 
1903	 0.101984310255611 
1904	 0.101842994832351 
1905	 0.101696914117832 
1906	 0.101595743519793 
1907	 0.101491376689505 
1908	 0.101351562912031 
1909	 0.101241807241619 
1910	 0.101142177748136 
1911	 0.101021997646347 
1912	 0.100943922516 
1913	 0.100854575091879 
1914	 0.100763716008644 
1915	 0.100666999602715 
1916	 0.100569822904534 
1917	 0.100474559836849 
1918	 0.100379253209562 
1919	 0.10029510391764 
1920	 0.100230606287236 
1921	 0.100178361446238 
1922	 0.100132759831142 
1923	 0.100095634566019 
1924	 0.100062676683058 
1925	 0.100042802283239 
1926	 0.100013013458183 
1927	 9.99851440956214E-02 
1928	 9.99493451044346E-02 
1929	 9.99207292939669E-02 
1930	 9.99000239927183E-02 
1931	 9.98814826430141E-02 
1932	 9.98817646660111E-02 
1933	 9.98862865519331E-02 
1934	 9.98903387509141E-02 
1935	 9.98999339906004E-02 
1936	 9.99258772221006E-02 
1937	 0.099935565053155 
1938	 9.99422008378523E-02 
1939	 9.99475849102974E-02 
1940	 9.99419194270103E-02 
1941	 0.099940107093718 
1942	 9.99514598326396E-02 
1943	 0.099956927615513 
1944	 0.099969868214385 
1945	 9.99956314671869E-02 
1946	 0.1000168056021 
1947	 0.100039490610655 
1948	 0.100063204758278 
1949	 0.100085735411097 
1950	 0.10010860549971 
1951	 0.100124797162764 
1952	 0.100158881339601 
1953	 0.100204943084008 
1954	 0.100269420401296 
1955	 0.100330222536294 
1956	 0.100389279088612 
1957	 0.100439098521556 
1958	 0.100464749502266 
1959	 0.100509521524446 
1960	 0.100559030081281 
1961	 0.100615608628909 
1962	 0.100686152257746 
1963	 0.100747650691511 
1964	 0.100809889850014 
1965	 0.100867811804619 
1966	 0.100938698972039 
1967	 0.101005009459595 
1968	 0.101067620676401 
1969	 0.101142781606737 
1970	 0.101198063261512 
1971	 0.101221976979779 
1972	 0.101279504375634 
1973	 0.101353545355152 
1974	 0.101418663293139 
1975	 0.10149872600413 
1976	 0.101566246114743 
1977	 0.101625314262366 
1978	 0.101670314630101 
1979	 0.101723015566763 
1980	 0.101802359262849 
1981	 0.101869745266001 
1982	 0.101944708726012 
1983	 0.102007536414789 
1984	 0.10206104326545 
1985	 0.102117874690338 
1986	 0.102162026263017 
1987	 0.102223756191435 
1988	 0.102310600220077 
1989	 0.102373091611543 
1990	 0.102420341032397 
1991	 0.102486202467174 
1992	 0.102538066102938 
1993	 0.102559497813821 
1994	 0.102621155914915 
1995	 0.102709663868199 
1996	 0.10277540008556 
1997	 0.10285215670144 
1998	 0.102917129518259 
1999	 0.102958412637437 
2000	 0.103015007504921 
2001	 0.103082124220279 
2002	 0.103137216242514 
2003	 0.103204784240065 
2004	 0.103277618226551 
2005	 0.10333411647507 
2006	 0.103379583056846 
2007	 0.103437273816636 
2008	 0.103480235841398 
2009	 0.103543348791983 
2010	 0.103630680261596 
2011	 0.103706814089327 
2012	 0.103790157869627 
2013	 0.103867769749402 
2014	 0.103947929013259 
2015	 0.104008875716698 
2016	 0.104074313992768 
2017	 0.104136773461024 
2018	 0.104202193457027 
2019	 0.104267221886742 
2020	 0.104331468012295 
2021	 0.104404090391754 
2022	 0.104460692041751 
2023	 0.104502105219928 
2024	 0.104554313401862 
2025	 0.104600676367893 
2026	 0.104652189376827 
2027	 0.104708454151803 
2028	 0.104773964815236 
2029	 0.104832229083364 
2030	 0.104888139118046 
2031	 0.104947097981348 
2032	 0.10500459426164 
2033	 0.105066815783372 
2034	 0.105138637050436 
2035	 0.105196383842031 
2036	 0.105245172107877 
2037	 0.105303538218152 
2038	 0.105365222806922 
2039	 0.105417306463499 
2040	 0.105475928636455 
2041	 0.105523183921214 
2042	 0.105557378533617 
2043	 0.105594509932693 
2044	 0.105635066426581 
2045	 0.105679172432401 
2046	 0.105723021698559 
2047	 0.105771025378313 
2048	 0.105811399065687 
2049	 0.105852919644966 
2050	 0.105888680419215 
2051	 0.105908784030606 
2052	 0.10594152497332 
2053	 0.105984198722749 
2054	 0.10601651536747 
2055	 0.106042716931606 
2056	 0.106083684154958 
2057	 0.106113451596676 
2058	 0.106130566973478 
2059	 0.10616051938276 
2060	 0.106200161835935 
2061	 0.106226969682808 
2062	 0.106248218420876 
2063	 0.106274407361971 
2064	 0.106295497963007 
2065	 0.106322169732745 
2066	 0.106345578802447 
2067	 0.106384959729683 
2068	 0.106440472353029 
2069	 0.106487707132627 
2070	 0.106531856164491 
2071	 0.106589434045956 
2072	 0.10662951189641 
2073	 0.106653805744661 
2074	 0.106679684127575 
2075	 0.106698567844948 
2076	 0.106726418289347 
2077	 0.106747543464878 
2078	 0.106779421501353 
2079	 0.106830974267908 
2080	 0.106869630617155 
2081	 0.106897461913553 
2082	 0.106936009006749 
2083	 0.106985217143901 
2084	 0.107019709861098 
2085	 0.107057650853825 
2086	 0.107101716372546 
2087	 0.10714393763854 
2088	 0.107177425508855 
2089	 0.107218847513413 
2090	 0.107277002476553 
2091	 0.107310640958121 
2092	 0.107327800384621 
2093	 0.107355330543995 
2094	 0.107376841106267 
2095	 0.10740045225054 
2096	 0.10742542141581 
2097	 0.107456072921732 
2098	 0.107489576800536 
2099	 0.107517101726443 
2100	 0.107554095858999 
2101	 0.107607721020647 
2102	 0.107642280416371 
2103	 0.107669091325075 
2104	 0.107697928597405 
2105	 0.107708879081306 
2106	 0.107746648169649 
2107	 0.10779470574799 
2108	 0.107849615762629 
2109	 0.10793394958694 
2110	 0.107997729605129 
2111	 0.108053062968477 
2112	 0.108111530748965 
2113	 0.108164708925541 
2114	 0.108218001934995 
2115	 0.108267992561105 
2116	 0.108320418771026 
2117	 0.108371531777147 
2118	 0.108415243790304 
2119	 0.108463031765214 
2120	 0.108512916296375 
2121	 0.108566257825021 
2122	 0.108629530901786 
2123	 0.108675956362088 
2124	 0.108720943711134 
2125	 0.108759003967085 
2126	 0.108787633539454 
2127	 0.108803908083305 
2128	 0.108802127028839 
2129	 0.108814206647064 
2130	 0.108820841715641 
2131	 0.108833155214116 
2132	 0.10883213266008 
2133	 0.108835626930429 
2134	 0.108835115163304 
2135	 0.108813434741744 
2136	 0.108811510884918 
2137	 0.108840294341141 
2138	 0.108832327178828 
2139	 0.108810311097599 
2140	 0.108783199441594 
2141	 0.108734454790356 
2142	 0.108689906289761 
2143	 0.108639504959225 
2144	 0.108595578288934 
2145	 0.108543754366648 
2146	 0.108503581350044 
2147	 0.108477448191199 
2148	 0.108451779700921 
2149	 0.108418151245869 
2150	 0.108390457883473 
2151	 0.108347428747125 
2152	 0.108294685167563 
2153	 0.108235923357836 
2154	 0.108162682092225 
2155	 0.108097691450031 
2156	 0.108035423988425 
2157	 0.107961345384614 
2158	 0.107901834557196 
2159	 0.107810524285614 
2160	 0.107674653195243 
2161	 0.107565892890439 
2162	 0.10743645745628 
2163	 0.10733497781024 
2164	 0.107276904445949 
2165	 0.10720310785393 
2166	 0.107120883421281 
2167	 0.107040832400465 
2168	 0.106960503383575 
2169	 0.106869977916539 
2170	 0.106779393061979 
2171	 0.106684277522757 
2172	 0.106608598036624 
2173	 0.106533758907676 
2174	 0.10646380690854 
2175	 0.106434449819635 
2176	 0.106361880302871 
2177	 0.106235271141285 
2178	 0.106159006113037 
2179	 0.106101274470431 
2180	 0.10603312184654 
2181	 0.106002597400704 
2182	 0.105948448581917 
2183	 0.105859803945915 
2184	 0.105776523945966 
2185	 0.105704470487767 
2186	 0.105633554161647 
2187	 0.105571056583196 
2188	 0.105522479222505 
2189	 0.10546194852643 
2190	 0.105401762780536 
2191	 0.105342005786089 
2192	 0.105270107763921 
2193	 0.105217140602061 
2194	 0.10517595302197 
2195	 0.105132612671802 
2196	 0.105103650963659 
2197	 0.10506390784732 
2198	 0.105015926215854 
2199	 0.104973824534841 
2200	 0.104926066554141 
2201	 0.104887274749903 
2202	 0.104870267628794 
2203	 0.104828455873944 
2204	 0.104791101136267 
2205	 0.104750717275544 
2206	 0.104722099379586 
2207	 0.104693611347523 
2208	 0.10466595594223 
2209	 0.104659789030416 
2210	 0.104621296738707 
2211	 0.104550418039566 
2212	 0.104510854227492 
2213	 0.104457915656462 
2214	 0.10443967262904 
2215	 0.104474226445387 
2216	 0.104470011481526 
2217	 0.104445026403935 
2218	 0.104450840007073 
2219	 0.104466156809613 
2220	 0.104470116885876 
2221	 0.104491491144026 
2222	 0.10451074501885 
2223	 0.104522686802296 
2224	 0.104526581087423 
2225	 0.104542129405251 
2226	 0.104580690684992 
2227	 0.104599333224797 
2228	 0.104608550318212 
2229	 0.104615284932429 
2230	 0.104626284484566 
2231	 0.104623023720145 
2232	 0.104603633630322 
2233	 0.104586694034058 
2234	 0.104549423277353 
2235	 0.104539733018145 
2236	 0.104542272675604 
2237	 0.104546477391492 
2238	 0.104586461074388 
2239	 0.10459033256533 
2240	 0.104554614657757 
2241	 0.104554178004316 
2242	 0.104554241615678 
2243	 0.104560917578675 
2244	 0.104614883424078 
2245	 0.104629663256145 
2246	 0.104623121078302 
2247	 0.104628246946247 
2248	 0.10462428559635 
2249	 0.104603160195919 
2250	 0.10461478811228 
2251	 0.104643719511654 
2252	 0.104658942659964 
2253	 0.104682429702029 
2254	 0.104696892110023 
2255	 0.104702669537881 
2256	 0.104701996475508 
2257	 0.10469150765675 
2258	 0.104708368768267 
2259	 0.104739473998178 
2260	 0.104746891201057 
2261	 0.104764520810866 
2262	 0.104771642388561 
2263	 0.104745642414404 
2264	 0.104734854118228 
2265	 0.10473442712722 
2266	 0.104735144897056 
2267	 0.104727352974446 
2268	 0.104734005088055 
2269	 0.10475289559263 
2270	 0.104786646710713 
2271	 0.104785538262477 
2272	 0.104811021130901 
2273	 0.104845640438549 
2274	 0.104806344241219 
2275	 0.104801678091666 
2276	 0.10479490201447 
2277	 0.104813867266683 
2278	 0.10484404786002 
2279	 0.104879520466677 
2280	 0.104945829158983 
2281	 0.10497777933363 
2282	 0.104989861070577 
2283	 0.105014251171173 
2284	 0.10504564159404 
2285	 0.105055659647622 
2286	 0.105053298326959 
2287	 0.10505072607828 
2288	 0.105018868166663 
2289	 0.105017107030794 
2290	 0.105050148117541 
2291	 0.105062021616707 
2292	 0.105062115900201 
2293	 0.105079016079175 
2294	 0.105098885952547 
2295	 0.105102461473523 
2296	 0.105104474900226 
2297	 0.105116512845592 
2298	 0.105140149725007 
2299	 0.105162495097458 
2300	 0.105208319005591 
2301	 0.105287034328275 
2302	 0.105303487522197 
2303	 0.105301076972724 
2304	 0.105324094064858 
2305	 0.105302631649883 
2306	 0.105291420918715 
2307	 0.105298253221004 
2308	 0.105279060693666 
2309	 0.105200881088923 
2310	 0.105208661014887 
2311	 0.105256447797263 
2312	 0.105272429021947 
2313	 0.105337043933375 
2314	 0.105361133148393 
2315	 0.105349503071959 
2316	 0.105327845953288 
2317	 0.105279890604381 
2318	 0.105267069040938 
2319	 0.105242159951324 
2320	 0.105228051734173 
2321	 0.105256984774217 
2322	 0.105260382116702 
2323	 0.105248436687885 
2324	 0.105245745221241 
2325	 0.105227994338711 
2326	 0.105237593617851 
2327	 0.105274108640069 
2328	 0.105280071155434 
2329	 0.105302945229325 
2330	 0.105354290270291 
2331	 0.105376544473529 
2332	 0.105406887884007 
2333	 0.105496992433731 
2334	 0.105581723874727 
2335	 0.105605365384247 
2336	 0.105629899357782 
2337	 0.105603431856688 
2338	 0.105546090277507 
2339	 0.105537369521225 
2340	 0.105503495755233 
2341	 0.105505635955561 
2342	 0.105568517328738 
2343	 0.105634434779972 
2344	 0.105732648893821 
2345	 0.105758542085809 
2346	 0.10572006467508 
2347	 0.105702118218832 
2348	 0.105661497856501 
2349	 0.105629126255631 
2350	 0.105606324108975 
2351	 0.10559398218714 
2352	 0.105581218755581 
2353	 0.105528847252581 
2354	 0.105461489396786 
2355	 0.105423570354191 
2356	 0.105358986526679 
2357	 0.105333902232742 
2358	 0.105358914876828 
2359	 0.105359505108292 
2360	 0.105362226126459 
2361	 0.105358237497885 
2362	 0.105364066799885 
2363	 0.105357442047151 
2364	 0.105315701209746 
2365	 0.105283714198851 
2366	 0.105257177465862 
2367	 0.105237679820078 
2368	 0.105229707947956 
2369	 0.10523241785732 
2370	 0.105242818175832 
2371	 0.105249253993759 
2372	 0.105266060179275 
2373	 0.105257572292588 
2374	 0.105295797628454 
2375	 0.105284061469992 
2376	 0.105231943243877 
2377	 0.105228287384051 
2378	 0.105225606295776 
2379	 0.105214494444443 
2380	 0.105165460411944 
2381	 0.105113287681915 
2382	 0.104998237097688 
2383	 0.104818989638141 
2384	 0.104790049130588 
2385	 0.10475565816344 
2386	 0.104652832132851 
2387	 0.104672353366563 
2388	 0.104650807285528 
2389	 0.104584065402757 
2390	 0.10469053017355 
2391	 0.104784100312523 
2392	 0.104822267484609 
2393	 0.104874451108055 
2394	 0.104783653894947 
2395	 0.104651276514096 
2396	 0.10451981370934 
2397	 0.104441209227214 
2398	 0.104466324063997 
2399	 0.104417881313927 
2400	 0.104389225302282 
2401	 0.104357838384828 
2402	 0.104284624599827 
2403	 0.104307315929036 
2404	 0.104326776690209 
2405	 0.104314590212558 
2406	 0.104255009088625 
2407	 0.104116260153891 
2408	 0.103965438383443 
2409	 0.103841080314701 
2410	 0.10380387788799 
2411	 0.103780819011416 
2412	 0.1037922666382 
2413	 0.10392711605865 
2414	 0.103978613134903 
2415	 0.104016117856389 
2416	 0.104052878174056 
2417	 0.104036862643254 
2418	 0.104040237509893 
2419	 0.104077416686443 
2420	 0.104095754163356 
2421	 0.10413741568881 
2422	 0.104140859654679 
2423	 0.104100348320762 
2424	 0.104065034664802 
2425	 0.104004360904154 
2426	 0.103926801190006 
2427	 0.103891102139551 
2428	 0.103754456352979 
2429	 0.103506502715401 
2430	 0.103394521367162 
2431	 0.103221486422879 
2432	 0.103160653813984 
2433	 0.103268233253504 
2434	 0.103274098782594 
2435	 0.103300132253586 
2436	 0.103314107335716 
2437	 0.103317715239239 
2438	 0.103314323140119 
2439	 0.103301490781107 
2440	 0.103245203404059 
2441	 0.103159205047466 
2442	 0.103025358865784 
2443	 0.102827466709327 
2444	 0.102702104862298 
2445	 0.102547587625842 
2446	 0.102447666523853 
2447	 0.102399200999992 
2448	 0.102413536242698 
2449	 0.102541454690562 
2450	 0.102569192703965 
2451	 0.102591785312074 
2452	 0.102562686156203 
2453	 0.102411093291439 
2454	 0.102307955779021 
2455	 0.10224252424308 
2456	 0.102181337774736 
2457	 0.102132844403545 
2458	 0.10206516636983 
2459	 0.101997400889319 
2460	 0.101945190265943 
2461	 0.101878382910129 
2462	 0.101816304815455 
2463	 0.101792224307688 
2464	 0.101695922765235 
2465	 0.101554130748753 
2466	 0.101428565197956 
2467	 0.101201468149772 
2468	 0.101140924188397 
2469	 0.10120957341968 
2470	 0.101218977701922 
2471	 0.101274132621272 
2472	 0.101388508595751 
2473	 0.101465237397873 
2474	 0.101527359649228 
2475	 0.101675627293344 
2476	 0.101716114351687 
2477	 0.101539352045921 
2478	 0.101481015229737 
2479	 0.101487966926757 
2480	 0.101384399389114 
2481	 0.101309139808853 
2482	 0.101251608653158 
2483	 0.101038830313619 
2484	 0.10090150942538 
2485	 0.101030105124828 
2486	 0.100958509339489 
2487	 0.100842756202033 
2488	 0.100834401903422 
2489	 0.100628597539869 
2490	 0.100671162128739 
2491	 0.100980372371894 
2492	 0.101027036635552 
2493	 0.10092998239081 
2494	 0.100799054968261 
2495	 0.100477530753499 
2496	 0.100481868596208 
2497	 0.100886425923187 
2498	 0.100921324673098 
2499	 0.100800904938429 
2500	 0.100593846654045 
