Wavelength	mm2800016.asd
350	 5.27562829501152E-02 
351	 5.43321750193318E-02 
352	 5.14367456585186E-02 
353	 4.57570495040399E-02 
354	 5.45701461577772E-02 
355	 5.57807446346256E-02 
356	 5.05674279472957E-02 
357	 0.047388081134264 
358	 0.057816197799553 
359	 5.80305124463689E-02 
360	 5.16265765411839E-02 
361	 5.78584217681857E-02 
362	 5.74712709636163E-02 
363	 5.78381791428651E-02 
364	 6.14472163676247E-02 
365	 5.82467097298811E-02 
366	 5.47367051508934E-02 
367	 5.39648935781621E-02 
368	 5.66837156396912E-02 
369	 6.01125811040739E-02 
370	 0.059069203757789 
371	 5.45416351461689E-02 
372	 5.19225897409469E-02 
373	 5.45300674588334E-02 
374	 5.77934712836643E-02 
375	 5.86756746831642E-02 
376	 5.84885458375451E-02 
377	 5.84311245805469E-02 
378	 5.93344342209473E-02 
379	 6.11525140411392E-02 
380	 6.14596034101447E-02 
381	 5.98054825563366E-02 
382	 5.86826106163923E-02 
383	 6.20111590430924E-02 
384	 6.49745601697693E-02 
385	 6.30981245156258E-02 
386	 5.76649448145277E-02 
387	 6.06515909565099E-02 
388	 6.18172020053455E-02 
389	 6.15265573522303E-02 
390	 6.27137618225579E-02 
391	 6.40987350594282E-02 
392	 6.26490561071352E-02 
393	 6.07051314347332E-02 
394	 6.43757065976523E-02 
395	 0.064653049051394 
396	 6.40736288169887E-02 
397	 6.48943582601841E-02 
398	 6.44097908555542E-02 
399	 6.53885730323069E-02 
400	 6.67707123477892E-02 
401	 6.66403474238145E-02 
402	 6.66854399864214E-02 
403	 6.69273272370244E-02 
404	 6.69374441359855E-02 
405	 6.60335791971488E-02 
406	 6.67978529832405E-02 
407	 6.75775503436575E-02 
408	 6.71271897951782E-02 
409	 6.74633989381699E-02 
410	 6.72309881233946E-02 
411	 6.66462903088885E-02 
412	 0.066722065658841 
413	 6.87120525479892E-02 
414	 6.97803215399358E-02 
415	 6.93946318377858E-02 
416	 7.03618338377174E-02 
417	 6.98688774553461E-02 
418	 0.069416530848488 
419	 7.04394835634612E-02 
420	 7.06216347427275E-02 
421	 7.08074806943411E-02 
422	 7.10085853196063E-02 
423	 7.07501833608971E-02 
424	 7.06938010146781E-02 
425	 7.07498288261231E-02 
426	 7.07977573275344E-02 
427	 7.08275867803857E-02 
428	 7.11733432968065E-02 
429	 7.13858763408506E-02 
430	 7.11104154781025E-02 
431	 7.18346940904344E-02 
432	 7.21302788073703E-02 
433	 7.18491751142886E-02 
434	 7.21495259858566E-02 
435	 7.27068675996159E-02 
436	 0.072703051831584 
437	 7.19492155974972E-02 
438	 7.21060367732842E-02 
439	 0.072400422882059 
440	 7.26026159297413E-02 
441	 7.27732904042421E-02 
442	 7.30845495860485E-02 
443	 0.073472840224023 
444	 7.37620352391324E-02 
445	 7.36260787164656E-02 
446	 7.37770986637506E-02 
447	 7.39684396029201E-02 
448	 7.38702804676527E-02 
449	 7.40423940569716E-02 
450	 7.44074674887027E-02 
451	 7.47024971121135E-02 
452	 7.45841408956361E-02 
453	 7.48463087403034E-02 
454	 7.51767792400864E-02 
455	 7.52874452311645E-02 
456	 7.54396627331103E-02 
457	 7.55923923592789E-02 
458	 7.56692487916622E-02 
459	 7.56281722604819E-02 
460	 7.58395127961855E-02 
461	 0.076046685257285 
462	 7.61346207533681E-02 
463	 7.62643570975229E-02 
464	 7.63903970753121E-02 
465	 7.66256684696934E-02 
466	 7.70115408984939E-02 
467	 7.71656475628722E-02 
468	 7.72932233979662E-02 
469	 7.73589115929002E-02 
470	 7.71768244811015E-02 
471	 7.75731713701705E-02 
472	 7.79660718508762E-02 
473	 7.79486071169937E-02 
474	 7.80710239976525E-02 
475	 7.83651585028384E-02 
476	 7.85697342064279E-02 
477	 7.84129385149449E-02 
478	 0.078654052769856 
479	 7.89701328518714E-02 
480	 7.91705153178621E-02 
481	 7.93820821440738E-02 
482	 7.96493536008405E-02 
483	 7.98812279607963E-02 
484	 7.99834580873041E-02 
485	 0.079998309766691 
486	 8.01329925820281E-02 
487	 8.03340287583095E-02 
488	 8.03533792352766E-02 
489	 8.05254897570094E-02 
490	 8.07469832488938E-02 
491	 8.09201021575974E-02 
492	 8.11817358628309E-02 
493	 8.12123534340884E-02 
494	 8.11822228287877E-02 
495	 8.14333506491754E-02 
496	 0.08168367078481 
497	 8.17896274693194E-02 
498	 0.081824855115912 
499	 8.21683641875791E-02 
500	 8.23271079392204E-02 
501	 8.23332429281127E-02 
502	 8.23796791786803E-02 
503	 8.26405591865727E-02 
504	 8.27271701154375E-02 
505	 8.26578698885195E-02 
506	 8.28173299382175E-02 
507	 8.29187628446431E-02 
508	 8.30297196116143E-02 
509	 8.32105740520587E-02 
510	 8.33480177405451E-02 
511	 8.32792570029437E-02 
512	 8.31759985736945E-02 
513	 8.33427849394482E-02 
514	 8.34953742027527E-02 
515	 8.36080136529392E-02 
516	 8.37060708858776E-02 
517	 8.38473732592292E-02 
518	 0.084025320816931 
519	 8.41335267027484E-02 
520	 8.41087261435116E-02 
521	 8.42856706828085E-02 
522	 0.084425177788802 
523	 8.44744990043758E-02 
524	 0.084604816288681 
525	 8.46385263179668E-02 
526	 8.46622340001087E-02 
527	 8.47614126139233E-02 
528	 8.48336144253446E-02 
529	 0.084880763780653 
530	 8.49239269607613E-02 
531	 8.49922708994462E-02 
532	 8.50334111127907E-02 
533	 8.51293240938248E-02 
534	 8.52906553316504E-02 
535	 8.53394408834061E-02 
536	 8.53906953428423E-02 
537	 8.54804698524237E-02 
538	 8.56031585856986E-02 
539	 8.56837505061113E-02 
540	 0.085745968250161 
541	 8.58268830107985E-02 
542	 8.59717530245666E-02 
543	 8.60365789147887E-02 
544	 8.60733866574311E-02 
545	 8.61673851294507E-02 
546	 8.63140597689373E-02 
547	 8.63663055363267E-02 
548	 0.08635237149533 
549	 8.64412928265547E-02 
550	 8.64737486378403E-02 
551	 8.65275185932227E-02 
552	 8.66633984323935E-02 
553	 0.086812432001157 
554	 8.67776402110792E-02 
555	 0.086711353040179 
556	 8.69023729776047E-02 
557	 8.70142483925268E-02 
558	 0.08708599232642 
559	 8.71735049872137E-02 
560	 8.72894990824843E-02 
561	 8.73567291119775E-02 
562	 8.74023373740145E-02 
563	 8.74813378812308E-02 
564	 8.75850162666496E-02 
565	 8.76316514289752E-02 
566	 8.76152407458948E-02 
567	 8.76178418646252E-02 
568	 8.76757219618959E-02 
569	 8.77662377873658E-02 
570	 8.78605117946949E-02 
571	 8.79763199026027E-02 
572	 8.80749214545814E-02 
573	 8.81285452329745E-02 
574	 8.81301569760111E-02 
575	 0.088209381201763 
576	 8.83602035754086E-02 
577	 8.85070039844076E-02 
578	 8.84599821057333E-02 
579	 8.84419930515937E-02 
580	 0.088430355454064 
581	 8.83310909940777E-02 
582	 8.83303686581457E-02 
583	 8.83738579649879E-02 
584	 8.84340213305521E-02 
585	 8.85521986563924E-02 
586	 8.87385266683016E-02 
587	 8.89229435830076E-02 
588	 8.90437456041242E-02 
589	 8.91863916939206E-02 
590	 8.93244390203639E-02 
591	 8.94651607286902E-02 
592	 8.96416428256901E-02 
593	 8.96845813577397E-02 
594	 8.96369816811314E-02 
595	 8.95595441226341E-02 
596	 8.94238106652363E-02 
597	 8.93173520317348E-02 
598	 8.92455114172622E-02 
599	 8.91771400431416E-02 
600	 8.92013683628753E-02 
601	 8.92983934375179E-02 
602	 8.94136387904065E-02 
603	 8.94509412279381E-02 
604	 8.95093689119966E-02 
605	 0.089604632020586 
606	 8.97238925076026E-02 
607	 8.98721740147453E-02 
608	 9.00075980534806E-02 
609	 9.01292832185029E-02 
610	 9.02840362947268E-02 
611	 9.03394027821146E-02 
612	 9.03515914196944E-02 
613	 9.03911744811518E-02 
614	 9.04075739107398E-02 
615	 9.04185816371846E-02 
616	 0.090450177110767 
617	 9.05244277543616E-02 
618	 9.05435119290392E-02 
619	 9.05743405056413E-02 
620	 9.06497054467559E-02 
621	 9.06674945837138E-02 
622	 9.07410599431882E-02 
623	 9.08340935974695E-02 
624	 9.08651590859497E-02 
625	 9.08843742375435E-02 
626	 9.09369862683237E-02 
627	 9.10152667526565E-02 
628	 9.10431582326804E-02 
629	 9.10759680200561E-02 
630	 0.091139491062739 
631	 9.12288450965632E-02 
632	 9.12571755789619E-02 
633	 0.09125210309504 
634	 9.12684749886541E-02 
635	 9.13699460803954E-02 
636	 9.14225681072196E-02 
637	 0.091474077837651 
638	 9.15512245065065E-02 
639	 9.15403155316569E-02 
640	 9.15744306039791E-02 
641	 9.16434452908777E-02 
642	 9.16803542415246E-02 
643	 9.17396968402996E-02 
644	 9.17989041368188E-02 
645	 9.18525406491678E-02 
646	 9.19305748771987E-02 
647	 0.09199182774395 
648	 9.20321177747051E-02 
649	 9.20628017952519E-02 
650	 9.21048040834707E-02 
651	 0.092166571170224 
652	 9.22358741174682E-02 
653	 0.092284840208437 
654	 9.23277714114236E-02 
655	 9.23739926233562E-02 
656	 9.24299729553951E-02 
657	 9.25024038047943E-02 
658	 9.25343294848817E-02 
659	 0.092555653759234 
660	 9.26258154324655E-02 
661	 9.26713689926347E-02 
662	 9.27352802660694E-02 
663	 9.28133331198276E-02 
664	 9.28152024659714E-02 
665	 9.28925782781091E-02 
666	 9.29835506728749E-02 
667	 9.30098172060408E-02 
668	 0.093100750433753 
669	 9.31662409494998E-02 
670	 9.32165017755023E-02 
671	 9.33364509017103E-02 
672	 9.33389585473769E-02 
673	 9.33471394326515E-02 
674	 9.34442520957631E-02 
675	 9.34944444225455E-02 
676	 9.35162720324419E-02 
677	 9.35395702070823E-02 
678	 9.35945844952544E-02 
679	 9.36407838916868E-02 
680	 9.37170712204871E-02 
681	 9.38086272354705E-02 
682	 9.38230197417654E-02 
683	 9.39133516171531E-02 
684	 9.40117896079159E-02 
685	 9.40323331986284E-02 
686	 9.40363906983626E-02 
687	 9.40858530021654E-02 
688	 9.41693013677297E-02 
689	 9.42247981734582E-02 
690	 9.42716074390181E-02 
691	 9.43232863638725E-02 
692	 9.43803774698253E-02 
693	 9.44160310557714E-02 
694	 0.094467175799909 
695	 9.45290806382704E-02 
696	 0.094580745854893 
697	 9.46054851741472E-02 
698	 9.46206389960282E-02 
699	 9.46460410050229E-02 
700	 9.46999637647134E-02 
701	 9.47575251803394E-02 
702	 9.48198714897968E-02 
703	 9.48807603307493E-02 
704	 9.48942305793343E-02 
705	 9.49095708607806E-02 
706	 9.49559438160383E-02 
707	 9.50372907590964E-02 
708	 9.50533081794405E-02 
709	 0.095092032970271 
710	 9.51678253601107E-02 
711	 9.51599656775638E-02 
712	 9.51665256318986E-02 
713	 9.51984470324812E-02 
714	 0.095237837887142 
715	 9.52536881428639E-02 
716	 0.095279320223361 
717	 9.53206966395258E-02 
718	 9.53632281646005E-02 
719	 9.54206953091133E-02 
720	 9.54418193565136E-02 
721	 9.54169711427281E-02 
722	 9.54301491730192E-02 
723	 9.54674405661842E-02 
724	 9.55054528168778E-02 
725	 9.55224437408877E-02 
726	 9.55387897540808E-02 
727	 0.095533604487963 
728	 9.55308440531154E-02 
729	 9.55892414761683E-02 
730	 9.55878560909457E-02 
731	 9.55807507131385E-02 
732	 9.56107401676748E-02 
733	 9.56128908809478E-02 
734	 9.56382150193698E-02 
735	 9.56475406479223E-02 
736	 9.55941445749608E-02 
737	 9.56214749757445E-02 
738	 9.56398216931169E-02 
739	 9.56329352218055E-02 
740	 0.095679402106388 
741	 9.56716207211422E-02 
742	 0.095645334661368 
743	 9.56487055443029E-02 
744	 9.56824280933869E-02 
745	 9.56803268273185E-02 
746	 9.56562651315601E-02 
747	 9.56587693357715E-02 
748	 9.56755168313374E-02 
749	 9.56540481789803E-02 
750	 9.56134773400587E-02 
751	 9.56595908893634E-02 
752	 9.56722356386576E-02 
753	 9.56584129792722E-02 
754	 9.56458745710567E-02 
755	 9.56292330397142E-02 
756	 9.56215190205591E-02 
757	 9.56200867229546E-02 
758	 9.56155110351482E-02 
759	 9.56169793396841E-02 
760	 9.56163362250274E-02 
761	 9.56059224497746E-02 
762	 9.55812959043165E-02 
763	 9.55959670813129E-02 
764	 9.56116371851927E-02 
765	 9.55960998739085E-02 
766	 0.095603825188287 
767	 9.56052816479756E-02 
768	 9.55948324094398E-02 
769	 9.55826397875376E-02 
770	 9.56004797693113E-02 
771	 9.55990974500407E-02 
772	 9.55608260312439E-02 
773	 9.55153681484648E-02 
774	 9.55196949299197E-02 
775	 9.55235336814349E-02 
776	 9.54891705972662E-02 
777	 9.54838600687381E-02 
778	 9.54898181026239E-02 
779	 9.54897254217019E-02 
780	 9.54713041848148E-02 
781	 9.54563850606812E-02 
782	 0.09547000585733 
783	 9.54840966434263E-02 
784	 9.54221376577016E-02 
785	 0.095400134994411 
786	 9.54044292666291E-02 
787	 9.54011392642015E-02 
788	 9.53673667378486E-02 
789	 9.53805679905833E-02 
790	 9.53953383301685E-02 
791	 9.53466017181564E-02 
792	 9.53331672680562E-02 
793	 9.53192182764199E-02 
794	 9.53080755407062E-02 
795	 9.53331074605837E-02 
796	 9.52826847831932E-02 
797	 9.52507747385988E-02 
798	 0.095282612687289 
799	 9.52758941466647E-02 
800	 0.095260513210669 
801	 9.52468994688517E-02 
802	 9.52384063623425E-02 
803	 9.52267663459346E-02 
804	 9.52148497205926E-02 
805	 9.51909444873327E-02 
806	 9.51459278140295E-02 
807	 9.51712592107331E-02 
808	 9.51821602875466E-02 
809	 9.51457735908394E-02 
810	 9.51220486823187E-02 
811	 9.51226411601896E-02 
812	 0.095114424978246 
813	 9.50811987708861E-02 
814	 0.09508347032266 
815	 9.50921145107223E-02 
816	 9.50746466540216E-02 
817	 9.50206650061776E-02 
818	 9.50413175757704E-02 
819	 9.50709327453203E-02 
820	 9.50629481456514E-02 
821	 9.50049537250829E-02 
822	 9.49638814881903E-02 
823	 9.49472030430629E-02 
824	 9.49476839899682E-02 
825	 9.49513932380693E-02 
826	 9.49665942807978E-02 
827	 9.49611030051602E-02 
828	 9.49208931110523E-02 
829	 9.49229011599813E-02 
830	 9.49073607894467E-02 
831	 9.48868218001197E-02 
832	 9.49019227428836E-02 
833	 9.49336498877476E-02 
834	 9.49418403254408E-02 
835	 9.49223589580704E-02 
836	 9.49065793469539E-02 
837	 9.48965626542008E-02 
838	 9.49050103154877E-02 
839	 9.49181762302158E-02 
840	 9.48775519897141E-02 
841	 9.48319088071462E-02 
842	 9.48099697042812E-02 
843	 9.48231399546754E-02 
844	 9.48498418685578E-02 
845	 9.48964079597107E-02 
846	 9.49047913564406E-02 
847	 9.48313376645018E-02 
848	 9.48770442748964E-02 
849	 9.49121095333301E-02 
850	 9.49011632347577E-02 
851	 9.49021300112026E-02 
852	 9.48545836934837E-02 
853	 9.48637685401392E-02 
854	 9.49324700501318E-02 
855	 9.48898941557498E-02 
856	 0.09490582794486 
857	 9.49270641425249E-02 
858	 9.48992867743071E-02 
859	 9.49004114011213E-02 
860	 9.49095115536036E-02 
861	 9.49015677426414E-02 
862	 9.48656555308605E-02 
863	 9.48612154741416E-02 
864	 9.48543158146579E-02 
865	 0.094856682190681 
866	 9.48940036125487E-02 
867	 9.48737997730731E-02 
868	 9.48496615929936E-02 
869	 0.094846237866296 
870	 9.48455955607652E-02 
871	 9.48660364104955E-02 
872	 9.48973033450004E-02 
873	 0.094928476745472 
874	 9.49562753868736E-02 
875	 9.49220942894676E-02 
876	 9.48803884481361E-02 
877	 0.094885156153539 
878	 9.49086807417037E-02 
879	 9.49727663823869E-02 
880	 9.50187723362083E-02 
881	 9.49940326099011E-02 
882	 9.49804122859205E-02 
883	 9.50177617920195E-02 
884	 0.095060709644218 
885	 9.50465827742708E-02 
886	 9.51266922010056E-02 
887	 9.51839218340698E-02 
888	 9.51633055191331E-02 
889	 9.50989906140751E-02 
890	 9.51546161154842E-02 
891	 9.52132338918282E-02 
892	 9.52166416847523E-02 
893	 9.52287504836218E-02 
894	 9.52566005256027E-02 
895	 0.095269984996536 
896	 9.52612712352237E-02 
897	 9.52760373677962E-02 
898	 9.53484115195567E-02 
899	 9.54035979235308E-02 
900	 0.095392366030509 
901	 9.54091371426895E-02 
902	 9.54586921866802E-02 
903	 0.095492514144936 
904	 9.54768999135474E-02 
905	 9.55110967374233E-02 
906	 9.55580645870412E-02 
907	 9.55981404736137E-02 
908	 9.56291886379167E-02 
909	 9.56918652123563E-02 
910	 9.57168775301643E-02 
911	 9.57133591590513E-02 
912	 9.57381625616817E-02 
913	 9.57616131782252E-02 
914	 9.57956444529166E-02 
915	 9.58337158495556E-02 
916	 9.58564702534433E-02 
917	 9.59068176044101E-02 
918	 9.59651445066324E-02 
919	 9.59981332367856E-02 
920	 9.59788237379988E-02 
921	 9.60419798580201E-02 
922	 9.61573983687389E-02 
923	 9.62360008485803E-02 
924	 0.096165614278265 
925	 9.61804694827215E-02 
926	 9.62637125618962E-02 
927	 9.63456793261501E-02 
928	 9.63717870983777E-02 
929	 9.64156763685942E-02 
930	 9.64780845187873E-02 
931	 9.65404209583902E-02 
932	 9.65893345293671E-02 
933	 0.0965798011344 
934	 9.66069209025348E-02 
935	 9.67271631375034E-02 
936	 9.67739798880465E-02 
937	 9.67582219025626E-02 
938	 9.67686773260436E-02 
939	 9.68786869946749E-02 
940	 9.70165169426153E-02 
941	 9.70647699643494E-02 
942	 9.70856371969887E-02 
943	 9.71745368279304E-02 
944	 9.72358682265398E-02 
945	 9.72907595419532E-02 
946	 9.73363730046172E-02 
947	 9.73657507396158E-02 
948	 9.74003193963726E-02 
949	 9.74421642894145E-02 
950	 9.74904808269659E-02 
951	 9.75407187274836E-02 
952	 9.75724544295072E-02 
953	 9.76805567454767E-02 
954	 9.77840551828159E-02 
955	 9.77666751651896E-02 
956	 9.78930580958826E-02 
957	 9.80008807425606E-02 
958	 9.80221639046206E-02 
959	 9.79961270143522E-02 
960	 9.80954157493271E-02 
961	 9.81745500384409E-02 
962	 9.82341829997281E-02 
963	 9.83467097020046E-02 
964	 9.83212857739266E-02 
965	 9.83755899298872E-02 
966	 9.85221548848983E-02 
967	 9.86142077848432E-02 
968	 9.85777837665797E-02 
969	 0.098596973218516 
970	 9.86493581397309E-02 
971	 9.85979739753472E-02 
972	 0.098603488241118 
973	 9.86447530496357E-02 
974	 9.87159339790583E-02 
975	 9.88262652126051E-02 
976	 9.89814278640847E-02 
977	 9.90568212969275E-02 
978	 9.90582486492779E-02 
979	 0.099076176898563 
980	 9.91059331042279E-02 
981	 0.09913705039295 
982	 9.91532035771038E-02 
983	 9.91636360121761E-02 
984	 0.099327156081595 
985	 9.93849376083256E-02 
986	 9.93150897709847E-02 
987	 9.92666797365957E-02 
988	 9.93920503307777E-02 
989	 9.94663572477543E-02 
990	 0.099454057387936 
991	 9.94696832347993E-02 
992	 9.97509509028077E-02 
993	 9.98003630643648E-02 
994	 9.97736576556755E-02 
995	 9.99641365487441E-02 
996	 9.98640459165323E-02 
997	 0.099743142333596 
998	 9.97937684312913E-02 
999	 0.10002680040966 
1000	 0.100012546142655 
1001	 0.09856488852689 
1002	 9.85644877641305E-02 
1003	 9.85987060205182E-02 
1004	 9.85994191654328E-02 
1005	 9.85999241750997E-02 
1006	 9.86303373178609E-02 
1007	 9.86600933322088E-02 
1008	 9.86419048204817E-02 
1009	 9.86904564622854E-02 
1010	 9.87720233581055E-02 
1011	 9.87502709028707E-02 
1012	 9.87294295738575E-02 
1013	 9.87599900621873E-02 
1014	 9.87834863967745E-02 
1015	 9.88310343311111E-02 
1016	 9.88905627030235E-02 
1017	 9.89041124042798E-02 
1018	 9.88944569427062E-02 
1019	 9.88552892407539E-02 
1020	 9.88315425199023E-02 
1021	 9.88278783937839E-02 
1022	 9.88546907444515E-02 
1023	 9.88848371268216E-02 
1024	 9.88540572567878E-02 
1025	 0.098849209012764 
1026	 9.88698630113654E-02 
1027	 9.88647929944488E-02 
1028	 9.89271782633047E-02 
1029	 9.89259398661658E-02 
1030	 9.88557500802701E-02 
1031	 0.098829232055698 
1032	 9.88094026488261E-02 
1033	 9.87498439365979E-02 
1034	 9.87850275166021E-02 
1035	 0.098878032293471 
1036	 9.88662132688156E-02 
1037	 9.88799545798108E-02 
1038	 9.88975607565237E-02 
1039	 9.88427660314274E-02 
1040	 9.88692175088348E-02 
1041	 9.89730985988926E-02 
1042	 9.89794818297892E-02 
1043	 9.89236056388627E-02 
1044	 9.89211214159639E-02 
1045	 9.89280260521197E-02 
1046	 9.89059686154551E-02 
1047	 9.88919681850321E-02 
1048	 9.89650811465332E-02 
1049	 9.89851392976506E-02 
1050	 9.89340650959434E-02 
1051	 9.90064195252848E-02 
1052	 9.90858353987666E-02 
1053	 9.91069640673813E-02 
1054	 9.91767323304496E-02 
1055	 9.92025625936028E-02 
1056	 9.92051282063367E-02 
1057	 9.92478800622683E-02 
1058	 9.93540408121792E-02 
1059	 0.09941347185371 
1060	 9.94580068934962E-02 
1061	 9.95041496871543E-02 
1062	 9.95835358994408E-02 
1063	 9.96655713815352E-02 
1064	 0.099708637180282 
1065	 9.97595047703049E-02 
1066	 9.98090191550899E-02 
1067	 9.98254573488464E-02 
1068	 9.98822429648453E-02 
1069	 9.99205451999939E-02 
1070	 9.99407648154149E-02 
1071	 0.099901881624908 
1072	 9.99306162599767E-02 
1073	 9.99949478464673E-02 
1074	 0.10004948114904 
1075	 0.100139042521887 
1076	 0.100202189349433 
1077	 0.100197626999661 
1078	 0.100175323329742 
1079	 0.100142036332618 
1080	 0.100078232280518 
1081	 0.100094832103779 
1082	 0.100118689379003 
1083	 0.100134298809695 
1084	 0.100190581803067 
1085	 0.100206721145556 
1086	 0.100180597020339 
1087	 0.100185734319239 
1088	 0.100207205543274 
1089	 0.100190368869824 
1090	 0.100177990790512 
1091	 0.100199790140327 
1092	 0.100193782371618 
1093	 0.100193194193039 
1094	 0.100189842623447 
1095	 0.100150543715394 
1096	 0.100140699463988 
1097	 0.10013275064507 
1098	 0.100125834743544 
1099	 0.100146890241586 
1100	 0.100150450718247 
1101	 0.100136692705983 
1102	 0.100127345478816 
1103	 0.100117596861709 
1104	 0.100116931914057 
1105	 0.100107190868999 
1106	 0.100096425300127 
1107	 0.100097870236173 
1108	 0.100079723603011 
1109	 0.100074624037001 
1110	 0.100078448584653 
1111	 0.100053185569483 
1112	 0.100004673674111 
1113	 9.99838610821593E-02 
1114	 9.99412589148921E-02 
1115	 9.99343489434957E-02 
1116	 9.99894983845543E-02 
1117	 9.99907484826523E-02 
1118	 9.99728608350869E-02 
1119	 0.099956614808264 
1120	 9.99248324380741E-02 
1121	 9.99275972611646E-02 
1122	 0.099974482220814 
1123	 9.99987505216717E-02 
1124	 0.100014476352943 
1125	 0.100034125090896 
1126	 0.100029194008688 
1127	 0.100001979273811 
1128	 9.99878512478624E-02 
1129	 9.99524201011043E-02 
1130	 9.99411540365332E-02 
1131	 9.99418527885634E-02 
1132	 9.99463035341814E-02 
1133	 9.99768177442336E-02 
1134	 0.099990590499779 
1135	 0.100002784940364 
1136	 0.100005386009705 
1137	 0.100008940807659 
1138	 9.99905420939364E-02 
1139	 9.99794589482255E-02 
1140	 9.99661166693007E-02 
1141	 9.99569959231352E-02 
1142	 9.99350072048301E-02 
1143	 9.99368878319661E-02 
1144	 9.99632131437432E-02 
1145	 9.99738143205794E-02 
1146	 9.99981839886785E-02 
1147	 0.100004067959955 
1148	 0.09998340169316 
1149	 9.99731887112921E-02 
1150	 9.99616892921031E-02 
1151	 9.99518129053254E-02 
1152	 9.99500426559225E-02 
1153	 9.99430995103172E-02 
1154	 9.99387238806084E-02 
1155	 9.99300812794143E-02 
1156	 0.099934461803823 
1157	 9.99509310344971E-02 
1158	 9.99545314701241E-02 
1159	 9.99608868233025E-02 
1160	 9.99629520336464E-02 
1161	 9.99560481253618E-02 
1162	 9.99488411239154E-02 
1163	 9.99421134656788E-02 
1164	 9.99342435971386E-02 
1165	 9.99185511882359E-02 
1166	 9.99136708992638E-02 
1167	 9.98892089631556E-02 
1168	 9.98620498461687E-02 
1169	 9.98533185458048E-02 
1170	 9.98367493499775E-02 
1171	 9.98415626786832E-02 
1172	 9.98828805740909E-02 
1173	 9.98918530967088E-02 
1174	 9.98877011443813E-02 
1175	 9.98957835038344E-02 
1176	 9.99021610001426E-02 
1177	 9.99059186903086E-02 
1178	 9.99170077818829E-02 
1179	 9.99233242695509E-02 
1180	 9.99152983376139E-02 
1181	 9.99184203872725E-02 
1182	 9.99265905885343E-02 
1183	 9.99362111506724E-02 
1184	 9.99588370780874E-02 
1185	 9.99953036177252E-02 
1186	 0.100016515627536 
1187	 0.100048287837737 
1188	 0.100059804130517 
1189	 0.100039258563693 
1190	 0.100054369265589 
1191	 0.100086489819216 
1192	 0.100103865094198 
1193	 0.100135664611518 
1194	 0.100155142125268 
1195	 0.100146316880085 
1196	 0.100157367716317 
1197	 0.100175019276772 
1198	 0.100199459875244 
1199	 0.100230650696412 
1200	 0.100273331503608 
1201	 0.100306614486539 
1202	 0.100350074562745 
1203	 0.100373429928741 
1204	 0.100377664269837 
1205	 0.100399580822216 
1206	 0.10042767163211 
1207	 0.100440735199872 
1208	 0.100450699040441 
1209	 0.100466820102315 
1210	 0.100466659597975 
1211	 0.100480235130036 
1212	 0.100513446377096 
1213	 0.100540344402276 
1214	 0.100563393048832 
1215	 0.100590037272535 
1216	 0.100618759346353 
1217	 0.100656272153701 
1218	 0.100675386578113 
1219	 0.100681610949464 
1220	 0.100706067812702 
1221	 0.100729663370496 
1222	 0.100753264078563 
1223	 0.100795185483681 
1224	 0.100820663204123 
1225	 0.10083665209805 
1226	 0.100845442998355 
1227	 0.100830721098143 
1228	 0.100846079848192 
1229	 0.100862378585145 
1230	 0.100891121157632 
1231	 0.100972384763544 
1232	 0.10101511192921 
1233	 0.101043485218217 
1234	 0.101056236114327 
1235	 0.101073166452604 
1236	 0.101064085257927 
1237	 0.101081942746289 
1238	 0.101122139925336 
1239	 0.101139322300127 
1240	 0.101142195033065 
1241	 0.101166425073488 
1242	 0.101194208985611 
1243	 0.101219526346053 
1244	 0.101270498100005 
1245	 0.101297334485978 
1246	 0.101289609669492 
1247	 0.101307245374888 
1248	 0.101334611184012 
1249	 0.101358023174389 
1250	 0.101393816772861 
1251	 0.10143217333243 
1252	 0.101445543060556 
1253	 0.101430479743495 
1254	 0.101446863414036 
1255	 0.10146901589072 
1256	 0.101480026870683 
1257	 0.101508606309836 
1258	 0.101517882247229 
1259	 0.101496511333959 
1260	 0.101496334377227 
1261	 0.101508273213426 
1262	 0.101508934968154 
1263	 0.101496987421011 
1264	 0.101506044849241 
1265	 0.101524031620967 
1266	 0.101539863943839 
1267	 0.101586187136714 
1268	 0.101604701859223 
1269	 0.101612744150309 
1270	 0.101593347453689 
1271	 0.101613257101555 
1272	 0.101636034757905 
1273	 0.101664840732273 
1274	 0.101712137120945 
1275	 0.101761315585422 
1276	 0.101807997541477 
1277	 0.101865067277323 
1278	 0.101944043482401 
1279	 0.102015238222717 
1280	 0.102090342597832 
1281	 0.102154438945666 
1282	 0.102207700377441 
1283	 0.102271018669061 
1284	 0.102331719078871 
1285	 0.102387114626285 
1286	 0.102474581807209 
1287	 0.102572087638074 
1288	 0.102646355605212 
1289	 0.102716990740997 
1290	 0.102789779038931 
1291	 0.102850626420868 
1292	 0.102914307278494 
1293	 0.102985129464528 
1294	 0.103048265231508 
1295	 0.103102468163181 
1296	 0.103156920200166 
1297	 0.103217521139297 
1298	 0.10326797654662 
1299	 0.103309967715447 
1300	 0.103346858316777 
1301	 0.103368506153993 
1302	 0.103402464669673 
1303	 0.103446243346919 
1304	 0.103476645810233 
1305	 0.103505521101791 
1306	 0.103528254580376 
1307	 0.103529078356586 
1308	 0.103539374263128 
1309	 0.103545927593087 
1310	 0.103557516040387 
1311	 0.103554727124685 
1312	 0.103544250857929 
1313	 0.103531597751656 
1314	 0.103512443576945 
1315	 0.10349290815316 
1316	 0.103464351258937 
1317	 0.10344686638331 
1318	 0.10343056941113 
1319	 0.103416715174529 
1320	 0.103407366878779 
1321	 0.103402842568902 
1322	 0.103405632257176 
1323	 0.103401103845795 
1324	 0.103398237291481 
1325	 0.103406662040597 
1326	 0.103390917610649 
1327	 0.103375291063144 
1328	 0.103378824902501 
1329	 0.103367939137776 
1330	 0.103358778833656 
1331	 0.10335852563231 
1332	 0.103347732549892 
1333	 0.103323990984211 
1334	 0.103307219307723 
1335	 0.103285673456789 
1336	 0.10327661584066 
1337	 0.103274169356195 
1338	 0.103270207706164 
1339	 0.103272990223957 
1340	 0.103275239285778 
1341	 0.103282179314436 
1342	 0.103281053866834 
1343	 0.103275997737316 
1344	 0.103272041029774 
1345	 0.103279248050435 
1346	 0.103276528796309 
1347	 0.103278924083077 
1348	 0.103299131845514 
1349	 0.103299854660677 
1350	 0.103293216838673 
1351	 0.103288947719987 
1352	 0.10328088046027 
1353	 0.103275808544553 
1354	 0.103269096771554 
1355	 0.103270655638057 
1356	 0.103282161432667 
1357	 0.103286338340317 
1358	 0.103288414915946 
1359	 0.103287518176591 
1360	 0.103280209341262 
1361	 0.103281510271406 
1362	 0.10328547511386 
1363	 0.103295910699911 
1364	 0.103311433911124 
1365	 0.103324346367311 
1366	 0.103335687885406 
1367	 0.103357916304639 
1368	 0.103378832062965 
1369	 0.103404867981514 
1370	 0.103424245564383 
1371	 0.103428369622375 
1372	 0.103425846532819 
1373	 0.103425376272934 
1374	 0.103420422629681 
1375	 0.103411327228099 
1376	 0.103404871691665 
1377	 0.103405290223343 
1378	 0.10338298676991 
1379	 0.103349749277685 
1380	 0.103322775651586 
1381	 0.103270601469699 
1382	 0.103244023302536 
1383	 0.103239648384054 
1384	 0.103228820283154 
1385	 0.103228000950936 
1386	 0.103216777668131 
1387	 0.103201291152846 
1388	 0.103186004323163 
1389	 0.103166653711692 
1390	 0.103145829142997 
1391	 0.103133047626757 
1392	 0.103097450897072 
1393	 0.103055448209659 
1394	 0.103023711165407 
1395	 0.102984075581975 
1396	 0.102959090024861 
1397	 0.102930376912895 
1398	 0.102902825457846 
1399	 0.102879285349868 
1400	 0.102858023059639 
1401	 0.102832905019161 
1402	 0.102821400564214 
1403	 0.102779883346197 
1404	 0.102716714606945 
1405	 0.102673158925729 
1406	 0.102607963257595 
1407	 0.102574501105719 
1408	 0.102564912996559 
1409	 0.102555734681578 
1410	 0.102566414598275 
1411	 0.102566393814366 
1412	 0.102571862916933 
1413	 0.102568468306695 
1414	 0.102558883545836 
1415	 0.102557319151572 
1416	 0.102556227370961 
1417	 0.102567233642497 
1418	 0.102581265578031 
1419	 0.102579329905686 
1420	 0.102578405953998 
1421	 0.102583581274655 
1422	 0.102594359920439 
1423	 0.102611678830741 
1424	 0.102623958992102 
1425	 0.102643670305136 
1426	 0.102655054765811 
1427	 0.102646081538002 
1428	 0.102667450512469 
1429	 0.102707003795306 
1430	 0.102739703278777 
1431	 0.102794334174867 
1432	 0.102824442035798 
1433	 0.102835460850053 
1434	 0.102850368503555 
1435	 0.102848920214722 
1436	 0.102868308456731 
1437	 0.102904191404611 
1438	 0.102929001937171 
1439	 0.102958034912161 
1440	 0.10298725681425 
1441	 0.10299869601597 
1442	 0.103022503574481 
1443	 0.103046401679785 
1444	 0.103063563126017 
1445	 0.103090833465407 
1446	 0.103116044557273 
1447	 0.103161309537022 
1448	 0.103203971166451 
1449	 0.103217895971508 
1450	 0.103252724512366 
1451	 0.10328619053112 
1452	 0.103306108527362 
1453	 0.103342330362599 
1454	 0.103403101251199 
1455	 0.103438786934458 
1456	 0.103468176045674 
1457	 0.103494472654527 
1458	 0.103509206774359 
1459	 0.103534158718293 
1460	 0.103559521694626 
1461	 0.103584235821797 
1462	 0.103611114336192 
1463	 0.10363860090187 
1464	 0.103669948617384 
1465	 0.103694210657303 
1466	 0.103713777974557 
1467	 0.10373801704068 
1468	 0.103753332839058 
1469	 0.103777525153048 
1470	 0.10381287038207 
1471	 0.103849879454885 
1472	 0.103882061083968 
1473	 0.103912411885789 
1474	 0.103941879103371 
1475	 0.103965264754823 
1476	 0.103973684188997 
1477	 0.103995793737511 
1478	 0.104011065556594 
1479	 0.104016479864845 
1480	 0.104026879830035 
1481	 0.104027470798036 
1482	 0.104055175938103 
1483	 0.104097207308456 
1484	 0.104133540907022 
1485	 0.104195794409326 
1486	 0.104230699021012 
1487	 0.104244220985653 
1488	 0.10426742281714 
1489	 0.104285131040879 
1490	 0.104306237971937 
1491	 0.104331085354531 
1492	 0.104352827334984 
1493	 0.104378382698126 
1494	 0.104396900178217 
1495	 0.104402977355608 
1496	 0.104422289039408 
1497	 0.104445346141023 
1498	 0.104464977951601 
1499	 0.104491299091132 
1500	 0.104517184447121 
1501	 0.10454496711244 
1502	 0.104565575191486 
1503	 0.104589458882452 
1504	 0.104599420121261 
1505	 0.104610731897981 
1506	 0.104614336650205 
1507	 0.104627461687311 
1508	 0.104649543002868 
1509	 0.10466152182469 
1510	 0.104671435481972 
1511	 0.104681772698669 
1512	 0.104696614194016 
1513	 0.104703906087239 
1514	 0.104716769350367 
1515	 0.104732972409517 
1516	 0.104748543579525 
1517	 0.10477861111973 
1518	 0.10483343307634 
1519	 0.104849754691553 
1520	 0.104858590354696 
1521	 0.104866401265582 
1522	 0.104840979748561 
1523	 0.104855245562682 
1524	 0.104898026080033 
1525	 0.104916695385586 
1526	 0.104939190960734 
1527	 0.104954444626674 
1528	 0.104952647038017 
1529	 0.104965719025606 
1530	 0.104987327370228 
1531	 0.105004278807282 
1532	 0.105021354457642 
1533	 0.10503716400756 
1534	 0.10505002282556 
1535	 0.105071043627895 
1536	 0.105102237634991 
1537	 0.105120541230557 
1538	 0.10513351341331 
1539	 0.105147519778639 
1540	 0.105147665829965 
1541	 0.105162608583633 
1542	 0.10519875976015 
1543	 0.105216347397607 
1544	 0.105227533280278 
1545	 0.105241304169016 
1546	 0.105249734157004 
1547	 0.105252632214887 
1548	 0.105253232028258 
1549	 0.105254609212334 
1550	 0.105264527888484 
1551	 0.105261514678252 
1552	 0.10525357463902 
1553	 0.105266714089683 
1554	 0.105272684161585 
1555	 0.105287855620565 
1556	 0.105317888913208 
1557	 0.105330914750084 
1558	 0.105347793290982 
1559	 0.105351522726214 
1560	 0.105353551957309 
1561	 0.105355731458925 
1562	 0.105358959210576 
1563	 0.105352723285016 
1564	 0.105352902781445 
1565	 0.105358519659853 
1566	 0.105363533312909 
1567	 0.105367145375308 
1568	 0.105372129360247 
1569	 0.105379258241406 
1570	 0.105388656267225 
1571	 0.105403449395733 
1572	 0.105405720805248 
1573	 0.105405704119856 
1574	 0.10540542645741 
1575	 0.105386851164734 
1576	 0.105389181248956 
1577	 0.105416731063973 
1578	 0.105416506887078 
1579	 0.105398438421965 
1580	 0.105405878596703 
1581	 0.105413026656229 
1582	 0.105418626792882 
1583	 0.105449668336658 
1584	 0.10546126774501 
1585	 0.105448941546211 
1586	 0.105450117834266 
1587	 0.105462918840588 
1588	 0.105463601434671 
1589	 0.10545555090473 
1590	 0.105453458800305 
1591	 0.105445734472284 
1592	 0.105444226348646 
1593	 0.105450912028067 
1594	 0.105454518429425 
1595	 0.105458311985472 
1596	 0.105463890029568 
1597	 0.105468103368603 
1598	 0.105475932203102 
1599	 0.105489201938251 
1600	 0.105498468262737 
1601	 0.105507589990122 
1602	 0.105518573539916 
1603	 0.105525466532311 
1604	 0.105535518964048 
1605	 0.105553943486277 
1606	 0.105566314105676 
1607	 0.10557376399199 
1608	 0.105586334983432 
1609	 0.105602202506375 
1610	 0.105602092318703 
1611	 0.105600123844272 
1612	 0.105598558983322 
1613	 0.105585855722078 
1614	 0.105580797057015 
1615	 0.105590835900941 
1616	 0.105609154937966 
1617	 0.105634227932874 
1618	 0.105657343471917 
1619	 0.105681029277955 
1620	 0.105694314469371 
1621	 0.105696443230785 
1622	 0.105688706264719 
1623	 0.105685340760733 
1624	 0.105671613571003 
1625	 0.105663147269328 
1626	 0.105654043092169 
1627	 0.105662075034073 
1628	 0.1056750228925 
1629	 0.105685678929472 
1630	 0.105713909730569 
1631	 0.105726668761998 
1632	 0.105724745247217 
1633	 0.105734863646144 
1634	 0.105754892994502 
1635	 0.105757135272164 
1636	 0.105754437902183 
1637	 0.105746910498224 
1638	 0.105724616743586 
1639	 0.10571646819877 
1640	 0.105709830525336 
1641	 0.105708076406496 
1642	 0.105708745524372 
1643	 0.105718504227572 
1644	 0.105740217563513 
1645	 0.105750595201636 
1646	 0.105764809741558 
1647	 0.10577452641533 
1648	 0.105774098719911 
1649	 0.105778819526715 
1650	 0.105787705245296 
1651	 0.105794253604534 
1652	 0.10579378886437 
1653	 0.105804849519046 
1654	 0.105828288951245 
1655	 0.105836136044131 
1656	 0.105843524729605 
1657	 0.1058469215112 
1658	 0.105838998866464 
1659	 0.1058333522595 
1660	 0.105826229507106 
1661	 0.10582474581785 
1662	 0.105820261522421 
1663	 0.105821506289947 
1664	 0.105831728356741 
1665	 0.105839580256634 
1666	 0.105846795609371 
1667	 0.105855531756087 
1668	 0.105871339943905 
1669	 0.105876860066055 
1670	 0.105878008956637 
1671	 0.10587730480413 
1672	 0.105860741212297 
1673	 0.105867912870477 
1674	 0.105899085145503 
1675	 0.10589848669596 
1676	 0.105889417970687 
1677	 0.105889863692301 
1678	 0.105866941805931 
1679	 0.105866502649273 
1680	 0.10588719957798 
1681	 0.105910796035928 
1682	 0.105948841054561 
1683	 0.10596452988104 
1684	 0.105988712464177 
1685	 0.105992892614674 
1686	 0.105955161241169 
1687	 0.105952215782398 
1688	 0.105966747320129 
1689	 0.105967140566335 
1690	 0.10596611675933 
1691	 0.105980354973181 
1692	 0.105985272795385 
1693	 0.106013535764584 
1694	 0.106085345589775 
1695	 0.106114164200971 
1696	 0.106124026508523 
1697	 0.1061474207273 
1698	 0.106163724352955 
1699	 0.10617392717522 
1700	 0.106195607422746 
1701	 0.106201596567108 
1702	 0.106177188566854 
1703	 0.106177463711339 
1704	 0.106199880217089 
1705	 0.106196693140411 
1706	 0.10618022293663 
1707	 0.106178050221542 
1708	 0.106164519628482 
1709	 0.106160804114071 
1710	 0.106180083086772 
1711	 0.106185673692452 
1712	 0.106177550997812 
1713	 0.106183493601836 
1714	 0.106207372724279 
1715	 0.106199677376029 
1716	 0.106173766848672 
1717	 0.106169284300394 
1718	 0.106151019779359 
1719	 0.10615095593523 
1720	 0.106181014830931 
1721	 0.10618844401321 
1722	 0.106185512894257 
1723	 0.106192741046309 
1724	 0.106204030923835 
1725	 0.106208292392997 
1726	 0.106210662125036 
1727	 0.106209698708029 
1728	 0.106204358497974 
1729	 0.106201568931019 
1730	 0.106210738066757 
1731	 0.106190227826575 
1732	 0.106142251122254 
1733	 0.106122259883301 
1734	 0.106099185832729 
1735	 0.106078710220504 
1736	 0.106068096846981 
1737	 0.106073567871123 
1738	 0.106081329811909 
1739	 0.106086319249556 
1740	 0.106123844027919 
1741	 0.106125712340063 
1742	 0.106095473386273 
1743	 0.106080645231413 
1744	 0.106065501997054 
1745	 0.106053372970632 
1746	 0.106036936776761 
1747	 0.106044641797423 
1748	 0.106045952326944 
1749	 0.106038366710984 
1750	 0.106038860215584 
1751	 0.106022372947165 
1752	 0.105997013988018 
1753	 0.105987647943225 
1754	 0.105965073801482 
1755	 0.105949712565445 
1756	 0.105952122394004 
1757	 0.105950458107695 
1758	 0.105953409591079 
1759	 0.105948577660382 
1760	 0.10592985170233 
1761	 0.105927570227533 
1762	 0.105930937625302 
1763	 0.105923417609778 
1764	 0.10593485265759 
1765	 0.105926923228889 
1766	 0.105898179210583 
1767	 0.105894973885237 
1768	 0.10588777442459 
1769	 0.105877168932658 
1770	 0.105885415629413 
1771	 0.105904655815915 
1772	 0.105905096059509 
1773	 0.10589465327329 
1774	 0.105885080169026 
1775	 0.105858867718641 
1776	 0.105846723701964 
1777	 0.105851112988176 
1778	 0.105850806813077 
1779	 0.105831427740122 
1780	 0.10581066989929 
1781	 0.105812035666244 
1782	 0.105813092985189 
1783	 0.105837936827546 
1784	 0.105848614202977 
1785	 0.105828744160495 
1786	 0.105838746614104 
1787	 0.105881293142493 
1788	 0.105898307640729 
1789	 0.105907598866513 
1790	 0.105919373115538 
1791	 0.105916716048892 
1792	 0.105920120360524 
1793	 0.105935415929481 
1794	 0.105962479458399 
1795	 0.105993057628654 
1796	 0.105994404630448 
1797	 0.106005645548182 
1798	 0.105987270024488 
1799	 0.105916768853434 
1800	 0.105912800938596 
1801	 0.103174834824999 
1802	 0.103254003378542 
1803	 0.10338203024874 
1804	 0.103522355683835 
1805	 0.103670338536713 
1806	 0.103841454354536 
1807	 0.103993510279626 
1808	 0.104110570309031 
1809	 0.104208966024857 
1810	 0.104303185671636 
1811	 0.104375220296903 
1812	 0.10442211838986 
1813	 0.10448438833316 
1814	 0.104549085600934 
1815	 0.104588019438741 
1816	 0.104601732001513 
1817	 0.104632472639615 
1818	 0.10466261950459 
1819	 0.104682510457523 
1820	 0.104684976149028 
1821	 0.104742182994343 
1822	 0.104774417506994 
1823	 0.104763235939268 
1824	 0.104787225942135 
1825	 0.104797556346218 
1826	 0.104808809557958 
1827	 0.104852926609734 
1828	 0.104878494636392 
1829	 0.104908244159428 
1830	 0.104923937965238 
1831	 0.104919051648433 
1832	 0.104932172388003 
1833	 0.104953162660809 
1834	 0.104964353055037 
1835	 0.1049952636554 
1836	 0.105001824476132 
1837	 0.105002640588508 
1838	 0.10502012899976 
1839	 0.105043859451907 
1840	 0.105071447169149 
1841	 0.105119399394044 
1842	 0.10515804288889 
1843	 0.105180397313343 
1844	 0.105203608310998 
1845	 0.105207507000223 
1846	 0.10522350656525 
1847	 0.105258651751344 
1848	 0.105285035525465 
1849	 0.105323437654154 
1850	 0.105362650101756 
1851	 0.105411376820098 
1852	 0.105444531174067 
1853	 0.105468411836128 
1854	 0.105482721204284 
1855	 0.105488266930607 
1856	 0.105484115122532 
1857	 0.105492680632118 
1858	 0.10548770961387 
1859	 0.105452246026643 
1860	 0.105426459650636 
1861	 0.105395708049573 
1862	 0.105351625357168 
1863	 0.105331585086847 
1864	 0.105332303560286 
1865	 0.105319206233509 
1866	 0.105313603178217 
1867	 0.105308630234803 
1868	 0.105297730000259 
1869	 0.105273239750211 
1870	 0.105247108059991 
1871	 0.105229268474045 
1872	 0.105211453075786 
1873	 0.105180727340489 
1874	 0.105163996878689 
1875	 0.105165910549927 
1876	 0.105132245340518 
1877	 0.10509463781063 
1878	 0.105043476222636 
1879	 0.104953266179255 
1880	 0.104882754072628 
1881	 0.104809657091894 
1882	 0.104733759839198 
1883	 0.104660900212487 
1884	 0.104590710185257 
1885	 0.104523004845026 
1886	 0.104448615351177 
1887	 0.104357632851796 
1888	 0.104286001593471 
1889	 0.104177119583396 
1890	 0.10402687590909 
1891	 0.103889099322718 
1892	 0.103749318299255 
1893	 0.103592981116369 
1894	 0.10342341938204 
1895	 0.103259741756566 
1896	 0.103083762903019 
1897	 0.102910599618859 
1898	 0.10274845605745 
1899	 0.102585865625319 
1900	 0.102440703123944 
1901	 0.102303069347011 
1902	 0.102149236721465 
1903	 0.10198778373997 
1904	 0.101841100601354 
1905	 0.10169279545293 
1906	 0.101524328504461 
1907	 0.101414477007772 
1908	 0.101317508152071 
1909	 0.101202181304672 
1910	 0.101114369429095 
1911	 0.101004885332171 
1912	 0.100870703393623 
1913	 0.100770126372747 
1914	 0.100695985056135 
1915	 0.100607259978062 
1916	 0.10052255427599 
1917	 0.100455376678088 
1918	 0.100358315285285 
1919	 0.100249335590899 
1920	 0.100168663863089 
1921	 0.100091954894665 
1922	 0.100035817567803 
1923	 0.100001911368874 
1924	 9.99639059821558E-02 
1925	 9.99302372955234E-02 
1926	 9.99025747087866E-02 
1927	 9.98842197374085E-02 
1928	 9.98614815500948E-02 
1929	 9.98340825354304E-02 
1930	 9.98201130453071E-02 
1931	 9.97994773979666E-02 
1932	 9.97806347846749E-02 
1933	 9.97932256127132E-02 
1934	 9.97959096725174E-02 
1935	 9.97994672080302E-02 
1936	 9.98019204388459E-02 
1937	 9.98207252788745E-02 
1938	 9.98552147837924E-02 
1939	 9.98768247173614E-02 
1940	 9.99058374420071E-02 
1941	 0.099925054940591 
1942	 9.99473864359689E-02 
1943	 9.99472489592967E-02 
1944	 0.099991896316404 
1945	 0.10006765889469 
1946	 0.100099728116325 
1947	 0.100114974679778 
1948	 0.100143024374865 
1949	 0.10014242689852 
1950	 0.100161363182228 
1951	 0.100197168907777 
1952	 0.100244329965069 
1953	 0.100279000691087 
1954	 0.100307432072843 
1955	 0.100344042313807 
1956	 0.100380841804348 
1957	 0.100422585075434 
1958	 0.100463403167722 
1959	 0.100518300553574 
1960	 0.100586706357123 
1961	 0.100648382613101 
1962	 0.100710641794964 
1963	 0.100779487929471 
1964	 0.100849792192451 
1965	 0.100922843516525 
1966	 0.100998084068763 
1967	 0.101087779595166 
1968	 0.101164181046285 
1969	 0.101233513971965 
1970	 0.101302150612514 
1971	 0.101372003561389 
1972	 0.101430017303461 
1973	 0.101477955850115 
1974	 0.101531587627131 
1975	 0.101577164752637 
1976	 0.101628218294075 
1977	 0.101690170607734 
1978	 0.101749038200446 
1979	 0.101809834791557 
1980	 0.101875245224121 
1981	 0.101940452617329 
1982	 0.102010464321933 
1983	 0.102069826256125 
1984	 0.102125088327276 
1985	 0.102183432741457 
1986	 0.102234553075015 
1987	 0.102290157914967 
1988	 0.102344160049298 
1989	 0.102409061542329 
1990	 0.10248508958034 
1991	 0.102559952066017 
1992	 0.10262379417149 
1993	 0.102689566230743 
1994	 0.10275059550389 
1995	 0.102786004663142 
1996	 0.102851011325407 
1997	 0.102946663052123 
1998	 0.10301966131425 
1999	 0.103088703164899 
2000	 0.103161077103827 
2001	 0.103226026816534 
2002	 0.103283437299939 
2003	 0.103373756929549 
2004	 0.103453690745967 
2005	 0.103521893534092 
2006	 0.103579332109738 
2007	 0.103651414677165 
2008	 0.103716244491985 
2009	 0.103787764454363 
2010	 0.103884912334014 
2011	 0.103957887097863 
2012	 0.104011768718489 
2013	 0.104074736137653 
2014	 0.104131532905012 
2015	 0.104183608010029 
2016	 0.104275538749254 
2017	 0.104363270863387 
2018	 0.104442849144574 
2019	 0.104540923116549 
2020	 0.104609295495071 
2021	 0.104649250000061 
2022	 0.104700530184826 
2023	 0.104740667811723 
2024	 0.104792055405838 
2025	 0.104845947122189 
2026	 0.104903485897602 
2027	 0.104964232281373 
2028	 0.105037425253545 
2029	 0.105097520715027 
2030	 0.105151789317787 
2031	 0.105217757373978 
2032	 0.105289735397408 
2033	 0.105346529902386 
2034	 0.105408100429177 
2035	 0.105461403352034 
2036	 0.105493714565575 
2037	 0.105537742395386 
2038	 0.105587712014219 
2039	 0.105633485055398 
2040	 0.105678138357008 
2041	 0.105722103450317 
2042	 0.105750676915877 
2043	 0.105810897774197 
2044	 0.105857250748159 
2045	 0.105897025215029 
2046	 0.105949285199101 
2047	 0.106024225276948 
2048	 0.106066103900899 
2049	 0.106096338073744 
2050	 0.106127997612485 
2051	 0.106138152534503 
2052	 0.10615442212957 
2053	 0.106171410561641 
2054	 0.106198523676913 
2055	 0.106230725070831 
2056	 0.106254514608913 
2057	 0.106287591043369 
2058	 0.106336500165875 
2059	 0.106373636731004 
2060	 0.106400591398607 
2061	 0.106438194004237 
2062	 0.106481837041036 
2063	 0.106520889114127 
2064	 0.106564006156396 
2065	 0.106605221873635 
2066	 0.10664852748961 
2067	 0.106682148272705 
2068	 0.106713537215945 
2069	 0.106731340489851 
2070	 0.106769609418083 
2071	 0.106805969075229 
2072	 0.106848440983582 
2073	 0.106914111590007 
2074	 0.106956298168403 
2075	 0.106984984871321 
2076	 0.107019280014141 
2077	 0.107043612072332 
2078	 0.107080285595636 
2079	 0.107113683170267 
2080	 0.107161271015061 
2081	 0.107237712935937 
2082	 0.107294248607881 
2083	 0.107333181299863 
2084	 0.107404397258456 
2085	 0.107455466970446 
2086	 0.107496080292162 
2087	 0.107530018033834 
2088	 0.107561017003154 
2089	 0.107592174306024 
2090	 0.107605248685278 
2091	 0.107634927975076 
2092	 0.107680418850568 
2093	 0.107715800375184 
2094	 0.107768795345163 
2095	 0.107787986313633 
2096	 0.107768215165711 
2097	 0.107776232739888 
2098	 0.107792244744113 
2099	 0.107774723528149 
2100	 0.107794366699819 
2101	 0.107842915428296 
2102	 0.107885023963232 
2103	 0.107932422326393 
2104	 0.107977719714266 
2105	 0.108038778409968 
2106	 0.108079087324092 
2107	 0.108097585965207 
2108	 0.108135096202649 
2109	 0.108165198602982 
2110	 0.108213964648873 
2111	 0.108283414181567 
2112	 0.108348976968408 
2113	 0.108414320354906 
2114	 0.108506513011884 
2115	 0.108561910304822 
2116	 0.108604318105838 
2117	 0.108654525464934 
2118	 0.10868559207447 
2119	 0.108735451692963 
2120	 0.108808739673877 
2121	 0.108859985351942 
2122	 0.108914605158398 
2123	 0.108946503712456 
2124	 0.108926130608673 
2125	 0.108962651882991 
2126	 0.109035698404362 
2127	 0.109077349883401 
2128	 0.109151137950907 
2129	 0.109198073913647 
2130	 0.109212222859175 
2131	 0.109199144472337 
2132	 0.109202711487591 
2133	 0.109209138747441 
2134	 0.109211685315451 
2135	 0.109213173771716 
2136	 0.109200596249839 
2137	 0.109180831734553 
2138	 0.109162109820033 
2139	 0.109133674775035 
2140	 0.109104147270571 
2141	 0.109071068318284 
2142	 0.109044148314126 
2143	 0.109020711312644 
2144	 0.108986386669869 
2145	 0.108961481064263 
2146	 0.108922125244681 
2147	 0.108849560730333 
2148	 0.108796169750251 
2149	 0.108747395493635 
2150	 0.108706595775296 
2151	 0.108649249767489 
2152	 0.108591345324865 
2153	 0.108536485460726 
2154	 0.108474436205665 
2155	 0.108409492918548 
2156	 0.108355294747005 
2157	 0.108286905036948 
2158	 0.108191251469544 
2159	 0.108115568285633 
2160	 0.108070782933484 
2161	 0.107986443087044 
2162	 0.107858169012759 
2163	 0.107773781658298 
2164	 0.107688937689251 
2165	 0.107612372854084 
2166	 0.107535931246003 
2167	 0.107496510576096 
2168	 0.107435275746161 
2169	 0.107349233261307 
2170	 0.107279284687531 
2171	 0.107241065338031 
2172	 0.107162069411694 
2173	 0.10704660527891 
2174	 0.106960166646118 
2175	 0.106880901864273 
2176	 0.106787409333133 
2177	 0.106689762337345 
2178	 0.106605603367355 
2179	 0.106515723362553 
2180	 0.106425464985296 
2181	 0.106349748724925 
2182	 0.106274853630012 
2183	 0.1061854943252 
2184	 0.106112400327612 
2185	 0.106033305756648 
2186	 0.105961512899207 
2187	 0.105896049282262 
2188	 0.105826046250703 
2189	 0.105765661385437 
2190	 0.105727659507448 
2191	 0.105671559340368 
2192	 0.105599488606581 
2193	 0.105545220547127 
2194	 0.105496989307746 
2195	 0.105448025056326 
2196	 0.105413837930579 
2197	 0.105368536806046 
2198	 0.10530477785763 
2199	 0.10525947267571 
2200	 0.105215580479363 
2201	 0.105183780909647 
2202	 0.105176634524775 
2203	 0.105162425118118 
2204	 0.105140218640283 
2205	 0.105127043878517 
2206	 0.105084488727827 
2207	 0.105013527712059 
2208	 0.104961966687552 
2209	 0.104893689822296 
2210	 0.104851393238929 
2211	 0.1048363686636 
2212	 0.10480571077087 
2213	 0.104771974484063 
2214	 0.104750596526131 
2215	 0.104734351530714 
2216	 0.104710595917019 
2217	 0.104681387110607 
2218	 0.104673694652441 
2219	 0.104668312910364 
2220	 0.104668945438491 
2221	 0.10469606352147 
2222	 0.104723708264461 
2223	 0.104723971052697 
2224	 0.104727710148503 
2225	 0.10472581402568 
2226	 0.104707902170757 
2227	 0.104721547927743 
2228	 0.104749220993279 
2229	 0.104766931430583 
2230	 0.104816640016514 
2231	 0.104813077399774 
2232	 0.104770280638481 
2233	 0.104748790156697 
2234	 0.104688559928651 
2235	 0.104681761200051 
2236	 0.104725717704977 
2237	 0.104731923685362 
2238	 0.104726521965931 
2239	 0.104759095684466 
2240	 0.104798242183422 
2241	 0.104831896644744 
2242	 0.104914961839416 
2243	 0.104959906281254 
2244	 0.104960345353877 
2245	 0.104976204396054 
2246	 0.105009084056637 
2247	 0.105017189736306 
2248	 0.1050013092655 
2249	 0.104967784620253 
2250	 0.104935625654212 
2251	 0.104855077966538 
2252	 0.10484594730949 
2253	 0.10487027518956 
2254	 0.104900504492887 
2255	 0.104986638692726 
2256	 0.105010549793899 
2257	 0.105008556296795 
2258	 0.105017303133415 
2259	 0.104992894584349 
2260	 0.10500047311698 
2261	 0.105046413289417 
2262	 0.105061586982115 
2263	 0.105062307018698 
2264	 0.105073598279915 
2265	 0.105066048644236 
2266	 0.105078896234914 
2267	 0.105124820435948 
2268	 0.105148068118065 
2269	 0.105151994911563 
2270	 0.10519513960859 
2271	 0.105194027177579 
2272	 0.105169970457182 
2273	 0.105192746056769 
2274	 0.105185927221914 
2275	 0.10517627603314 
2276	 0.105168355273426 
2277	 0.105174523984275 
2278	 0.105149152945334 
2279	 0.105182632435473 
2280	 0.105275553469859 
2281	 0.105328206825758 
2282	 0.105404664637004 
2283	 0.105439698430802 
2284	 0.105444582053847 
2285	 0.105451673146414 
2286	 0.105432461564745 
2287	 0.105417372413915 
2288	 0.105382627210599 
2289	 0.105381748097196 
2290	 0.105392927162706 
2291	 0.105413712545573 
2292	 0.105502221440663 
2293	 0.105517953150799 
2294	 0.105489550912091 
2295	 0.105472793427394 
2296	 0.10544155126187 
2297	 0.105342302505698 
2298	 0.105358162890697 
2299	 0.105375409874729 
2300	 0.105404514775355 
2301	 0.105479874165698 
2302	 0.105485158496831 
2303	 0.105479118398791 
2304	 0.105462056010844 
2305	 0.105459083410746 
2306	 0.105457126584203 
2307	 0.105463388393177 
2308	 0.105478350475767 
2309	 0.105486854772636 
2310	 0.105510012708164 
2311	 0.105574724974638 
2312	 0.105582235657429 
2313	 0.105563361282491 
2314	 0.105565401784372 
2315	 0.105538979289766 
2316	 0.105542706334526 
2317	 0.105581924272894 
2318	 0.105596034959534 
2319	 0.105607766646128 
2320	 0.10560554524862 
2321	 0.10557320639884 
2322	 0.105582830831576 
2323	 0.105607867270986 
2324	 0.105626576167443 
2325	 0.10569191250735 
2326	 0.105714536587642 
2327	 0.105680153520721 
2328	 0.105696329387738 
2329	 0.105735488388334 
2330	 0.10572004952953 
2331	 0.105757557749689 
2332	 0.105742839181088 
2333	 0.105683744847379 
2334	 0.105664819730842 
2335	 0.105666227558397 
2336	 0.105688722261717 
2337	 0.105744391342331 
2338	 0.105812770434121 
2339	 0.105860732838793 
2340	 0.105892021594495 
2341	 0.105857345321098 
2342	 0.10580468946056 
2343	 0.10579594570091 
2344	 0.105825129726442 
2345	 0.105855570581865 
2346	 0.105975607603836 
2347	 0.105977446769973 
2348	 0.105911340995926 
2349	 0.105871147526112 
2350	 0.10577346755518 
2351	 0.105748654027635 
2352	 0.105765277869068 
2353	 0.105757949947836 
2354	 0.105773232105537 
2355	 0.105770749439254 
2356	 0.105763992258994 
2357	 0.105766694972832 
2358	 0.105779366688796 
2359	 0.10577356487285 
2360	 0.105727625717481 
2361	 0.105722408500781 
2362	 0.105731498502149 
2363	 0.105731528303571 
2364	 0.10579791968637 
2365	 0.105786036483081 
2366	 0.105697773155175 
2367	 0.105645564372706 
2368	 0.105584096083777 
2369	 0.105519159483279 
2370	 0.105436991095669 
2371	 0.105400578115691 
2372	 0.105402813513277 
2373	 0.105347747244024 
2374	 0.105394854462222 
2375	 0.105456669232496 
2376	 0.105404292502724 
2377	 0.105375185464067 
2378	 0.105359408478604 
2379	 0.105314925230514 
2380	 0.105310896388583 
2381	 0.105307094390975 
2382	 0.105266080834277 
2383	 0.10525654097069 
2384	 0.105319969806958 
2385	 0.10537833875569 
2386	 0.105401755421453 
2387	 0.105401108986664 
2388	 0.105315410967209 
2389	 0.105283245069939 
2390	 0.105271881898887 
2391	 0.105190601801662 
2392	 0.105200386673152 
2393	 0.105173027766086 
2394	 0.105118040201742 
2395	 0.105112841838528 
2396	 0.105028005021653 
2397	 0.104986688724519 
2398	 0.104967767606086 
2399	 0.104966409346078 
2400	 0.104970810812692 
2401	 0.104839984804292 
2402	 0.104745468359508 
2403	 0.104682271716246 
2404	 0.104580663106223 
2405	 0.104599696091441 
2406	 0.104644317359007 
2407	 0.104657622703471 
2408	 0.104585549834845 
2409	 0.104379619244647 
2410	 0.104273223909193 
2411	 0.104076866285243 
2412	 0.104019459474952 
2413	 0.104292956376741 
2414	 0.10439636585596 
2415	 0.104511566935243 
2416	 0.104559849785966 
2417	 0.1044996432921 
2418	 0.10441656414986 
2419	 0.104273113421577 
2420	 0.104177567290482 
2421	 0.104102796163923 
2422	 0.104026950187867 
2423	 0.103944412582824 
2424	 0.1038869901366 
2425	 0.103848337522409 
2426	 0.10375433195969 
2427	 0.103642746283663 
2428	 0.103593610512275 
2429	 0.103494241937973 
2430	 0.103470571450764 
2431	 0.103596774540111 
2432	 0.103606654187986 
2433	 0.103599738252456 
2434	 0.10352560587235 
2435	 0.103322648780578 
2436	 0.103236391875851 
2437	 0.103170484104204 
2438	 0.103132753604975 
2439	 0.103252450489096 
2440	 0.103175538417873 
2441	 0.102894286697686 
2442	 0.102762596659588 
2443	 0.102607425614073 
2444	 0.102626940803795 
2445	 0.102849338657823 
2446	 0.102953603009014 
2447	 0.103130977114119 
2448	 0.103109161262602 
2449	 0.102869313216633 
2450	 0.102831752870606 
2451	 0.102898867110153 
2452	 0.102763327592883 
2453	 0.102589162270208 
2454	 0.102482152809517 
2455	 0.102186725975316 
2456	 0.102068066999 
2457	 0.102177756400595 
2458	 0.102174016785266 
2459	 0.102125277523803 
2460	 0.102114695176624 
2461	 0.102136171365563 
2462	 0.102105248942025 
2463	 0.102036974151185 
2464	 0.10198752019539 
2465	 0.101893496974976 
2466	 0.101879956076342 
2467	 0.101988591711643 
2468	 0.101988571736979 
2469	 0.101958626873058 
2470	 0.101823382755792 
2471	 0.101812345526661 
2472	 0.10181961117301 
2473	 0.101789399995918 
2474	 0.101865302415939 
2475	 0.101767930664563 
2476	 0.10174108431941 
2477	 0.101733525963935 
2478	 0.101577508936868 
2479	 0.101582953995458 
2480	 0.101508745062063 
2481	 0.101412069022738 
2482	 0.101471022527758 
2483	 0.101415916311817 
2484	 0.101289704104276 
2485	 0.101246239631698 
2486	 0.101232778633907 
2487	 0.10129803441484 
2488	 0.10140889647553 
2489	 0.101383568017153 
2490	 0.101283168069638 
2491	 0.101070534521647 
2492	 0.10094266838882 
2493	 0.100937526319783 
2494	 0.100931683677007 
2495	 0.100924998222795 
2496	 0.100892387619089 
2497	 0.100932761067452 
2498	 0.100973700934348 
2499	 0.101027220425709 
2500	 0.100859768913155 
