Wavelength	mm2800007.asd
350	 5.17347270250936E-02 
351	 5.71629245204833E-02 
352	 6.19365339065981E-02 
353	 6.07489878474188E-02 
354	 6.03515544638378E-02 
355	 5.71370723987674E-02 
356	 5.40667969388402E-02 
357	 5.47149230257814E-02 
358	 6.05717605581438E-02 
359	 5.98112784197568E-02 
360	 5.49518242664827E-02 
361	 5.67312451379631E-02 
362	 0.056909396419693 
363	 5.73346538882356E-02 
364	 5.88402261860562E-02 
365	 5.89746729224004E-02 
366	 5.65206013968547E-02 
367	 5.63678311166712E-02 
368	 6.12626297863008E-02 
369	 5.92189100829474E-02 
370	 5.92267168531499E-02 
371	 6.16414074753357E-02 
372	 6.09057343038498E-02 
373	 5.96788751432608E-02 
374	 5.90544666249216E-02 
375	 5.99117544777663E-02 
376	 6.34885860751745E-02 
377	 6.30294104697587E-02 
378	 6.21948733490269E-02 
379	 6.51477337804586E-02 
380	 6.38853506413065E-02 
381	 6.18503118349931E-02 
382	 6.17362932078347E-02 
383	 6.46809082263906E-02 
384	 6.41547375929715E-02 
385	 6.30003875825704E-02 
386	 6.35527331296156E-02 
387	 0.064691543183364 
388	 6.33734382161652E-02 
389	 6.23236420784271E-02 
390	 6.45489757734399E-02 
391	 6.48987683832738E-02 
392	 6.48137825457287E-02 
393	 6.53516587187735E-02 
394	 6.67998424061302E-02 
395	 6.64102542139185E-02 
396	 6.65282195955617E-02 
397	 6.85200415946801E-02 
398	 7.01782927071696E-02 
399	 6.98773743830313E-02 
400	 6.90769463721519E-02 
401	 6.96891376480058E-02 
402	 6.86499205789994E-02 
403	 6.79857399952587E-02 
404	 6.85290879202538E-02 
405	 6.95693524823699E-02 
406	 6.96378297494866E-02 
407	 6.96322239590156E-02 
408	 7.01583722786128E-02 
409	 6.97504532895248E-02 
410	 6.92320221996356E-02 
411	 6.93824279775722E-02 
412	 7.06230694006815E-02 
413	 7.12758263220443E-02 
414	 7.12854027031932E-02 
415	 7.10971121821897E-02 
416	 7.15499462587223E-02 
417	 7.19420941794902E-02 
418	 7.19389034493765E-02 
419	 7.16657117413686E-02 
420	 7.25916778331834E-02 
421	 0.072186312825324 
422	 0.071420563605379 
423	 7.30679870620278E-02 
424	 7.30950566693268E-02 
425	 7.26402412793521E-02 
426	 7.27469693420546E-02 
427	 7.31026068366145E-02 
428	 7.31653839162348E-02 
429	 7.29438055810537E-02 
430	 7.27486192512952E-02 
431	 7.33288917689402E-02 
432	 7.35682955030647E-02 
433	 7.35511637721255E-02 
434	 7.44958516010338E-02 
435	 7.44007373689073E-02 
436	 7.41233210943604E-02 
437	 7.44334005632785E-02 
438	 7.43421711347659E-02 
439	 7.45235960908288E-02 
440	 7.48054107915138E-02 
441	 7.47030315951096E-02 
442	 7.48341687268873E-02 
443	 7.51906347082483E-02 
444	 0.075545046923585 
445	 0.075429473434514 
446	 7.55953614922948E-02 
447	 7.58842274836017E-02 
448	 7.59692093517126E-02 
449	 7.59884079772471E-02 
450	 0.076204799027282 
451	 7.65260846208043E-02 
452	 0.076581388177988 
453	 7.66195390367326E-02 
454	 7.66736762095272E-02 
455	 7.67973868899044E-02 
456	 7.72528152416751E-02 
457	 7.72939271508045E-02 
458	 7.71157211965629E-02 
459	 7.72929390047871E-02 
460	 7.76529641921813E-02 
461	 7.78268856709919E-02 
462	 7.78281176924374E-02 
463	 7.82279787922156E-02 
464	 0.078353406311333 
465	 7.84217393500134E-02 
466	 7.87283504777442E-02 
467	 0.078847844839247 
468	 7.89178395512745E-02 
469	 7.90968836442052E-02 
470	 7.95054539163673E-02 
471	 7.95645151069721E-02 
472	 7.94626905482644E-02 
473	 7.94586728097155E-02 
474	 7.96514935099605E-02 
475	 7.99065520042968E-02 
476	 8.00920889538478E-02 
477	 8.01503183135795E-02 
478	 8.05614634370405E-02 
479	 8.07318299164469E-02 
480	 8.06375036787673E-02 
481	 8.11643334371275E-02 
482	 8.14860354065511E-02 
483	 8.15546273424817E-02 
484	 8.15506712020375E-02 
485	 8.16110708797933E-02 
486	 8.18385507329387E-02 
487	 8.21669721660868E-02 
488	 8.23941184149547E-02 
489	 8.24383413511088E-02 
490	 8.24989457148855E-02 
491	 8.26731720356488E-02 
492	 8.26572498326722E-02 
493	 8.28273734537914E-02 
494	 0.083055518030281 
495	 8.30508545594272E-02 
496	 8.32615460815952E-02 
497	 8.34064427387656E-02 
498	 8.34171657739192E-02 
499	 8.36438891088173E-02 
500	 8.38113882358706E-02 
501	 8.38501070893883E-02 
502	 8.38066461687128E-02 
503	 8.39375062143021E-02 
504	 8.41095926501236E-02 
505	 8.42848517493378E-02 
506	 8.45120647498451E-02 
507	 8.44269333502046E-02 
508	 8.44322023495222E-02 
509	 8.47574122936854E-02 
510	 8.47735661378825E-02 
511	 8.47581813761858E-02 
512	 8.48260384350024E-02 
513	 8.49861070629057E-02 
514	 8.50727887716454E-02 
515	 8.51498453940073E-02 
516	 8.53005302450342E-02 
517	 8.56265815161844E-02 
518	 8.56226109879635E-02 
519	 8.55031832529235E-02 
520	 8.56391111981366E-02 
521	 8.58448149047441E-02 
522	 8.59542764302402E-02 
523	 8.59794003924039E-02 
524	 8.61117857659577E-02 
525	 8.61979910658301E-02 
526	 8.62324921312539E-02 
527	 8.62584662989943E-02 
528	 0.086376643425339 
529	 8.63989296136458E-02 
530	 8.63976438952148E-02 
531	 8.65827907182281E-02 
532	 8.65959153996663E-02 
533	 8.66822131945497E-02 
534	 0.086924644874827 
535	 8.68772950616154E-02 
536	 0.086879463655297 
537	 8.69643583061696E-02 
538	 8.70579770996306E-02 
539	 8.72175715211963E-02 
540	 8.72997443685094E-02 
541	 8.72979866213518E-02 
542	 8.74044169042578E-02 
543	 8.74109383754234E-02 
544	 0.087447810943757 
545	 8.76424615209102E-02 
546	 8.77417351506158E-02 
547	 8.78099899371377E-02 
548	 8.78613911174424E-02 
549	 8.78664692843184E-02 
550	 8.79384720635174E-02 
551	 8.80077121256612E-02 
552	 8.80302448137168E-02 
553	 8.81317098556367E-02 
554	 8.81504959732483E-02 
555	 8.81309380582891E-02 
556	 8.82175973906643E-02 
557	 8.84006167614156E-02 
558	 8.85255957760813E-02 
559	 0.088556483261207 
560	 8.86949321875025E-02 
561	 8.87571588593284E-02 
562	 0.088788347954965 
563	 8.88887127900693E-02 
564	 8.90195365629971E-02 
565	 8.90396878927095E-02 
566	 8.89627152438651E-02 
567	 8.89769002403797E-02 
568	 8.90456773129882E-02 
569	 8.91167250564758E-02 
570	 0.08917347240295 
571	 8.93629695684261E-02 
572	 8.94542190645195E-02 
573	 8.94547817537051E-02 
574	 8.95326543334042E-02 
575	 8.95382550095744E-02 
576	 8.95812655742452E-02 
577	 8.97168149899179E-02 
578	 8.98087436554726E-02 
579	 8.98086169902437E-02 
580	 8.97430325717396E-02 
581	 8.96790142616454E-02 
582	 8.96484401122007E-02 
583	 8.96270227623398E-02 
584	 8.96444169302228E-02 
585	 8.98170822991258E-02 
586	 9.00141728393493E-02 
587	 9.02049537045608E-02 
588	 9.03926940499901E-02 
589	 0.090601624826573 
590	 9.07424402018717E-02 
591	 9.08220182160175E-02 
592	 9.09338205887347E-02 
593	 9.10200803903633E-02 
594	 9.10099681747323E-02 
595	 9.08835193577802E-02 
596	 9.07491883606334E-02 
597	 9.06030323252258E-02 
598	 9.04986941015199E-02 
599	 9.05028961736032E-02 
600	 9.05292282761204E-02 
601	 9.05938042766065E-02 
602	 9.06926727928015E-02 
603	 9.07614386433481E-02 
604	 9.08696632869217E-02 
605	 9.09837653942323E-02 
606	 9.10538294514092E-02 
607	 9.11471179928559E-02 
608	 9.12699107671616E-02 
609	 9.14101406839287E-02 
610	 9.15396837054053E-02 
611	 9.16530504450775E-02 
612	 9.16919264086482E-02 
613	 9.16348895106845E-02 
614	 9.16047525467537E-02 
615	 9.16357810843297E-02 
616	 9.17046355822736E-02 
617	 9.17501163244381E-02 
618	 9.18048179074724E-02 
619	 9.18490742468077E-02 
620	 9.18805056671907E-02 
621	 9.19552207838456E-02 
622	 9.19791989217886E-02 
623	 9.19902483762439E-02 
624	 9.20615436252124E-02 
625	 9.21128719885496E-02 
626	 9.21347486486606E-02 
627	 9.21544724931601E-02 
628	 9.22398227680802E-02 
629	 9.22834169830398E-02 
630	 9.23292012212382E-02 
631	 0.092411725521547 
632	 9.23426204533796E-02 
633	 9.23770503271078E-02 
634	 9.25165006011122E-02 
635	 9.25548121644371E-02 
636	 9.25644911037852E-02 
637	 9.25936893395029E-02 
638	 9.26606512457573E-02 
639	 9.27187503673196E-02 
640	 9.27743780771656E-02 
641	 9.28209834971334E-02 
642	 9.28499562503347E-02 
643	 9.28643219454678E-02 
644	 9.29339152911477E-02 
645	 9.30477211613634E-02 
646	 9.30694281246983E-02 
647	 9.31268320565342E-02 
648	 9.31761738087275E-02 
649	 9.31716742948073E-02 
650	 9.32804226763728E-02 
651	 9.33399738112077E-02 
652	 9.33450867228549E-02 
653	 9.34265925250705E-02 
654	 9.34790930132196E-02 
655	 9.35035268560567E-02 
656	 9.35306574901636E-02 
657	 0.093622116007713 
658	 9.36905850863815E-02 
659	 0.093734822430415 
660	 9.37910684635399E-02 
661	 9.38342105606672E-02 
662	 9.38948352917105E-02 
663	 9.39692029594203E-02 
664	 9.39967252050967E-02 
665	 9.40366031386347E-02 
666	 9.40899753987167E-02 
667	 9.41433272545698E-02 
668	 9.41969129277225E-02 
669	 9.42464144000988E-02 
670	 9.43041652681827E-02 
671	 9.43896076406276E-02 
672	 9.44022448339205E-02 
673	 9.44200796443789E-02 
674	 9.44965188359282E-02 
675	 9.45550403387447E-02 
676	 0.094598135551702 
677	 9.46439943521137E-02 
678	 9.47074063951926E-02 
679	 9.47019274236313E-02 
680	 9.47536891747115E-02 
681	 9.48732950097803E-02 
682	 9.48999199582206E-02 
683	 9.49654942917043E-02 
684	 9.50250380249303E-02 
685	 9.50332572165841E-02 
686	 9.51098797972787E-02 
687	 9.51956123957767E-02 
688	 9.52546250192355E-02 
689	 9.52760331974244E-02 
690	 9.53125331079845E-02 
691	 9.53629355512405E-02 
692	 9.54174664162313E-02 
693	 9.54693659416026E-02 
694	 9.54993116454201E-02 
695	 0.095522829730573 
696	 9.55618229221855E-02 
697	 9.55881461258065E-02 
698	 9.56415140817613E-02 
699	 9.57069692258999E-02 
700	 9.57129435165488E-02 
701	 9.57549995933573E-02 
702	 0.095816513482305 
703	 9.58658169684352E-02 
704	 9.58982270892656E-02 
705	 9.59443397192835E-02 
706	 9.59849168007047E-02 
707	 9.59847761210676E-02 
708	 0.096009021073676 
709	 9.60469960838166E-02 
710	 9.60892637655739E-02 
711	 9.61416342774156E-02 
712	 9.61589224678469E-02 
713	 9.61605986183311E-02 
714	 9.61805873440472E-02 
715	 9.62333409657803E-02 
716	 9.62608178092047E-02 
717	 9.62702253220138E-02 
718	 9.63124170190576E-02 
719	 0.096338623022951 
720	 9.63528145512327E-02 
721	 9.63686709293718E-02 
722	 9.64056532685487E-02 
723	 9.64241435345979E-02 
724	 9.64267174539197E-02 
725	 9.64346521474506E-02 
726	 9.64847280269335E-02 
727	 9.64910895722603E-02 
728	 9.64577440232207E-02 
729	 0.09647365933697 
730	 9.65107854221937E-02 
731	 9.65243535145795E-02 
732	 9.65031527266654E-02 
733	 9.65235987251238E-02 
734	 9.65485642924095E-02 
735	 9.65537877308276E-02 
736	 9.65314632985995E-02 
737	 9.65462942373667E-02 
738	 9.65459424078879E-02 
739	 9.65331587028802E-02 
740	 9.65762041537875E-02 
741	 9.65827228660672E-02 
742	 9.65626111400907E-02 
743	 9.65495203763367E-02 
744	 9.65861737012495E-02 
745	 9.65589160837282E-02 
746	 9.65101829925612E-02 
747	 9.65372496496535E-02 
748	 9.65427133729725E-02 
749	 0.096515858128994 
750	 0.096486158435619 
751	 9.65191683143062E-02 
752	 9.65010778596071E-02 
753	 9.64699600800912E-02 
754	 9.64728163065496E-02 
755	 9.64715880241915E-02 
756	 9.64975629314606E-02 
757	 9.65099510966215E-02 
758	 9.64540087910832E-02 
759	 9.64584015252101E-02 
760	 9.64715333527716E-02 
761	 0.09646274729797 
762	 9.64498067820965E-02 
763	 9.64559204379051E-02 
764	 0.096450597611608 
765	 9.64150820584166E-02 
766	 9.64011096426726E-02 
767	 9.64121574315346E-02 
768	 9.64304058026296E-02 
769	 0.096428119399626 
770	 9.64022401547454E-02 
771	 9.63768782613849E-02 
772	 0.096351014848187 
773	 9.62927425828546E-02 
774	 9.63006995614796E-02 
775	 9.63215505422887E-02 
776	 9.63003875253019E-02 
777	 9.62747051480551E-02 
778	 9.62576292783119E-02 
779	 9.62529260951823E-02 
780	 9.62553443879395E-02 
781	 9.62462754610639E-02 
782	 0.096230287159208 
783	 9.62069313769114E-02 
784	 9.61701586590356E-02 
785	 9.61585388599598E-02 
786	 9.61490514540864E-02 
787	 9.61256958588044E-02 
788	 9.61158600397926E-02 
789	 9.61508503662471E-02 
790	 9.61686470449402E-02 
791	 9.61061760509866E-02 
792	 9.60956639855919E-02 
793	 9.60916137766712E-02 
794	 9.60782153120323E-02 
795	 9.60724180703702E-02 
796	 0.096071017762946 
797	 9.60599750204737E-02 
798	 9.60312598125463E-02 
799	 9.59884419983341E-02 
800	 9.59827660683221E-02 
801	 9.59796236936699E-02 
802	 9.59460889872142E-02 
803	 9.59725957369442E-02 
804	 9.59632470268091E-02 
805	 9.59217447625806E-02 
806	 0.095910405885777 
807	 9.58843322702191E-02 
808	 9.58689624254603E-02 
809	 0.095868519884551 
810	 9.58516097817217E-02 
811	 9.58556766468985E-02 
812	 9.58351795679618E-02 
813	 9.57746270194052E-02 
814	 9.57901661878218E-02 
815	 9.57953974235227E-02 
816	 9.57765576567421E-02 
817	 9.57502304477319E-02 
818	 9.57153297416281E-02 
819	 0.095734464371869 
820	 9.57646564841812E-02 
821	 9.56915220054285E-02 
822	 9.57098622177451E-02 
823	 9.56953352784872E-02 
824	 9.56169169809634E-02 
825	 9.56726107305174E-02 
826	 0.095711058164329 
827	 9.57000952633577E-02 
828	 9.56563528710266E-02 
829	 9.56432025220153E-02 
830	 9.55997670735071E-02 
831	 9.55481773201057E-02 
832	 9.55481854817743E-02 
833	 9.56261906471839E-02 
834	 9.56367486875383E-02 
835	 0.09557515332555 
836	 9.55742157954175E-02 
837	 9.55892499622517E-02 
838	 9.56018593408176E-02 
839	 9.55974810234936E-02 
840	 9.55639179359142E-02 
841	 0.095537346973156 
842	 9.55132820117892E-02 
843	 9.54901641534051E-02 
844	 9.55170939575739E-02 
845	 9.55358421128516E-02 
846	 9.55344627138197E-02 
847	 9.55299505120497E-02 
848	 9.55598009700896E-02 
849	 9.55841850367364E-02 
850	 9.55879184521196E-02 
851	 9.55808066639626E-02 
852	 9.55457921764438E-02 
853	 9.55215775630489E-02 
854	 9.55277031408166E-02 
855	 0.095544591077668 
856	 9.55693526284376E-02 
857	 9.55683584614057E-02 
858	 9.55319999141491E-02 
859	 9.55228375664452E-02 
860	 0.095546627221427 
861	 9.55421248297824E-02 
862	 9.54669145687864E-02 
863	 9.54666788186807E-02 
864	 9.54983241500039E-02 
865	 0.095516563766753 
866	 9.54885323242844E-02 
867	 9.54496486723424E-02 
868	 0.095436241801389 
869	 9.54581907635644E-02 
870	 0.095494784401059 
871	 9.54991856613269E-02 
872	 9.54956082811869E-02 
873	 9.55094418273737E-02 
874	 9.55459839390194E-02 
875	 9.55214632439563E-02 
876	 9.54965946934785E-02 
877	 9.55233977390966E-02 
878	 9.55277786989281E-02 
879	 9.55791813734746E-02 
880	 9.56246509380349E-02 
881	 9.56048850224096E-02 
882	 9.56130961986358E-02 
883	 9.56656385240957E-02 
884	 9.56991735192971E-02 
885	 9.56462735099272E-02 
886	 9.56958578606189E-02 
887	 9.57441799954774E-02 
888	 9.57308918710876E-02 
889	 9.56701514259222E-02 
890	 9.57148472509026E-02 
891	 9.57571584097803E-02 
892	 9.57634246714218E-02 
893	 9.58303276634956E-02 
894	 9.58762232493967E-02 
895	 9.58788607532665E-02 
896	 9.58582925120122E-02 
897	 9.58848428692625E-02 
898	 9.59324119031394E-02 
899	 9.59588151375685E-02 
900	 9.59523276214279E-02 
901	 9.59907009813663E-02 
902	 9.60595712453247E-02 
903	 9.61094718465465E-02 
904	 9.61030429405527E-02 
905	 9.60927725765174E-02 
906	 9.61318893472802E-02 
907	 9.61853785877089E-02 
908	 9.62023521942998E-02 
909	 9.63014986032721E-02 
910	 0.096334077101325 
911	 9.62962437576757E-02 
912	 9.62825509356627E-02 
913	 9.62681871677545E-02 
914	 9.63226195914822E-02 
915	 0.096401884290483 
916	 9.63825020267278E-02 
917	 9.64231769835878E-02 
918	 9.64924611405152E-02 
919	 9.65498010256656E-02 
920	 9.65789781705724E-02 
921	 9.66449996913338E-02 
922	 9.66890250924526E-02 
923	 0.096692966104779 
924	 9.67270262682668E-02 
925	 9.67944113303598E-02 
926	 0.096904404426132 
927	 9.69939291475673E-02 
928	 9.68792053348981E-02 
929	 0.096943167239576 
930	 9.70540697696959E-02 
931	 9.70554065897824E-02 
932	 9.70528080722371E-02 
933	 9.71359461971588E-02 
934	 9.72341297420603E-02 
935	 9.72779169051304E-02 
936	 0.097361243489108 
937	 9.73946125247581E-02 
938	 9.73837178038044E-02 
939	 0.097388710722682 
940	 9.75322272489441E-02 
941	 9.76367730456126E-02 
942	 9.77134093348328E-02 
943	 9.78121169621344E-02 
944	 9.78066010754134E-02 
945	 9.77874002013328E-02 
946	 9.78135797450731E-02 
947	 9.78947462214374E-02 
948	 9.79170455195973E-02 
949	 9.79852331372674E-02 
950	 9.80563346021883E-02 
951	 9.80555726871377E-02 
952	 9.81580641051696E-02 
953	 9.82945442107294E-02 
954	 9.83333448845725E-02 
955	 0.098222932715447 
956	 9.84522736097036E-02 
957	 9.85723327879677E-02 
958	 9.85455518738256E-02 
959	 9.85941638931566E-02 
960	 9.86443953003309E-02 
961	 9.86675142030929E-02 
962	 9.87219601666312E-02 
963	 9.88676089824447E-02 
964	 9.88371456662738E-02 
965	 9.89054166717227E-02 
966	 9.90526376722647E-02 
967	 9.90711049430819E-02 
968	 0.099064741717181 
969	 9.90611873671249E-02 
970	 9.90633894019094E-02 
971	 9.90784526146226E-02 
972	 9.92460361246431E-02 
973	 9.93435315521118E-02 
974	 9.93233169896827E-02 
975	 0.099299845103286 
976	 9.94398307310433E-02 
977	 9.95372265088034E-02 
978	 9.95644896147476E-02 
979	 9.96137092307217E-02 
980	 9.96166963299566E-02 
981	 9.96258229033526E-02 
982	 9.96317612193123E-02 
983	 9.96072951363786E-02 
984	 9.96686337079417E-02 
985	 9.96978132915353E-02 
986	 9.97279806513548E-02 
987	 9.98429203285684E-02 
988	 9.98893919905032E-02 
989	 9.99392925819713E-02 
990	 9.99483476035732E-02 
991	 9.98802673938332E-02 
992	 0.100016200844891 
993	 0.100143671512061 
994	 0.100221262543884 
995	 0.100270781767466 
996	 0.100160826807067 
997	 0.100293508865789 
998	 0.100453175632302 
999	 0.100342663446528 
1000	 0.100315993937478 
1001	 9.87503779178072E-02 
1002	 9.87398826499412E-02 
1003	 9.87338573534308E-02 
1004	 9.87693656410129E-02 
1005	 9.89291231205701E-02 
1006	 9.89871783292551E-02 
1007	 9.90148178377919E-02 
1008	 9.90153746071996E-02 
1009	 9.90186021849316E-02 
1010	 9.90495237329374E-02 
1011	 9.90705052358427E-02 
1012	 9.90733416578147E-02 
1013	 9.90457814080668E-02 
1014	 9.90192959955383E-02 
1015	 9.89859978799313E-02 
1016	 0.098968701247022 
1017	 9.89892117629547E-02 
1018	 0.099043129022764 
1019	 9.90911330866798E-02 
1020	 9.91548840057954E-02 
1021	 9.91700270030918E-02 
1022	 9.91576337626604E-02 
1023	 9.91156234467672E-02 
1024	 0.099039294891383 
1025	 9.91016443236594E-02 
1026	 9.91556028871061E-02 
1027	 9.90994467985717E-02 
1028	 9.91260112168384E-02 
1029	 9.91252314407233E-02 
1030	 9.90784613412046E-02 
1031	 9.90671157404983E-02 
1032	 9.91227486338489E-02 
1033	 0.099129694574633 
1034	 9.91084085190091E-02 
1035	 9.90989305350985E-02 
1036	 0.09907650943409 
1037	 9.90729538188058E-02 
1038	 9.90551374185872E-02 
1039	 9.90275960438822E-02 
1040	 9.90508608471012E-02 
1041	 9.90608046780212E-02 
1042	 0.099064809286156 
1043	 9.91448224125834E-02 
1044	 9.91867312620132E-02 
1045	 9.92106292738729E-02 
1046	 9.92493809434718E-02 
1047	 9.93501433641178E-02 
1048	 9.93444014214124E-02 
1049	 9.93429680004019E-02 
1050	 0.099401623117225 
1051	 9.93871260140621E-02 
1052	 9.93816430585212E-02 
1053	 9.94226421250028E-02 
1054	 9.94414800775595E-02 
1055	 9.94638244806673E-02 
1056	 9.95199805407397E-02 
1057	 9.95671721954833E-02 
1058	 9.96415665851123E-02 
1059	 0.099678012984374 
1060	 9.97010662745269E-02 
1061	 9.96832403013499E-02 
1062	 9.97058522132852E-02 
1063	 9.97561723118714E-02 
1064	 9.98333919653061E-02 
1065	 9.99313687112311E-02 
1066	 9.99935742706601E-02 
1067	 0.100028037135515 
1068	 0.10006445694179 
1069	 0.100108527253182 
1070	 0.100144965348894 
1071	 0.100191341115669 
1072	 0.100225429763207 
1073	 0.100233950001503 
1074	 0.100266175970503 
1075	 0.100323080666648 
1076	 0.100343317210133 
1077	 0.100364681633022 
1078	 0.100375453983752 
1079	 0.100383239123902 
1080	 0.100401738814485 
1081	 0.1004087495648 
1082	 0.100413249680414 
1083	 0.100403710585247 
1084	 0.100353477624833 
1085	 0.10034888159194 
1086	 0.100365846244384 
1087	 0.100377404607725 
1088	 0.10041241603101 
1089	 0.100429946552415 
1090	 0.100410985420289 
1091	 0.100380949657561 
1092	 0.100344059563588 
1093	 0.100318723573696 
1094	 0.100319567979334 
1095	 0.100331075144455 
1096	 0.100335585441126 
1097	 0.100324006447031 
1098	 0.100322929331981 
1099	 0.100325470005322 
1100	 0.100314285947566 
1101	 0.100297469263915 
1102	 0.100290129844057 
1103	 0.100284928549351 
1104	 0.100261593314475 
1105	 0.100237702857599 
1106	 0.100243960137468 
1107	 0.100236209530061 
1108	 0.1002029143068 
1109	 0.100168382297806 
1110	 0.100125560066198 
1111	 0.100119081528618 
1112	 0.100130961510285 
1113	 0.100135159442561 
1114	 0.1001786635659 
1115	 0.10018071419514 
1116	 0.100133990960929 
1117	 0.100121950149657 
1118	 0.1001174654399 
1119	 0.100116614030555 
1120	 0.1001197510943 
1121	 0.100126698823584 
1122	 0.100108438259814 
1123	 0.100077696308447 
1124	 0.100067315755478 
1125	 0.100058290807863 
1126	 0.100062526889176 
1127	 0.100084797874126 
1128	 0.100092765096324 
1129	 0.100110069621152 
1130	 0.100108463547709 
1131	 0.100097460996269 
1132	 0.100083069559908 
1133	 0.100038546510091 
1134	 0.100025154318771 
1135	 0.100016379686108 
1136	 0.100022633384592 
1137	 0.100052863210083 
1138	 0.100071625027478 
1139	 0.100090185768279 
1140	 0.100114538307195 
1141	 0.100116756391751 
1142	 0.10011203790954 
1143	 0.100102426912722 
1144	 0.100066513447195 
1145	 0.100049640814626 
1146	 0.100040226157209 
1147	 0.100030866142421 
1148	 0.100023652933058 
1149	 0.100020444326324 
1150	 0.100023256492425 
1151	 0.100022933477991 
1152	 0.100013478748731 
1153	 0.10001359084735 
1154	 0.100016328575873 
1155	 0.100021396667492 
1156	 0.100014995522671 
1157	 0.100010659534761 
1158	 0.100007316678431 
1159	 9.99891220887462E-02 
1160	 9.99827255282784E-02 
1161	 9.99972943502623E-02 
1162	 9.99912052972348E-02 
1163	 9.99646575104627E-02 
1164	 9.99573460776918E-02 
1165	 9.99533083165643E-02 
1166	 0.099948915053296 
1167	 9.99580947174314E-02 
1168	 9.99643080541481E-02 
1169	 9.99601280936149E-02 
1170	 9.99436333740563E-02 
1171	 9.99388038654407E-02 
1172	 9.99330516239863E-02 
1173	 9.99293013888116E-02 
1174	 9.99238859778806E-02 
1175	 9.99297737734242E-02 
1176	 9.99450581396476E-02 
1177	 9.99547874018952E-02 
1178	 9.99704945258819E-02 
1179	 9.99862361465537E-02 
1180	 9.99936477912452E-02 
1181	 0.100006506056649 
1182	 0.100020179691961 
1183	 0.100055599652633 
1184	 0.100064414534521 
1185	 0.100064385810256 
1186	 0.100067007118828 
1187	 0.100051537682693 
1188	 0.100061097127855 
1189	 0.100083946466873 
1190	 0.100104907049119 
1191	 0.100137525023369 
1192	 0.100163476318208 
1193	 0.100190416042732 
1194	 0.100212253520078 
1195	 0.100230612848915 
1196	 0.100250205720431 
1197	 0.100270617534058 
1198	 0.100284039094705 
1199	 0.100294295885587 
1200	 0.100299875515666 
1201	 0.100314492793267 
1202	 0.100323061638229 
1203	 0.100344964935687 
1204	 0.1003827028375 
1205	 0.100410796322583 
1206	 0.100444800058221 
1207	 0.10046588684338 
1208	 0.10047246614767 
1209	 0.100493053860242 
1210	 0.100517427788193 
1211	 0.100535261767195 
1212	 0.100557505016594 
1213	 0.100579046969033 
1214	 0.100583827719928 
1215	 0.100603155328186 
1216	 0.100630241588266 
1217	 0.10067358825026 
1218	 0.100699019305562 
1219	 0.100725649940447 
1220	 0.100747411089247 
1221	 0.100754710282626 
1222	 0.100775089177618 
1223	 0.100802374472919 
1224	 0.100827013619304 
1225	 0.100860887449634 
1226	 0.100880626520653 
1227	 0.100888824085617 
1228	 0.100903866161087 
1229	 0.100911368547181 
1230	 0.100924460731366 
1231	 0.100942331123848 
1232	 0.100964984437681 
1233	 0.100990837777953 
1234	 0.101018591852091 
1235	 0.101048502396766 
1236	 0.101090235709001 
1237	 0.101114422917788 
1238	 0.101130002254641 
1239	 0.101148978326084 
1240	 0.101157847725879 
1241	 0.101176922191347 
1242	 0.101206541002993 
1243	 0.101227070217202 
1244	 0.101242673122173 
1245	 0.101263465269223 
1246	 0.101276709052903 
1247	 0.101301835391224 
1248	 0.101333465652838 
1249	 0.10138057323189 
1250	 0.101419050724326 
1251	 0.101433340428541 
1252	 0.101449374380684 
1253	 0.101448522741888 
1254	 0.101459037621825 
1255	 0.101475574936956 
1256	 0.101480900380026 
1257	 0.101477197923367 
1258	 0.101481914732022 
1259	 0.101483285235141 
1260	 0.10148909844363 
1261	 0.101509634030157 
1262	 0.10151707813735 
1263	 0.101505904557074 
1264	 0.101511634701743 
1265	 0.101528773869582 
1266	 0.101536186508838 
1267	 0.101538365210297 
1268	 0.101558693941728 
1269	 0.101575356761792 
1270	 0.101582763789153 
1271	 0.101602846628898 
1272	 0.101633205149931 
1273	 0.101670294697924 
1274	 0.101717402827993 
1275	 0.101751613676432 
1276	 0.10178548420955 
1277	 0.101828189505033 
1278	 0.101855991855305 
1279	 0.101905643429041 
1280	 0.101986424394996 
1281	 0.102051825674964 
1282	 0.102109047574857 
1283	 0.102177982434067 
1284	 0.102249680910812 
1285	 0.102323816788855 
1286	 0.102414392529648 
1287	 0.10250637581308 
1288	 0.102580779385846 
1289	 0.102649036043843 
1290	 0.102715346759102 
1291	 0.102765162212686 
1292	 0.10282929085354 
1293	 0.102900316391403 
1294	 0.102966914735009 
1295	 0.103040666246318 
1296	 0.103102400832783 
1297	 0.103160833142762 
1298	 0.103210729576795 
1299	 0.103249430984622 
1300	 0.10328594660052 
1301	 0.103310157404454 
1302	 0.103341889924232 
1303	 0.103370371665163 
1304	 0.103412590370124 
1305	 0.103444173595749 
1306	 0.10346373322196 
1307	 0.103469958240419 
1308	 0.10346758217084 
1309	 0.103471091271872 
1310	 0.103474818451149 
1311	 0.103468976920401 
1312	 0.103460130774274 
1313	 0.103451336418801 
1314	 0.103434738478964 
1315	 0.103423693087958 
1316	 0.103419209023413 
1317	 0.103405293455904 
1318	 0.103372289901243 
1319	 0.103360897034068 
1320	 0.103371043828527 
1321	 0.103363174767937 
1322	 0.10334966777168 
1323	 0.103351465380477 
1324	 0.103339033896857 
1325	 0.103317250527329 
1326	 0.103314567094814 
1327	 0.103306088416599 
1328	 0.103296388867922 
1329	 0.103278390393939 
1330	 0.103253715630876 
1331	 0.103217970403114 
1332	 0.10320049135355 
1333	 0.103184438050453 
1334	 0.103164656317389 
1335	 0.103151099272379 
1336	 0.103140143688267 
1337	 0.10311263352767 
1338	 0.103111892799239 
1339	 0.103141966893986 
1340	 0.103153571444626 
1341	 0.103175549933022 
1342	 0.103182449174329 
1343	 0.103171729613204 
1344	 0.10316489624367 
1345	 0.10316516638469 
1346	 0.103148804964139 
1347	 0.103156215855271 
1348	 0.103163681797037 
1349	 0.103138384478411 
1350	 0.103133561629345 
1351	 0.103136839204818 
1352	 0.103139583589885 
1353	 0.103138851369635 
1354	 0.103158431706771 
1355	 0.103156192324525 
1356	 0.1031270821637 
1357	 0.103121330636556 
1358	 0.10312020424535 
1359	 0.103127872857426 
1360	 0.103147383711778 
1361	 0.103162612434838 
1362	 0.103188880622795 
1363	 0.103203889063163 
1364	 0.103204594765496 
1365	 0.103217111885599 
1366	 0.103225301598783 
1367	 0.10324990328685 
1368	 0.103275618515487 
1369	 0.103299969241074 
1370	 0.103321542592589 
1371	 0.103315259074278 
1372	 0.103297103552555 
1373	 0.103287314125897 
1374	 0.103281203839628 
1375	 0.103274146540937 
1376	 0.103264966533222 
1377	 0.103267574187409 
1378	 0.1032527121351 
1379	 0.103225921154195 
1380	 0.103200569773656 
1381	 0.103158680523912 
1382	 0.103136765932315 
1383	 0.103123286520496 
1384	 0.103109358131626 
1385	 0.103113064363192 
1386	 0.103103602118408 
1387	 0.103083770891869 
1388	 0.103065229392921 
1389	 0.103044336340713 
1390	 0.103026971802478 
1391	 0.102988238348231 
1392	 0.102960491841081 
1393	 0.102940014321666 
1394	 0.102906731526952 
1395	 0.10287771014921 
1396	 0.102847637162982 
1397	 0.102827485345571 
1398	 0.102806519025585 
1399	 0.102778932941357 
1400	 0.102769539930349 
1401	 0.102739738182415 
1402	 0.102675768328775 
1403	 0.102644065917644 
1404	 0.102622733042873 
1405	 0.102603147310199 
1406	 0.102609355789955 
1407	 0.102589622467742 
1408	 0.102553217909613 
1409	 0.102524859968932 
1410	 0.102472541080461 
1411	 0.102450157289303 
1412	 0.102448595823357 
1413	 0.10245485091512 
1414	 0.102456131289502 
1415	 0.102460030497781 
1416	 0.102454003397286 
1417	 0.10245386185114 
1418	 0.102457329091826 
1419	 0.102468036469746 
1420	 0.102479725401689 
1421	 0.102479260827085 
1422	 0.102499721737763 
1423	 0.102529651377684 
1424	 0.102549434949497 
1425	 0.102578540261628 
1426	 0.102594900254992 
1427	 0.10258525428821 
1428	 0.102606963929077 
1429	 0.102646686823335 
1430	 0.10267054014242 
1431	 0.102704953567217 
1432	 0.102731725247548 
1433	 0.102743479374705 
1434	 0.102760808245194 
1435	 0.102782682536434 
1436	 0.102801921638596 
1437	 0.102806620283932 
1438	 0.102831149638181 
1439	 0.102870941585111 
1440	 0.102907371580669 
1441	 0.102943647202902 
1442	 0.102975044712657 
1443	 0.10298994793457 
1444	 0.103010156715575 
1445	 0.103044423744182 
1446	 0.103080195375707 
1447	 0.103113944044206 
1448	 0.103141972508616 
1449	 0.103162093571855 
1450	 0.103186518700346 
1451	 0.103203212938593 
1452	 0.103208334492091 
1453	 0.103233692588343 
1454	 0.103261764425504 
1455	 0.103293656930486 
1456	 0.1033439633077 
1457	 0.103381264781086 
1458	 0.103417983326076 
1459	 0.103447559460651 
1460	 0.103468967609496 
1461	 0.10349846483057 
1462	 0.103521722047428 
1463	 0.103545351079829 
1464	 0.103579387131745 
1465	 0.103604893923373 
1466	 0.103625869682598 
1467	 0.103645678025679 
1468	 0.103658703792925 
1469	 0.103675223273954 
1470	 0.103687111177161 
1471	 0.103708107232386 
1472	 0.103733979898199 
1473	 0.103764141848634 
1474	 0.103797158691698 
1475	 0.103816503737312 
1476	 0.103822802724486 
1477	 0.103840199013852 
1478	 0.10386494827977 
1479	 0.103880298761841 
1480	 0.103906584500362 
1481	 0.103929926270455 
1482	 0.103958666569921 
1483	 0.103989690411867 
1484	 0.104019208010218 
1485	 0.104059116881111 
1486	 0.104081462204066 
1487	 0.104089380589525 
1488	 0.104104557855315 
1489	 0.104110674771172 
1490	 0.104130074428115 
1491	 0.104157810360166 
1492	 0.104183434437906 
1493	 0.104224835650342 
1494	 0.104245646541406 
1495	 0.104246634921901 
1496	 0.10426311383149 
1497	 0.104280976146395 
1498	 0.10429220902647 
1499	 0.104310136284037 
1500	 0.10432706741405 
1501	 0.104326690938294 
1502	 0.104340735789441 
1503	 0.104368152510601 
1504	 0.104396003099588 
1505	 0.104416078399214 
1506	 0.104429868433253 
1507	 0.104442022289221 
1508	 0.104447445100046 
1509	 0.104443335863619 
1510	 0.104450571520221 
1511	 0.104461684560143 
1512	 0.104469336017948 
1513	 0.104490471280724 
1514	 0.104519979038274 
1515	 0.104534419118774 
1516	 0.104547873423141 
1517	 0.104572733761775 
1518	 0.104610070486142 
1519	 0.104621062428182 
1520	 0.104628650112383 
1521	 0.104639003450025 
1522	 0.104627656784378 
1523	 0.104633031755498 
1524	 0.104655244521436 
1525	 0.104666697328214 
1526	 0.104673732336212 
1527	 0.104681277600573 
1528	 0.104683162208476 
1529	 0.10469960126343 
1530	 0.104723214005663 
1531	 0.104741065121994 
1532	 0.104770073388864 
1533	 0.10479141159436 
1534	 0.10480504290998 
1535	 0.104817902070392 
1536	 0.10482832922071 
1537	 0.104841328074919 
1538	 0.104845849351226 
1539	 0.104858816368197 
1540	 0.104882734590391 
1541	 0.104903109671167 
1542	 0.104923410579657 
1543	 0.104945440832814 
1544	 0.104974574542763 
1545	 0.104992609514871 
1546	 0.105003424319774 
1547	 0.105019141814736 
1548	 0.10502465697893 
1549	 0.105027331986753 
1550	 0.105037948468267 
1551	 0.105051765248359 
1552	 0.105049753505262 
1553	 0.105047307293552 
1554	 0.105060657709212 
1555	 0.105062276635383 
1556	 0.105074796992915 
1557	 0.105093875584836 
1558	 0.105093087930426 
1559	 0.105087750334071 
1560	 0.105088542641749 
1561	 0.105089992429665 
1562	 0.105092604613827 
1563	 0.105099366950982 
1564	 0.105100076321598 
1565	 0.105096841462186 
1566	 0.105093977724483 
1567	 0.105083368434482 
1568	 0.105089971367573 
1569	 0.105106594656053 
1570	 0.105116444174887 
1571	 0.105141020376099 
1572	 0.105147256910915 
1573	 0.105136269587838 
1574	 0.105133898223833 
1575	 0.105121680775297 
1576	 0.105126955607854 
1577	 0.105144788993783 
1578	 0.105158178308647 
1579	 0.105182245057067 
1580	 0.105196486374933 
1581	 0.105202739175293 
1582	 0.105212746821117 
1583	 0.105227337433022 
1584	 0.105232573258811 
1585	 0.105236368503311 
1586	 0.105232354237277 
1587	 0.105210034944779 
1588	 0.105203552070701 
1589	 0.10520314074933 
1590	 0.105199207130374 
1591	 0.105202258505955 
1592	 0.105201814211177 
1593	 0.105188874907777 
1594	 0.105188873041811 
1595	 0.105207051973207 
1596	 0.105209079900447 
1597	 0.10519815951311 
1598	 0.105201020756243 
1599	 0.105205463636054 
1600	 0.105208807546779 
1601	 0.105227703876118 
1602	 0.105238156375364 
1603	 0.105232656845447 
1604	 0.105234034114693 
1605	 0.105239137054684 
1606	 0.105246364986981 
1607	 0.10526580692999 
1608	 0.105268666404916 
1609	 0.105263395050626 
1610	 0.105263193911831 
1611	 0.105254908728124 
1612	 0.105253885920333 
1613	 0.105260203357477 
1614	 0.105266639101335 
1615	 0.105265866684509 
1616	 0.105267029020425 
1617	 0.105298294159733 
1618	 0.105326324050796 
1619	 0.105347774663921 
1620	 0.105378737816723 
1621	 0.105397609664247 
1622	 0.105400605050589 
1623	 0.105404686646879 
1624	 0.105414649766933 
1625	 0.105408941488722 
1626	 0.105382753199409 
1627	 0.105375044845725 
1628	 0.105370397256455 
1629	 0.105365482411319 
1630	 0.105359184393253 
1631	 0.105372148825409 
1632	 0.105392082517999 
1633	 0.105416527388754 
1634	 0.105469120863464 
1635	 0.105482368842874 
1636	 0.105478334140561 
1637	 0.105477748085282 
1638	 0.10545841007298 
1639	 0.105455030363811 
1640	 0.105461292464863 
1641	 0.105458452293127 
1642	 0.105450729901563 
1643	 0.105451105167661 
1644	 0.10544922753081 
1645	 0.105457385819213 
1646	 0.105476821495568 
1647	 0.105491766328241 
1648	 0.105514041214223 
1649	 0.105523418222732 
1650	 0.105526910688232 
1651	 0.105530290814453 
1652	 0.10552505468468 
1653	 0.105525014113723 
1654	 0.105531264085777 
1655	 0.105527502243072 
1656	 0.105513427212515 
1657	 0.105512293614467 
1658	 0.105509487070553 
1659	 0.105514242960487 
1660	 0.105544910566744 
1661	 0.105538804298897 
1662	 0.10550995546369 
1663	 0.105497851964171 
1664	 0.10546291647376 
1665	 0.105461029449503 
1666	 0.105494651171735 
1667	 0.105504888147497 
1668	 0.105517112542495 
1669	 0.10552474266869 
1670	 0.105521705939131 
1671	 0.105524162973873 
1672	 0.105527190094501 
1673	 0.105534281399849 
1674	 0.105544893036685 
1675	 0.105550081180843 
1676	 0.105561419233696 
1677	 0.105561553863583 
1678	 0.105537102065962 
1679	 0.105547668797818 
1680	 0.105576366000689 
1681	 0.105592989605098 
1682	 0.105626604689998 
1683	 0.105648956336542 
1684	 0.105657262520502 
1685	 0.105666881119472 
1686	 0.105680899397029 
1687	 0.105689879770404 
1688	 0.105684117737405 
1689	 0.10569209246808 
1690	 0.105714782457327 
1691	 0.105721599752937 
1692	 0.105726398311886 
1693	 0.105725686300349 
1694	 0.105706979520713 
1695	 0.105704177937961 
1696	 0.105702454067578 
1697	 0.105712212587843 
1698	 0.105737161809702 
1699	 0.10575505181429 
1700	 0.105784375713956 
1701	 0.105796378666976 
1702	 0.105799934920929 
1703	 0.105797168683067 
1704	 0.105777275406083 
1705	 0.105770284141895 
1706	 0.1057628641992 
1707	 0.10575992834801 
1708	 0.105767232390005 
1709	 0.105765547143819 
1710	 0.105751454043504 
1711	 0.105760946318651 
1712	 0.105791733547794 
1713	 0.10579442693489 
1714	 0.105795231745126 
1715	 0.105795079149098 
1716	 0.10576653644038 
1717	 0.105765823798458 
1718	 0.105794625763197 
1719	 0.105800861078045 
1720	 0.105796856178471 
1721	 0.105802094595925 
1722	 0.105804227334575 
1723	 0.105813257825129 
1724	 0.105842379242324 
1725	 0.105839392136649 
1726	 0.105821952202181 
1727	 0.105805845108823 
1728	 0.105759552623334 
1729	 0.105751762427706 
1730	 0.10577130155836 
1731	 0.105768610452661 
1732	 0.105776838691488 
1733	 0.105769054341927 
1734	 0.105735916124774 
1735	 0.105725082668893 
1736	 0.105717664023545 
1737	 0.105718826278145 
1738	 0.1057380594257 
1739	 0.105736696119898 
1740	 0.105726171382938 
1741	 0.105727831778223 
1742	 0.105725880354288 
1743	 0.105724279802552 
1744	 0.105740458298397 
1745	 0.105729851397677 
1746	 0.105697736145396 
1747	 0.105684709586254 
1748	 0.105671777848888 
1749	 0.10568361010767 
1750	 0.10569109513412 
1751	 0.105686631321033 
1752	 0.105662423123321 
1753	 0.105637175161585 
1754	 0.105610242655079 
1755	 0.105576337394726 
1756	 0.105583017252286 
1757	 0.105593681394589 
1758	 0.105576464772823 
1759	 0.105567360734814 
1760	 0.105557582691881 
1761	 0.105535257653747 
1762	 0.105528525526112 
1763	 0.105542396729491 
1764	 0.105551160722694 
1765	 0.105561207870325 
1766	 0.105553674479151 
1767	 0.10552156821271 
1768	 0.105486380028506 
1769	 0.10546426834776 
1770	 0.105467346363086 
1771	 0.105475157308264 
1772	 0.105486715399334 
1773	 0.105472559700535 
1774	 0.105447017529287 
1775	 0.105439478571227 
1776	 0.10542262730681 
1777	 0.105432406578652 
1778	 0.105468492720685 
1779	 0.105485994108001 
1780	 0.105483478116564 
1781	 0.105456316007468 
1782	 0.105419509123746 
1783	 0.105422610253389 
1784	 0.105422674804808 
1785	 0.10544672393215 
1786	 0.105461161029661 
1787	 0.105449243203138 
1788	 0.105459731001227 
1789	 0.105489790610116 
1790	 0.105514498460495 
1791	 0.105564805228501 
1792	 0.105579826101009 
1793	 0.105572142186541 
1794	 0.105567652621111 
1795	 0.105525043794825 
1796	 0.105517856458226 
1797	 0.105541792747271 
1798	 0.105545376941756 
1799	 0.105557148770792 
1800	 0.105558935071159 
1801	 0.10289001228678 
1802	 0.102948453313809 
1803	 0.103046564756245 
1804	 0.103143407404501 
1805	 0.103259257067247 
1806	 0.10339985530101 
1807	 0.103529113019313 
1808	 0.103646516813027 
1809	 0.103781331612337 
1810	 0.103880086076379 
1811	 0.103957036513275 
1812	 0.104015317317842 
1813	 0.10406373630545 
1814	 0.104111017980565 
1815	 0.104193361504922 
1816	 0.104257606490478 
1817	 0.104289043712716 
1818	 0.104300015684836 
1819	 0.10432079622193 
1820	 0.104313409981788 
1821	 0.104313043361494 
1822	 0.10435047976408 
1823	 0.104387799860295 
1824	 0.104424794764017 
1825	 0.104455187358859 
1826	 0.104492984145971 
1827	 0.104528972319087 
1828	 0.104552374152639 
1829	 0.104562631482025 
1830	 0.104582958218125 
1831	 0.104603762722024 
1832	 0.104616079117945 
1833	 0.104622075652252 
1834	 0.1046309244561 
1835	 0.10461786086458 
1836	 0.104603613257338 
1837	 0.104621410620488 
1838	 0.104650382930377 
1839	 0.104691174644511 
1840	 0.104761411249847 
1841	 0.104818095707857 
1842	 0.104845135539928 
1843	 0.104871574773189 
1844	 0.104863941436138 
1845	 0.104867952185178 
1846	 0.104886616438788 
1847	 0.104900148806594 
1848	 0.104939564524217 
1849	 0.104967723366875 
1850	 0.104992376804521 
1851	 0.105020364635748 
1852	 0.105046510170591 
1853	 0.105053331542414 
1854	 0.10507274232364 
1855	 0.10509627976098 
1856	 0.10512010851277 
1857	 0.105144419233859 
1858	 0.105158226747495 
1859	 0.105147682789823 
1860	 0.105133395761259 
1861	 0.105102758219 
1862	 0.105079285971895 
1863	 0.105057184632787 
1864	 0.105041864551251 
1865	 0.105033101713014 
1866	 0.105007348716658 
1867	 0.104991655401566 
1868	 0.104978311052317 
1869	 0.104952631187855 
1870	 0.104943587894325 
1871	 0.104921120070505 
1872	 0.104881020679618 
1873	 0.104845223026654 
1874	 0.104828420286332 
1875	 0.104802553331556 
1876	 0.10479803148217 
1877	 0.104794280411989 
1878	 0.104769278660227 
1879	 0.104732466997122 
1880	 0.104684714009104 
1881	 0.104610581083787 
1882	 0.104546437202541 
1883	 0.104481562628441 
1884	 0.104407251093326 
1885	 0.10435006444689 
1886	 0.10427713149758 
1887	 0.1041501106637 
1888	 0.104030222783141 
1889	 0.103911574853044 
1890	 0.103762719230565 
1891	 0.103637974499176 
1892	 0.103556450353416 
1893	 0.103443834628161 
1894	 0.103312739655342 
1895	 0.103194143585913 
1896	 0.103072890370503 
1897	 0.10291271727918 
1898	 0.102762219738642 
1899	 0.102610498434826 
1900	 0.102436284435416 
1901	 0.102274933171707 
1902	 0.102124436546931 
1903	 0.101976385665677 
1904	 0.101830540214156 
1905	 0.101690570068493 
1906	 0.101571213881856 
1907	 0.101449869555747 
1908	 0.101331496305812 
1909	 0.101231815580623 
1910	 0.101127695082795 
1911	 0.101034651415685 
1912	 0.100950470220062 
1913	 0.100853461457798 
1914	 0.100756736245397 
1915	 0.100663520254444 
1916	 0.100564788513183 
1917	 0.100452432580446 
1918	 0.100365724967207 
1919	 0.100291943680661 
1920	 0.100208603295026 
1921	 0.100133427356546 
1922	 0.100073669555333 
1923	 0.100018847523381 
1924	 9.99791633871389E-02 
1925	 9.99633241529435E-02 
1926	 9.99431649267431E-02 
1927	 9.99334279668951E-02 
1928	 0.099917856199397 
1929	 9.99041046800828E-02 
1930	 9.98992681867536E-02 
1931	 9.98904240223634E-02 
1932	 9.98867305009869E-02 
1933	 9.98960512249348E-02 
1934	 9.98835203142742E-02 
1935	 9.98749446712342E-02 
1936	 9.98660065366437E-02 
1937	 9.98631999911843E-02 
1938	 0.099848472082064 
1939	 9.98549988520134E-02 
1940	 9.98871475727442E-02 
1941	 9.99007239993405E-02 
1942	 9.99103962750562E-02 
1943	 9.99162202765455E-02 
1944	 0.099928763184999 
1945	 9.99673258452774E-02 
1946	 9.99872727879811E-02 
1947	 0.100021102880001 
1948	 0.10003780152616 
1949	 0.100024070193979 
1950	 0.100027201947655 
1951	 0.100020965063978 
1952	 0.100050487734548 
1953	 0.100085460517479 
1954	 0.100122304027636 
1955	 0.100175824003356 
1956	 0.100226175880561 
1957	 0.100267373902586 
1958	 0.100290441326812 
1959	 0.100339655131269 
1960	 0.100400632585469 
1961	 0.100452961934499 
1962	 0.100519311633421 
1963	 0.100581368461801 
1964	 0.100632143392289 
1965	 0.10068203553938 
1966	 0.100755269040468 
1967	 0.100816249276846 
1968	 0.100882152221278 
1969	 0.100958838455891 
1970	 0.101019441999497 
1971	 0.101065955479678 
1972	 0.101126007107891 
1973	 0.101184615141987 
1974	 0.101242140476263 
1975	 0.101294558399456 
1976	 0.101375289283424 
1977	 0.101457398762137 
1978	 0.101496745237571 
1979	 0.101550512720288 
1980	 0.101627217259668 
1981	 0.10169131060562 
1982	 0.101748336248344 
1983	 0.101817811767953 
1984	 0.101893390087278 
1985	 0.10196243651362 
1986	 0.102028608303425 
1987	 0.102101965022373 
1988	 0.102181943214528 
1989	 0.102258985342226 
1990	 0.10232410883835 
1991	 0.102405310272244 
1992	 0.102462062001483 
1993	 0.102495723266061 
1994	 0.102543396031304 
1995	 0.102574913161022 
1996	 0.102632796597391 
1997	 0.102713819096136 
1998	 0.102781597942287 
1999	 0.102868945322244 
2000	 0.102937031277927 
2001	 0.102996397017151 
2002	 0.103031278041088 
2003	 0.103074621891918 
2004	 0.103117013794816 
2005	 0.103182815668849 
2006	 0.103271624047776 
2007	 0.103344019327503 
2008	 0.10342962120111 
2009	 0.103499293102448 
2010	 0.103544358420205 
2011	 0.103607173851009 
2012	 0.103677271779036 
2013	 0.103747701661575 
2014	 0.103823557598683 
2015	 0.103896978435681 
2016	 0.103977436172349 
2017	 0.104061072411675 
2018	 0.104135135568199 
2019	 0.104216090919016 
2020	 0.104277843724214 
2021	 0.104321386479832 
2022	 0.104369150902518 
2023	 0.104403681613238 
2024	 0.104447887504946 
2025	 0.104489513985312 
2026	 0.104542089654725 
2027	 0.104593469089213 
2028	 0.104672865734385 
2029	 0.104735026836466 
2030	 0.10479922169279 
2031	 0.104864084964603 
2032	 0.104927050917412 
2033	 0.104983080927821 
2034	 0.105037902352204 
2035	 0.105098651687365 
2036	 0.105162577344503 
2037	 0.105214689967246 
2038	 0.105262805283036 
2039	 0.105314465696105 
2040	 0.105355518421345 
2041	 0.10539923810162 
2042	 0.105447656701063 
2043	 0.105500897484891 
2044	 0.105540382726687 
2045	 0.105559936671233 
2046	 0.105597927321447 
2047	 0.105641275013617 
2048	 0.105683603515233 
2049	 0.105739246850904 
2050	 0.105779512917042 
2051	 0.105803630635429 
2052	 0.105838482555906 
2053	 0.105880931907241 
2054	 0.105910593256554 
2055	 0.105929470236048 
2056	 0.105966479477232 
2057	 0.105992228238063 
2058	 0.105994766601513 
2059	 0.106032569484854 
2060	 0.106096512528282 
2061	 0.106138307725593 
2062	 0.106198628913387 
2063	 0.106229438286117 
2064	 0.106225182908223 
2065	 0.106240184052273 
2066	 0.106232870464223 
2067	 0.106258266870112 
2068	 0.106310734039775 
2069	 0.106370621177474 
2070	 0.106406965028859 
2071	 0.106443494745201 
2072	 0.106492051606557 
2073	 0.106523318242956 
2074	 0.106575601946075 
2075	 0.10667393286039 
2076	 0.106725824112184 
2077	 0.106759588439571 
2078	 0.106785186066452 
2079	 0.106778599472859 
2080	 0.106792881093975 
2081	 0.106796672628206 
2082	 0.106821768959678 
2083	 0.106870018642256 
2084	 0.106920943950862 
2085	 0.106960487161172 
2086	 0.10700883774365 
2087	 0.107040714547293 
2088	 0.107049670702581 
2089	 0.107082204833786 
2090	 0.107124854492485 
2091	 0.107156589248444 
2092	 0.10718532895347 
2093	 0.107225348633332 
2094	 0.107265678350871 
2095	 0.107305058760623 
2096	 0.107363670963099 
2097	 0.10740786122039 
2098	 0.107440319794362 
2099	 0.107471862321097 
2100	 0.107491203672345 
2101	 0.107492472211917 
2102	 0.107525332805053 
2103	 0.107564678455899 
2104	 0.107595904133449 
2105	 0.107652320127295 
2106	 0.107683227195898 
2107	 0.107661524212842 
2108	 0.107701344807893 
2109	 0.1077808661864 
2110	 0.107839944378156 
2111	 0.107924741496379 
2112	 0.10799767911954 
2113	 0.108059824512772 
2114	 0.108106405118157 
2115	 0.108158028343079 
2116	 0.108215035422638 
2117	 0.108264674714396 
2118	 0.108302715390618 
2119	 0.108344896908 
2120	 0.10839414472344 
2121	 0.108432110901375 
2122	 0.108453378991654 
2123	 0.108491299711048 
2124	 0.108529840830126 
2125	 0.108575861096987 
2126	 0.108657238561587 
2127	 0.108697514819773 
2128	 0.108721778454568 
2129	 0.108736638828304 
2130	 0.108716997460829 
2131	 0.108699198374097 
2132	 0.108694655675788 
2133	 0.108694587407899 
2134	 0.108697998769077 
2135	 0.108705219772147 
2136	 0.10872109215491 
2137	 0.108762674716497 
2138	 0.108761994194929 
2139	 0.108759417461278 
2140	 0.108735081115377 
2141	 0.108644814729124 
2142	 0.108607698939403 
2143	 0.108611432041786 
2144	 0.108577177074128 
2145	 0.108549923038037 
2146	 0.108510087624837 
2147	 0.108436729018628 
2148	 0.108353867251376 
2149	 0.108293146566145 
2150	 0.108241295873927 
2151	 0.108196158747629 
2152	 0.108170972708327 
2153	 0.108118997234145 
2154	 0.108062076841434 
2155	 0.10800517080503 
2156	 0.107930770781466 
2157	 0.107862938367663 
2158	 0.107824340232952 
2159	 0.107743042590693 
2160	 0.107623799734289 
2161	 0.107522179473043 
2162	 0.107404652195569 
2163	 0.107289973149843 
2164	 0.107179255559338 
2165	 0.107081522813652 
2166	 0.106979750793792 
2167	 0.106864894262273 
2168	 0.106774099198075 
2169	 0.106700291200947 
2170	 0.106623670611493 
2171	 0.106562108453022 
2172	 0.106483933705596 
2173	 0.106400007718166 
2174	 0.10631925803902 
2175	 0.106218147957445 
2176	 0.106145109895402 
2177	 0.106097859941073 
2178	 0.106036648410557 
2179	 0.10598370502056 
2180	 0.105927877257196 
2181	 0.105874617445671 
2182	 0.105803843375067 
2183	 0.105732576541119 
2184	 0.105641969873666 
2185	 0.105557144029678 
2186	 0.105436326376077 
2187	 0.105381273486054 
2188	 0.105362280312616 
2189	 0.10533008385003 
2190	 0.105343482866292 
2191	 0.105304360296965 
2192	 0.105228126342535 
2193	 0.105170764019194 
2194	 0.105099761064947 
2195	 0.105037791416851 
2196	 0.104990798454789 
2197	 0.104934596778889 
2198	 0.104857012802742 
2199	 0.104808186435995 
2200	 0.104781710676162 
2201	 0.104742987789341 
2202	 0.10473006618164 
2203	 0.104689622672876 
2204	 0.104647172642063 
2205	 0.104577815104942 
2206	 0.104544644143282 
2207	 0.104522004965402 
2208	 0.104501599736974 
2209	 0.10449785517032 
2210	 0.104488468645522 
2211	 0.104474503997444 
2212	 0.104469321741878 
2213	 0.104485757396891 
2214	 0.104475212871425 
2215	 0.104451103160273 
2216	 0.104433206818762 
2217	 0.104391103663292 
2218	 0.104370790839072 
2219	 0.104361101445676 
2220	 0.104364787952213 
2221	 0.104380071357695 
2222	 0.104414329037442 
2223	 0.104434225037835 
2224	 0.104432265988964 
2225	 0.104440200390556 
2226	 0.104425539847882 
2227	 0.104439693688699 
2228	 0.104481344234455 
2229	 0.104496874832616 
2230	 0.104509858832181 
2231	 0.104520974918431 
2232	 0.104531901866896 
2233	 0.104518569509121 
2234	 0.104479461119877 
2235	 0.10446687915878 
2236	 0.104444961314093 
2237	 0.10443353127746 
2238	 0.104452340110383 
2239	 0.104458816789329 
2240	 0.104441515047326 
2241	 0.104448800688459 
2242	 0.104483728317085 
2243	 0.104499965347349 
2244	 0.104513139323804 
2245	 0.104535195702516 
2246	 0.104540385754485 
2247	 0.104559646513361 
2248	 0.104557441993614 
2249	 0.104549785146394 
2250	 0.104548317222647 
2251	 0.104524243979689 
2252	 0.104528822172338 
2253	 0.104562592810491 
2254	 0.104577834356164 
2255	 0.104590075233935 
2256	 0.10460818226477 
2257	 0.104630306601338 
2258	 0.104642636859913 
2259	 0.104647702612959 
2260	 0.104666271976078 
2261	 0.104697804416714 
2262	 0.10470260754176 
2263	 0.104703556504677 
2264	 0.10470536274502 
2265	 0.104648187123113 
2266	 0.104654295353374 
2267	 0.104733932489345 
2268	 0.104767106611285 
2269	 0.104783170062894 
2270	 0.104849481265748 
2271	 0.104873105306556 
2272	 0.104868957720886 
2273	 0.104903378250638 
2274	 0.104924925639741 
2275	 0.104919467325792 
2276	 0.104877847343693 
2277	 0.104869885549284 
2278	 0.104856327612322 
2279	 0.10485194373331 
2280	 0.104880077682091 
2281	 0.10487933527234 
2282	 0.104842903698262 
2283	 0.104845544816982 
2284	 0.104849144318827 
2285	 0.1048766750767 
2286	 0.104959986700224 
2287	 0.105000361283529 
2288	 0.105038406557862 
2289	 0.105061493798215 
2290	 0.105059185897936 
2291	 0.10504672275222 
2292	 0.10499734194051 
2293	 0.104999887535729 
2294	 0.105022343599537 
2295	 0.105038458110866 
2296	 0.105103790025056 
2297	 0.105131833195519 
2298	 0.105119272983229 
2299	 0.10511276922198 
2300	 0.105127390863282 
2301	 0.105145343519844 
2302	 0.10516734763713 
2303	 0.105180615716193 
2304	 0.105163017535335 
2305	 0.105117889066348 
2306	 0.105091691692441 
2307	 0.105054064926546 
2308	 0.105036730428961 
2309	 0.10502070327552 
2310	 0.105044802432369 
2311	 0.105123221918445 
2312	 0.105117747435955 
2313	 0.105091539082532 
2314	 0.105093190345061 
2315	 0.105031247895087 
2316	 0.105032203250847 
2317	 0.105131864070779 
2318	 0.105155920813667 
2319	 0.105141975354018 
2320	 0.105144957691661 
2321	 0.105127837100936 
2322	 0.105123805283434 
2323	 0.105116790668751 
2324	 0.105141430288823 
2325	 0.105221688992218 
2326	 0.105233410053992 
2327	 0.105226357790895 
2328	 0.105223806541511 
2329	 0.105158546209788 
2330	 0.105128644820569 
2331	 0.105207126780202 
2332	 0.105270503081981 
2333	 0.105317692182498 
2334	 0.105353200484891 
2335	 0.105358226527096 
2336	 0.105381656042504 
2337	 0.105416883316838 
2338	 0.105465883403018 
2339	 0.105467280989454 
2340	 0.105491401707174 
2341	 0.10555070922231 
2342	 0.105573701465327 
2343	 0.105619286704572 
2344	 0.105609413126084 
2345	 0.105611006125599 
2346	 0.105578602115668 
2347	 0.105580447898902 
2348	 0.105619711170608 
2349	 0.105614035327393 
2350	 0.105598163943474 
2351	 0.105566790392107 
2352	 0.105477325556793 
2353	 0.105454647340137 
2354	 0.105460937385029 
2355	 0.105445611804292 
2356	 0.105479401261404 
2357	 0.105449773284336 
2358	 0.105328984867035 
2359	 0.105311527598453 
2360	 0.105326122708627 
2361	 0.105331594291129 
2362	 0.105418410407325 
2363	 0.10544001260076 
2364	 0.105417278304113 
2365	 0.105397147157225 
2366	 0.105351428219585 
2367	 0.10532858914073 
2368	 0.10527737902185 
2369	 0.105253573673222 
2370	 0.1052764570867 
2371	 0.105258916448 
2372	 0.105266031221277 
2373	 0.105329165466316 
2374	 0.105350210374612 
2375	 0.105351393174909 
2376	 0.10531460993829 
2377	 0.105247357378523 
2378	 0.1051998957134 
2379	 0.105197324113648 
2380	 0.105135045433249 
2381	 0.10510155795456 
2382	 0.105092385163162 
2383	 0.104991753778018 
2384	 0.104989344828827 
2385	 0.105010260237742 
2386	 0.104934177321189 
2387	 0.104918243784388 
2388	 0.104891132440091 
2389	 0.104820751323253 
2390	 0.104856213648729 
2391	 0.104914598508416 
2392	 0.104919085204455 
2393	 0.104878540380205 
2394	 0.104810704775881 
2395	 0.104765518639211 
2396	 0.104719349723834 
2397	 0.104744977779256 
2398	 0.104768061883858 
2399	 0.104686834000221 
2400	 0.104664264989031 
2401	 0.10466330091286 
2402	 0.104604003039973 
2403	 0.104610753642189 
2404	 0.104568537711558 
2405	 0.104434117139114 
2406	 0.10440802419357 
2407	 0.10435746493102 
2408	 0.104301661376427 
2409	 0.10432484755713 
2410	 0.104242515360121 
2411	 0.104167994764753 
2412	 0.104196349614938 
2413	 0.104199527306937 
2414	 0.104166416314554 
2415	 0.104151785722586 
2416	 0.104098784292251 
2417	 0.103907032156358 
2418	 0.103844090351999 
2419	 0.103852855136488 
2420	 0.10389297572923 
2421	 0.104029013117682 
2422	 0.104060254386017 
2423	 0.10409955225544 
2424	 0.104063088004703 
2425	 0.103908105751722 
2426	 0.103795233036455 
2427	 0.103649851662675 
2428	 0.103580859132127 
2429	 0.103545316659953 
2430	 0.103514935056408 
2431	 0.103553368719481 
2432	 0.10350703577107 
2433	 0.103420586807903 
2434	 0.103360204485162 
2435	 0.10326973466231 
2436	 0.103239164889463 
2437	 0.103215476745506 
2438	 0.103185801607388 
2439	 0.103218471747597 
2440	 0.103207566093884 
2441	 0.103229532867432 
2442	 0.10318940319643 
2443	 0.103043088096676 
2444	 0.102953697688488 
2445	 0.102806122991864 
2446	 0.102733508245899 
2447	 0.102794277059706 
2448	 0.102768833651772 
2449	 0.102742566263643 
2450	 0.10265376106021 
2451	 0.102436607323629 
2452	 0.102344471287863 
2453	 0.102340198737819 
2454	 0.102297427584006 
2455	 0.102246746789231 
2456	 0.102277695430285 
2457	 0.102324067626294 
2458	 0.10228670347748 
2459	 0.102309986991184 
2460	 0.102266226905982 
2461	 0.102135377731969 
2462	 0.102052193028332 
2463	 0.101965444245959 
2464	 0.101924034252143 
2465	 0.101907184844597 
2466	 0.101808362122509 
2467	 0.101733365729823 
2468	 0.101604148397352 
2469	 0.101325473559238 
2470	 0.101132753159728 
2471	 0.101029676109759 
2472	 0.101105430888003 
2473	 0.101239592178135 
2474	 0.10134277902877 
2475	 0.101345258932088 
2476	 0.10128776553748 
2477	 0.101304638400465 
2478	 0.101272191630365 
2479	 0.101320577843467 
2480	 0.101305562856826 
2481	 0.101064652481802 
2482	 0.100926800602754 
2483	 0.100882744924002 
2484	 0.100951804530089 
2485	 0.101036747662646 
2486	 0.101116332666774 
2487	 0.101202193522401 
2488	 0.101174169599117 
2489	 0.101207490592915 
2490	 0.10123526246936 
2491	 0.101257623087572 
2492	 0.101258549316868 
2493	 0.101308391654101 
2494	 0.101357715153451 
2495	 0.10123801852128 
2496	 0.101176567173761 
2497	 0.101059141494201 
2498	 0.100872018423878 
2499	 0.100897509952328 
2500	 0.100931574305524 
