Wavelength	mm2800009.asd
350	 5.74759492305554E-02 
351	 6.71425980870942E-02 
352	 6.58093961798736E-02 
353	 5.11207436649187E-02 
354	 4.78809624761321E-02 
355	 5.09318123814388E-02 
356	 5.33959821777392E-02 
357	 5.11339885540267E-02 
358	 5.19629292982733E-02 
359	 5.46558174423133E-02 
360	 5.70377187146693E-02 
361	 5.67935091635134E-02 
362	 5.52728300087821E-02 
363	 5.32278999115288E-02 
364	 0.052351776330877 
365	 5.62074584819653E-02 
366	 5.81003210589459E-02 
367	 5.66206236637431E-02 
368	 0.05346076262351 
369	 5.50895384602119E-02 
370	 5.62831493843932E-02 
371	 5.58961941550946E-02 
372	 5.59231436568281E-02 
373	 5.77666085712115E-02 
374	 5.93756734063084E-02 
375	 5.96618980353906E-02 
376	 6.00811527905256E-02 
377	 5.74806443999298E-02 
378	 5.66380386466726E-02 
379	 6.15582603479757E-02 
380	 0.063171207760825 
381	 6.20386446650673E-02 
382	 6.08900462163778E-02 
383	 6.31547472099578E-02 
384	 6.30351555454602E-02 
385	 6.20866395180467E-02 
386	 6.19970901377598E-02 
387	 0.062666589055299 
388	 6.27580139782598E-02 
389	 6.30234002771368E-02 
390	 6.41681277258661E-02 
391	 6.29044674877011E-02 
392	 6.44479140162847E-02 
393	 6.75942777573243E-02 
394	 6.60388223480453E-02 
395	 6.61967781407412E-02 
396	 6.61462341256318E-02 
397	 6.49448482633354E-02 
398	 6.70450619928543E-02 
399	 6.65707447131787E-02 
400	 6.58857971095441E-02 
401	 6.87885460221386E-02 
402	 6.92427574854987E-02 
403	 6.82506722676798E-02 
404	 6.72246878503594E-02 
405	 6.74110039495247E-02 
406	 6.87867054846754E-02 
407	 6.99353463009294E-02 
408	 6.99471282111444E-02 
409	 6.97375075355949E-02 
410	 6.98735816872273E-02 
411	 7.02929435124366E-02 
412	 7.06291297067791E-02 
413	 7.10244505168245E-02 
414	 7.05768141640242E-02 
415	 6.97100193892066E-02 
416	 7.06141642289859E-02 
417	 7.02510868517549E-02 
418	 6.99173513905948E-02 
419	 7.09845752652232E-02 
420	 7.14291814428462E-02 
421	 7.18326476824029E-02 
422	 7.23992467266577E-02 
423	 7.29672707651859E-02 
424	 7.23193081623364E-02 
425	 7.18364501491246E-02 
426	 7.21866956535652E-02 
427	 7.21734107869683E-02 
428	 7.25599507189578E-02 
429	 7.29542546890825E-02 
430	 7.28588459581221E-02 
431	 7.31450722874343E-02 
432	 7.30682159591954E-02 
433	 7.27745868271978E-02 
434	 7.32696087615399E-02 
435	 0.073784368540188 
436	 7.39136913767347E-02 
437	 7.36213669605335E-02 
438	 7.35319468796376E-02 
439	 0.073909801382837 
440	 7.43652132703335E-02 
441	 7.42821268783998E-02 
442	 7.41720785148134E-02 
443	 7.44155430852791E-02 
444	 7.49511315050622E-02 
445	 7.51134684152752E-02 
446	 7.50243734817768E-02 
447	 7.49392565523162E-02 
448	 7.50856291656676E-02 
449	 7.53298466036997E-02 
450	 0.075707369123215 
451	 7.60463943561967E-02 
452	 7.60414754141965E-02 
453	 7.62606803660418E-02 
454	 7.63835962427509E-02 
455	 7.62174460428241E-02 
456	 7.62385384359148E-02 
457	 7.64421469691184E-02 
458	 7.67292268441719E-02 
459	 0.076941892319371 
460	 0.076972422670364 
461	 0.077073371824647 
462	 7.73163541867973E-02 
463	 7.74754955991304E-02 
464	 0.077737397979746 
465	 7.79479412240569E-02 
466	 0.07799999342832 
467	 7.83758327939239E-02 
468	 7.85108553242903E-02 
469	 7.84496339710122E-02 
470	 7.87157594778198E-02 
471	 7.90284645589375E-02 
472	 7.90594163335654E-02 
473	 7.88234175826322E-02 
474	 7.91563184740376E-02 
475	 7.95140724575212E-02 
476	 7.97310556601676E-02 
477	 7.98384642954798E-02 
478	 8.00796390965673E-02 
479	 8.02447962777499E-02 
480	 8.02888363512468E-02 
481	 0.080444829623937 
482	 8.06604590920876E-02 
483	 8.09289349226476E-02 
484	 8.12051602758439E-02 
485	 8.12817606821032E-02 
486	 8.12483010254714E-02 
487	 8.12550221420028E-02 
488	 8.14767768087799E-02 
489	 0.08179086303562 
490	 0.081958627817065 
491	 8.19530157930776E-02 
492	 8.23406082420911E-02 
493	 8.24221249350095E-02 
494	 8.23168167193608E-02 
495	 8.24797383677464E-02 
496	 8.27110315459001E-02 
497	 0.082909367933184 
498	 8.30622614336551E-02 
499	 8.32846526820778E-02 
500	 8.32955104460132E-02 
501	 8.32334205985422E-02 
502	 0.083335766588828 
503	 8.37142732078783E-02 
504	 0.083857615622045 
505	 8.37424371063552E-02 
506	 0.08379643745507 
507	 8.39638709248193E-02 
508	 8.42139519498389E-02 
509	 8.44335650826783E-02 
510	 8.42531347975025E-02 
511	 8.43293626689832E-02 
512	 8.45636173349451E-02 
513	 0.084515350435031 
514	 8.46509650770041E-02 
515	 8.47925205291039E-02 
516	 8.48545612255394E-02 
517	 8.50318060842124E-02 
518	 8.52326080170252E-02 
519	 8.53329242479013E-02 
520	 8.52835728559881E-02 
521	 8.54904654293025E-02 
522	 8.55672327681515E-02 
523	 8.54922378380542E-02 
524	 8.56593257825523E-02 
525	 8.57915174280311E-02 
526	 8.58589546230182E-02 
527	 8.58981994257077E-02 
528	 0.085981188279392 
529	 8.60151631759333E-02 
530	 0.086033011074225 
531	 8.61384956321013E-02 
532	 8.62244144117387E-02 
533	 8.63138723030809E-02 
534	 0.08641304233867 
535	 8.64393499539742E-02 
536	 8.65691500696302E-02 
537	 8.67042014745444E-02 
538	 8.66905323695194E-02 
539	 8.68012359087289E-02 
540	 8.68835510034851E-02 
541	 8.69115688815308E-02 
542	 8.70717930344536E-02 
543	 8.71894082988126E-02 
544	 8.72468891586332E-02 
545	 8.72806345694695E-02 
546	 8.73611215054201E-02 
547	 8.73954809578725E-02 
548	 8.73967464852274E-02 
549	 0.087465236947871 
550	 8.75221356613327E-02 
551	 8.75772629431552E-02 
552	 0.087651147840426 
553	 8.77626388444394E-02 
554	 8.77852822076166E-02 
555	 8.77830900846722E-02 
556	 8.79033458524031E-02 
557	 8.80450943805798E-02 
558	 8.81474720942072E-02 
559	 8.82095530103307E-02 
560	 8.83286670617346E-02 
561	 8.83984952606673E-02 
562	 8.84370131096798E-02 
563	 0.088504700620058 
564	 8.86499131014514E-02 
565	 0.088726744366534 
566	 8.86932188365128E-02 
567	 8.86364460067867E-02 
568	 8.87012421256347E-02 
569	 0.088802171851642 
570	 8.88533349522804E-02 
571	 8.89821215047661E-02 
572	 8.91261128421535E-02 
573	 0.089204185387102 
574	 8.91473207250541E-02 
575	 8.91973996059627E-02 
576	 8.93282366417204E-02 
577	 8.94556181419215E-02 
578	 0.089460653911439 
579	 8.94967774660057E-02 
580	 8.94945122599083E-02 
581	 8.93401080135808E-02 
582	 8.93134748065575E-02 
583	 8.93263334302986E-02 
584	 8.93542189623186E-02 
585	 8.95119149332014E-02 
586	 8.97177691915847E-02 
587	 8.99083159256989E-02 
588	 9.00519284308083E-02 
589	 9.02334056574424E-02 
590	 9.03995183196505E-02 
591	 9.05281120386064E-02 
592	 9.06285376250744E-02 
593	 9.06525595786627E-02 
594	 9.06161735593382E-02 
595	 9.05441502259593E-02 
596	 9.04415083340321E-02 
597	 9.03310247976029E-02 
598	 9.02276184524285E-02 
599	 9.01511023930773E-02 
600	 9.02192157311379E-02 
601	 9.03061769160881E-02 
602	 9.03502319924585E-02 
603	 0.090456331114954 
604	 9.05666420105138E-02 
605	 9.06626981206698E-02 
606	 9.07452967252745E-02 
607	 9.08442309479755E-02 
608	 9.09628115180108E-02 
609	 9.11007245118316E-02 
610	 9.12548348708076E-02 
611	 9.13259925340161E-02 
612	 9.13581771804804E-02 
613	 9.14025259599475E-02 
614	 9.14009838498015E-02 
615	 9.13871393554598E-02 
616	 0.091386236626835 
617	 9.14160248242653E-02 
618	 9.14852618836208E-02 
619	 9.15542086710522E-02 
620	 0.091604231495206 
621	 9.16807475644849E-02 
622	 9.17279246093082E-02 
623	 9.17490679261132E-02 
624	 9.17741999183709E-02 
625	 0.091836294353994 
626	 9.18658441351785E-02 
627	 9.18662786069134E-02 
628	 9.19468597034347E-02 
629	 9.20175754911851E-02 
630	 9.20748981929357E-02 
631	 9.21264314199163E-02 
632	 9.21220131247726E-02 
633	 9.21473325190349E-02 
634	 9.22146869488861E-02 
635	 9.22741215428225E-02 
636	 9.23345074638861E-02 
637	 9.23740676221243E-02 
638	 9.23936266026614E-02 
639	 0.092459804952917 
640	 9.25254216607682E-02 
641	 9.25905548958448E-02 
642	 9.26658447497626E-02 
643	 9.26739938882328E-02 
644	 9.26850842620926E-02 
645	 9.27392157864494E-02 
646	 9.28142097971256E-02 
647	 9.28516227779096E-02 
648	 9.29007296622355E-02 
649	 9.30016404561487E-02 
650	 9.30091332581313E-02 
651	 9.30154024131346E-02 
652	 9.30622100455612E-02 
653	 9.31399647639797E-02 
654	 9.32542051261456E-02 
655	 9.33062836212453E-02 
656	 9.32774462881994E-02 
657	 9.33987304445557E-02 
658	 9.34662506876766E-02 
659	 9.34815301892709E-02 
660	 9.35357973180304E-02 
661	 9.36060596034221E-02 
662	 0.093661961012773 
663	 9.36984655068468E-02 
664	 9.37491336249188E-02 
665	 9.37682400588463E-02 
666	 9.38196528200104E-02 
667	 9.39468809106554E-02 
668	 9.39804217430599E-02 
669	 9.40163578409504E-02 
670	 9.40886148991835E-02 
671	 0.094169908669056 
672	 9.42096111947103E-02 
673	 9.42448931465315E-02 
674	 9.43011591156436E-02 
675	 9.43405783482558E-02 
676	 9.43381474469244E-02 
677	 9.43510830079896E-02 
678	 9.44450794448838E-02 
679	 9.44569528951146E-02 
680	 9.45194604559808E-02 
681	 9.46502410439161E-02 
682	 9.46867007088285E-02 
683	 9.47257185354392E-02 
684	 9.47910192407542E-02 
685	 9.48754110789416E-02 
686	 9.49282986716107E-02 
687	 0.094990030380868 
688	 0.095054133172566 
689	 9.50837538617769E-02 
690	 9.51055697423878E-02 
691	 9.51573382042375E-02 
692	 9.52393750201546E-02 
693	 9.52763448834031E-02 
694	 9.53004300420148E-02 
695	 9.53381407259093E-02 
696	 9.53986388483516E-02 
697	 9.53967459183888E-02 
698	 9.54186019186104E-02 
699	 9.54820058915265E-02 
700	 9.55236724946491E-02 
701	 9.55522566185161E-02 
702	 9.55901705248853E-02 
703	 9.56468432402963E-02 
704	 9.56840730883689E-02 
705	 9.57251107957256E-02 
706	 9.57731126976746E-02 
707	 9.58205741653573E-02 
708	 9.58679422995229E-02 
709	 9.58943611046953E-02 
710	 9.59079971325103E-02 
711	 9.59615540147275E-02 
712	 9.60025887827429E-02 
713	 9.60180106094823E-02 
714	 9.60190582870353E-02 
715	 9.60602165679302E-02 
716	 9.61209832298764E-02 
717	 0.096152252466808 
718	 9.61050479861478E-02 
719	 9.61771438981441E-02 
720	 9.62429653594891E-02 
721	 9.62248012803254E-02 
722	 9.62271454013579E-02 
723	 9.62451575829002E-02 
724	 9.62765046157644E-02 
725	 9.63077791425156E-02 
726	 9.62824864794889E-02 
727	 9.63011725827762E-02 
728	 9.63543434975794E-02 
729	 9.63319814244773E-02 
730	 9.63483093471233E-02 
731	 0.096361800831418 
732	 9.63419514270715E-02 
733	 9.63503560765245E-02 
734	 0.096380439353674 
735	 9.63971172140166E-02 
736	 0.096370751787074 
737	 9.63922799849163E-02 
738	 9.64022415512542E-02 
739	 0.096401821171267 
740	 9.64650285509927E-02 
741	 9.64473058642438E-02 
742	 9.63936781895051E-02 
743	 9.63735321156393E-02 
744	 9.64128023723285E-02 
745	 9.64006509518157E-02 
746	 9.63630100651399E-02 
747	 0.096378984659258 
748	 9.63869656196406E-02 
749	 9.63628746154487E-02 
750	 9.63267944343145E-02 
751	 9.63457550380259E-02 
752	 9.63793561283899E-02 
753	 0.096378382414188 
754	 9.63308195397628E-02 
755	 9.63368002516627E-02 
756	 9.63423028505366E-02 
757	 9.63261476249411E-02 
758	 9.62942420100859E-02 
759	 9.63194999647362E-02 
760	 9.63285807498402E-02 
761	 9.62987502011554E-02 
762	 9.62873589787047E-02 
763	 9.62897000590044E-02 
764	 9.62815191799437E-02 
765	 0.096252621472256 
766	 9.62499924361283E-02 
767	 9.62510753286708E-02 
768	 9.62533346792532E-02 
769	 0.0962610726964 
770	 0.096255665456592 
771	 9.62398493757991E-02 
772	 9.62116334263184E-02 
773	 9.61623004657863E-02 
774	 9.61604380856228E-02 
775	 9.61688755323513E-02 
776	 9.61500190185358E-02 
777	 9.61314574274354E-02 
778	 9.61439876089588E-02 
779	 9.61627891609999E-02 
780	 9.61443201474467E-02 
781	 9.61102164419597E-02 
782	 0.096100306476912 
783	 9.61048371463087E-02 
784	 0.096064516629673 
785	 9.60457244655645E-02 
786	 9.60497657258294E-02 
787	 9.60574454862687E-02 
788	 9.60292094922136E-02 
789	 9.60322066997161E-02 
790	 9.60380587719732E-02 
791	 9.60004333107975E-02 
792	 9.59841220337151E-02 
793	 9.59662132640874E-02 
794	 9.59500293977255E-02 
795	 9.59598161826709E-02 
796	 9.59388708986297E-02 
797	 9.59107115208856E-02 
798	 9.58977705673204E-02 
799	 0.095896650882145 
800	 9.58913582876465E-02 
801	 9.58905245899083E-02 
802	 9.58965822390498E-02 
803	 9.58534837218526E-02 
804	 9.58356295668807E-02 
805	 9.58373676169491E-02 
806	 9.58109651498905E-02 
807	 9.58372039526519E-02 
808	 9.58330477643991E-02 
809	 9.57796834722659E-02 
810	 9.57622189462225E-02 
811	 9.57357564023783E-02 
812	 9.57120959147447E-02 
813	 9.57036190648339E-02 
814	 0.095690353025167 
815	 9.57044676797035E-02 
816	 9.57091767178462E-02 
817	 9.56592323954856E-02 
818	 9.56200558719815E-02 
819	 9.56381614488316E-02 
820	 9.56709507024539E-02 
821	 9.56171355173335E-02 
822	 9.56211805194082E-02 
823	 9.55904019744824E-02 
824	 9.55088403159929E-02 
825	 9.55411588567591E-02 
826	 9.55713131402536E-02 
827	 9.55700139087053E-02 
828	 9.55424818705768E-02 
829	 9.55234225921878E-02 
830	 9.55122101930293E-02 
831	 9.54959328014029E-02 
832	 9.54692308296359E-02 
833	 9.55195542938357E-02 
834	 9.55211519077191E-02 
835	 9.54630664287394E-02 
836	 9.54534875595041E-02 
837	 9.54925007401029E-02 
838	 9.55118387515582E-02 
839	 0.095482073078799 
840	 9.54608142775916E-02 
841	 0.095427357150745 
842	 0.095410725513583 
843	 9.54325944251742E-02 
844	 9.54594590694288E-02 
845	 9.54456658568954E-02 
846	 9.54060883027241E-02 
847	 9.53916480781491E-02 
848	 0.09546632142106 
849	 9.55058785303507E-02 
850	 9.54903126271916E-02 
851	 0.095492295980034 
852	 9.54400660671753E-02 
853	 9.54133086111956E-02 
854	 9.54359823710374E-02 
855	 9.54239151607086E-02 
856	 9.54318749081262E-02 
857	 9.54589971209848E-02 
858	 9.54810211399832E-02 
859	 9.54466262696388E-02 
860	 0.09540361578402 
861	 9.53855007561695E-02 
862	 9.54036458822116E-02 
863	 0.095402157583808 
864	 9.54230107486946E-02 
865	 9.54327680366501E-02 
866	 9.53757181368271E-02 
867	 9.53918348380053E-02 
868	 9.54058129064349E-02 
869	 9.53917919529825E-02 
870	 0.095394609919107 
871	 9.54320259309964E-02 
872	 9.54675369763303E-02 
873	 9.54720491751023E-02 
874	 9.54453353423519E-02 
875	 9.54473902185946E-02 
876	 9.54509370367237E-02 
877	 9.54357655068458E-02 
878	 9.54603643309002E-02 
879	 9.55139687668855E-02 
880	 0.095554136664864 
881	 0.095545926081215 
882	 9.55318823905066E-02 
883	 9.55531524523699E-02 
884	 9.55736695980002E-02 
885	 9.55421881414324E-02 
886	 9.56007373413593E-02 
887	 0.095657841098583 
888	 9.56665887958986E-02 
889	 9.56446814676652E-02 
890	 9.56877729588275E-02 
891	 9.56978518590914E-02 
892	 9.56735995813153E-02 
893	 9.57521665385256E-02 
894	 9.57394713533627E-02 
895	 9.57409140844635E-02 
896	 9.58093458761911E-02 
897	 0.09579878799957 
898	 9.58845549080832E-02 
899	 9.59411181344225E-02 
900	 9.58784691541537E-02 
901	 9.59070871690329E-02 
902	 9.59756645807951E-02 
903	 9.60246095354777E-02 
904	 0.096015399287858 
905	 9.60078539568547E-02 
906	 9.60473791860283E-02 
907	 9.61136274446413E-02 
908	 9.61584560631272E-02 
909	 9.61871726457777E-02 
910	 0.096180689516663 
911	 0.096185065674236 
912	 9.62622182446171E-02 
913	 9.62811000214059E-02 
914	 0.096301840925748 
915	 9.63390289836946E-02 
916	 0.096358135995141 
917	 9.64071061773218E-02 
918	 9.64373913025521E-02 
919	 9.64386940152222E-02 
920	 9.64571054874904E-02 
921	 9.64979033632797E-02 
922	 9.65473184386711E-02 
923	 9.65938774720511E-02 
924	 9.66369199479923E-02 
925	 9.66789360770597E-02 
926	 9.67623140491971E-02 
927	 9.68641111428887E-02 
928	 9.68348812024339E-02 
929	 0.096883331302704 
930	 9.69516897669935E-02 
931	 9.69750807369301E-02 
932	 9.70354051063752E-02 
933	 9.71125454594007E-02 
934	 9.71612114867934E-02 
935	 9.71737161347493E-02 
936	 9.72817154064683E-02 
937	 9.72573691278126E-02 
938	 9.71988616697673E-02 
939	 9.72639587733063E-02 
940	 9.74088815800995E-02 
941	 9.75065759826876E-02 
942	 9.75758359170796E-02 
943	 9.76696329523485E-02 
944	 9.77048278892523E-02 
945	 9.77628012989152E-02 
946	 9.77893959112414E-02 
947	 9.77270341525685E-02 
948	 9.77844610656585E-02 
949	 9.78648710927862E-02 
950	 9.79125401173877E-02 
951	 9.79285164689542E-02 
952	 9.80481380699434E-02 
953	 9.80619347356852E-02 
954	 0.098066777485489 
955	 9.82648271706109E-02 
956	 9.83992700134772E-02 
957	 9.84708854036786E-02 
958	 9.84694536499556E-02 
959	 9.84064008861993E-02 
960	 9.84582987401076E-02 
961	 9.84918999960355E-02 
962	 9.85208788856563E-02 
963	 9.86293457667479E-02 
964	 9.86381144961709E-02 
965	 9.87256820989275E-02 
966	 9.88297143888366E-02 
967	 9.87911880001803E-02 
968	 9.89972661140068E-02 
969	 9.90920094225081E-02 
970	 9.90339349467596E-02 
971	 9.90193966082284E-02 
972	 9.90231331119843E-02 
973	 9.91133528015002E-02 
974	 9.92035404813865E-02 
975	 9.91743554240603E-02 
976	 0.099362953122242 
977	 9.94843996835654E-02 
978	 9.94770658714971E-02 
979	 9.94529060747386E-02 
980	 9.94057473986328E-02 
981	 9.94219329153758E-02 
982	 9.94554478300818E-02 
983	 9.94385095161066E-02 
984	 9.96682830412737E-02 
985	 9.98280144616143E-02 
986	 0.099858181170783 
987	 9.98698339153662E-02 
988	 9.98781565122756E-02 
989	 9.98848573346015E-02 
990	 9.99156833609527E-02 
991	 9.99831613419564E-02 
992	 9.99771059057563E-02 
993	 0.100145077380304 
994	 0.100375450035666 
995	 0.100417031534873 
996	 0.100202917841632 
997	 0.100147166136165 
998	 0.100213096830933 
999	 0.100216963275372 
1000	 0.100198066477867 
1001	 9.88156581281567E-02 
1002	 9.87771797188627E-02 
1003	 9.87438875055536E-02 
1004	 0.098741771968822 
1005	 0.098740538474603 
1006	 9.87732756766724E-02 
1007	 9.88619953072653E-02 
1008	 9.89315107654316E-02 
1009	 9.89403469591834E-02 
1010	 9.89740932982257E-02 
1011	 9.90613207887482E-02 
1012	 9.89728831101811E-02 
1013	 9.89305482483415E-02 
1014	 9.89767439446855E-02 
1015	 9.89136314679824E-02 
1016	 9.89403031462742E-02 
1017	 9.89740456749501E-02 
1018	 9.90444703961783E-02 
1019	 9.90077007474831E-02 
1020	 9.90458604503653E-02 
1021	 9.90497148650549E-02 
1022	 9.90072484273811E-02 
1023	 9.90363896323047E-02 
1024	 9.90302203175924E-02 
1025	 9.90971685547491E-02 
1026	 9.91918355991361E-02 
1027	 9.91598410286771E-02 
1028	 9.91520824264043E-02 
1029	 9.91201450024434E-02 
1030	 0.099054125293344 
1031	 9.90432639593446E-02 
1032	 9.90835538830816E-02 
1033	 0.099107731430612 
1034	 9.91052248788334E-02 
1035	 9.91214823251631E-02 
1036	 9.91251458668085E-02 
1037	 9.90775057472469E-02 
1038	 9.90289798943584E-02 
1039	 9.90081762685415E-02 
1040	 9.89928366571927E-02 
1041	 9.90177870803179E-02 
1042	 9.90827271213501E-02 
1043	 9.91486883257991E-02 
1044	 9.91927421372572E-02 
1045	 9.92282761182875E-02 
1046	 9.92434417106743E-02 
1047	 9.92239257021012E-02 
1048	 9.92115590736518E-02 
1049	 9.92295456213242E-02 
1050	 9.92534848258146E-02 
1051	 9.93487118404107E-02 
1052	 9.94313516661834E-02 
1053	 9.94243363182317E-02 
1054	 9.94399143553774E-02 
1055	 9.94515429195564E-02 
1056	 9.94524933437331E-02 
1057	 9.94732913814672E-02 
1058	 9.95282716036079E-02 
1059	 9.95767288188763E-02 
1060	 9.96273299404054E-02 
1061	 9.96710087045725E-02 
1062	 9.97120451752022E-02 
1063	 0.099766273893585 
1064	 9.97804704910443E-02 
1065	 9.98130915600061E-02 
1066	 9.98931377110865E-02 
1067	 9.99284504592844E-02 
1068	 9.99323421119545E-02 
1069	 0.099929486513914 
1070	 9.99569812254266E-02 
1071	 9.99882888433221E-02 
1072	 0.100022130757183 
1073	 0.10010261669719 
1074	 0.100142811248812 
1075	 0.100151488375609 
1076	 0.10014977282937 
1077	 0.100187937718172 
1078	 0.100184688701467 
1079	 0.100163710481613 
1080	 0.100163721402729 
1081	 0.1001712062588 
1082	 0.100220841157673 
1083	 0.100264841276975 
1084	 0.100369682988385 
1085	 0.100395843457855 
1086	 0.100379656073236 
1087	 0.10036865425675 
1088	 0.100328426780947 
1089	 0.10029171829711 
1090	 0.100311777328225 
1091	 0.100323944380379 
1092	 0.100304285683969 
1093	 0.100304027567521 
1094	 0.100286503652452 
1095	 0.100255402878953 
1096	 0.100287131199866 
1097	 0.100294138103569 
1098	 0.100289911230936 
1099	 0.10027766489077 
1100	 0.100270322427214 
1101	 0.100236918770096 
1102	 0.100242821958257 
1103	 0.100289276419422 
1104	 0.100294458142101 
1105	 0.100270268175389 
1106	 0.1002278787945 
1107	 0.100209234483093 
1108	 0.100183972774145 
1109	 0.100160903681441 
1110	 0.100170337614119 
1111	 0.100167825863789 
1112	 0.1001308913179 
1113	 0.100125609020699 
1114	 0.100173809770381 
1115	 0.100167818872753 
1116	 0.100120351480144 
1117	 0.100110076555713 
1118	 0.100109821836257 
1119	 0.100079984061383 
1120	 0.10009191206012 
1121	 0.100105058579238 
1122	 0.100062993562151 
1123	 0.10004980935307 
1124	 0.100034079763341 
1125	 9.99992460432229E-02 
1126	 9.99895567006867E-02 
1127	 0.100001289867368 
1128	 0.100010693291976 
1129	 0.100041911611791 
1130	 0.100053578992216 
1131	 0.100052191648249 
1132	 0.100054506365638 
1133	 0.100046638404185 
1134	 0.100046626863011 
1135	 0.100045538286746 
1136	 0.100067415086128 
1137	 0.100102056637001 
1138	 0.100101798633327 
1139	 0.100088173217737 
1140	 0.100054257856305 
1141	 0.100049931898791 
1142	 0.100036653044634 
1143	 0.10002603170381 
1144	 0.100049378649853 
1145	 0.100041762160687 
1146	 9.99908667970826E-02 
1147	 9.99768432677496E-02 
1148	 9.99764023350064E-02 
1149	 9.99745974978291E-02 
1150	 9.99743813072096E-02 
1151	 0.100003571627912 
1152	 0.100005595267779 
1153	 0.100019861156873 
1154	 0.100017331722339 
1155	 0.100000125522985 
1156	 9.99898924842949E-02 
1157	 0.099969991323692 
1158	 0.099969254616245 
1159	 9.99884112367811E-02 
1160	 9.99922510959453E-02 
1161	 9.99990744907539E-02 
1162	 9.99967319058362E-02 
1163	 9.99779486797448E-02 
1164	 9.99685681755832E-02 
1165	 9.99549756499183E-02 
1166	 9.99600173069265E-02 
1167	 9.99496723050401E-02 
1168	 9.99427283212533E-02 
1169	 9.99359048127579E-02 
1170	 9.99219885809368E-02 
1171	 9.99217013864154E-02 
1172	 9.99300219509873E-02 
1173	 9.99365501281281E-02 
1174	 9.99538510019733E-02 
1175	 9.99594987275374E-02 
1176	 9.99444710362252E-02 
1177	 9.99600153082129E-02 
1178	 0.100000397838419 
1179	 0.100019488207435 
1180	 0.100049406269533 
1181	 0.100069657580862 
1182	 0.100078489963424 
1183	 0.100066078836246 
1184	 0.100064826545613 
1185	 0.100064361269286 
1186	 0.10007121671127 
1187	 0.100076899430926 
1188	 0.100085783151086 
1189	 0.100109545009015 
1190	 0.100119383020982 
1191	 0.100111193137979 
1192	 0.100122682327993 
1193	 0.100137670694937 
1194	 0.100159320496071 
1195	 0.100199360159288 
1196	 0.100230587911761 
1197	 0.100267457581044 
1198	 0.100293460298084 
1199	 0.100313508206124 
1200	 0.100327411405699 
1201	 0.100340028755307 
1202	 0.100339860058613 
1203	 0.10035525665153 
1204	 0.100376161643026 
1205	 0.100396235455417 
1206	 0.100415081571979 
1207	 0.100447507808181 
1208	 0.10049660180748 
1209	 0.100526597710855 
1210	 0.100562030148693 
1211	 0.100588611046059 
1212	 0.100589075035708 
1213	 0.10060407388154 
1214	 0.100629529741785 
1215	 0.100650667978812 
1216	 0.100671768175759 
1217	 0.100694794598217 
1218	 0.100714853378103 
1219	 0.100730311403967 
1220	 0.100751867271139 
1221	 0.100777746455474 
1222	 0.100798200328511 
1223	 0.100821721607702 
1224	 0.100838672230808 
1225	 0.100843685215987 
1226	 0.100859594519454 
1227	 0.100875182410129 
1228	 0.100896529495288 
1229	 0.100929667709667 
1230	 0.100956991688674 
1231	 0.100989216171753 
1232	 0.101013480202551 
1233	 0.1010332182272 
1234	 0.101043068611238 
1235	 0.101068627500422 
1236	 0.101099631218663 
1237	 0.101121444011244 
1238	 0.101148001881311 
1239	 0.101171109466563 
1240	 0.10117719674513 
1241	 0.101200244179809 
1242	 0.101246801732634 
1243	 0.101269890399172 
1244	 0.101281810685995 
1245	 0.101300625535999 
1246	 0.101311166256402 
1247	 0.101322999543386 
1248	 0.101348878581175 
1249	 0.101354539317144 
1250	 0.10137121869203 
1251	 0.101397667445989 
1252	 0.101413756670114 
1253	 0.101437525134587 
1254	 0.101450663923834 
1255	 0.101447388922748 
1256	 0.101457362982039 
1257	 0.101473773662458 
1258	 0.10148379910278 
1259	 0.101493042649146 
1260	 0.101502375023303 
1261	 0.101504775043409 
1262	 0.101516930554549 
1263	 0.101543630544226 
1264	 0.101556424090232 
1265	 0.101559109817286 
1266	 0.101570524559801 
1267	 0.101577957547856 
1268	 0.101588582647334 
1269	 0.101602863162141 
1270	 0.101628333055639 
1271	 0.10164448034086 
1272	 0.101652396059197 
1273	 0.10167293897971 
1274	 0.101689925823002 
1275	 0.101729765212121 
1276	 0.101783761072243 
1277	 0.101842042113817 
1278	 0.101926270397585 
1279	 0.101992016089112 
1280	 0.102055310335356 
1281	 0.10211703167762 
1282	 0.102166910278039 
1283	 0.10222443459185 
1284	 0.102284347587512 
1285	 0.10234438961967 
1286	 0.102414846145621 
1287	 0.102490950249491 
1288	 0.102571697251366 
1289	 0.102664857668293 
1290	 0.102747237834103 
1291	 0.102834152679986 
1292	 0.1029081471101 
1293	 0.102968057725322 
1294	 0.103038534188142 
1295	 0.103116908723048 
1296	 0.103173802664213 
1297	 0.103223973707258 
1298	 0.103277391551797 
1299	 0.103321313123779 
1300	 0.103353926725688 
1301	 0.103386625484051 
1302	 0.103414100249965 
1303	 0.103423848967217 
1304	 0.103434782256617 
1305	 0.103449181754329 
1306	 0.1034563796495 
1307	 0.103459269379828 
1308	 0.103459703529512 
1309	 0.103460127576748 
1310	 0.103467524505645 
1311	 0.103458197182805 
1312	 0.103431408208791 
1313	 0.103427838769323 
1314	 0.103431588033115 
1315	 0.103425508217679 
1316	 0.103424452636672 
1317	 0.103420701036108 
1318	 0.103407610599707 
1319	 0.103396247703342 
1320	 0.103395476939137 
1321	 0.103387348975498 
1322	 0.103370203808887 
1323	 0.103351297558527 
1324	 0.103338067719263 
1325	 0.103318009968219 
1326	 0.103299466687328 
1327	 0.103288147589398 
1328	 0.10327620984772 
1329	 0.103259494495736 
1330	 0.103246035501471 
1331	 0.10323216855949 
1332	 0.103217969641186 
1333	 0.103197694903836 
1334	 0.103197084095981 
1335	 0.103212090713772 
1336	 0.10320995649613 
1337	 0.103215646550466 
1338	 0.103212472866558 
1339	 0.10318613093456 
1340	 0.103174307846125 
1341	 0.103171805141051 
1342	 0.103167752518221 
1343	 0.103161578798443 
1344	 0.103164960154785 
1345	 0.103166440410699 
1346	 0.103164615714471 
1347	 0.103174160825015 
1348	 0.103173959064183 
1349	 0.10316035456922 
1350	 0.103161782132743 
1351	 0.103161291824039 
1352	 0.10315140874175 
1353	 0.103156970450373 
1354	 0.103180916364848 
1355	 0.103183621994719 
1356	 0.103179790535571 
1357	 0.103181037446065 
1358	 0.103176964487998 
1359	 0.103179124478014 
1360	 0.103180447456069 
1361	 0.103192031807875 
1362	 0.103213291653046 
1363	 0.10322453977105 
1364	 0.103238014866129 
1365	 0.103256809376847 
1366	 0.103273019841872 
1367	 0.103284717859677 
1368	 0.103318220446714 
1369	 0.103347607814391 
1370	 0.103348159033246 
1371	 0.10334604411644 
1372	 0.103332586757307 
1373	 0.103309301976251 
1374	 0.103297371762866 
1375	 0.103292681680038 
1376	 0.103286380457516 
1377	 0.103284981581054 
1378	 0.10327237402297 
1379	 0.103254969037803 
1380	 0.103240567746494 
1381	 0.103218163652129 
1382	 0.103200243282466 
1383	 0.103193220252787 
1384	 0.1031788263106 
1385	 0.103156277395418 
1386	 0.103139323449573 
1387	 0.103121578421365 
1388	 0.103101316151517 
1389	 0.10307719699036 
1390	 0.103067014230042 
1391	 0.103056287609386 
1392	 0.103033482732164 
1393	 0.102995302796161 
1394	 0.102980536516413 
1395	 0.102948446178797 
1396	 0.10290895805152 
1397	 0.102876856184395 
1398	 0.102844073154786 
1399	 0.10280977854104 
1400	 0.102780562326137 
1401	 0.10274994672421 
1402	 0.102719672085421 
1403	 0.102689445246024 
1404	 0.102654164409036 
1405	 0.102622362442329 
1406	 0.10258558109835 
1407	 0.102565071016701 
1408	 0.102561118391454 
1409	 0.102545514439394 
1410	 0.102535144029667 
1411	 0.102525507096382 
1412	 0.10250622616228 
1413	 0.102487021250942 
1414	 0.102503261459832 
1415	 0.102512845384376 
1416	 0.102520675291929 
1417	 0.10253784920889 
1418	 0.102530921153834 
1419	 0.102517941903971 
1420	 0.102519011782667 
1421	 0.102529965444046 
1422	 0.102549534020497 
1423	 0.102572679822303 
1424	 0.102587881147641 
1425	 0.102597132765074 
1426	 0.1026067565936 
1427	 0.102606727438716 
1428	 0.102623967295065 
1429	 0.102648153065484 
1430	 0.102672488055002 
1431	 0.102712881125108 
1432	 0.102740687331389 
1433	 0.102758227040563 
1434	 0.102784907121015 
1435	 0.102811969431305 
1436	 0.102839521707674 
1437	 0.102869926557349 
1438	 0.102902974165904 
1439	 0.102943144895874 
1440	 0.102974677950525 
1441	 0.102989192451626 
1442	 0.103001479319786 
1443	 0.103005339100801 
1444	 0.103010708534985 
1445	 0.103042319883112 
1446	 0.103077080568571 
1447	 0.103114931075778 
1448	 0.103151855133814 
1449	 0.103167409790518 
1450	 0.103185090735586 
1451	 0.10320827196616 
1452	 0.103221864451841 
1453	 0.103246533482719 
1454	 0.103287629244108 
1455	 0.103318251985621 
1456	 0.103341625329155 
1457	 0.103371998845253 
1458	 0.103408389127168 
1459	 0.103437579357273 
1460	 0.103467353039517 
1461	 0.103494205653881 
1462	 0.103512860381738 
1463	 0.103537977946589 
1464	 0.10356937242602 
1465	 0.10359263252941 
1466	 0.103612061538801 
1467	 0.103633845121597 
1468	 0.103646721597499 
1469	 0.103668640406082 
1470	 0.103694616909126 
1471	 0.103728997459729 
1472	 0.103771865349664 
1473	 0.103810069180074 
1474	 0.103839745368277 
1475	 0.103856195231203 
1476	 0.103860042027095 
1477	 0.103872473769242 
1478	 0.103898795409321 
1479	 0.103925651719718 
1480	 0.103947634844821 
1481	 0.103972884700972 
1482	 0.103992850122491 
1483	 0.104001236655564 
1484	 0.104023737412168 
1485	 0.10405397286908 
1486	 0.104074255057346 
1487	 0.104098024331686 
1488	 0.104116065699 
1489	 0.104124440751556 
1490	 0.104139903766037 
1491	 0.104158434011118 
1492	 0.104170086230418 
1493	 0.104168947178246 
1494	 0.104191606267595 
1495	 0.104229270511404 
1496	 0.104257755282652 
1497	 0.104302405777268 
1498	 0.104333983732747 
1499	 0.104345909263799 
1500	 0.104365243524279 
1501	 0.104393412341969 
1502	 0.104410538527511 
1503	 0.104421873791397 
1504	 0.104431000435941 
1505	 0.104435913045263 
1506	 0.104439091619071 
1507	 0.104448401512226 
1508	 0.104472713288056 
1509	 0.104490848248897 
1510	 0.104505222072411 
1511	 0.104521576268285 
1512	 0.104526545720077 
1513	 0.104545618573872 
1514	 0.104578617376643 
1515	 0.104603481572297 
1516	 0.104627857696309 
1517	 0.104646896799926 
1518	 0.10465715175572 
1519	 0.104666903918331 
1520	 0.104674444145144 
1521	 0.104682418613391 
1522	 0.104683692418855 
1523	 0.10468993033821 
1524	 0.104700144452232 
1525	 0.104711408967024 
1526	 0.104725137930361 
1527	 0.104734336790253 
1528	 0.104739635491812 
1529	 0.104755996980838 
1530	 0.10477488630027 
1531	 0.10479040496084 
1532	 0.104816528922181 
1533	 0.104834171758552 
1534	 0.104835858708327 
1535	 0.104853334233607 
1536	 0.104885642871406 
1537	 0.104904989714244 
1538	 0.104925154027901 
1539	 0.104942093380421 
1540	 0.104940699511541 
1541	 0.1049549155351 
1542	 0.104981520390039 
1543	 0.105003078648456 
1544	 0.105040064365002 
1545	 0.105057524479968 
1546	 0.105065245944533 
1547	 0.10506094060514 
1548	 0.105043937623586 
1549	 0.105034262319355 
1550	 0.105041591234584 
1551	 0.105050685794081 
1552	 0.105072679790254 
1553	 0.105093219545525 
1554	 0.105108477384661 
1555	 0.105129971086379 
1556	 0.105142903691173 
1557	 0.105148906762205 
1558	 0.105144220359124 
1559	 0.105142107722112 
1560	 0.105154267348774 
1561	 0.105180541835784 
1562	 0.105188050498217 
1563	 0.105196788316767 
1564	 0.105205286824914 
1565	 0.105203734628966 
1566	 0.10520228349115 
1567	 0.105210340421976 
1568	 0.105202425436562 
1569	 0.105166945114792 
1570	 0.105166688978319 
1571	 0.10518393337308 
1572	 0.105192039885833 
1573	 0.105216029813029 
1574	 0.105223459173717 
1575	 0.105210903700767 
1576	 0.105214325643375 
1577	 0.105230587200022 
1578	 0.105232443967641 
1579	 0.105221954056847 
1580	 0.105228313287083 
1581	 0.105235587763438 
1582	 0.10524518664384 
1583	 0.105279783856073 
1584	 0.105290380803144 
1585	 0.10528100779836 
1586	 0.105278885674171 
1587	 0.105270669869931 
1588	 0.105266985579998 
1589	 0.105264368604391 
1590	 0.105265400236722 
1591	 0.105272445182093 
1592	 0.105273043415711 
1593	 0.105271101214451 
1594	 0.105274367386251 
1595	 0.105272961183404 
1596	 0.105278377942681 
1597	 0.10529742322764 
1598	 0.105308044653154 
1599	 0.105322845638435 
1600	 0.105323640378291 
1601	 0.105299136818941 
1602	 0.105299725679818 
1603	 0.105303954761697 
1604	 0.105313015375262 
1605	 0.10535396368085 
1606	 0.105373675846537 
1607	 0.105385936917085 
1608	 0.105384918954671 
1609	 0.105382593831823 
1610	 0.105371893467878 
1611	 0.105360776715994 
1612	 0.105360983346861 
1613	 0.105365315874415 
1614	 0.105372613812556 
1615	 0.105378871257255 
1616	 0.105392267041587 
1617	 0.105402253370715 
1618	 0.105407266532581 
1619	 0.1054180783 
1620	 0.10542233413481 
1621	 0.105427235072791 
1622	 0.105432839474061 
1623	 0.105428440090908 
1624	 0.105418201048893 
1625	 0.105411574180319 
1626	 0.105396067893054 
1627	 0.105391810139265 
1628	 0.105391282595624 
1629	 0.105401570783174 
1630	 0.105418074676351 
1631	 0.105439768619961 
1632	 0.105481628513062 
1633	 0.105493383176861 
1634	 0.105494085605962 
1635	 0.105499484060764 
1636	 0.10549233503463 
1637	 0.105489891537349 
1638	 0.105495191576967 
1639	 0.105492390696405 
1640	 0.10547526077622 
1641	 0.105476578290336 
1642	 0.105486924594648 
1643	 0.105493455542049 
1644	 0.105507873564899 
1645	 0.105515441642628 
1646	 0.105514822831695 
1647	 0.105525909621089 
1648	 0.105547096348417 
1649	 0.105553272840525 
1650	 0.10556115721898 
1651	 0.105559098311307 
1652	 0.105535025436475 
1653	 0.105532949900591 
1654	 0.105540493753471 
1655	 0.105542356587845 
1656	 0.105552996130539 
1657	 0.105553723312001 
1658	 0.105542488965345 
1659	 0.105541638929304 
1660	 0.105549363193176 
1661	 0.105542694331637 
1662	 0.10552497188335 
1663	 0.105525007506833 
1664	 0.105520669100374 
1665	 0.105528052739132 
1666	 0.105560481759824 
1667	 0.105575928801733 
1668	 0.105585599592143 
1669	 0.105594977319305 
1670	 0.105602040229387 
1671	 0.105607924312277 
1672	 0.105611296788254 
1673	 0.105613989243295 
1674	 0.105616404968338 
1675	 0.105616147366376 
1676	 0.105611835417677 
1677	 0.105611157711573 
1678	 0.105603353021475 
1679	 0.105611672541681 
1680	 0.105639683333111 
1681	 0.105644823616528 
1682	 0.105646937944062 
1683	 0.105650000122567 
1684	 0.105625887833455 
1685	 0.105637267557874 
1686	 0.105683296095951 
1687	 0.105700758034596 
1688	 0.105720047498657 
1689	 0.105734497063638 
1690	 0.105731813157567 
1691	 0.10573516947965 
1692	 0.10573907101403 
1693	 0.105750700048553 
1694	 0.105762849720552 
1695	 0.105774182762067 
1696	 0.105795298587452 
1697	 0.105813931310978 
1698	 0.10583017213408 
1699	 0.105839666280269 
1700	 0.105855467645712 
1701	 0.105855409277296 
1702	 0.105829023506185 
1703	 0.105829534786546 
1704	 0.105840564374014 
1705	 0.105840691389249 
1706	 0.105856299225268 
1707	 0.105848867653977 
1708	 0.105809814118839 
1709	 0.105804113656502 
1710	 0.105806197717367 
1711	 0.105808459163897 
1712	 0.105834411286805 
1713	 0.105835856771015 
1714	 0.105813886963456 
1715	 0.105817692837206 
1716	 0.105825529714202 
1717	 0.105835123915994 
1718	 0.105864504001618 
1719	 0.105878250382955 
1720	 0.10588564129148 
1721	 0.105887580225011 
1722	 0.105882795380796 
1723	 0.105878508625838 
1724	 0.105862983390666 
1725	 0.105861047298905 
1726	 0.105870385354741 
1727	 0.105870932942171 
1728	 0.105877728376018 
1729	 0.105866997594387 
1730	 0.105842280896278 
1731	 0.105822247092969 
1732	 0.105786255438893 
1733	 0.105777515747184 
1734	 0.105783900530828 
1735	 0.105783073688084 
1736	 0.105797096569249 
1737	 0.105801109076601 
1738	 0.105796688227509 
1739	 0.105788770938002 
1740	 0.105775337080512 
1741	 0.105774574871962 
1742	 0.105768323628284 
1743	 0.105782047150602 
1744	 0.105822728512529 
1745	 0.105830290388542 
1746	 0.105833115921475 
1747	 0.105826380855688 
1748	 0.105814800461265 
1749	 0.105827898055859 
1750	 0.105825301508862 
1751	 0.105804784277419 
1752	 0.105783332189765 
1753	 0.105744533389318 
1754	 0.105708774999195 
1755	 0.105701153208721 
1756	 0.105688354880542 
1757	 0.105674887663984 
1758	 0.105663812382308 
1759	 0.105635307183946 
1760	 0.105621526653263 
1761	 0.105630249255391 
1762	 0.105650768455633 
1763	 0.10565706155092 
1764	 0.105648744105672 
1765	 0.105625998681002 
1766	 0.105592971239413 
1767	 0.105590537540119 
1768	 0.105593955743594 
1769	 0.10560536338685 
1770	 0.105615453985793 
1771	 0.105613052975036 
1772	 0.105618524993295 
1773	 0.105617732614151 
1774	 0.105614935965597 
1775	 0.10561000872334 
1776	 0.105601670547633 
1777	 0.105600662613713 
1778	 0.105607645306395 
1779	 0.105595050364978 
1780	 0.105572850708128 
1781	 0.105555814264852 
1782	 0.105519840451929 
1783	 0.105521394268231 
1784	 0.105528697548805 
1785	 0.105546637372319 
1786	 0.105558926989825 
1787	 0.105573277265875 
1788	 0.105585030458208 
1789	 0.105595409420634 
1790	 0.105602328567239 
1791	 0.105608272215621 
1792	 0.10560917727873 
1793	 0.105607248413182 
1794	 0.10560711622062 
1795	 0.105600059035547 
1796	 0.105598767735828 
1797	 0.105602258263634 
1798	 0.105603685133909 
1799	 0.105607604571587 
1800	 0.105611326606187 
1801	 0.102912323458088 
1802	 0.103043180222558 
1803	 0.103154247159632 
1804	 0.103245767492839 
1805	 0.103391399131049 
1806	 0.103529994178623 
1807	 0.103620299619552 
1808	 0.103725016924929 
1809	 0.103852904146352 
1810	 0.103947717623782 
1811	 0.10402046467799 
1812	 0.104091874563604 
1813	 0.104158721943616 
1814	 0.10420506408397 
1815	 0.104223831966962 
1816	 0.104261845951201 
1817	 0.10429912163039 
1818	 0.10433289202018 
1819	 0.104357248624298 
1820	 0.104378698031864 
1821	 0.10440854251957 
1822	 0.104435660445652 
1823	 0.10445505112697 
1824	 0.104509370119381 
1825	 0.104558207946982 
1826	 0.104580818646011 
1827	 0.104616267637263 
1828	 0.104637643711475 
1829	 0.104641745960012 
1830	 0.104645664642987 
1831	 0.104637840092083 
1832	 0.104648326073586 
1833	 0.10466726466559 
1834	 0.104666077842941 
1835	 0.104695113648902 
1836	 0.104710042379284 
1837	 0.104708529448549 
1838	 0.104741451476445 
1839	 0.104772832491145 
1840	 0.104810504804514 
1841	 0.104858350571357 
1842	 0.10490307265947 
1843	 0.104926841939085 
1844	 0.104958650671357 
1845	 0.104978402952203 
1846	 0.105000990801488 
1847	 0.105038008197949 
1848	 0.105047863861767 
1849	 0.105062233396057 
1850	 0.105084276386574 
1851	 0.105107857466851 
1852	 0.105115223100595 
1853	 0.105150360679902 
1854	 0.105184794726849 
1855	 0.105203961739852 
1856	 0.105234983169357 
1857	 0.10525365839753 
1858	 0.105249742197758 
1859	 0.105242282882319 
1860	 0.105224833440965 
1861	 0.105188082708663 
1862	 0.105154150129725 
1863	 0.105145119528817 
1864	 0.105120917075212 
1865	 0.10510919172541 
1866	 0.105105003793488 
1867	 0.105077580803162 
1868	 0.105053212709581 
1869	 0.105037202197878 
1870	 0.105005215972853 
1871	 0.104971932911509 
1872	 0.104929845162615 
1873	 0.104906262894043 
1874	 0.104876909748118 
1875	 0.104857772700281 
1876	 0.104864287208536 
1877	 0.104850692098475 
1878	 0.104815709496463 
1879	 0.10477941074199 
1880	 0.104739423184035 
1881	 0.104685661822693 
1882	 0.104631172974858 
1883	 0.104583272807033 
1884	 0.104526533620037 
1885	 0.104424845475661 
1886	 0.104320349376084 
1887	 0.104209804790606 
1888	 0.104086837604109 
1889	 0.10397569790341 
1890	 0.103862667042205 
1891	 0.103743140640887 
1892	 0.103611719647041 
1893	 0.103474469873865 
1894	 0.10333972277905 
1895	 0.103192390018445 
1896	 0.103012747293528 
1897	 0.10286550245062 
1898	 0.102698737587941 
1899	 0.102545847213048 
1900	 0.102424013770104 
1901	 0.102273694163513 
1902	 0.102130041846675 
1903	 0.101992595666415 
1904	 0.101851062531268 
1905	 0.101694541018702 
1906	 0.101562061554606 
1907	 0.101435669371784 
1908	 0.101313815683721 
1909	 0.101210286045124 
1910	 0.101110741493513 
1911	 0.101002165519436 
1912	 0.100892140205253 
1913	 0.100794277750496 
1914	 0.100694643502169 
1915	 0.100601827401848 
1916	 0.100521531724085 
1917	 0.100450974907629 
1918	 0.100361632908853 
1919	 0.100280915185777 
1920	 0.100207583972754 
1921	 0.100120983934915 
1922	 0.100060064478382 
1923	 0.1000173789663 
1924	 9.99760444320722E-02 
1925	 9.99474938679875E-02 
1926	 9.99306053103409E-02 
1927	 9.99230696666906E-02 
1928	 9.99123355407485E-02 
1929	 9.99271194285877E-02 
1930	 9.99354155452687E-02 
1931	 9.99469740212399E-02 
1932	 9.99526429993495E-02 
1933	 9.99284610319193E-02 
1934	 0.099920622592925 
1935	 0.09991433116894 
1936	 9.98970492636525E-02 
1937	 9.98915904132392E-02 
1938	 9.99078081720912E-02 
1939	 0.099906464989735 
1940	 9.98891160190482E-02 
1941	 9.98892315926481E-02 
1942	 9.98974999408158E-02 
1943	 9.99179423113441E-02 
1944	 9.99509042410226E-02 
1945	 9.99795061110531E-02 
1946	 0.100000949350503 
1947	 0.100000610732906 
1948	 0.100029680566519 
1949	 0.100076385094643 
1950	 0.100116100441827 
1951	 0.100173070216029 
1952	 0.100215878276016 
1953	 0.100245404419498 
1954	 0.100263229197237 
1955	 0.100298164211342 
1956	 0.100346952013035 
1957	 0.100385366988504 
1958	 0.100422868940375 
1959	 0.100467927805026 
1960	 0.100508278212978 
1961	 0.100558298701319 
1962	 0.100627449417292 
1963	 0.10068777789501 
1964	 0.100748500883989 
1965	 0.100798158387388 
1966	 0.100855475434368 
1967	 0.100920514751917 
1968	 0.100979781673538 
1969	 0.10103273918837 
1970	 0.101101748331637 
1971	 0.101182925626776 
1972	 0.101250704463148 
1973	 0.101328936474543 
1974	 0.10139442180182 
1975	 0.101442770084513 
1976	 0.101491208275187 
1977	 0.101544241509478 
1978	 0.101606809086763 
1979	 0.101680341100307 
1980	 0.1017512127855 
1981	 0.101809923051005 
1982	 0.101855208935294 
1983	 0.101916693164902 
1984	 0.101974390543824 
1985	 0.102038935991504 
1986	 0.102125060464231 
1987	 0.102201359274968 
1988	 0.102282197316135 
1989	 0.102340192728009 
1990	 0.10239787803762 
1991	 0.102448037001199 
1992	 0.102507967378334 
1993	 0.10256290828218 
1994	 0.102624973077777 
1995	 0.102705455774353 
1996	 0.102766057696307 
1997	 0.102812967045887 
1998	 0.102867695320099 
1999	 0.102914844586882 
2000	 0.102970019711599 
2001	 0.103037437017534 
2002	 0.103092342654567 
2003	 0.103157541493239 
2004	 0.103235119103704 
2005	 0.103300862670878 
2006	 0.10337615674303 
2007	 0.103432412513459 
2008	 0.103456767935563 
2009	 0.103515314271423 
2010	 0.103589414952737 
2011	 0.103648900620512 
2012	 0.103714695003242 
2013	 0.103787091756232 
2014	 0.103844135996113 
2015	 0.103913497635944 
2016	 0.104010226334409 
2017	 0.104108776452947 
2018	 0.104186864514686 
2019	 0.104254462524395 
2020	 0.104319935311478 
2021	 0.104370696600851 
2022	 0.104430874904821 
2023	 0.104496896904088 
2024	 0.104554111643929 
2025	 0.104603523158537 
2026	 0.104657651053955 
2027	 0.10470539595704 
2028	 0.104762331127886 
2029	 0.104818310744444 
2030	 0.104876741595287 
2031	 0.104942265415252 
2032	 0.105015443845833 
2033	 0.105080549692707 
2034	 0.105163183969625 
2035	 0.105217148125413 
2036	 0.105237784215642 
2037	 0.105280930006136 
2038	 0.105323622726594 
2039	 0.105362858770927 
2040	 0.105407387994033 
2041	 0.105459875614773 
2042	 0.105487353334892 
2043	 0.105526162258019 
2044	 0.105577239462643 
2045	 0.105648362403896 
2046	 0.105695914006665 
2047	 0.105746871567573 
2048	 0.105789995985724 
2049	 0.105811406748199 
2050	 0.105840993814697 
2051	 0.105879014351238 
2052	 0.10590954903809 
2053	 0.105927181177718 
2054	 0.10595796670087 
2055	 0.106007283199521 
2056	 0.106029590790712 
2057	 0.106060378194492 
2058	 0.106093191183957 
2059	 0.106125924531709 
2060	 0.106156142630312 
2061	 0.106183421508776 
2062	 0.10621374274458 
2063	 0.106241996026881 
2064	 0.106256377947475 
2065	 0.106285097567885 
2066	 0.106321533108311 
2067	 0.106359322412569 
2068	 0.106407392375026 
2069	 0.106454897227889 
2070	 0.10648551906124 
2071	 0.106502378345249 
2072	 0.106542929872377 
2073	 0.106582766850933 
2074	 0.106620773231903 
2075	 0.106685692777637 
2076	 0.106722267927558 
2077	 0.106723573325592 
2078	 0.106753447910901 
2079	 0.106804193945748 
2080	 0.106830509575214 
2081	 0.106838450529518 
2082	 0.106870855355012 
2083	 0.106915598698686 
2084	 0.10692978317594 
2085	 0.106972331389911 
2086	 0.107053258795582 
2087	 0.107097226949837 
2088	 0.107119702654804 
2089	 0.107159446436427 
2090	 0.107198157481428 
2091	 0.107237184790267 
2092	 0.107289485335987 
2093	 0.107325978748127 
2094	 0.107348755528446 
2095	 0.10737929202906 
2096	 0.107408515179686 
2097	 0.107434373731609 
2098	 0.107461730863491 
2099	 0.107487972372801 
2100	 0.107514647853778 
2101	 0.107534419464701 
2102	 0.107564751724504 
2103	 0.107596529410412 
2104	 0.107640632407294 
2105	 0.107698667117902 
2106	 0.107744223624314 
2107	 0.107795140610765 
2108	 0.107843030708378 
2109	 0.107871031721934 
2110	 0.107921632025929 
2111	 0.107995495294183 
2112	 0.108055812135654 
2113	 0.108126957333843 
2114	 0.108179354665532 
2115	 0.10823842881747 
2116	 0.10828753722894 
2117	 0.108347840161736 
2118	 0.108421813366123 
2119	 0.108476171495858 
2120	 0.10852897102385 
2121	 0.108567811739777 
2122	 0.108588706163309 
2123	 0.108614316672633 
2124	 0.108622701583128 
2125	 0.108651265025849 
2126	 0.108700069911551 
2127	 0.108730115647286 
2128	 0.108768866219168 
2129	 0.108793752758318 
2130	 0.108813450905303 
2131	 0.108803469273806 
2132	 0.108786604264521 
2133	 0.108750861117086 
2134	 0.108730443990901 
2135	 0.10868855422564 
2136	 0.108676136769388 
2137	 0.10869334114099 
2138	 0.108693756433147 
2139	 0.108707126844313 
2140	 0.108697157815431 
2141	 0.108673654142222 
2142	 0.108646097056928 
2143	 0.108602314709171 
2144	 0.108558989554883 
2145	 0.108506285688846 
2146	 0.108461763337066 
2147	 0.108417483430425 
2148	 0.108374426789544 
2149	 0.108332250142417 
2150	 0.108303515338911 
2151	 0.108251842292577 
2152	 0.108184494635433 
2153	 0.108127409409621 
2154	 0.108065885015196 
2155	 0.108002984724579 
2156	 0.1079569414843 
2157	 0.107884096714888 
2158	 0.107793516312229 
2159	 0.107698081016295 
2160	 0.107573695658658 
2161	 0.107470748859337 
2162	 0.107375307425971 
2163	 0.107279059790163 
2164	 0.107187382644422 
2165	 0.107104136695379 
2166	 0.107021212527269 
2167	 0.106928302612903 
2168	 0.106859610040578 
2169	 0.106817007803545 
2170	 0.106749023680335 
2171	 0.106685518967792 
2172	 0.106609901800392 
2173	 0.106505344636346 
2174	 0.106427814998547 
2175	 0.106367646721132 
2176	 0.106294813027235 
2177	 0.106229281827969 
2178	 0.106155765625106 
2179	 0.106064147861671 
2180	 0.105981346860035 
2181	 0.105905148605176 
2182	 0.105825401423449 
2183	 0.105730911146787 
2184	 0.105659659903183 
2185	 0.105597920508526 
2186	 0.105543029947269 
2187	 0.10549481180226 
2188	 0.10548195085468 
2189	 0.105422692769566 
2190	 0.105336982308193 
2191	 0.105267560129266 
2192	 0.105175240378657 
2193	 0.105108661300981 
2194	 0.105066967670148 
2195	 0.105017883144735 
2196	 0.104978257482327 
2197	 0.104927909140083 
2198	 0.10486220387862 
2199	 0.104815258028522 
2200	 0.104780982692315 
2201	 0.104736395590899 
2202	 0.104675365234271 
2203	 0.104650652120766 
2204	 0.104641295964451 
2205	 0.104639390043814 
2206	 0.104628373627055 
2207	 0.10465708473557 
2208	 0.104639729336731 
2209	 0.104570628805249 
2210	 0.104550906606392 
2211	 0.104554513280705 
2212	 0.104536969280004 
2213	 0.104524398588783 
2214	 0.104510168779176 
2215	 0.104476925626252 
2216	 0.104456424258271 
2217	 0.104449658833602 
2218	 0.104440467991704 
2219	 0.104425697081216 
2220	 0.104419557905664 
2221	 0.10441292619076 
2222	 0.104431943565346 
2223	 0.104413292721814 
2224	 0.104408522539751 
2225	 0.104427253424656 
2226	 0.104452976648065 
2227	 0.104472400912591 
2228	 0.10452164608437 
2229	 0.104546491246059 
2230	 0.104552333633049 
2231	 0.10455838686695 
2232	 0.104566626468099 
2233	 0.104568037756541 
2234	 0.104547346100395 
2235	 0.104544513883026 
2236	 0.104553056522026 
2237	 0.104556670900749 
2238	 0.104571504204788 
2239	 0.104570229151747 
2240	 0.104555113315168 
2241	 0.104545668465489 
2242	 0.104515171402733 
2243	 0.104507473995028 
2244	 0.104517616803277 
2245	 0.104532510681232 
2246	 0.10454262194541 
2247	 0.104567576955549 
2248	 0.104567947508794 
2249	 0.104545137165105 
2250	 0.104549004547285 
2251	 0.10455401064502 
2252	 0.104564350878404 
2253	 0.10459079986504 
2254	 0.104614534663712 
2255	 0.104636910805082 
2256	 0.104657173437265 
2257	 0.10469022521403 
2258	 0.104704657819301 
2259	 0.104692577975649 
2260	 0.104711956001925 
2261	 0.104747795945433 
2262	 0.10476671735665 
2263	 0.104804873800271 
2264	 0.104816438416125 
2265	 0.104773449709792 
2266	 0.104778493804466 
2267	 0.104813942865135 
2268	 0.104836600072907 
2269	 0.104890951030173 
2270	 0.104921443673112 
2271	 0.104902023399963 
2272	 0.104864148515462 
2273	 0.104869206739568 
2274	 0.104854596016267 
2275	 0.104847698778929 
2276	 0.104867183203645 
2277	 0.104866336357033 
2278	 0.104836539701341 
2279	 0.104845139778697 
2280	 0.104883377405336 
2281	 0.104894647200115 
2282	 0.104896638579423 
2283	 0.104911340196769 
2284	 0.104929152207859 
2285	 0.104940843635802 
2286	 0.104962029404881 
2287	 0.104979708147101 
2288	 0.104977184960906 
2289	 0.10498540439999 
2290	 0.105015497053325 
2291	 0.105028025462347 
2292	 0.105009925238043 
2293	 0.105031625611744 
2294	 0.105085054810926 
2295	 0.105109988222107 
2296	 0.105138684373877 
2297	 0.105178853507775 
2298	 0.105204616550193 
2299	 0.105174709499278 
2300	 0.105173020202924 
2301	 0.105183633291036 
2302	 0.105131692254625 
2303	 0.105152643251951 
2304	 0.105208633112359 
2305	 0.105209407783635 
2306	 0.105206767515141 
2307	 0.105199897251969 
2308	 0.105191798593759 
2309	 0.105155852707544 
2310	 0.105144238960301 
2311	 0.105164567511372 
2312	 0.105164524935147 
2313	 0.105133942119758 
2314	 0.10514114498246 
2315	 0.10516854576769 
2316	 0.105184324983245 
2317	 0.105224530364924 
2318	 0.105241481899577 
2319	 0.105241490590397 
2320	 0.105243531661896 
2321	 0.10521892363226 
2322	 0.105236184503641 
2323	 0.105289399480227 
2324	 0.105302083024782 
2325	 0.105324415585897 
2326	 0.105341127888509 
2327	 0.105296130498409 
2328	 0.105317007160441 
2329	 0.105397199361733 
2330	 0.105409583738381 
2331	 0.105426442537486 
2332	 0.105412660006642 
2333	 0.105378818917231 
2334	 0.105385511557672 
2335	 0.105396197190716 
2336	 0.105458123582174 
2337	 0.105541641311283 
2338	 0.105559463236725 
2339	 0.105566483589967 
2340	 0.105595624082387 
2341	 0.105622905690971 
2342	 0.105604273535914 
2343	 0.105608050735856 
2344	 0.105653739064637 
2345	 0.105641085643779 
2346	 0.105600881361596 
2347	 0.105574541581551 
2348	 0.105490603674009 
2349	 0.105469658757761 
2350	 0.105502121967316 
2351	 0.105485820536642 
2352	 0.105489578779009 
2353	 0.105464953075874 
2354	 0.105383598368343 
2355	 0.105341969996499 
2356	 0.105328525597926 
2357	 0.105289934542197 
2358	 0.105212866726036 
2359	 0.105205560018209 
2360	 0.105203962227989 
2361	 0.105235174945966 
2362	 0.105423547680022 
2363	 0.105434408819729 
2364	 0.105326945545159 
2365	 0.105280181825914 
2366	 0.105126045110049 
2367	 0.105075135838222 
2368	 0.105148754843049 
2369	 0.10517482489515 
2370	 0.105228505637916 
2371	 0.105223697758379 
2372	 0.105215500243223 
2373	 0.105175572801 
2374	 0.105145466592513 
2375	 0.105097733519971 
2376	 0.105010237873073 
2377	 0.104980119152443 
2378	 0.104976992067641 
2379	 0.104977424427081 
2380	 0.104982209142102 
2381	 0.105009880285159 
2382	 0.104990766851736 
2383	 0.104947898479996 
2384	 0.104974158326274 
2385	 0.104939491637346 
2386	 0.104859422741191 
2387	 0.104787889387391 
2388	 0.104737684139629 
2389	 0.10477604029811 
2390	 0.104808674180532 
2391	 0.104810078274379 
2392	 0.104767715961846 
2393	 0.10471646810884 
2394	 0.104684968358949 
2395	 0.104672282885858 
2396	 0.104712939778201 
2397	 0.104671175828365 
2398	 0.104580349794359 
2399	 0.104609094951543 
2400	 0.104694456003258 
2401	 0.104711588717205 
2402	 0.104732692975416 
2403	 0.104730873760466 
2404	 0.104623624068272 
2405	 0.104550196327823 
2406	 0.104536173244141 
2407	 0.10452445505473 
2408	 0.104429870203828 
2409	 0.104260632005596 
2410	 0.104142576337791 
2411	 0.104009410753158 
2412	 0.104030082308599 
2413	 0.104200751037684 
2414	 0.10424720310531 
2415	 0.104338649457941 
2416	 0.104371174827222 
2417	 0.104322043028457 
2418	 0.104203466638801 
2419	 0.104000931307998 
2420	 0.103899757972955 
2421	 0.103729340944418 
2422	 0.103694008275115 
2423	 0.103861636292526 
2424	 0.103906011657417 
2425	 0.103927999191395 
2426	 0.103940223128527 
2427	 0.103933815288218 
2428	 0.103889693505432 
2429	 0.10380585891319 
2430	 0.103718226704878 
2431	 0.103584326829538 
2432	 0.103470298364695 
2433	 0.103360002382559 
2434	 0.10332363671582 
2435	 0.103317108726521 
2436	 0.103319182635286 
2437	 0.103429548894101 
2438	 0.103379949465881 
2439	 0.10319634954745 
2440	 0.103132571721161 
2441	 0.103050054247314 
2442	 0.103023338602011 
2443	 0.103139323223057 
2444	 0.103129811541814 
2445	 0.103049140055842 
2446	 0.10294659849305 
2447	 0.102776793623732 
2448	 0.102679455391934 
2449	 0.1025588703514 
2450	 0.102503689811861 
2451	 0.10251204185376 
2452	 0.102544857687629 
2453	 0.102710895182648 
2454	 0.10275095070705 
2455	 0.10273143646601 
2456	 0.102712112005424 
2457	 0.102601219997965 
2458	 0.102460941676879 
2459	 0.102336854376083 
2460	 0.102222453977275 
2461	 0.102038338348706 
2462	 0.101905203132674 
2463	 0.10182607932967 
2464	 0.10178668914688 
2465	 0.101706608712285 
2466	 0.101728063645591 
2467	 0.101950432953915 
2468	 0.101962109980935 
2469	 0.101896843133626 
2470	 0.101890051633901 
2471	 0.101791072864515 
2472	 0.101684755002087 
2473	 0.101543586142805 
2474	 0.101457582322927 
2475	 0.101491713042778 
2476	 0.101569434275033 
2477	 0.101636367474335 
2478	 0.101720352510218 
2479	 0.101601070568931 
2480	 0.101285209840469 
2481	 0.10117511484843 
2482	 0.101240897357281 
2483	 0.101293483742521 
2484	 0.101364735084357 
2485	 0.101413012812517 
2486	 0.101310609941405 
2487	 0.101155248256352 
2488	 0.101152043148629 
2489	 0.101020696700294 
2490	 0.100706611161644 
2491	 0.100708173360405 
2492	 0.100672602183067 
2493	 0.100561553255965 
2494	 0.100926777607979 
2495	 0.10115073407232 
2496	 0.10105427364932 
2497	 0.10100525417105 
2498	 0.100737977343576 
2499	 0.100311497709059 
2500	 0.10002890435464 
