Wavelength	LMW_1700005.asd
350	 6.44387919204968E-02 
351	 0.07422304767771 
352	 6.60210806915816E-02 
353	 4.84302650905456E-02 
354	 5.69643430863767E-02 
355	 6.36023152391989E-02 
356	 6.32037842165907E-02 
357	 5.91675342938175E-02 
358	 6.28549803818687E-02 
359	 6.26889870996653E-02 
360	 5.89607813418482E-02 
361	 0.05929866330919 
362	 5.91075986371956E-02 
363	 5.52545082587445E-02 
364	 4.95997242886548E-02 
365	 5.10565272736373E-02 
366	 5.49326442357126E-02 
367	 5.69739648953047E-02 
368	 5.56847033228984E-02 
369	 5.95373577741401E-02 
370	 6.18426277495784E-02 
371	 6.05670515092363E-02 
372	 0.057763417741344 
373	 5.95988153699411E-02 
374	 6.16553175114062E-02 
375	 6.18617828957103E-02 
376	 6.49813595878613E-02 
377	 6.29760262438782E-02 
378	 0.061423593387341 
379	 6.59623050005165E-02 
380	 6.48272583260581E-02 
381	 6.26914248482714E-02 
382	 6.34896064754629E-02 
383	 6.90751795121726E-02 
384	 6.87215863440385E-02 
385	 6.62330814981631E-02 
386	 6.59037163508321E-02 
387	 6.90879197008532E-02 
388	 0.068987178570306 
389	 6.81420823268029E-02 
390	 7.05952239814341E-02 
391	 7.21618831709474E-02 
392	 7.11747322577058E-02 
393	 7.00382141314417E-02 
394	 7.37222077137253E-02 
395	 7.37555511158574E-02 
396	 7.30197320111339E-02 
397	 7.42066709294473E-02 
398	 7.57272899610109E-02 
399	 7.58063113984257E-02 
400	 7.55839680061619E-02 
401	 7.68499116563851E-02 
402	 0.078178370317773 
403	 7.89230322726877E-02 
404	 7.90985849414379E-02 
405	 0.079327871727503 
406	 8.11640051095748E-02 
407	 8.24007754781909E-02 
408	 8.16856283127042E-02 
409	 8.16081231590178E-02 
410	 8.15911823425224E-02 
411	 8.21394452352859E-02 
412	 8.38386048848087E-02 
413	 8.45407372284921E-02 
414	 8.45270099147961E-02 
415	 8.44948341220396E-02 
416	 8.53625600418056E-02 
417	 8.47632850428451E-02 
418	 0.084701073413202 
419	 8.66600281215166E-02 
420	 8.68527821987446E-02 
421	 8.64388468293155E-02 
422	 0.086269288971432 
423	 8.68112886967211E-02 
424	 8.72803295213889E-02 
425	 8.75894247252961E-02 
426	 8.78639882536222E-02 
427	 8.84525638841491E-02 
428	 8.88457180484309E-02 
429	 8.90968140395681E-02 
430	 8.93855521860129E-02 
431	 8.95214280947647E-02 
432	 8.95806722220606E-02 
433	 8.97135218954852E-02 
434	 9.01136791838474E-02 
435	 9.07375165873999E-02 
436	 9.10833362286984E-02 
437	 9.09649439207104E-02 
438	 0.091189174790594 
439	 9.15142641338353E-02 
440	 9.18147941303695E-02 
441	 9.20586756490813E-02 
442	 0.092598272728711 
443	 9.28294138661018E-02 
444	 9.27277260727533E-02 
445	 9.32783140905065E-02 
446	 9.33640338057306E-02 
447	 9.34385514240287E-02 
448	 9.40510975189473E-02 
449	 9.41593461094609E-02 
450	 9.43707926325353E-02 
451	 9.47245119801558E-02 
452	 9.47660848438607E-02 
453	 9.47914594698243E-02 
454	 9.50044834385826E-02 
455	 9.54341181243502E-02 
456	 9.57453276206219E-02 
457	 9.60862906406126E-02 
458	 0.096298315209955 
459	 9.61845900195435E-02 
460	 9.62571000913079E-02 
461	 9.65740089031535E-02 
462	 9.70044198008687E-02 
463	 9.72261702224757E-02 
464	 9.74593909589213E-02 
465	 9.76934515053724E-02 
466	 9.79054483749654E-02 
467	 9.82878632272179E-02 
468	 9.86266585774505E-02 
469	 9.87536617299574E-02 
470	 9.86043563023812E-02 
471	 9.89785532597984E-02 
472	 9.94040264846252E-02 
473	 9.95171259563297E-02 
474	 0.099724427973262 
475	 9.99750649759679E-02 
476	 0.10020069439806 
477	 0.100339159950887 
478	 0.100505902963545 
479	 0.100744206628747 
480	 0.100996144081837 
481	 0.10106626367618 
482	 0.101577436749866 
483	 0.102050339724834 
484	 0.102006689228114 
485	 0.102280311525171 
486	 0.10248914644473 
487	 0.102576719788041 
488	 0.102776811129947 
489	 0.103145459017967 
490	 0.103343927122299 
491	 0.103273626489572 
492	 0.10360853722545 
493	 0.103763638286396 
494	 0.10385191565017 
495	 0.104219685875185 
496	 0.104325727376632 
497	 0.104418282547757 
498	 0.104664964038735 
499	 0.105014433208362 
500	 0.105156500657538 
501	 0.105244032433378 
502	 0.105474044531868 
503	 0.105543915949356 
504	 0.105728811268113 
505	 0.106013885407445 
506	 0.106122423657366 
507	 0.106337250463818 
508	 0.106584451704774 
509	 0.106738042762052 
510	 0.106687364396032 
511	 0.106794298431753 
512	 0.107017052061385 
513	 0.10713218390891 
514	 0.107459590528766 
515	 0.10769997556242 
516	 0.107729394619339 
517	 0.10782541474966 
518	 0.107942885874436 
519	 0.108067130372389 
520	 0.108189171101334 
521	 0.108329023354431 
522	 0.108417572970461 
523	 0.108487779478815 
524	 0.108678832621388 
525	 0.108912554864495 
526	 0.109060883903462 
527	 0.109068043459001 
528	 0.10912097310865 
529	 0.109206133704535 
530	 0.109345884663113 
531	 0.10956937058472 
532	 0.109715386607777 
533	 0.109845270171558 
534	 0.109986965252792 
535	 0.110014041227434 
536	 0.110095442435946 
537	 0.110242170909794 
538	 0.110395520867694 
539	 0.110502234451516 
540	 0.110579677015825 
541	 0.110659777131515 
542	 0.110784566919475 
543	 0.110884381310686 
544	 0.110999055760466 
545	 0.111167592847726 
546	 0.111311180206931 
547	 0.111395493345396 
548	 0.111454946464836 
549	 0.111573439594232 
550	 0.111639341102247 
551	 0.111698898980775 
552	 0.111803405892079 
553	 0.11194770409202 
554	 0.112067692089636 
555	 0.11217423622994 
556	 0.112317682374175 
557	 0.112502347223357 
558	 0.112702488227736 
559	 0.112887134594358 
560	 0.113024157454452 
561	 0.113100214133784 
562	 0.113171414459209 
563	 0.113289210348878 
564	 0.113335337575929 
565	 0.113347055255472 
566	 0.113340596150017 
567	 0.113299850077071 
568	 0.113407627985656 
569	 0.113591445354542 
570	 0.113749936851795 
571	 0.11391894229674 
572	 0.114082974791618 
573	 0.114208146454542 
574	 0.114259536989283 
575	 0.114352572061504 
576	 0.11448911610873 
577	 0.114610075083722 
578	 0.114551185640733 
579	 0.11453759342277 
580	 0.11450041712182 
581	 0.114301414338357 
582	 0.114247441461988 
583	 0.11429510971863 
584	 0.114381919316391 
585	 0.114462826579747 
586	 0.114693327762137 
587	 0.114908457659694 
588	 0.114949948637739 
589	 0.115127601734202 
590	 0.115277382531484 
591	 0.115365791891922 
592	 0.115493959696657 
593	 0.115742587149524 
594	 0.115953367068721 
595	 0.116007508277458 
596	 0.116020944981624 
597	 0.115966053928832 
598	 0.115871399131086 
599	 0.115792660584589 
600	 0.115739031729648 
601	 0.115758534584235 
602	 0.115837911453409 
603	 0.115850975275608 
604	 0.115843351799144 
605	 0.115905222257146 
606	 0.116085152950322 
607	 0.116100606647958 
608	 0.116137611952937 
609	 0.116266345567024 
610	 0.116393222680453 
611	 0.116471806715234 
612	 0.116521759770761 
613	 0.116573655740887 
614	 0.116627914223212 
615	 0.116639494659862 
616	 0.116647621753743 
617	 0.116740720536388 
618	 0.116843738896797 
619	 0.116916006358561 
620	 0.116948723654772 
621	 0.116988202298435 
622	 0.117001562065915 
623	 0.117016807069522 
624	 0.117079060723889 
625	 0.117182018005115 
626	 0.11723193820514 
627	 0.117240289634998 
628	 0.117364921228355 
629	 0.117415917914732 
630	 0.117438059839928 
631	 0.117509133457812 
632	 0.117573354762894 
633	 0.11760524493104 
634	 0.117645219839824 
635	 0.117774882602066 
636	 0.11783771377121 
637	 0.117878099114888 
638	 0.117945157213498 
639	 0.118009271397821 
640	 0.118081699861038 
641	 0.11816332655593 
642	 0.118247605879647 
643	 0.118318081802319 
644	 0.118336986715194 
645	 0.118331736132541 
646	 0.118426317644966 
647	 0.118485110490251 
648	 0.11854955564691 
649	 0.118670820355298 
650	 0.118715560676388 
651	 0.118757728155399 
652	 0.118830424245584 
653	 0.118923245598395 
654	 0.119003138249621 
655	 0.119037722220912 
656	 0.11903528702918 
657	 0.119097089284367 
658	 0.119196220532726 
659	 0.119272691682339 
660	 0.119272041073634 
661	 0.119326824643574 
662	 0.119419625158169 
663	 0.119520940721449 
664	 0.1196084848437 
665	 0.119637784705107 
666	 0.119658754539082 
667	 0.119727527441004 
668	 0.119798569137173 
669	 0.119881891249633 
670	 0.119958053443903 
671	 0.119987975946936 
672	 0.120030738221714 
673	 0.120123307019721 
674	 0.12025169260476 
675	 0.120292110433635 
676	 0.120341020162735 
677	 0.120401746707388 
678	 0.120440788739659 
679	 0.120457853141934 
680	 0.120508365020644 
681	 0.120589391894171 
682	 0.120617349597491 
683	 0.120657194145795 
684	 0.120715796502556 
685	 0.120780531563314 
686	 0.120824166451751 
687	 0.120881948866987 
688	 0.12094659024308 
689	 0.120982948792532 
690	 0.121017041088778 
691	 0.121044383279971 
692	 0.121072348190827 
693	 0.121147603597734 
694	 0.12116020272444 
695	 0.121173725993295 
696	 0.121275881804108 
697	 0.121315127175304 
698	 0.12130071491238 
699	 0.121288524421271 
700	 0.121366621536497 
701	 0.121430097943518 
702	 0.121455240622741 
703	 0.12145212442218 
704	 0.121468659413965 
705	 0.121493533684862 
706	 0.121538913635743 
707	 0.121611070985125 
708	 0.121569718946214 
709	 0.121583950814389 
710	 0.121697670495579 
711	 0.121730319835544 
712	 0.121733460450702 
713	 0.121728273772076 
714	 0.121730960116308 
715	 0.121757391899937 
716	 0.121773714102679 
717	 0.121780828141422 
718	 0.121805294074625 
719	 0.12184991940792 
720	 0.121885031143811 
721	 0.121892932898562 
722	 0.121884550702325 
723	 0.121901399945131 
724	 0.121917196187874 
725	 0.121896712553742 
726	 0.121889486145749 
727	 0.121901973533565 
728	 0.121908514230726 
729	 0.121864419000714 
730	 0.121918037864502 
731	 0.121952828824049 
732	 0.121899869900283 
733	 0.12192380046246 
734	 0.121916767098853 
735	 0.121892359413443 
736	 0.121902434494875 
737	 0.121916324770481 
738	 0.121918388244789 
739	 0.12190059888558 
740	 0.121864088272416 
741	 0.121869975229049 
742	 0.121882031704346 
743	 0.121857203963323 
744	 0.12178672477119 
745	 0.121757639205897 
746	 0.121783111866722 
747	 0.121826932430565 
748	 0.121810007713883 
749	 0.121777137545857 
750	 0.121753159102442 
751	 0.121723782941688 
752	 0.121671443134529 
753	 0.121629648234927 
754	 0.121624002897643 
755	 0.121623088089095 
756	 0.121624125801488 
757	 0.121613786606695 
758	 0.121583973609796 
759	 0.12160281886854 
760	 0.121576991417012 
761	 0.121510849940007 
762	 0.121545017162975 
763	 0.121558654977964 
764	 0.121547814890805 
765	 0.121531771361223 
766	 0.121511949846818 
767	 0.121499196089565 
768	 0.121500107047668 
769	 0.121512726648595 
770	 0.121502471281403 
771	 0.121468481027689 
772	 0.12142339264749 
773	 0.121391277985817 
774	 0.121411995132525 
775	 0.121410482358506 
776	 0.121347496167942 
777	 0.12135722467524 
778	 0.121338060528772 
779	 0.121313692123223 
780	 0.121345767792628 
781	 0.121351549816176 
782	 0.121352940854925 
783	 0.12134213236985 
784	 0.1212768052658 
785	 0.12124065502675 
786	 0.121221012013165 
787	 0.121200395117005 
788	 0.121199955284797 
789	 0.12120330774144 
790	 0.121179064333066 
791	 0.121116259439003 
792	 0.121133857248045 
793	 0.121144268608605 
794	 0.121116836314425 
795	 0.121082491034012 
796	 0.1210742859157 
797	 0.121049178235644 
798	 0.121002587715774 
799	 0.121024350624162 
800	 0.121025054654372 
801	 0.120980547024311 
802	 0.120908886064265 
803	 0.120901442633511 
804	 0.120886823534155 
805	 0.12086314241388 
806	 0.120868010649534 
807	 0.120855463543312 
808	 0.120852033381109 
809	 0.120853969690967 
810	 0.120810778179678 
811	 0.120796487906585 
812	 0.120796209643836 
813	 0.120783585748263 
814	 0.120762099426824 
815	 0.120710075184664 
816	 0.120661111815141 
817	 0.120662110117172 
818	 0.120697840133163 
819	 0.120725725830647 
820	 0.120702483226613 
821	 0.120601441211861 
822	 0.120546076571883 
823	 0.120546810048869 
824	 0.120575553039846 
825	 0.120576118956609 
826	 0.120548359110557 
827	 0.120522366981744 
828	 0.12052268521836 
829	 0.120529328360815 
830	 0.120489008342347 
831	 0.120439560866659 
832	 0.120443911487425 
833	 0.120412122556604 
834	 0.120385058684659 
835	 0.120371856035692 
836	 0.120348188150383 
837	 0.120381325890481 
838	 0.120381781016805 
839	 0.120316294015831 
840	 0.120288537323689 
841	 0.120265579668137 
842	 0.120241868732961 
843	 0.120221273795404 
844	 0.120218057047491 
845	 0.120233159466462 
846	 0.120240516370839 
847	 0.120216434984001 
848	 0.120229498661755 
849	 0.120202408857259 
850	 0.120141500365616 
851	 0.120124834689084 
852	 0.120116821224561 
853	 0.120094794699632 
854	 0.12007195969865 
855	 0.120108401772242 
856	 0.120119745302405 
857	 0.120102464840668 
858	 0.120083960749191 
859	 0.120122692330636 
860	 0.120110380179822 
861	 0.120062610717464 
862	 0.120035657120921 
863	 0.120043793526056 
864	 0.120035448180155 
865	 0.120010214214748 
866	 0.120003785526242 
867	 0.120051684291653 
868	 0.120067577797309 
869	 0.120035915207332 
870	 0.120021409714583 
871	 0.119994461417878 
872	 0.119961372103983 
873	 0.119946883856986 
874	 0.119994675867118 
875	 0.119996978177978 
876	 0.119953720064931 
877	 0.119902214169159 
878	 0.119893126681699 
879	 0.119926981895442 
880	 0.119954438536933 
881	 0.119931819171433 
882	 0.11992021248493 
883	 0.119902614591431 
884	 0.119877841905838 
885	 0.119857757155435 
886	 0.119876378772593 
887	 0.119851883687745 
888	 0.119815681924496 
889	 0.119881199658883 
890	 0.119923609287131 
891	 0.119897326191993 
892	 0.119832120840729 
893	 0.119830123696922 
894	 0.119847530603396 
895	 0.119862206946971 
896	 0.119864075435232 
897	 0.119859006720996 
898	 0.119892278476433 
899	 0.119910212690268 
900	 0.119871689291965 
901	 0.119836726545129 
902	 0.119826452668426 
903	 0.119816077173241 
904	 0.119784890074176 
905	 0.119796192808876 
906	 0.119829859959517 
907	 0.119853333521048 
908	 0.119849882485977 
909	 0.11990931072183 
910	 0.119948139543985 
911	 0.119933312904876 
912	 0.119885736805617 
913	 0.119882621305581 
914	 0.119918624723297 
915	 0.119935509223956 
916	 0.119859800816989 
917	 0.119832135602316 
918	 0.119880859129176 
919	 0.119935506635664 
920	 0.119854052613498 
921	 0.119810105791777 
922	 0.119854318968699 
923	 0.119959830957196 
924	 0.120024706192187 
925	 0.119998201138676 
926	 0.119952883201435 
927	 0.119942252129323 
928	 0.119927798533816 
929	 0.119969996663568 
930	 0.119968449236268 
931	 0.119894094320039 
932	 0.119969250627975 
933	 0.12004353484346 
934	 0.120022219152323 
935	 0.11992418068282 
936	 0.120046015736672 
937	 0.119994013759819 
938	 0.119893028564684 
939	 0.119957645087559 
940	 0.120073411130587 
941	 0.120088546973453 
942	 0.120110170667805 
943	 0.120244274263866 
944	 0.12014665899337 
945	 0.120063414869678 
946	 0.120064265885265 
947	 0.120105279632872 
948	 0.120080241632261 
949	 0.120028767236238 
950	 0.119998093318867 
951	 0.120022943071003 
952	 0.120082794458828 
953	 0.120086802015323 
954	 0.120094365422524 
955	 0.120191191323069 
956	 0.120107985303313 
957	 0.120112841399592 
958	 0.120154480397232 
959	 0.120048322358682 
960	 0.120142630647969 
961	 0.120194043758639 
962	 0.120171090476624 
963	 0.120193193959042 
964	 0.120242018928032 
965	 0.120219159079396 
966	 0.120190052509608 
967	 0.120287324367014 
968	 0.120349093634898 
969	 0.120233598303059 
970	 0.120070126299264 
971	 0.120100994124259 
972	 0.12008305400164 
973	 0.120078099959528 
974	 0.12013314806774 
975	 0.120255443650358 
976	 0.120395064370661 
977	 0.120412290409419 
978	 0.120306446748318 
979	 0.120200024244806 
980	 0.120303163217742 
981	 0.120284215881907 
982	 0.120166393460055 
983	 0.120171587430827 
984	 0.120174984044386 
985	 0.120140131535613 
986	 0.120158103543429 
987	 0.120313031640228 
988	 0.120315945650663 
989	 0.120270119488217 
990	 0.12021918500046 
991	 0.120183898429251 
992	 0.12027726092429 
993	 0.120249560746726 
994	 0.12022822575728 
995	 0.120398915902808 
996	 0.120434206280486 
997	 0.120368723903852 
998	 0.120260222281625 
999	 0.120212242949406 
1000	 0.120448975258118 
1001	 0.118854441134671 
1002	 0.118841655287514 
1003	 0.118888359704363 
1004	 0.118928717446595 
1005	 0.11900127808534 
1006	 0.118997343308441 
1007	 0.11897331209187 
1008	 0.118920998822443 
1009	 0.118881158269483 
1010	 0.118857905955551 
1011	 0.118852771265033 
1012	 0.118882336660122 
1013	 0.118848952964336 
1014	 0.118831487481533 
1015	 0.118897989337581 
1016	 0.118941871568594 
1017	 0.118950896018429 
1018	 0.118947641605341 
1019	 0.11894700562278 
1020	 0.118952441449521 
1021	 0.118947510486187 
1022	 0.118963497873755 
1023	 0.119019731250559 
1024	 0.119001289249252 
1025	 0.118962561874648 
1026	 0.118942187424346 
1027	 0.118864237025031 
1028	 0.118826318457759 
1029	 0.118841155227545 
1030	 0.118880313666437 
1031	 0.118897822765521 
1032	 0.118944794301595 
1033	 0.118948905502466 
1034	 0.118912030404805 
1035	 0.118866255000181 
1036	 0.118841753930337 
1037	 0.118837983163446 
1038	 0.118845614689878 
1039	 0.118852956827821 
1040	 0.118862014037791 
1041	 0.118848927924832 
1042	 0.118848938255771 
1043	 0.11885770041231 
1044	 0.118873822400322 
1045	 0.118892791123948 
1046	 0.118945151148164 
1047	 0.11898412750456 
1048	 0.119023482756739 
1049	 0.119065719428957 
1050	 0.119049341032853 
1051	 0.118994950977324 
1052	 0.118984111673033 
1053	 0.118988210578674 
1054	 0.119003914772034 
1055	 0.119067960004626 
1056	 0.119113460291672 
1057	 0.119137140822695 
1058	 0.119116923226074 
1059	 0.1191343546125 
1060	 0.119166477305341 
1061	 0.119182751477253 
1062	 0.119183560665957 
1063	 0.119218793558777 
1064	 0.119234918050713 
1065	 0.119254691857243 
1066	 0.119296483400577 
1067	 0.119300237442696 
1068	 0.119321561372564 
1069	 0.119314613878899 
1070	 0.119301431238391 
1071	 0.11927827172491 
1072	 0.11927255153402 
1073	 0.119246151896905 
1074	 0.119253013543142 
1075	 0.1192830829037 
1076	 0.119331984287968 
1077	 0.119367153285209 
1078	 0.119328811572632 
1079	 0.119282595106711 
1080	 0.119248070801675 
1081	 0.119226875385887 
1082	 0.119233262614493 
1083	 0.119207520054028 
1084	 0.119166941160302 
1085	 0.119153454686431 
1086	 0.119127255492783 
1087	 0.119109887903302 
1088	 0.119132905879695 
1089	 0.119130397540658 
1090	 0.119066941894312 
1091	 0.119041300999235 
1092	 0.119046653527074 
1093	 0.11903210850946 
1094	 0.119044029187346 
1095	 0.119073870702542 
1096	 0.119070282463869 
1097	 0.119063978013919 
1098	 0.11905617590759 
1099	 0.119051323379326 
1100	 0.119024395816377 
1101	 0.11894572999801 
1102	 0.11894067368674 
1103	 0.118961010997762 
1104	 0.118978708236824 
1105	 0.119040561620507 
1106	 0.119118096063019 
1107	 0.119120366581632 
1108	 0.119138521683561 
1109	 0.119175295571589 
1110	 0.119165122056727 
1111	 0.11918549487652 
1112	 0.119239488620521 
1113	 0.119257395467927 
1114	 0.119253067369621 
1115	 0.119273048670871 
1116	 0.119278665998888 
1117	 0.119295152557571 
1118	 0.119318312763152 
1119	 0.119368619149319 
1120	 0.11941733378719 
1121	 0.119466169057024 
1122	 0.119496675501103 
1123	 0.119545570887779 
1124	 0.119599413726792 
1125	 0.119652644342142 
1126	 0.119697925273182 
1127	 0.119757772497084 
1128	 0.119803650526584 
1129	 0.119836191881526 
1130	 0.119869478463757 
1131	 0.119904253647802 
1132	 0.119931085408798 
1133	 0.119930114227426 
1134	 0.11995483036648 
1135	 0.119992983998811 
1136	 0.120043739781158 
1137	 0.120073026850549 
1138	 0.120094978536368 
1139	 0.120125066118446 
1140	 0.12013091604734 
1141	 0.12017384941374 
1142	 0.120262222771662 
1143	 0.120304118905277 
1144	 0.1203329098368 
1145	 0.120364843321208 
1146	 0.120375355585608 
1147	 0.120396919708415 
1148	 0.120432946110769 
1149	 0.120459052135471 
1150	 0.120481777415905 
1151	 0.120493965894728 
1152	 0.120499495238953 
1153	 0.120534249603831 
1154	 0.120554752668989 
1155	 0.120565625969318 
1156	 0.120595241708584 
1157	 0.120645701843685 
1158	 0.120664409057007 
1159	 0.120674969371797 
1160	 0.120693977324358 
1161	 0.120691016575819 
1162	 0.120704329471525 
1163	 0.120743056794031 
1164	 0.120767893225965 
1165	 0.120781187911949 
1166	 0.120803291546097 
1167	 0.120816598227318 
1168	 0.120842056858968 
1169	 0.120877448182783 
1170	 0.120928302304497 
1171	 0.12095663715723 
1172	 0.120985599845757 
1173	 0.121012677119807 
1174	 0.121017532212271 
1175	 0.121047465331505 
1176	 0.121107373246867 
1177	 0.121139577919717 
1178	 0.121168692698247 
1179	 0.121188505458408 
1180	 0.121168483738714 
1181	 0.121183955808172 
1182	 0.121219849321933 
1183	 0.121253805989377 
1184	 0.12128786999529 
1185	 0.121342138167504 
1186	 0.121381482602296 
1187	 0.121407696832855 
1188	 0.121439716305062 
1189	 0.121480566718637 
1190	 0.121508119322325 
1191	 0.121522768458035 
1192	 0.121546473216377 
1193	 0.121561543924274 
1194	 0.121591955624073 
1195	 0.121647495901437 
1196	 0.121679163680203 
1197	 0.121701811928991 
1198	 0.121730446767433 
1199	 0.121755601514205 
1200	 0.121761317050598 
1201	 0.121791159387927 
1202	 0.121839877512922 
1203	 0.121874476929092 
1204	 0.121909960938668 
1205	 0.121941109624272 
1206	 0.121964220969979 
1207	 0.121995221602942 
1208	 0.12202533397406 
1209	 0.122060846970107 
1210	 0.122107556744171 
1211	 0.122145260392402 
1212	 0.122182678492458 
1213	 0.122217066112977 
1214	 0.122236954499843 
1215	 0.122269869234875 
1216	 0.122307918420844 
1217	 0.122352767049909 
1218	 0.122390998480892 
1219	 0.12244055809881 
1220	 0.122470395577636 
1221	 0.122484067269725 
1222	 0.122506795045801 
1223	 0.122522187979352 
1224	 0.122545883833486 
1225	 0.122568305965887 
1226	 0.122604711760116 
1227	 0.122658878335771 
1228	 0.122699612929366 
1229	 0.122747867954114 
1230	 0.122788420749565 
1231	 0.122818297069603 
1232	 0.122844966956527 
1233	 0.122868552850139 
1234	 0.122886468312482 
1235	 0.122917503835933 
1236	 0.12294720377289 
1237	 0.12298179281825 
1238	 0.123040963795238 
1239	 0.123066807761105 
1240	 0.12306213958397 
1241	 0.123087760289576 
1242	 0.1231234949958 
1243	 0.123142682876012 
1244	 0.123163344592243 
1245	 0.1231936337219 
1246	 0.123208880699091 
1247	 0.123232898852258 
1248	 0.123282853296278 
1249	 0.123323061079654 
1250	 0.123348990759126 
1251	 0.123379718549125 
1252	 0.123413344037665 
1253	 0.123456126946319 
1254	 0.12348486788065 
1255	 0.123512710938978 
1256	 0.123530701928802 
1257	 0.123526097002136 
1258	 0.123544897237579 
1259	 0.123571028848217 
1260	 0.123595736506443 
1261	 0.123638218418705 
1262	 0.123665372020594 
1263	 0.123675740662515 
1264	 0.12369635535015 
1265	 0.123719303684499 
1266	 0.123741961091935 
1267	 0.123765164814404 
1268	 0.123793057495516 
1269	 0.12382662436988 
1270	 0.123859252836961 
1271	 0.123895683198105 
1272	 0.123950579766991 
1273	 0.123982483653461 
1274	 0.123995282698331 
1275	 0.124029170747832 
1276	 0.124065502292521 
1277	 0.124099554918501 
1278	 0.124140751675876 
1279	 0.124186064385732 
1280	 0.12421995429747 
1281	 0.124269511879545 
1282	 0.124347799674581 
1283	 0.12440890883698 
1284	 0.124462208122814 
1285	 0.124519088173822 
1286	 0.124601410640875 
1287	 0.124655141787342 
1288	 0.124710191829022 
1289	 0.12477548272143 
1290	 0.124830699508192 
1291	 0.124866260546493 
1292	 0.124909949590382 
1293	 0.124956897535333 
1294	 0.125005277306516 
1295	 0.125048128584955 
1296	 0.125097161939422 
1297	 0.125173493818377 
1298	 0.125213381150306 
1299	 0.125228373761744 
1300	 0.125247458683499 
1301	 0.125253279354387 
1302	 0.12525599278713 
1303	 0.12525474987447 
1304	 0.12525797169328 
1305	 0.125255621970687 
1306	 0.125245608048714 
1307	 0.125239141916452 
1308	 0.125234007871236 
1309	 0.125226469341691 
1310	 0.125206669381193 
1311	 0.125205654066117 
1312	 0.125209980239492 
1313	 0.125226113294531 
1314	 0.125265960359487 
1315	 0.125279942382163 
1316	 0.12529356958556 
1317	 0.125301568872802 
1318	 0.125281013783662 
1319	 0.125288102082501 
1320	 0.125320818864966 
1321	 0.125329413143662 
1322	 0.125332060773601 
1323	 0.125343050098099 
1324	 0.125336559571552 
1325	 0.125319710569676 
1326	 0.125316987519051 
1327	 0.125323905125562 
1328	 0.125349974928131 
1329	 0.125387835593833 
1330	 0.125418270072983 
1331	 0.125461267240284 
1332	 0.125494669053702 
1333	 0.12551535188383 
1334	 0.125549343655212 
1335	 0.125593144388473 
1336	 0.125631546222793 
1337	 0.125672159406186 
1338	 0.125706878603474 
1339	 0.12572693295268 
1340	 0.125766623284853 
1341	 0.125813859533969 
1342	 0.125863983261241 
1343	 0.12592464615633 
1344	 0.125992114585266 
1345	 0.126052697451703 
1346	 0.126109122946136 
1347	 0.126157445121112 
1348	 0.126206941213544 
1349	 0.126274512440433 
1350	 0.126324083029552 
1351	 0.126373621148164 
1352	 0.12642316172853 
1353	 0.126483772569092 
1354	 0.126539510365246 
1355	 0.126604754746832 
1356	 0.126690372411446 
1357	 0.126759150193553 
1358	 0.126819598241028 
1359	 0.126879181667005 
1360	 0.126935456841172 
1361	 0.126996005073566 
1362	 0.127062555488801 
1363	 0.127114651641125 
1364	 0.127158474079687 
1365	 0.127201858248903 
1366	 0.127235787900199 
1367	 0.127270492752744 
1368	 0.12730406519762 
1369	 0.127348965567157 
1370	 0.127371314192353 
1371	 0.127378979197427 
1372	 0.127398069041803 
1373	 0.127427076497726 
1374	 0.12745947670988 
1375	 0.127511181091359 
1376	 0.127541110542331 
1377	 0.12756645822462 
1378	 0.127583401854668 
1379	 0.127581891290406 
1380	 0.127600194242663 
1381	 0.127620010816495 
1382	 0.127642127492474 
1383	 0.127693676808457 
1384	 0.127706088762453 
1385	 0.127688481300585 
1386	 0.12768833338682 
1387	 0.12767518058907 
1388	 0.127663974518764 
1389	 0.127660476308972 
1390	 0.127670653628298 
1391	 0.127652185191392 
1392	 0.127627742035704 
1393	 0.127608038811046 
1394	 0.127573651891636 
1395	 0.127535676681473 
1396	 0.127489290249404 
1397	 0.127440060624385 
1398	 0.12738835630226 
1399	 0.127317405693828 
1400	 0.12723149920159 
1401	 0.127158015895506 
1402	 0.127069813365544 
1403	 0.126999576182795 
1404	 0.126950298189465 
1405	 0.126884770153539 
1406	 0.126807374686486 
1407	 0.126742204232611 
1408	 0.126679280101137 
1409	 0.126620169883318 
1410	 0.12656120280573 
1411	 0.126520402183052 
1412	 0.126489042201441 
1413	 0.126460909364442 
1414	 0.126444121868813 
1415	 0.126439360673662 
1416	 0.126429421137944 
1417	 0.12642262859663 
1418	 0.126436633203463 
1419	 0.126452073512013 
1420	 0.126469568204879 
1421	 0.126491340471628 
1422	 0.126510781840646 
1423	 0.126528814873672 
1424	 0.126551163889693 
1425	 0.126578288896588 
1426	 0.1266026865574 
1427	 0.126632346323597 
1428	 0.126650288198184 
1429	 0.126662732291149 
1430	 0.126676872284177 
1431	 0.126684021467032 
1432	 0.126691993492646 
1433	 0.126696638760424 
1434	 0.126708252590209 
1435	 0.126719965980073 
1436	 0.126737417270702 
1437	 0.126760141017983 
1438	 0.126788481364194 
1439	 0.126825191499313 
1440	 0.126854850754112 
1441	 0.126888131935937 
1442	 0.126921649313017 
1443	 0.12695156928469 
1444	 0.126983439632737 
1445	 0.127016085659606 
1446	 0.127061210948162 
1447	 0.127094133667857 
1448	 0.127113664302687 
1449	 0.127139463312179 
1450	 0.127172487636012 
1451	 0.12720827308226 
1452	 0.127250996080348 
1453	 0.127292245584143 
1454	 0.127337872446334 
1455	 0.127376385050134 
1456	 0.127415637975649 
1457	 0.127450129723459 
1458	 0.127475272343115 
1459	 0.127506255969336 
1460	 0.1275406471647 
1461	 0.127569319316742 
1462	 0.127591251610131 
1463	 0.127627775978755 
1464	 0.127673135871921 
1465	 0.12770509015312 
1466	 0.127734411477807 
1467	 0.127772519140378 
1468	 0.127805955882082 
1469	 0.127843153741373 
1470	 0.127900244702312 
1471	 0.127942605156517 
1472	 0.127967298941692 
1473	 0.127985537395945 
1474	 0.127999113251119 
1475	 0.128026144045951 
1476	 0.128058987732741 
1477	 0.128090635612671 
1478	 0.128121493544215 
1479	 0.12815214268095 
1480	 0.128183513961849 
1481	 0.128202061740515 
1482	 0.128230541551966 
1483	 0.12826169608549 
1484	 0.128293552053649 
1485	 0.128329485561579 
1486	 0.128366613931795 
1487	 0.128403443125142 
1488	 0.128442322986363 
1489	 0.128489655286509 
1490	 0.128522904355235 
1491	 0.128548340817464 
1492	 0.128580543782714 
1493	 0.12860580260254 
1494	 0.128633748193241 
1495	 0.128672253918395 
1496	 0.128701019173195 
1497	 0.1287269894271 
1498	 0.128747618713978 
1499	 0.128756229661285 
1500	 0.128772993284443 
1501	 0.128785821304934 
1502	 0.128805591057591 
1503	 0.128832573532095 
1504	 0.128862941348081 
1505	 0.128897494700783 
1506	 0.128939082786897 
1507	 0.128983874570337 
1508	 0.129025271363553 
1509	 0.129045499637748 
1510	 0.129046316301209 
1511	 0.129053166561179 
1512	 0.129060952549235 
1513	 0.129082983712564 
1514	 0.129115708207625 
1515	 0.129134903935296 
1516	 0.129155813944968 
1517	 0.129168610262632 
1518	 0.129166913197304 
1519	 0.12918754715241 
1520	 0.129216826004876 
1521	 0.12923507301474 
1522	 0.129260170467687 
1523	 0.12928203226615 
1524	 0.129292701681047 
1525	 0.129310123173634 
1526	 0.129340092523724 
1527	 0.129359411480883 
1528	 0.129364712035039 
1529	 0.129384523768558 
1530	 0.129415258983639 
1531	 0.129430500476156 
1532	 0.129448038908983 
1533	 0.129460123749255 
1534	 0.129455263951932 
1535	 0.129459590045099 
1536	 0.129465623868142 
1537	 0.12947208818919 
1538	 0.12947446491209 
1539	 0.129489265032321 
1540	 0.129520871439749 
1541	 0.129539750585209 
1542	 0.129556872593663 
1543	 0.129574740843528 
1544	 0.129579539421032 
1545	 0.129597193386371 
1546	 0.129628105199517 
1547	 0.12965971183421 
1548	 0.129670336578302 
1549	 0.129677918664607 
1550	 0.12967252650036 
1551	 0.129667703967163 
1552	 0.129683408535765 
1553	 0.129691895572377 
1554	 0.129693971076169 
1555	 0.129698083159351 
1556	 0.129701283841676 
1557	 0.12970216788969 
1558	 0.129698801949058 
1559	 0.129704517771912 
1560	 0.129717548528153 
1561	 0.129732218158185 
1562	 0.129750433988543 
1563	 0.129784948741277 
1564	 0.129801652612447 
1565	 0.129810044668729 
1566	 0.129822741602162 
1567	 0.129831006005107 
1568	 0.12984299159181 
1569	 0.12986302218502 
1570	 0.12986461409474 
1571	 0.129853199148144 
1572	 0.129855653594908 
1573	 0.129852264455501 
1574	 0.129856259638813 
1575	 0.129872635437718 
1576	 0.129886456892505 
1577	 0.129897586075865 
1578	 0.129910484433261 
1579	 0.129932260108745 
1580	 0.129948675572243 
1581	 0.129963283578627 
1582	 0.129969958188528 
1583	 0.129970942432087 
1584	 0.129974358899223 
1585	 0.129974408798874 
1586	 0.129970736894981 
1587	 0.129964927084117 
1588	 0.129963304767426 
1589	 0.129954857546507 
1590	 0.129953726487058 
1591	 0.129959525393291 
1592	 0.129968938514465 
1593	 0.129982498022713 
1594	 0.129996173758428 
1595	 0.130021885380625 
1596	 0.130035262358646 
1597	 0.130041914678173 
1598	 0.130044378848854 
1599	 0.13002796509778 
1600	 0.130033447107209 
1601	 0.130056225684074 
1602	 0.130064779623547 
1603	 0.130077611732342 
1604	 0.13008882372619 
1605	 0.130087541784453 
1606	 0.130088870546404 
1607	 0.130096474164862 
1608	 0.130105483598199 
1609	 0.130097971532032 
1610	 0.130093752115113 
1611	 0.130090350198693 
1612	 0.130079085828346 
1613	 0.130076919949636 
1614	 0.130080026555838 
1615	 0.130090161508096 
1616	 0.130095724982075 
1617	 0.130088811798929 
1618	 0.130081858519085 
1619	 0.130083267157571 
1620	 0.130091558168573 
1621	 0.130109268018512 
1622	 0.13014895042166 
1623	 0.130166551145906 
1624	 0.130180151652181 
1625	 0.1301904669905 
1626	 0.1301916052704 
1627	 0.130198098731998 
1628	 0.130206417417184 
1629	 0.130210424736439 
1630	 0.130212282377039 
1631	 0.130215778679108 
1632	 0.130213945393577 
1633	 0.130222972361512 
1634	 0.130241099729875 
1635	 0.130249223385977 
1636	 0.130260246897158 
1637	 0.13026388239048 
1638	 0.130258236277396 
1639	 0.1302568005953 
1640	 0.130257803833393 
1641	 0.130251926878325 
1642	 0.130239330891078 
1643	 0.130231120921193 
1644	 0.130210553976108 
1645	 0.130220119520418 
1646	 0.130254788211848 
1647	 0.130267918391061 
1648	 0.130290402925314 
1649	 0.130301685123225 
1650	 0.130289448126997 
1651	 0.130295832799577 
1652	 0.130316632504686 
1653	 0.130325771227966 
1654	 0.130332162796722 
1655	 0.130337889534772 
1656	 0.130344819926291 
1657	 0.130339572758657 
1658	 0.130326370573253 
1659	 0.130316430418055 
1660	 0.130282750234847 
1661	 0.13029022198951 
1662	 0.130332822597116 
1663	 0.130344785449149 
1664	 0.130369683078835 
1665	 0.130375254333682 
1666	 0.130343895143969 
1667	 0.130341499825213 
1668	 0.130349947990409 
1669	 0.130359501923331 
1670	 0.130379256876235 
1671	 0.130392039380738 
1672	 0.13041329805186 
1673	 0.13041415465534 
1674	 0.130389430322993 
1675	 0.130394954001531 
1676	 0.130416004035737 
1677	 0.130411226401581 
1678	 0.13040258691435 
1679	 0.13041037596873 
1680	 0.130402218906226 
1681	 0.130404428529459 
1682	 0.130448713098935 
1683	 0.130451795749876 
1684	 0.13041964689246 
1685	 0.130404370460456 
1686	 0.130375211526281 
1687	 0.130373001922377 
1688	 0.130390414436836 
1689	 0.130398360778901 
1690	 0.13041204821026 
1691	 0.130435010296872 
1692	 0.130469387160168 
1693	 0.130480937754193 
1694	 0.130490357665521 
1695	 0.130503774427786 
1696	 0.130499173748624 
1697	 0.130497183093011 
1698	 0.130516485469244 
1699	 0.130509906122213 
1700	 0.130469969711567 
1701	 0.130457811651665 
1702	 0.130448523391169 
1703	 0.130450913577428 
1704	 0.130482553398666 
1705	 0.130478656206536 
1706	 0.130454785316076 
1707	 0.130450292172828 
1708	 0.130424692664269 
1709	 0.13042991498595 
1710	 0.130475070283196 
1711	 0.130496250545701 
1712	 0.130520840066461 
1713	 0.130535312484576 
1714	 0.130537904606661 
1715	 0.130542238461062 
1716	 0.130544442116177 
1717	 0.130539881905643 
1718	 0.130527145945564 
1719	 0.130524467864706 
1720	 0.130519023332497 
1721	 0.13051831194219 
1722	 0.13053296957968 
1723	 0.13053158290398 
1724	 0.130521328773321 
1725	 0.130510223436149 
1726	 0.130492064321198 
1727	 0.130475469941753 
1728	 0.130450580510298 
1729	 0.130448501104047 
1730	 0.130465053267496 
1731	 0.130460357334767 
1732	 0.130462216850472 
1733	 0.130444917711124 
1734	 0.130398468052668 
1735	 0.130378476820331 
1736	 0.130366131038238 
1737	 0.130359165904881 
1738	 0.130364374696226 
1739	 0.130352869883194 
1740	 0.13033399993559 
1741	 0.130327488815191 
1742	 0.130326998892141 
1743	 0.130304658775328 
1744	 0.130277778471194 
1745	 0.130260846387589 
1746	 0.130219494995061 
1747	 0.130234772231751 
1748	 0.130257556843198 
1749	 0.130272355761204 
1750	 0.130281848674837 
1751	 0.130274492150822 
1752	 0.130259524774815 
1753	 0.130234338033071 
1754	 0.130215286631354 
1755	 0.130224978609815 
1756	 0.130219806133099 
1757	 0.130192308864713 
1758	 0.130183057977289 
1759	 0.1301804410819 
1760	 0.130181559841783 
1761	 0.130207333658916 
1762	 0.130234899534071 
1763	 0.130209211490729 
1764	 0.130175491030549 
1765	 0.130161166896394 
1766	 0.130137942129821 
1767	 0.130135259466858 
1768	 0.130135134218789 
1769	 0.130129627380035 
1770	 0.130114450415504 
1771	 0.130108465874953 
1772	 0.130123928681497 
1773	 0.130101681821407 
1774	 0.130084945279623 
1775	 0.130086292851938 
1776	 0.130079241766545 
1777	 0.130105422241032 
1778	 0.130117753072986 
1779	 0.130086639824755 
1780	 0.130063283962918 
1781	 0.130042101725234 
1782	 0.130041937536675 
1783	 0.130101867846916 
1784	 0.130116830058258 
1785	 0.130127713887248 
1786	 0.130120624359525 
1787	 0.130059224565149 
1788	 0.130046682810855 
1789	 0.130045796565837 
1790	 0.130053456637733 
1791	 0.130101158317735 
1792	 0.130121256807753 
1793	 0.130135863997026 
1794	 0.130139374275947 
1795	 0.130125353506571 
1796	 0.130134588838952 
1797	 0.130144228799019 
1798	 0.130156861231206 
1799	 0.130177961999634 
1800	 0.130191342427467 
1801	 0.127598421979924 
1802	 0.127598343835852 
1803	 0.127581996024483 
1804	 0.127611724035705 
1805	 0.127645483428793 
1806	 0.127661683046667 
1807	 0.127673475911086 
1808	 0.12767658755462 
1809	 0.127653908672235 
1810	 0.127647876128467 
1811	 0.127633510305106 
1812	 0.127647358257839 
1813	 0.127679079800665 
1814	 0.127683850510379 
1815	 0.127704665612355 
1816	 0.127729173830049 
1817	 0.127753946598886 
1818	 0.127771614051571 
1819	 0.127802841507227 
1820	 0.127841664891387 
1821	 0.127892072568926 
1822	 0.127933219762114 
1823	 0.127955160363201 
1824	 0.127978013621308 
1825	 0.127984731771033 
1826	 0.12797987680686 
1827	 0.128005471247231 
1828	 0.128026907863355 
1829	 0.128052254505455 
1830	 0.128075504208157 
1831	 0.128117590462133 
1832	 0.128120282482889 
1833	 0.128100603514405 
1834	 0.12809978102724 
1835	 0.128096747126271 
1836	 0.128109153096581 
1837	 0.128130994992675 
1838	 0.128134589158909 
1839	 0.128142012030705 
1840	 0.128139449768135 
1841	 0.128133140766378 
1842	 0.128154312452325 
1843	 0.128171371473599 
1844	 0.12815793294117 
1845	 0.128166553330422 
1846	 0.128165657224516 
1847	 0.128160092566363 
1848	 0.128183585754615 
1849	 0.128183834853922 
1850	 0.128176241852715 
1851	 0.128153105680345 
1852	 0.128148471791939 
1853	 0.128117850312794 
1854	 0.128104510445577 
1855	 0.128122202397497 
1856	 0.128108673939013 
1857	 0.12809925567281 
1858	 0.128092067432094 
1859	 0.128070144217305 
1860	 0.128041346523108 
1861	 0.128007804960325 
1862	 0.127968164190845 
1863	 0.12792883252321 
1864	 0.127880340535578 
1865	 0.127840207612513 
1866	 0.127825566550423 
1867	 0.127810826210865 
1868	 0.12779616552988 
1869	 0.127772655085625 
1870	 0.127751561354666 
1871	 0.127714383399819 
1872	 0.127671920438301 
1873	 0.127599537546017 
1874	 0.127523975362897 
1875	 0.127408736092432 
1876	 0.12726784471428 
1877	 0.127137081582176 
1878	 0.127013903090786 
1879	 0.126912643429625 
1880	 0.126797560337803 
1881	 0.126700814337462 
1882	 0.126568439541238 
1883	 0.126418152899451 
1884	 0.126245784411592 
1885	 0.126065686811979 
1886	 0.125895720973038 
1887	 0.125724839744591 
1888	 0.12554445213198 
1889	 0.125348054096947 
1890	 0.125151939375264 
1891	 0.1249332342242 
1892	 0.124697485196526 
1893	 0.124436125883747 
1894	 0.124157653242299 
1895	 0.123851897516265 
1896	 0.123525273449036 
1897	 0.123225375163511 
1898	 0.122934519784467 
1899	 0.122654077529396 
1900	 0.122378247031727 
1901	 0.122100369095464 
1902	 0.121828545265725 
1903	 0.121556645954856 
1904	 0.121292094783584 
1905	 0.121032188788855 
1906	 0.120786744272131 
1907	 0.120536858752094 
1908	 0.120297435657125 
1909	 0.120082126467383 
1910	 0.119857376665548 
1911	 0.119649897290096 
1912	 0.119451790848124 
1913	 0.119258937516674 
1914	 0.119066661498917 
1915	 0.118896703026381 
1916	 0.118738895165143 
1917	 0.118590445610996 
1918	 0.118472829470384 
1919	 0.118340026527896 
1920	 0.118183960453979 
1921	 0.118042386831268 
1922	 0.117900127082738 
1923	 0.117748030578859 
1924	 0.117633384878069 
1925	 0.117558847509162 
1926	 0.117474198517494 
1927	 0.117395863067805 
1928	 0.117341630490594 
1929	 0.117271029587219 
1930	 0.117208211480252 
1931	 0.117164951926803 
1932	 0.117118957154017 
1933	 0.117088835279124 
1934	 0.117081872995227 
1935	 0.11708022161792 
1936	 0.117096517175039 
1937	 0.117107275603432 
1938	 0.117117619358752 
1939	 0.117140036211206 
1940	 0.117168780785572 
1941	 0.117199566737737 
1942	 0.117230399542909 
1943	 0.117272047750889 
1944	 0.11733633674703 
1945	 0.11739378968973 
1946	 0.117460721796053 
1947	 0.117562101920253 
1948	 0.117641852354625 
1949	 0.117710345629544 
1950	 0.117776612832841 
1951	 0.117848546409636 
1952	 0.117892891706965 
1953	 0.117937740199579 
1954	 0.117995895535502 
1955	 0.118064130281388 
1956	 0.118147515772768 
1957	 0.118224619815812 
1958	 0.118315836264742 
1959	 0.118391672132573 
1960	 0.118461177509349 
1961	 0.118523558135092 
1962	 0.118574017671756 
1963	 0.118626411988389 
1964	 0.118668571051211 
1965	 0.118723808942611 
1966	 0.118781207361216 
1967	 0.118839566086849 
1968	 0.11889794872361 
1969	 0.11895007823082 
1970	 0.119027158338405 
1971	 0.119117216146118 
1972	 0.119206503619202 
1973	 0.119318195598591 
1974	 0.119413507355263 
1975	 0.119500688734841 
1976	 0.119587688805253 
1977	 0.119669973916746 
1978	 0.119751637463815 
1979	 0.119821739672124 
1980	 0.119888445327414 
1981	 0.119967768258157 
1982	 0.120044438447969 
1983	 0.120138763031345 
1984	 0.120271466818728 
1985	 0.120363054873854 
1986	 0.120449013906884 
1987	 0.120524614358575 
1988	 0.120575598817394 
1989	 0.120610539876544 
1990	 0.120677565391579 
1991	 0.120746206459685 
1992	 0.120816195900336 
1993	 0.120892471559363 
1994	 0.120972226540806 
1995	 0.121062002051627 
1996	 0.121138211268467 
1997	 0.121213508632593 
1998	 0.12128794033601 
1999	 0.121335808567877 
2000	 0.121410364901912 
2001	 0.121509103815802 
2002	 0.121608986687635 
2003	 0.121678436955836 
2004	 0.121743164534708 
2005	 0.121811996186601 
2006	 0.121854318974078 
2007	 0.121917041468068 
2008	 0.121990354351613 
2009	 0.122081120711985 
2010	 0.122176644924185 
2011	 0.122277916996101 
2012	 0.122412217518513 
2013	 0.122528874642913 
2014	 0.122636777267172 
2015	 0.122744400972168 
2016	 0.122847393385702 
2017	 0.122957244199696 
2018	 0.123056560568922 
2019	 0.123143030014795 
2020	 0.123241838755358 
2021	 0.123335074254754 
2022	 0.123442360752657 
2023	 0.123570024283101 
2024	 0.12368511183132 
2025	 0.12379803375311 
2026	 0.123916118291941 
2027	 0.124037162393802 
2028	 0.124144295267268 
2029	 0.124263508346608 
2030	 0.124401804218506 
2031	 0.124507117210416 
2032	 0.124593271019822 
2033	 0.124693404684802 
2034	 0.124780039254953 
2035	 0.124880203911858 
2036	 0.124991935669006 
2037	 0.125106316075581 
2038	 0.125246574335285 
2039	 0.125346900408649 
2040	 0.125431441748482 
2041	 0.125506307657341 
2042	 0.125584875709603 
2043	 0.125659382855511 
2044	 0.125750756646799 
2045	 0.125884639341984 
2046	 0.125974436696164 
2047	 0.126050654443285 
2048	 0.126115640657839 
2049	 0.126154174145462 
2050	 0.126209418354936 
2051	 0.126242742013492 
2052	 0.126305893462395 
2053	 0.126408693415725 
2054	 0.126486688095156 
2055	 0.126561320332374 
2056	 0.126643667427658 
2057	 0.126722335660492 
2058	 0.126790161311912 
2059	 0.126853466554724 
2060	 0.126925971468344 
2061	 0.126985240182708 
2062	 0.127021654087738 
2063	 0.127070497262506 
2064	 0.127113130953871 
2065	 0.127171998482668 
2066	 0.127241139388325 
2067	 0.127308975822534 
2068	 0.127376893127442 
2069	 0.127471237801484 
2070	 0.127549502948053 
2071	 0.127619447597509 
2072	 0.127698947280719 
2073	 0.127794290003498 
2074	 0.127862413341237 
2075	 0.12791827137681 
2076	 0.127980662705398 
2077	 0.128019154472696 
2078	 0.128081876199592 
2079	 0.128164676264459 
2080	 0.128242410503617 
2081	 0.128340766957414 
2082	 0.128415013128393 
2083	 0.128478736143034 
2084	 0.12853775707326 
2085	 0.128585379741197 
2086	 0.12860774140188 
2087	 0.128648445231307 
2088	 0.128694024097109 
2089	 0.128731517667379 
2090	 0.128759311342506 
2091	 0.128806519150241 
2092	 0.128848329717316 
2093	 0.128910347234139 
2094	 0.128998735970365 
2095	 0.129083721554692 
2096	 0.129185725552813 
2097	 0.129274435406292 
2098	 0.129368541322498 
2099	 0.129451173796633 
2100	 0.129514141667206 
2101	 0.129551958875306 
2102	 0.129608177320734 
2103	 0.129649838416316 
2104	 0.129712246881503 
2105	 0.129792447661257 
2106	 0.129869179603563 
2107	 0.129957601155044 
2108	 0.130031171941768 
2109	 0.130095731056255 
2110	 0.130168430096485 
2111	 0.13023179584917 
2112	 0.130305604297953 
2113	 0.130387550038343 
2114	 0.130476424787528 
2115	 0.13057196631983 
2116	 0.130678648144178 
2117	 0.130769382053673 
2118	 0.130870224123805 
2119	 0.130948844592099 
2120	 0.131007877954209 
2121	 0.131068578528579 
2122	 0.131110679520186 
2123	 0.131172868437682 
2124	 0.131248490669063 
2125	 0.131308030611854 
2126	 0.131374024250708 
2127	 0.131431181243458 
2128	 0.131479917498167 
2129	 0.131513483972498 
2130	 0.13153127206124 
2131	 0.131548854410103 
2132	 0.131586109419209 
2133	 0.131618742054928 
2134	 0.131657793645731 
2135	 0.131732571339645 
2136	 0.13176638832766 
2137	 0.131776117450686 
2138	 0.131785621695143 
2139	 0.131792111893779 
2140	 0.131781409899332 
2141	 0.131755483074349 
2142	 0.131724437128119 
2143	 0.131668623566021 
2144	 0.131625635167643 
2145	 0.131582281762761 
2146	 0.131541488322291 
2147	 0.131506403373604 
2148	 0.131475749212717 
2149	 0.131433076269815 
2150	 0.13138254381879 
2151	 0.131342065435709 
2152	 0.1312984529234 
2153	 0.131257518952119 
2154	 0.131236969425749 
2155	 0.131186538905964 
2156	 0.131119981078176 
2157	 0.131053379888432 
2158	 0.130977443171936 
2159	 0.130891793133808 
2160	 0.13080017945277 
2161	 0.130703246854765 
2162	 0.130576697913452 
2163	 0.130473830343214 
2164	 0.130386106939414 
2165	 0.130295498060008 
2166	 0.130202693080787 
2167	 0.130123743494533 
2168	 0.130024443807888 
2169	 0.129906361400668 
2170	 0.129803081221908 
2171	 0.12968747441256 
2172	 0.129604229096437 
2173	 0.1295584885286 
2174	 0.129473426461258 
2175	 0.129392380752782 
2176	 0.129299862628679 
2177	 0.129159805331864 
2178	 0.129056021399609 
2179	 0.128975028673718 
2180	 0.128889345861513 
2181	 0.128823419339903 
2182	 0.128740232899939 
2183	 0.128638277070318 
2184	 0.128553267842988 
2185	 0.128461224767094 
2186	 0.128360214052441 
2187	 0.128268054319992 
2188	 0.128172291813239 
2189	 0.128098946894878 
2190	 0.128032335911861 
2191	 0.127977786914046 
2192	 0.127957186400511 
2193	 0.12791203218177 
2194	 0.12786621103425 
2195	 0.127811429253406 
2196	 0.127731607013417 
2197	 0.127675823059236 
2198	 0.127635219801571 
2199	 0.127582709382143 
2200	 0.127526240453765 
2201	 0.127484537582684 
2202	 0.127443182115441 
2203	 0.127396925047758 
2204	 0.127375869882829 
2205	 0.127382328971804 
2206	 0.127377179973005 
2207	 0.127381626210683 
2208	 0.127374813094433 
2209	 0.127363473187459 
2210	 0.12735774535844 
2211	 0.127342639479118 
2212	 0.127342997144561 
2213	 0.127349728186691 
2214	 0.127365822254202 
2215	 0.127400085367682 
2216	 0.127426803988447 
2217	 0.127469807840585 
2218	 0.127491649334355 
2219	 0.127483849833288 
2220	 0.127497127113755 
2221	 0.127510951518748 
2222	 0.12753127374476 
2223	 0.127545843810651 
2224	 0.127569858223246 
2225	 0.127592246123847 
2226	 0.12760214926972 
2227	 0.127625074358865 
2228	 0.127672317903143 
2229	 0.127687098639624 
2230	 0.127676373671461 
2231	 0.127692428308054 
2232	 0.127702875074888 
2233	 0.127726758902837 
2234	 0.127792613696819 
2235	 0.127813201158332 
2236	 0.127799374857032 
2237	 0.127814417737099 
2238	 0.127817871617706 
2239	 0.127830351718755 
2240	 0.127873352802995 
2241	 0.127903190295726 
2242	 0.12792405423177 
2243	 0.127949255649235 
2244	 0.127985407494832 
2245	 0.128003636201684 
2246	 0.128015841952191 
2247	 0.128010431708887 
2248	 0.128031885657086 
2249	 0.12805303332768 
2250	 0.128080937926817 
2251	 0.128134443776131 
2252	 0.128163559986253 
2253	 0.128175778575908 
2254	 0.12820207825639 
2255	 0.128238471577634 
2256	 0.128258560375879 
2257	 0.128266628171605 
2258	 0.128286545455899 
2259	 0.128284417849238 
2260	 0.12832818511612 
2261	 0.128409189711054 
2262	 0.128479943028033 
2263	 0.128595090456232 
2264	 0.128656580988926 
2265	 0.128694116236132 
2266	 0.128722077934957 
2267	 0.128698930982018 
2268	 0.128704638549531 
2269	 0.12870707778496 
2270	 0.128735839135173 
2271	 0.128756653320166 
2272	 0.128779649415434 
2273	 0.128798381816334 
2274	 0.12879700350303 
2275	 0.128811765640794 
2276	 0.128833095214864 
2277	 0.128855439125118 
2278	 0.128880640254096 
2279	 0.12890769611654 
2280	 0.128951231271388 
2281	 0.128966046485785 
2282	 0.128957639314579 
2283	 0.128967411192143 
2284	 0.128958691483344 
2285	 0.128980731585083 
2286	 0.129032474840204 
2287	 0.129083094094687 
2288	 0.129157194997965 
2289	 0.129199616234241 
2290	 0.129241745771248 
2291	 0.129269477130623 
2292	 0.129252241178605 
2293	 0.129272913008369 
2294	 0.129300350157192 
2295	 0.129329033378707 
2296	 0.129380418289096 
2297	 0.129431691170468 
2298	 0.129462994363114 
2299	 0.129512018590376 
2300	 0.129542300572638 
2301	 0.129577712990427 
2302	 0.129521942450945 
2303	 0.12944802568565 
2304	 0.129416956718947 
2305	 0.129342796630455 
2306	 0.129328663384544 
2307	 0.129389026834189 
2308	 0.129404398255443 
2309	 0.129421559724405 
2310	 0.129426713902036 
2311	 0.12942668814077 
2312	 0.129413733704862 
2313	 0.129369223375745 
2314	 0.129363782235106 
2315	 0.129382126409934 
2316	 0.129372874478222 
2317	 0.129384869658321 
2318	 0.129358687181444 
2319	 0.129250371683173 
2320	 0.129232030916077 
2321	 0.129230500624358 
2322	 0.12926422036565 
2323	 0.129413446018565 
2324	 0.129465910754061 
2325	 0.12947841991365 
2326	 0.129504040185911 
2327	 0.129497741039643 
2328	 0.129475855091842 
2329	 0.129489462308276 
2330	 0.129512920697107 
2331	 0.129474083325092 
2332	 0.129456530353222 
2333	 0.129425154547922 
2334	 0.129413415235659 
2335	 0.129414799213983 
2336	 0.129400747693272 
2337	 0.129464048178096 
2338	 0.129478996692859 
2339	 0.129504914005064 
2340	 0.129584677859931 
2341	 0.12956765516736 
2342	 0.12955589328521 
2343	 0.1295477374307 
2344	 0.129469156314684 
2345	 0.129394530750258 
2346	 0.129284415629198 
2347	 0.129228780193213 
2348	 0.129167881496792 
2349	 0.129136797707683 
2350	 0.129173353468823 
2351	 0.129159706071924 
2352	 0.129131297297481 
2353	 0.129100635256221 
2354	 0.129052156455828 
2355	 0.129023707988389 
2356	 0.129011461063107 
2357	 0.128977483333056 
2358	 0.128954920721054 
2359	 0.128888129990998 
2360	 0.12873532588406 
2361	 0.128676882769052 
2362	 0.128677610397586 
2363	 0.128627816354207 
2364	 0.128592926447961 
2365	 0.128553425393729 
2366	 0.128478799826211 
2367	 0.128423155901773 
2368	 0.128418213756041 
2369	 0.128377809304259 
2370	 0.128325737573178 
2371	 0.128196532948543 
2372	 0.128115205424452 
2373	 0.128084064234871 
2374	 0.128076920555143 
2375	 0.128036247374987 
2376	 0.127977948676063 
2377	 0.127926721588003 
2378	 0.127833767856918 
2379	 0.127769233666139 
2380	 0.127699441985047 
2381	 0.127604822739148 
2382	 0.127547452176652 
2383	 0.127452672157558 
2384	 0.127358170705563 
2385	 0.12728959086544 
2386	 0.127225146951284 
2387	 0.12718349686014 
2388	 0.127139015439976 
2389	 0.127051006017801 
2390	 0.126926551972429 
2391	 0.126840158173926 
2392	 0.126775967269273 
2393	 0.126752057850652 
2394	 0.126732875819923 
2395	 0.126647889750612 
2396	 0.126555737679311 
2397	 0.126476470704761 
2398	 0.126397395960546 
2399	 0.126378282073155 
2400	 0.126383760215988 
2401	 0.126356182587934 
2402	 0.126331734428733 
2403	 0.126231671579314 
2404	 0.126105638047077 
2405	 0.126045373229904 
2406	 0.125994197449713 
2407	 0.125967833899417 
2408	 0.125981934781309 
2409	 0.125924402538062 
2410	 0.125758588716826 
2411	 0.125661471387757 
2412	 0.12560074519575 
2413	 0.125444537607533 
2414	 0.12535232174679 
2415	 0.125318036093431 
2416	 0.12524423866351 
2417	 0.12513811824948 
2418	 0.125045666902619 
2419	 0.124918230384958 
2420	 0.124860336962114 
2421	 0.124869920384719 
2422	 0.124805956457624 
2423	 0.12476791510804 
2424	 0.124751751704182 
2425	 0.124658123231343 
2426	 0.124592997802986 
2427	 0.124602472433884 
2428	 0.124511758536224 
2429	 0.124380167718673 
2430	 0.124208711457109 
2431	 0.123978480464703 
2432	 0.123837285097295 
2433	 0.123649193488141 
2434	 0.123517306690985 
2435	 0.123475446672322 
2436	 0.123400753076851 
2437	 0.123327569576989 
2438	 0.123267393615863 
2439	 0.123261581879431 
2440	 0.123222906132375 
2441	 0.12311030249702 
2442	 0.123062747937033 
2443	 0.123080487867209 
2444	 0.122983055272284 
2445	 0.122855076872013 
2446	 0.122797620116778 
2447	 0.122671005784236 
2448	 0.122608624430998 
2449	 0.122667788289898 
2450	 0.122668450739856 
2451	 0.122649278409985 
2452	 0.122590084898066 
2453	 0.122575061917412 
2454	 0.122387748809136 
2455	 0.121994312591564 
2456	 0.121833012860878 
2457	 0.121634482514113 
2458	 0.121578167123421 
2459	 0.121813474291562 
2460	 0.121824256241756 
2461	 0.121757287986088 
2462	 0.121644172160664 
2463	 0.121401275488942 
2464	 0.121305791880608 
2465	 0.121295260116535 
2466	 0.12120808888172 
2467	 0.121184230867335 
2468	 0.121085301432258 
2469	 0.120767464073472 
2470	 0.120736867389426 
2471	 0.120677698630757 
2472	 0.120441070786429 
2473	 0.120443351600759 
2474	 0.120519512696039 
2475	 0.120449202001212 
2476	 0.120400005865564 
2477	 0.120506954490063 
2478	 0.120552805898382 
2479	 0.120496092979828 
2480	 0.120505129379366 
2481	 0.12046695197657 
2482	 0.120326007942868 
2483	 0.120231922827747 
2484	 0.120156501436973 
2485	 0.120071145446649 
2486	 0.119939789690784 
2487	 0.119711910399776 
2488	 0.119501497157438 
2489	 0.119367296249448 
2490	 0.11939170932336 
2491	 0.119430639891482 
2492	 0.119374869651768 
2493	 0.11931333796775 
2494	 0.119142325715438 
2495	 0.118853302548062 
2496	 0.118831399746063 
2497	 0.118908557138965 
2498	 0.118872295086232 
2499	 0.119000473221654 
2500	 0.118878935796191 
