Wavelength	LMW_1900004.asd
350	 0.044275279376334 
351	 4.86562681719453E-02 
352	 4.45257474448852E-02 
353	 3.67510055682072E-02 
354	 4.94696510753543E-02 
355	 5.42805867022404E-02 
356	 5.32558728199815E-02 
357	 0.053915710936283 
358	 5.24027592839244E-02 
359	 4.84695593896375E-02 
360	 4.82586749753592E-02 
361	 5.90028598459244E-02 
362	 5.53733255436343E-02 
363	 4.82379063013556E-02 
364	 4.72614384233745E-02 
365	 5.33744049318435E-02 
366	 5.64099103088157E-02 
367	 5.44381167889568E-02 
368	 4.95514497744386E-02 
369	 4.70977060901614E-02 
370	 4.88266733503461E-02 
371	 5.18161826339038E-02 
372	 5.09430456570425E-02 
373	 5.34473310803075E-02 
374	 5.48669733777095E-02 
375	 5.32546478801495E-02 
376	 5.33577939415633E-02 
377	 5.44956093307411E-02 
378	 0.056928417019388 
379	 6.00935255448027E-02 
380	 5.98361284816132E-02 
381	 5.79958917764571E-02 
382	 5.71008805760092E-02 
383	 5.93212046490193E-02 
384	 5.78446439282552E-02 
385	 5.54561201873984E-02 
386	 5.50865522497117E-02 
387	 5.74245115572244E-02 
388	 5.79466647776472E-02 
389	 5.86217079724951E-02 
390	 0.061568100818199 
391	 5.87108005639711E-02 
392	 5.75949763612524E-02 
393	 5.97712750901456E-02 
394	 6.12042660133165E-02 
395	 6.20155110838261E-02 
396	 6.24737642964668E-02 
397	 6.29349988079898E-02 
398	 6.37889749335071E-02 
399	 6.41913010717881E-02 
400	 6.46139727852066E-02 
401	 6.57060873574878E-02 
402	 6.63439655090295E-02 
403	 6.60295669966544E-02 
404	 6.54041970617778E-02 
405	 6.60952073109399E-02 
406	 6.73183001587714E-02 
407	 6.82087934029406E-02 
408	 6.80838383210498E-02 
409	 6.63434152225119E-02 
410	 6.65953632835987E-02 
411	 0.067915495150193 
412	 6.76952925673429E-02 
413	 6.82298271468125E-02 
414	 6.89074092287079E-02 
415	 6.93644239049833E-02 
416	 0.069879853700032 
417	 0.070051680323225 
418	 7.03588033236991E-02 
419	 7.10874933119387E-02 
420	 7.12488622108404E-02 
421	 7.06951585296466E-02 
422	 7.04904365214539E-02 
423	 7.20376726894617E-02 
424	 7.16125360209717E-02 
425	 7.12495389323148E-02 
426	 7.20549063483481E-02 
427	 7.21377902205145E-02 
428	 7.22128692056808E-02 
429	 7.23389122034893E-02 
430	 7.24514376922383E-02 
431	 7.28250083627438E-02 
432	 7.30026455273026E-02 
433	 7.30783583101294E-02 
434	 7.36566049303638E-02 
435	 7.38638238386515E-02 
436	 0.073972642301715 
437	 7.41962715936382E-02 
438	 7.38806350637203E-02 
439	 7.41994664341602E-02 
440	 7.49318419897325E-02 
441	 7.52191975321222E-02 
442	 7.52559830120659E-02 
443	 7.54718811204324E-02 
444	 7.58550771487953E-02 
445	 7.56877961711701E-02 
446	 7.58148159686273E-02 
447	 7.62146949032652E-02 
448	 0.076602362853819 
449	 7.67407493097548E-02 
450	 7.69097761423129E-02 
451	 7.71628989655929E-02 
452	 7.73509059358921E-02 
453	 7.75202692378279E-02 
454	 7.75857391602045E-02 
455	 7.75949662410816E-02 
456	 7.80004848867884E-02 
457	 7.82314248562201E-02 
458	 7.82902262282298E-02 
459	 7.84177700490611E-02 
460	 0.078499969678559 
461	 7.84999271228765E-02 
462	 7.85443649297045E-02 
463	 7.89789333252317E-02 
464	 7.94407774374267E-02 
465	 7.96775953949555E-02 
466	 7.96253689022699E-02 
467	 7.97577252233076E-02 
468	 8.01955544339729E-02 
469	 8.06099082268454E-02 
470	 8.03932851615544E-02 
471	 8.03586605050432E-02 
472	 8.05338065050866E-02 
473	 8.07954279626092E-02 
474	 8.10148228995284E-02 
475	 8.12249033923207E-02 
476	 8.13693470440132E-02 
477	 8.13950724844322E-02 
478	 8.15123818559338E-02 
479	 8.16854621825834E-02 
480	 8.18767831019452E-02 
481	 8.20766574653066E-02 
482	 8.24663488759496E-02 
483	 8.27615813091235E-02 
484	 8.27418832322373E-02 
485	 8.29889560236112E-02 
486	 8.31048047245828E-02 
487	 8.30928551156798E-02 
488	 8.32805207284023E-02 
489	 8.32785112777724E-02 
490	 8.33140459942465E-02 
491	 8.35541550956307E-02 
492	 0.083797233903958 
493	 8.37551189846606E-02 
494	 8.37313843009453E-02 
495	 8.41801811646866E-02 
496	 8.43174774907674E-02 
497	 0.084305853377785 
498	 8.43612978114221E-02 
499	 8.46452410908374E-02 
500	 8.47690680854364E-02 
501	 0.084851484798599 
502	 8.50590529878833E-02 
503	 8.50390301538725E-02 
504	 8.51273252314277E-02 
505	 8.53269926850179E-02 
506	 8.53364939389797E-02 
507	 8.54207537102207E-02 
508	 0.085585046129703 
509	 8.57537213864797E-02 
510	 8.57721016206844E-02 
511	 8.57611181100933E-02 
512	 8.58126990234343E-02 
513	 8.59807670717245E-02 
514	 8.61370477235277E-02 
515	 8.62558843666868E-02 
516	 0.08635941626651 
517	 0.086545443470978 
518	 8.64867629040234E-02 
519	 8.63797506117696E-02 
520	 8.65223428070862E-02 
521	 0.086769048245801 
522	 8.69407771532813E-02 
523	 8.70033415233116E-02 
524	 8.70739615529821E-02 
525	 8.71225987428578E-02 
526	 8.71794165063908E-02 
527	 8.72615392725271E-02 
528	 8.73106389687596E-02 
529	 8.73736583256901E-02 
530	 8.74469390967791E-02 
531	 8.74919989908416E-02 
532	 8.74632974596058E-02 
533	 8.75105820944272E-02 
534	 8.76704990878165E-02 
535	 8.76800274644278E-02 
536	 0.087775429001417 
537	 8.79304392418363E-02 
538	 8.80345879622266E-02 
539	 8.81649958414605E-02 
540	 8.82028587455224E-02 
541	 8.81688298204961E-02 
542	 8.82844828307563E-02 
543	 0.088350943252656 
544	 8.84120019909111E-02 
545	 8.85382532895396E-02 
546	 8.86454330939714E-02 
547	 8.86977051819799E-02 
548	 8.87082949022896E-02 
549	 8.87311145295558E-02 
550	 8.87897599572081E-02 
551	 8.88834517421444E-02 
552	 8.90015106598423E-02 
553	 8.91352185974745E-02 
554	 8.92106657154528E-02 
555	 8.92606026195202E-02 
556	 8.93623242673011E-02 
557	 8.94248380869535E-02 
558	 8.94697151057311E-02 
559	 8.95380601796339E-02 
560	 0.08968885923432 
561	 8.98110587485828E-02 
562	 8.98912002167642E-02 
563	 8.99536969519933E-02 
564	 9.00253433237047E-02 
565	 9.00449553023786E-02 
566	 9.00221694844233E-02 
567	 9.00495838475968E-02 
568	 9.01879306959659E-02 
569	 9.03498153107898E-02 
570	 0.09045161048914 
571	 9.05522182544423E-02 
572	 9.06955498868524E-02 
573	 9.08349773180017E-02 
574	 9.08754208550298E-02 
575	 9.09917260496277E-02 
576	 9.11202519203239E-02 
577	 9.11889991449423E-02 
578	 9.11884549505122E-02 
579	 9.11519841960538E-02 
580	 9.11198695340573E-02 
581	 9.11246337701875E-02 
582	 9.11206675172043E-02 
583	 9.11211383024202E-02 
584	 9.11538942169202E-02 
585	 9.12606973388783E-02 
586	 9.14205549570952E-02 
587	 9.15186927727098E-02 
588	 9.14960087713006E-02 
589	 9.16555274935314E-02 
590	 9.17772808330332E-02 
591	 9.18302914290167E-02 
592	 9.19652904765224E-02 
593	 9.20699860022088E-02 
594	 9.21740121974067E-02 
595	 9.22927080146706E-02 
596	 0.092330374584666 
597	 9.23374445361159E-02 
598	 9.23380305319776E-02 
599	 9.23426446398704E-02 
600	 9.23647314785723E-02 
601	 9.23806062317908E-02 
602	 9.23725724722463E-02 
603	 9.23330639216647E-02 
604	 9.23785014456855E-02 
605	 0.092479406863538 
606	 9.25560890712468E-02 
607	 9.25905395637097E-02 
608	 9.26057436924415E-02 
609	 9.26470877373324E-02 
610	 9.27781203354204E-02 
611	 9.28371805673662E-02 
612	 0.09287399212722 
613	 0.092949948354166 
614	 9.29814843036506E-02 
615	 0.092985964948133 
616	 9.29749448463504E-02 
617	 9.29617360945134E-02 
618	 9.30284612677369E-02 
619	 9.31019042310423E-02 
620	 9.31328537970529E-02 
621	 9.31727778952166E-02 
622	 9.32258627270354E-02 
623	 9.32671465046547E-02 
624	 9.32739002213198E-02 
625	 9.33353041883355E-02 
626	 9.33971545282314E-02 
627	 9.34261302768005E-02 
628	 9.34310459869979E-02 
629	 9.34779527901836E-02 
630	 9.35183077124895E-02 
631	 9.35000049642297E-02 
632	 9.34797402978099E-02 
633	 0.093530930169131 
634	 9.36241902679894E-02 
635	 9.36541944155747E-02 
636	 9.37331918183032E-02 
637	 9.37974703775269E-02 
638	 9.38032385002927E-02 
639	 9.38248377663212E-02 
640	 9.38572321956502E-02 
641	 9.39085324077835E-02 
642	 9.39809242887342E-02 
643	 9.40074169891033E-02 
644	 9.40504206181161E-02 
645	 0.094113819146715 
646	 9.40974114753733E-02 
647	 9.41151321743073E-02 
648	 0.094169948074435 
649	 9.42285037444298E-02 
650	 9.42560042070853E-02 
651	 9.42815438618586E-02 
652	 0.094306890855311 
653	 0.094313837671913 
654	 0.094404153973612 
655	 9.44788210792651E-02 
656	 9.44772617286847E-02 
657	 9.45242115678551E-02 
658	 9.45958381021197E-02 
659	 9.46679797478018E-02 
660	 9.47119950869706E-02 
661	 9.46921197443221E-02 
662	 9.47196714226961E-02 
663	 9.48189464677038E-02 
664	 0.094870625290423 
665	 9.49141496162722E-02 
666	 9.49311985153738E-02 
667	 9.49152709182351E-02 
668	 9.49575783017068E-02 
669	 9.50410706818931E-02 
670	 9.51201070658186E-02 
671	 9.51349737101565E-02 
672	 9.51524465318434E-02 
673	 9.52024017120007E-02 
674	 9.52919330152591E-02 
675	 9.54099161312632E-02 
676	 9.54028936934214E-02 
677	 9.53456918001825E-02 
678	 9.53891265425364E-02 
679	 9.54056076403035E-02 
680	 9.54499613123731E-02 
681	 9.55289330446259E-02 
682	 9.55689877419499E-02 
683	 9.56125440541877E-02 
684	 9.56447475458084E-02 
685	 9.56551290877913E-02 
686	 9.56974862233456E-02 
687	 9.57582407216628E-02 
688	 9.58009047714842E-02 
689	 9.57827515852824E-02 
690	 9.57798858836831E-02 
691	 9.58002937275411E-02 
692	 9.58413436806726E-02 
693	 9.59073419426283E-02 
694	 9.59351544388694E-02 
695	 9.59514659739566E-02 
696	 9.60011518982946E-02 
697	 9.60224247158982E-02 
698	 9.60513226146454E-02 
699	 9.60925891104998E-02 
700	 9.61135220234261E-02 
701	 9.61342224061098E-02 
702	 9.61465561088762E-02 
703	 9.61491407216267E-02 
704	 9.61759684683683E-02 
705	 9.62025116217087E-02 
706	 9.62149101545487E-02 
707	 9.62120329352324E-02 
708	 9.62448426437554E-02 
709	 9.62772346069881E-02 
710	 9.62987386754069E-02 
711	 9.63503250539253E-02 
712	 9.63777988149793E-02 
713	 9.63759835060773E-02 
714	 9.63669828487214E-02 
715	 9.64206649698031E-02 
716	 9.64434869890119E-02 
717	 9.64300776621417E-02 
718	 9.64389238177949E-02 
719	 9.64414731497544E-02 
720	 9.64341551023701E-02 
721	 9.64226012130803E-02 
722	 9.64225914071637E-02 
723	 9.64401823352713E-02 
724	 9.64670376492277E-02 
725	 9.64846998370902E-02 
726	 9.64518819922353E-02 
727	 9.64588908223549E-02 
728	 9.65036155321677E-02 
729	 0.096497758927212 
730	 9.65114083862446E-02 
731	 9.65181847801884E-02 
732	 9.64997261039311E-02 
733	 9.64971253279401E-02 
734	 9.64925241592619E-02 
735	 9.64823812018873E-02 
736	 9.64702543924554E-02 
737	 9.64728446636877E-02 
738	 9.64432410413736E-02 
739	 0.096395281043626 
740	 9.64098240410181E-02 
741	 9.64110004701399E-02 
742	 9.64114410210471E-02 
743	 9.64172682067884E-02 
744	 9.63581886530613E-02 
745	 9.63313581951194E-02 
746	 9.63532413702267E-02 
747	 9.63862703391081E-02 
748	 9.63256864417302E-02 
749	 9.62857912022304E-02 
750	 9.63012571037827E-02 
751	 9.62871853035809E-02 
752	 9.62453655259383E-02 
753	 9.62126407314187E-02 
754	 9.62111304396873E-02 
755	 9.61882027437498E-02 
756	 9.61973868631961E-02 
757	 9.62148723413839E-02 
758	 9.61876060823407E-02 
759	 0.096167908341925 
760	 9.61298105647038E-02 
761	 0.096081391489732 
762	 0.096079896436268 
763	 9.60812534050416E-02 
764	 9.60707211218197E-02 
765	 9.60488208994065E-02 
766	 9.60393608464961E-02 
767	 9.60252462960875E-02 
768	 9.60176806042031E-02 
769	 9.60320869550599E-02 
770	 9.60062117479888E-02 
771	 9.59973408609297E-02 
772	 9.60070460038919E-02 
773	 9.59610972419559E-02 
774	 0.095970761948829 
775	 9.59682665182965E-02 
776	 9.58981090800636E-02 
777	 9.58445635681764E-02 
778	 9.58215384255712E-02 
779	 9.58244618170128E-02 
780	 9.58335207050332E-02 
781	 9.58150408485749E-02 
782	 9.58208865505486E-02 
783	 9.58267157465695E-02 
784	 0.095731463169083 
785	 9.57186798523985E-02 
786	 9.57329414861695E-02 
787	 9.57133246492849E-02 
788	 9.57034899379716E-02 
789	 9.56875028304102E-02 
790	 9.56697666426258E-02 
791	 9.56556644996068E-02 
792	 9.56171501915334E-02 
793	 9.55845675830175E-02 
794	 0.095567957382572 
795	 9.55547788679529E-02 
796	 9.55120168835939E-02 
797	 9.54875287537096E-02 
798	 9.54997463197934E-02 
799	 9.54910567361769E-02 
800	 9.54717538821564E-02 
801	 9.54494105922296E-02 
802	 9.54315203611845E-02 
803	 9.54250440004605E-02 
804	 9.53899136866583E-02 
805	 9.53579237112539E-02 
806	 0.095389058345062 
807	 9.53719421249442E-02 
808	 9.53262187450006E-02 
809	 9.52782464341223E-02 
810	 0.095242761647475 
811	 0.095264240358551 
812	 9.52797009065177E-02 
813	 0.095248621154477 
814	 9.52642842026348E-02 
815	 9.52336112897103E-02 
816	 9.51872486614034E-02 
817	 9.51861577201874E-02 
818	 9.51539798949262E-02 
819	 0.095141255321799 
820	 9.51358090466733E-02 
821	 9.50766008282266E-02 
822	 9.50494811235595E-02 
823	 9.50448925714016E-02 
824	 9.50447321524754E-02 
825	 0.095042343870255 
826	 9.50349026640847E-02 
827	 9.50204439454079E-02 
828	 9.50024085901501E-02 
829	 9.49965491643227E-02 
830	 9.50106182752693E-02 
831	 9.50164023347114E-02 
832	 9.49779103968553E-02 
833	 9.49206589256657E-02 
834	 9.49176952012954E-02 
835	 0.094940726993837 
836	 9.48789521820561E-02 
837	 9.48853460479825E-02 
838	 0.094899498189389 
839	 9.48709077881417E-02 
840	 9.48257321059335E-02 
841	 9.47920102970114E-02 
842	 9.47797735015945E-02 
843	 9.47849792721129E-02 
844	 9.47814488698608E-02 
845	 9.48066853310488E-02 
846	 9.48294918529728E-02 
847	 9.48073017612275E-02 
848	 9.48322963400598E-02 
849	 9.48218936768002E-02 
850	 9.47682223121477E-02 
851	 0.094734008694706 
852	 9.47157795355539E-02 
853	 9.47215964917714E-02 
854	 9.47294539544879E-02 
855	 9.46775410724804E-02 
856	 9.46855156864062E-02 
857	 9.47080156552442E-02 
858	 9.46942450473098E-02 
859	 9.46821623287996E-02 
860	 0.094693593730593 
861	 9.46935442712064E-02 
862	 9.46463598134253E-02 
863	 9.46072093892862E-02 
864	 9.46004706519851E-02 
865	 9.46333072855508E-02 
866	 9.46876708301354E-02 
867	 9.46693930645862E-02 
868	 9.46363625055124E-02 
869	 9.46203640797212E-02 
870	 9.46108802150297E-02 
871	 9.46236889474225E-02 
872	 9.46027564485828E-02 
873	 9.45474277475205E-02 
874	 9.45600483246091E-02 
875	 9.45783330957228E-02 
876	 9.45805000657539E-02 
877	 9.45609866541129E-02 
878	 9.45217307141109E-02 
879	 0.094563360308687 
880	 9.46029493340112E-02 
881	 9.45484939309153E-02 
882	 0.094562792989863 
883	 9.45741940522646E-02 
884	 0.094539228682499 
885	 9.44646298567627E-02 
886	 9.45308144092222E-02 
887	 0.094560198385485 
888	 9.45156568543592E-02 
889	 9.45037189668679E-02 
890	 9.45658099932534E-02 
891	 9.45719600968042E-02 
892	 9.45118604476493E-02 
893	 0.094541780209157 
894	 9.45385146540913E-02 
895	 0.094499131757659 
896	 0.094463209785639 
897	 9.45004241950265E-02 
898	 9.45676745259737E-02 
899	 9.45946849457028E-02 
900	 9.45530651345336E-02 
901	 0.09453629416786 
902	 9.45408203695888E-02 
903	 9.45502816022999E-02 
904	 9.45510886977951E-02 
905	 9.45675628096049E-02 
906	 9.46083751363887E-02 
907	 9.46220888773115E-02 
908	 9.45620116930761E-02 
909	 9.45463248609378E-02 
910	 9.45585840140246E-02 
911	 9.45800227829884E-02 
912	 9.45945164667063E-02 
913	 9.45915876972362E-02 
914	 0.094589537745966 
915	 9.45988444111181E-02 
916	 9.46147021500698E-02 
917	 9.45846061000734E-02 
918	 9.45706844884061E-02 
919	 9.45837023325377E-02 
920	 9.45647831400142E-02 
921	 9.45799612290977E-02 
922	 9.45984029186801E-02 
923	 9.46204671987929E-02 
924	 9.47087583383458E-02 
925	 9.47244503423966E-02 
926	 9.47170667734569E-02 
927	 0.094719204846966 
928	 9.46555953403476E-02 
929	 9.46596499081443E-02 
930	 9.46716026426644E-02 
931	 9.46557948594176E-02 
932	 9.47524724002932E-02 
933	 9.47781916698013E-02 
934	 9.47466394124788E-02 
935	 9.47285738121354E-02 
936	 9.47783253831442E-02 
937	 9.47583221362195E-02 
938	 9.47206290633137E-02 
939	 9.47447901195114E-02 
940	 9.47669402026535E-02 
941	 9.47555068672987E-02 
942	 9.47859364225991E-02 
943	 9.49132604750796E-02 
944	 9.49527570370376E-02 
945	 9.49113740461192E-02 
946	 9.48348855822601E-02 
947	 9.47894330527179E-02 
948	 9.48362417532937E-02 
949	 9.48487710525601E-02 
950	 9.48010717747164E-02 
951	 9.47534677721987E-02 
952	 9.48689695829103E-02 
953	 9.49120464969559E-02 
954	 9.48804521752075E-02 
955	 9.48968086623727E-02 
956	 9.49019071850422E-02 
957	 0.094914095496446 
958	 9.49224227937778E-02 
959	 9.49228114773245E-02 
960	 9.50728612722801E-02 
961	 0.095099730648409 
962	 9.50352692227137E-02 
963	 9.50729545603832E-02 
964	 9.49809384329577E-02 
965	 9.49344235789479E-02 
966	 9.50090187627683E-02 
967	 9.51480443370465E-02 
968	 9.51067183197778E-02 
969	 9.50257737442746E-02 
970	 9.49819771772665E-02 
971	 9.49750515653597E-02 
972	 9.49681923956836E-02 
973	 9.49867773112027E-02 
974	 9.50037866596574E-02 
975	 9.49846585192595E-02 
976	 9.50864417842781E-02 
977	 9.50902772385023E-02 
978	 9.49886230377435E-02 
979	 9.49432873622213E-02 
980	 9.51168896055084E-02 
981	 9.51311328298318E-02 
982	 9.50558893846723E-02 
983	 9.51681306039174E-02 
984	 0.095124567405823 
985	 9.50725679229361E-02 
986	 0.095093300332284 
987	 9.51858242262583E-02 
988	 0.095255851122136 
989	 9.52867684255847E-02 
990	 9.52756760315746E-02 
991	 9.52347601228015E-02 
992	 9.51997784878532E-02 
993	 9.51389101885262E-02 
994	 9.51198699708051E-02 
995	 9.51955074771565E-02 
996	 9.51822744646411E-02 
997	 9.51910998135329E-02 
998	 9.52146623957138E-02 
999	 9.52199761307999E-02 
1000	 9.52587373014829E-02 
1001	 9.43922060122084E-02 
1002	 9.43026578195596E-02 
1003	 0.094253690420737 
1004	 9.42555377526849E-02 
1005	 9.43127939924737E-02 
1006	 9.43276479108698E-02 
1007	 9.43869241570595E-02 
1008	 0.09440306307045 
1009	 9.43589080130499E-02 
1010	 9.42931221270155E-02 
1011	 9.42989996553263E-02 
1012	 9.43785491766616E-02 
1013	 9.44041186694497E-02 
1014	 0.094409934880412 
1015	 9.44290892811124E-02 
1016	 9.44197716425315E-02 
1017	 9.44073009201333E-02 
1018	 9.43876671389339E-02 
1019	 0.094373955008044 
1020	 9.43962331715391E-02 
1021	 9.44305137843862E-02 
1022	 0.094450386281218 
1023	 9.44999218988231E-02 
1024	 9.44925035641714E-02 
1025	 9.44228404082452E-02 
1026	 9.44212200561039E-02 
1027	 9.44259355607909E-02 
1028	 9.44306467230399E-02 
1029	 9.44987211287542E-02 
1030	 9.45078504896304E-02 
1031	 9.44985102918088E-02 
1032	 9.44678408231039E-02 
1033	 9.44693969405944E-02 
1034	 9.43877574390931E-02 
1035	 0.094354866624536 
1036	 9.44198542985496E-02 
1037	 9.44042869921337E-02 
1038	 9.44063238680007E-02 
1039	 9.44692122297881E-02 
1040	 9.44437732067097E-02 
1041	 9.43822544280411E-02 
1042	 9.43764804098485E-02 
1043	 9.43704200467576E-02 
1044	 9.43779223594054E-02 
1045	 9.43912929001134E-02 
1046	 9.44510111264429E-02 
1047	 9.44747069069484E-02 
1048	 9.44931233317437E-02 
1049	 9.45249605951831E-02 
1050	 0.094505301708598 
1051	 9.45265254886248E-02 
1052	 9.45961596836088E-02 
1053	 9.45974602643135E-02 
1054	 9.46103864693626E-02 
1055	 9.46351293952226E-02 
1056	 9.46181648818079E-02 
1057	 9.46346555842124E-02 
1058	 9.46991972285163E-02 
1059	 9.47045800476084E-02 
1060	 9.46907890798565E-02 
1061	 9.46830807889529E-02 
1062	 9.46713240859795E-02 
1063	 9.46487391009014E-02 
1064	 9.47047821921427E-02 
1065	 9.47709570159671E-02 
1066	 9.47836333669789E-02 
1067	 9.48006668932346E-02 
1068	 9.48106857093315E-02 
1069	 9.48029368895586E-02 
1070	 9.48030126039825E-02 
1071	 9.48031723651128E-02 
1072	 9.48059735632877E-02 
1073	 0.094828790209773 
1074	 9.48157047295858E-02 
1075	 9.47783803488574E-02 
1076	 9.47281035112556E-02 
1077	 9.47469756859757E-02 
1078	 9.47639386224119E-02 
1079	 9.47777193556343E-02 
1080	 0.094804130502464 
1081	 9.47727615110075E-02 
1082	 9.47328873270941E-02 
1083	 9.47120578538355E-02 
1084	 9.47135519493733E-02 
1085	 9.47061350348844E-02 
1086	 9.46983086238187E-02 
1087	 9.46728877171945E-02 
1088	 9.46150922453844E-02 
1089	 9.46165452372741E-02 
1090	 9.46533935117212E-02 
1091	 9.46941813700321E-02 
1092	 9.47751300753155E-02 
1093	 9.48364205454388E-02 
1094	 9.48426943804197E-02 
1095	 9.48316893693861E-02 
1096	 9.48144895548035E-02 
1097	 9.47943525857991E-02 
1098	 9.47801750936195E-02 
1099	 9.47531817540321E-02 
1100	 9.47451267121122E-02 
1101	 9.47570148704047E-02 
1102	 9.47617055542042E-02 
1103	 9.47665773436307E-02 
1104	 0.094775015813418 
1105	 9.47845835500815E-02 
1106	 9.47854267934547E-02 
1107	 9.47839213887289E-02 
1108	 9.47907088109326E-02 
1109	 9.48223063220276E-02 
1110	 9.48564752709993E-02 
1111	 0.094868082112863 
1112	 0.094864270623289 
1113	 9.48925645503291E-02 
1114	 9.49186142679977E-02 
1115	 9.49425117100897E-02 
1116	 9.49953171547452E-02 
1117	 9.50244774717807E-02 
1118	 9.50298345172161E-02 
1119	 9.50468338628284E-02 
1120	 9.50531966150225E-02 
1121	 9.50974452289999E-02 
1122	 9.51313805129178E-02 
1123	 9.51246668205476E-02 
1124	 9.51456439539378E-02 
1125	 0.095171737296811 
1126	 9.52002526108906E-02 
1127	 9.52372410591134E-02 
1128	 9.52710183960985E-02 
1129	 9.52998532414471E-02 
1130	 9.53388599831105E-02 
1131	 9.53915997504522E-02 
1132	 9.54289433533359E-02 
1133	 0.095475328152541 
1134	 9.54998405995935E-02 
1135	 9.54865457052779E-02 
1136	 9.55051010773989E-02 
1137	 9.55340809944683E-02 
1138	 9.55389080894898E-02 
1139	 9.55570716182959E-02 
1140	 9.55886286934376E-02 
1141	 9.56126115802164E-02 
1142	 9.56285521157373E-02 
1143	 9.56524173289876E-02 
1144	 9.56813336593548E-02 
1145	 9.57094988662703E-02 
1146	 0.095737989159658 
1147	 0.095768210436312 
1148	 9.58113629862793E-02 
1149	 9.58362110059829E-02 
1150	 9.58498799610388E-02 
1151	 9.58593996754335E-02 
1152	 9.58792275433942E-02 
1153	 9.59132230631145E-02 
1154	 0.0959354347241 
1155	 9.59772698074519E-02 
1156	 9.59894188809171E-02 
1157	 9.59731654915511E-02 
1158	 9.59714963347823E-02 
1159	 9.59644537583261E-02 
1160	 9.59619753070495E-02 
1161	 9.59645162274932E-02 
1162	 9.59668198716761E-02 
1163	 9.59594801346267E-02 
1164	 9.59697601325637E-02 
1165	 0.09599484039634 
1166	 0.096015396183433 
1167	 9.60363341778577E-02 
1168	 9.60632712876014E-02 
1169	 9.60861860876862E-02 
1170	 9.61054439580754E-02 
1171	 9.61194466674001E-02 
1172	 0.096137837007102 
1173	 9.61465791794529E-02 
1174	 9.61298888396198E-02 
1175	 9.61429060848999E-02 
1176	 9.61741962574179E-02 
1177	 9.61921113925248E-02 
1178	 9.62104398969332E-02 
1179	 9.62390444370742E-02 
1180	 9.62748180031121E-02 
1181	 9.62969548095431E-02 
1182	 9.63148028357184E-02 
1183	 9.63469784980348E-02 
1184	 9.63715072504696E-02 
1185	 9.63776348854371E-02 
1186	 9.63977678357798E-02 
1187	 9.64325893986713E-02 
1188	 9.64601587221643E-02 
1189	 9.64843320823964E-02 
1190	 0.09650732242834 
1191	 9.65311001261627E-02 
1192	 9.65558718693831E-02 
1193	 9.65788686892857E-02 
1194	 9.65996894073327E-02 
1195	 9.66157791555186E-02 
1196	 9.66418659619622E-02 
1197	 9.66819167269503E-02 
1198	 9.67033394189206E-02 
1199	 9.67199551690933E-02 
1200	 9.67379546036658E-02 
1201	 9.67572614520831E-02 
1202	 9.67593958367268E-02 
1203	 9.67779102132175E-02 
1204	 0.09681013446801 
1205	 9.68401683468961E-02 
1206	 9.68716794364092E-02 
1207	 9.68999869435989E-02 
1208	 9.69352716790146E-02 
1209	 9.69644707376355E-02 
1210	 9.69737396982837E-02 
1211	 9.70062007156931E-02 
1212	 9.70620531592551E-02 
1213	 0.09709971467723 
1214	 9.71481025953095E-02 
1215	 9.71818058694476E-02 
1216	 9.72038873051924E-02 
1217	 9.71981226709595E-02 
1218	 9.72217757550723E-02 
1219	 9.72513634897619E-02 
1220	 9.72776851384507E-02 
1221	 9.73177481458856E-02 
1222	 9.73429140492135E-02 
1223	 9.73576490456992E-02 
1224	 9.73746813307878E-02 
1225	 9.73786628070566E-02 
1226	 9.74023661838142E-02 
1227	 9.74414984102276E-02 
1228	 9.74682267486434E-02 
1229	 9.75081635396279E-02 
1230	 9.75347825298144E-02 
1231	 9.75400872316028E-02 
1232	 9.75518460143441E-02 
1233	 9.75636045694325E-02 
1234	 9.75705146602814E-02 
1235	 0.097591552815177 
1236	 9.76181985865216E-02 
1237	 0.097647339231961 
1238	 9.76981175990031E-02 
1239	 9.77168587730374E-02 
1240	 9.77120650431277E-02 
1241	 9.77312228418682E-02 
1242	 9.77450538052183E-02 
1243	 9.77638120439297E-02 
1244	 0.097807806840183 
1245	 9.78336816771023E-02 
1246	 9.78381796578267E-02 
1247	 9.78563820895445E-02 
1248	 9.78804792196171E-02 
1249	 9.79051144534764E-02 
1250	 9.79237603024511E-02 
1251	 9.79487872201552E-02 
1252	 9.79679779530757E-02 
1253	 9.79780128502744E-02 
1254	 9.80001261963468E-02 
1255	 0.098027499846969 
1256	 9.80524304329744E-02 
1257	 0.098081930633041 
1258	 9.81084578545388E-02 
1259	 9.81438301658336E-02 
1260	 9.81602911082515E-02 
1261	 9.81591268449831E-02 
1262	 9.81696113202237E-02 
1263	 9.81725432027002E-02 
1264	 9.81768968200677E-02 
1265	 9.81956738378308E-02 
1266	 9.82066435090846E-02 
1267	 9.82049749117267E-02 
1268	 9.82051600886285E-02 
1269	 9.82165836794331E-02 
1270	 9.82316402704329E-02 
1271	 9.82507606759649E-02 
1272	 9.82776139865723E-02 
1273	 9.83086462466379E-02 
1274	 0.098351607379669 
1275	 9.83789544672723E-02 
1276	 9.83995584582296E-02 
1277	 9.84287296003374E-02 
1278	 9.84455262483119E-02 
1279	 9.84776204569614E-02 
1280	 9.85301580271201E-02 
1281	 9.85765415830106E-02 
1282	 9.86215458605037E-02 
1283	 0.098670761581502 
1284	 9.87262337311794E-02 
1285	 9.87781998157706E-02 
1286	 0.098821368718787 
1287	 9.88739990145622E-02 
1288	 0.09893379787219 
1289	 9.89976624343295E-02 
1290	 9.90559870576397E-02 
1291	 9.91276776436418E-02 
1292	 9.91796715216564E-02 
1293	 9.92176572652884E-02 
1294	 9.92572674436317E-02 
1295	 9.92947971287261E-02 
1296	 9.93256847913269E-02 
1297	 9.93416541363385E-02 
1298	 9.93704031614906E-02 
1299	 9.94022434731707E-02 
1300	 9.94303542027572E-02 
1301	 9.94774320356864E-02 
1302	 0.099501834061578 
1303	 9.95104720483498E-02 
1304	 9.95105489821235E-02 
1305	 0.0995207723207 
1306	 9.95144441556216E-02 
1307	 9.95162331575493E-02 
1308	 9.95341647092871E-02 
1309	 0.099537072043881 
1310	 9.95321073388349E-02 
1311	 9.95290049219946E-02 
1312	 9.95151570853518E-02 
1313	 9.95207072401762E-02 
1314	 9.95413648156862E-02 
1315	 9.95480097363107E-02 
1316	 9.95654991148623E-02 
1317	 9.95672040258273E-02 
1318	 9.95424269554619E-02 
1319	 9.95357919481394E-02 
1320	 9.95306417865184E-02 
1321	 0.099533341938754 
1322	 9.95447557622701E-02 
1323	 9.95601559049551E-02 
1324	 9.95777223757751E-02 
1325	 9.95869673723265E-02 
1326	 9.95999184917304E-02 
1327	 9.96096106202228E-02 
1328	 9.96072259431983E-02 
1329	 9.96134987031687E-02 
1330	 9.96245972522299E-02 
1331	 9.96251344981464E-02 
1332	 9.96527459534857E-02 
1333	 9.97107758436578E-02 
1334	 9.97407131098479E-02 
1335	 0.099768942020061 
1336	 9.98036291811608E-02 
1337	 9.98301408929682E-02 
1338	 9.98557625869615E-02 
1339	 9.98909904023871E-02 
1340	 9.99198123881349E-02 
1341	 9.99314507803193E-02 
1342	 9.99565421281602E-02 
1343	 9.99912617592167E-02 
1344	 0.100022463302907 
1345	 0.10006565349042 
1346	 0.100110504834291 
1347	 0.100152691278262 
1348	 0.100200581096548 
1349	 0.100242858893272 
1350	 0.100290029797067 
1351	 0.100338270776014 
1352	 0.100396917700126 
1353	 0.100439971149848 
1354	 0.100473149027644 
1355	 0.100513676466424 
1356	 0.100543854116076 
1357	 0.100589204935348 
1358	 0.10065423576087 
1359	 0.100700625027238 
1360	 0.100747669491947 
1361	 0.10079060221987 
1362	 0.100818750165494 
1363	 0.100853742204146 
1364	 0.100885731579843 
1365	 0.100922754262922 
1366	 0.100962704615261 
1367	 0.101013012189179 
1368	 0.101043104188896 
1369	 0.101063349273065 
1370	 0.10107911734594 
1371	 0.101081919757095 
1372	 0.101087123126615 
1373	 0.101093218853653 
1374	 0.101094198928903 
1375	 0.101076740008679 
1376	 0.101087230257714 
1377	 0.101117977443996 
1378	 0.101127061905906 
1379	 0.101142773569293 
1380	 0.10114780369346 
1381	 0.101132888858012 
1382	 0.101125079202269 
1383	 0.101129184596597 
1384	 0.101111424006497 
1385	 0.101076972201823 
1386	 0.10104695861805 
1387	 0.101011832721258 
1388	 0.100972688474025 
1389	 0.100932254638047 
1390	 0.100888207483591 
1391	 0.100840464749057 
1392	 0.100784938280388 
1393	 0.100730302148641 
1394	 0.10067469939967 
1395	 0.100610659086162 
1396	 0.100543049797135 
1397	 0.10047017773437 
1398	 0.100395349672535 
1399	 0.100308240778098 
1400	 0.100209154239064 
1401	 0.100113180400712 
1402	 0.100006836629057 
1403	 9.99117323772603E-02 
1404	 9.98216151350682E-02 
1405	 9.97302475689992E-02 
1406	 9.96363966646345E-02 
1407	 9.95539588645361E-02 
1408	 9.94677503384177E-02 
1409	 9.94013800827196E-02 
1410	 9.93625329953353E-02 
1411	 9.93078164165995E-02 
1412	 9.92483024289522E-02 
1413	 9.92066392983746E-02 
1414	 9.91528866316409E-02 
1415	 9.91009838536369E-02 
1416	 9.90801471311196E-02 
1417	 9.90703505763308E-02 
1418	 9.90633585490363E-02 
1419	 9.90674812018709E-02 
1420	 9.90762966615624E-02 
1421	 9.90835359650361E-02 
1422	 9.90919179806581E-02 
1423	 9.90962572635361E-02 
1424	 9.91017840872793E-02 
1425	 9.90991317303449E-02 
1426	 9.91066594750407E-02 
1427	 9.91208793829818E-02 
1428	 9.91349036313013E-02 
1429	 9.91497983878741E-02 
1430	 9.91645587079539E-02 
1431	 0.099181738166916 
1432	 9.92029445056726E-02 
1433	 9.92257455050185E-02 
1434	 9.92494888979535E-02 
1435	 9.92703737007604E-02 
1436	 9.93013128412301E-02 
1437	 9.93435220028248E-02 
1438	 9.93791024904188E-02 
1439	 9.94140953483009E-02 
1440	 9.94585493217668E-02 
1441	 9.95040485960288E-02 
1442	 9.95415530380131E-02 
1443	 9.95874417537516E-02 
1444	 9.96261985103126E-02 
1445	 9.96582098715699E-02 
1446	 9.96883742684147E-02 
1447	 0.099716976994603 
1448	 9.97573576716279E-02 
1449	 9.97953934159756E-02 
1450	 9.98298939989877E-02 
1451	 9.98591726194983E-02 
1452	 9.98851950305547E-02 
1453	 9.99120994632773E-02 
1454	 9.99326508928276E-02 
1455	 9.99589150381255E-02 
1456	 9.99904027629638E-02 
1457	 0.100018840006844 
1458	 0.100042300962879 
1459	 0.100074018675992 
1460	 0.10010823148959 
1461	 0.100150460387228 
1462	 0.100208293884819 
1463	 0.100247493098017 
1464	 0.100283111801845 
1465	 0.10031774485582 
1466	 0.100330978361206 
1467	 0.100365777825896 
1468	 0.10041717318111 
1469	 0.10046031987969 
1470	 0.100503716281296 
1471	 0.100558572125126 
1472	 0.100607268554913 
1473	 0.100659080892637 
1474	 0.100703771135015 
1475	 0.100747626617887 
1476	 0.100787071064013 
1477	 0.100815493723788 
1478	 0.100855312441225 
1479	 0.100903678754013 
1480	 0.100953336772644 
1481	 0.101003001406713 
1482	 0.101043660426332 
1483	 0.101070676462305 
1484	 0.101123386623053 
1485	 0.1011817797772 
1486	 0.101239758707077 
1487	 0.101326574206803 
1488	 0.101379674736412 
1489	 0.101411327756879 
1490	 0.101449145526146 
1491	 0.10146736074828 
1492	 0.10151032280848 
1493	 0.101562829920521 
1494	 0.101615629440204 
1495	 0.101691001685244 
1496	 0.101746792584026 
1497	 0.101793288440132 
1498	 0.101840453880588 
1499	 0.101882080256852 
1500	 0.101919131297634 
1501	 0.101947478826191 
1502	 0.101985789736706 
1503	 0.102024627520482 
1504	 0.102063222446997 
1505	 0.102110401450088 
1506	 0.10215308179816 
1507	 0.102193671105939 
1508	 0.102239121838426 
1509	 0.102280511732975 
1510	 0.102306311887784 
1511	 0.102319328927233 
1512	 0.102331694414921 
1513	 0.102351887405769 
1514	 0.102398536653553 
1515	 0.102454689797207 
1516	 0.102499434365786 
1517	 0.1025392436923 
1518	 0.102571083796035 
1519	 0.102605521198092 
1520	 0.102640042710022 
1521	 0.102669944775749 
1522	 0.102698819810974 
1523	 0.102725938642243 
1524	 0.102741800835798 
1525	 0.102767577284286 
1526	 0.102800531815747 
1527	 0.102831143224542 
1528	 0.102864941589476 
1529	 0.102896000352749 
1530	 0.102922097726975 
1531	 0.102951916153879 
1532	 0.1029906135057 
1533	 0.103015962355759 
1534	 0.103029923655253 
1535	 0.103056629897515 
1536	 0.103077012704098 
1537	 0.103106429418309 
1538	 0.103155894869792 
1539	 0.103194003363936 
1540	 0.103231175674014 
1541	 0.103259450876679 
1542	 0.10327346376095 
1543	 0.103300390816635 
1544	 0.103331748338538 
1545	 0.103359765131689 
1546	 0.103399165576613 
1547	 0.103427353341692 
1548	 0.103436301567727 
1549	 0.103440657736766 
1550	 0.1034520025736 
1551	 0.103460588154696 
1552	 0.103492591499017 
1553	 0.103532014849143 
1554	 0.103549394580418 
1555	 0.103578662512732 
1556	 0.103591144121426 
1557	 0.103594444691285 
1558	 0.103618994037192 
1559	 0.103632763968189 
1560	 0.103657820221129 
1561	 0.103693288411023 
1562	 0.103717459716555 
1563	 0.103741855879442 
1564	 0.103764705867548 
1565	 0.103779064007891 
1566	 0.103800651090323 
1567	 0.103830413377226 
1568	 0.103850813358916 
1569	 0.103866378257834 
1570	 0.103883342018817 
1571	 0.103895991650664 
1572	 0.103912923192156 
1573	 0.103933095156339 
1574	 0.103952501775556 
1575	 0.103973167732541 
1576	 0.103989001104868 
1577	 0.104001774036329 
1578	 0.104019908654369 
1579	 0.104037175482784 
1580	 0.104055315029412 
1581	 0.104082458955858 
1582	 0.104095605735007 
1583	 0.104096285017409 
1584	 0.104109470783196 
1585	 0.10411555860512 
1586	 0.104136250650119 
1587	 0.104186207076216 
1588	 0.104206395953235 
1589	 0.104213860455401 
1590	 0.104225951528772 
1591	 0.104215474053215 
1592	 0.104224910767532 
1593	 0.104257043865449 
1594	 0.104277172685055 
1595	 0.104295516692425 
1596	 0.104314424020775 
1597	 0.104325097657897 
1598	 0.104344539370459 
1599	 0.104378472592828 
1600	 0.104399276807893 
1601	 0.104415912710504 
1602	 0.104431750471609 
1603	 0.104439617862736 
1604	 0.104448617271707 
1605	 0.104470462719624 
1606	 0.104471558380669 
1607	 0.104453373032707 
1608	 0.104435877897152 
1609	 0.104425746274073 
1610	 0.104426308840314 
1611	 0.104439425620247 
1612	 0.104457081430211 
1613	 0.104477322219975 
1614	 0.10449419904838 
1615	 0.104516847366923 
1616	 0.104540105898796 
1617	 0.104537921206773 
1618	 0.104530123195 
1619	 0.104543522526049 
1620	 0.104564767893434 
1621	 0.104587094539912 
1622	 0.104632398570693 
1623	 0.104648573989001 
1624	 0.104649514477167 
1625	 0.104654382744522 
1626	 0.104653594424903 
1627	 0.104652271714365 
1628	 0.104644608002367 
1629	 0.10465075363264 
1630	 0.104660133638495 
1631	 0.104669178866687 
1632	 0.104687143269933 
1633	 0.104701241865455 
1634	 0.104706938685976 
1635	 0.104728179362139 
1636	 0.104763386001683 
1637	 0.104785881272093 
1638	 0.104814249428736 
1639	 0.104825092985406 
1640	 0.104819490405649 
1641	 0.104824573771055 
1642	 0.104820235451114 
1643	 0.104834601286241 
1644	 0.10486230884705 
1645	 0.104885198540262 
1646	 0.104915984246213 
1647	 0.104940658858669 
1648	 0.10496810654705 
1649	 0.104979534184775 
1650	 0.104985736945092 
1651	 0.10498502246696 
1652	 0.10496737667622 
1653	 0.104956120479654 
1654	 0.104938023097021 
1655	 0.104935676646544 
1656	 0.104931281934834 
1657	 0.104947355062988 
1658	 0.104995401092288 
1659	 0.105012465401983 
1660	 0.10502614031729 
1661	 0.105038721612582 
1662	 0.105032040439656 
1663	 0.10503890661989 
1664	 0.105056591401506 
1665	 0.105070439325586 
1666	 0.10508248762357 
1667	 0.105095618831403 
1668	 0.105119514743245 
1669	 0.105123410468664 
1670	 0.105116725431783 
1671	 0.105108723967612 
1672	 0.105079457279553 
1673	 0.105074330939701 
1674	 0.105077575013722 
1675	 0.10508557999907 
1676	 0.105105290210989 
1677	 0.105126883372787 
1678	 0.105165043316321 
1679	 0.105175246515579 
1680	 0.105173620697479 
1681	 0.105178681786339 
1682	 0.105158821453487 
1683	 0.10516764323534 
1684	 0.105204377479874 
1685	 0.10522457367567 
1686	 0.105249713951675 
1687	 0.105263013589695 
1688	 0.105268173953753 
1689	 0.105271246155965 
1690	 0.105260662137808 
1691	 0.105265648214109 
1692	 0.105273059564448 
1693	 0.105283935541188 
1694	 0.105315623715252 
1695	 0.105321252174579 
1696	 0.105313389012943 
1697	 0.105310403730969 
1698	 0.105294377236957 
1699	 0.105285028875079 
1700	 0.105272088066986 
1701	 0.105278307789932 
1702	 0.105292415181479 
1703	 0.105312315188122 
1704	 0.105365992449026 
1705	 0.105380561091839 
1706	 0.105375040630308 
1707	 0.105372548258116 
1708	 0.105347739455731 
1709	 0.105339861513763 
1710	 0.105341490486113 
1711	 0.105341520268695 
1712	 0.105341841826003 
1713	 0.105349695395144 
1714	 0.105370486795304 
1715	 0.105371511670468 
1716	 0.105366322005721 
1717	 0.105367446618525 
1718	 0.105354199166359 
1719	 0.105354387930853 
1720	 0.105370970148082 
1721	 0.105372991545669 
1722	 0.105372866188299 
1723	 0.105369773094464 
1724	 0.105365661590661 
1725	 0.105351561618722 
1726	 0.105321941164972 
1727	 0.10530941139594 
1728	 0.105286713628655 
1729	 0.10529693527937 
1730	 0.105343002731126 
1731	 0.105359292113215 
1732	 0.105396967408904 
1733	 0.105382787659816 
1734	 0.105315133245592 
1735	 0.105294586279562 
1736	 0.10526702995816 
1737	 0.105256356538768 
1738	 0.105280495303404 
1739	 0.105271702308163 
1740	 0.105249245068446 
1741	 0.105225160535662 
1742	 0.10519052458104 
1743	 0.105181569752647 
1744	 0.105182506118621 
1745	 0.105164290103198 
1746	 0.105142043593694 
1747	 0.105139301621752 
1748	 0.105138179496351 
1749	 0.105125606087677 
1750	 0.105146378012016 
1751	 0.105145553266089 
1752	 0.105112109486692 
1753	 0.105099309548598 
1754	 0.105090047863209 
1755	 0.1050572040704 
1756	 0.105007666656674 
1757	 0.104989506940204 
1758	 0.104987908519346 
1759	 0.10495952172294 
1760	 0.104975143501164 
1761	 0.104998121189001 
1762	 0.104962994694474 
1763	 0.104952912841465 
1764	 0.104953180798325 
1765	 0.104954451477376 
1766	 0.104962750279584 
1767	 0.104950992660988 
1768	 0.104970317517895 
1769	 0.104977614503757 
1770	 0.104963227089727 
1771	 0.104983426598153 
1772	 0.104971585579645 
1773	 0.104940032704283 
1774	 0.104924751514279 
1775	 0.104895353434976 
1776	 0.104876147233186 
1777	 0.104863501112291 
1778	 0.104853468504475 
1779	 0.104852233697678 
1780	 0.104859841444519 
1781	 0.104878692917795 
1782	 0.104902571815579 
1783	 0.104902831406455 
1784	 0.104899576470854 
1785	 0.104881585027029 
1786	 0.104864809680359 
1787	 0.104854628295728 
1788	 0.104847226439912 
1789	 0.104821370797324 
1790	 0.104813797720408 
1791	 0.104816237281706 
1792	 0.104833040213495 
1793	 0.104880612421739 
1794	 0.104898464972883 
1795	 0.104903684159798 
1796	 0.104921182682151 
1797	 0.104925420551074 
1798	 0.104936713692046 
1799	 0.10497169483675 
1800	 0.104989251176723 
1801	 0.101869384365641 
1802	 0.101900528737288 
1803	 0.101916313513157 
1804	 0.101922599739242 
1805	 0.101949557699879 
1806	 0.101950103449982 
1807	 0.101928275184956 
1808	 0.101922789168864 
1809	 0.10191123512481 
1810	 0.101908520848762 
1811	 0.101906218245666 
1812	 0.101922649994829 
1813	 0.10195428082758 
1814	 0.101995163517797 
1815	 0.102019114698962 
1816	 0.102052150087749 
1817	 0.102083659836092 
1818	 0.102109147419485 
1819	 0.10212734388673 
1820	 0.102149544785015 
1821	 0.102165493357853 
1822	 0.102166540021348 
1823	 0.10217055755874 
1824	 0.102199324482436 
1825	 0.102221027798003 
1826	 0.10223726170092 
1827	 0.102254124099879 
1828	 0.102258918515432 
1829	 0.10224801175568 
1830	 0.102247223585631 
1831	 0.102247411731793 
1832	 0.102227961795076 
1833	 0.102240509065985 
1834	 0.102259014509685 
1835	 0.102285406108538 
1836	 0.102351891979015 
1837	 0.102378800103942 
1838	 0.102387439118764 
1839	 0.10238931025846 
1840	 0.102374050553308 
1841	 0.102338760837933 
1842	 0.102345853391934 
1843	 0.10234395944331 
1844	 0.102346801129992 
1845	 0.10237009310811 
1846	 0.102369597892174 
1847	 0.102364582995322 
1848	 0.102373063134845 
1849	 0.102373153805424 
1850	 0.102368436350498 
1851	 0.102356358752965 
1852	 0.102355575732359 
1853	 0.102331553470828 
1854	 0.102320077381891 
1855	 0.102319216390342 
1856	 0.102294314480412 
1857	 0.102292369405298 
1858	 0.102279012205669 
1859	 0.102237382431707 
1860	 0.102204128409429 
1861	 0.10217284114054 
1862	 0.102142167956271 
1863	 0.10210834482725 
1864	 0.102067361095944 
1865	 0.10202778912232 
1866	 0.101978736696283 
1867	 0.101880750501132 
1868	 0.101778058731046 
1869	 0.101690375290215 
1870	 0.101596607078211 
1871	 0.101495463225343 
1872	 0.101407851453232 
1873	 0.101309877153124 
1874	 0.101187274779176 
1875	 0.101029038223753 
1876	 0.100879332945923 
1877	 0.100736433729442 
1878	 0.100553793802963 
1879	 0.100370887472079 
1880	 0.100169503780679 
1881	 9.99306664481063E-02 
1882	 0.099704657114586 
1883	 9.94795074479935E-02 
1884	 9.92424454612283E-02 
1885	 9.90023828699261E-02 
1886	 9.87464163566253E-02 
1887	 9.84571161148491E-02 
1888	 9.81378514174722E-02 
1889	 0.097803298562562 
1890	 0.097459333925425 
1891	 9.71031049616314E-02 
1892	 9.67179604725012E-02 
1893	 9.63576828730847E-02 
1894	 9.60002477416259E-02 
1895	 0.095636742089565 
1896	 9.52721363851559E-02 
1897	 9.49199144740331E-02 
1898	 9.45437079991267E-02 
1899	 9.41633503436077E-02 
1900	 9.38043149786165E-02 
1901	 0.093441059090743 
1902	 9.31000843820787E-02 
1903	 9.27809005432874E-02 
1904	 9.24655655768604E-02 
1905	 9.21566791634794E-02 
1906	 9.18732574932362E-02 
1907	 9.15879815584032E-02 
1908	 9.13070244248167E-02 
1909	 9.10756109968093E-02 
1910	 9.08573341557226E-02 
1911	 9.06462743346762E-02 
1912	 9.04519205220665E-02 
1913	 9.02689701556139E-02 
1914	 9.00836511526235E-02 
1915	 8.99163459654829E-02 
1916	 8.97651295779004E-02 
1917	 8.96409478499846E-02 
1918	 8.95175692044678E-02 
1919	 8.94019515820228E-02 
1920	 0.089303544308797 
1921	 8.92149133955426E-02 
1922	 8.91384021288624E-02 
1923	 8.90756604186721E-02 
1924	 8.90225010881314E-02 
1925	 8.89896192537949E-02 
1926	 8.89577232721535E-02 
1927	 8.89280883169918E-02 
1928	 8.89101736890082E-02 
1929	 8.89099660806274E-02 
1930	 8.89254810074573E-02 
1931	 8.89223656576774E-02 
1932	 8.89271236682444E-02 
1933	 8.89343631512129E-02 
1934	 0.088913151232581 
1935	 8.89318871247716E-02 
1936	 8.89823125079961E-02 
1937	 0.089025339324643 
1938	 8.90908217132981E-02 
1939	 8.91418974377616E-02 
1940	 8.91922367452161E-02 
1941	 8.92277006310271E-02 
1942	 8.92480465907917E-02 
1943	 8.92854138943744E-02 
1944	 8.93577292388043E-02 
1945	 8.94239268736997E-02 
1946	 0.089501892879322 
1947	 0.089622596877881 
1948	 8.97049941620502E-02 
1949	 8.97661136064988E-02 
1950	 8.98374352512569E-02 
1951	 8.98912345982339E-02 
1952	 8.99628489836799E-02 
1953	 9.00635246781151E-02 
1954	 9.01495463680537E-02 
1955	 9.02567378199764E-02 
1956	 9.03527044912149E-02 
1957	 9.04642705870436E-02 
1958	 9.05859992322008E-02 
1959	 9.07095073756869E-02 
1960	 9.08501800792705E-02 
1961	 9.09750948114236E-02 
1962	 9.10885858099557E-02 
1963	 9.12020211535177E-02 
1964	 9.12997330476808E-02 
1965	 9.14270708434676E-02 
1966	 9.15466549240233E-02 
1967	 9.16633793026003E-02 
1968	 9.17815240484711E-02 
1969	 9.19007121852089E-02 
1970	 9.20169043154202E-02 
1971	 9.21323624039473E-02 
1972	 9.22489401707815E-02 
1973	 9.23607224936577E-02 
1974	 9.24782868282209E-02 
1975	 9.25942843709283E-02 
1976	 9.27251151284731E-02 
1977	 0.092844079390681 
1978	 9.29711103781534E-02 
1979	 9.31093371071514E-02 
1980	 9.32159631770476E-02 
1981	 0.09333172298406 
1982	 0.093445934132235 
1983	 9.35649538948109E-02 
1984	 9.36807845603131E-02 
1985	 9.38027772688899E-02 
1986	 9.39371977157427E-02 
1987	 9.40604294928886E-02 
1988	 9.41875048775913E-02 
1989	 9.42949610339135E-02 
1990	 9.43937226969473E-02 
1991	 9.45055504033667E-02 
1992	 9.46181029726414E-02 
1993	 9.47223927112021E-02 
1994	 9.48489387653505E-02 
1995	 9.49982162801461E-02 
1996	 9.51320558876855E-02 
1997	 9.52820299165094E-02 
1998	 9.54066297793939E-02 
1999	 9.55016574342982E-02 
2000	 9.56139216234265E-02 
2001	 9.57201295898681E-02 
2002	 9.58341329602107E-02 
2003	 9.59650309585776E-02 
2004	 9.60841837351471E-02 
2005	 9.61966538582437E-02 
2006	 9.63027334479535E-02 
2007	 9.64071623147304E-02 
2008	 9.64947943092037E-02 
2009	 9.66032354114056E-02 
2010	 9.67195264490906E-02 
2011	 9.68327837505823E-02 
2012	 9.69624513107004E-02 
2013	 9.70790186240575E-02 
2014	 9.71905853764798E-02 
2015	 9.72967160385136E-02 
2016	 9.73792231825566E-02 
2017	 9.74753353047411E-02 
2018	 9.75745747619678E-02 
2019	 9.76621799045397E-02 
2020	 9.77729495252038E-02 
2021	 9.79141225305292E-02 
2022	 9.80293706239674E-02 
2023	 9.81487394200749E-02 
2024	 9.82555485265328E-02 
2025	 9.83322164359004E-02 
2026	 9.84311486805777E-02 
2027	 9.85408397563193E-02 
2028	 9.86459207419195E-02 
2029	 9.87486428751353E-02 
2030	 9.88656052645227E-02 
2031	 9.89591650778212E-02 
2032	 9.90285614937997E-02 
2033	 9.91201253214799E-02 
2034	 9.92178251932291E-02 
2035	 9.93053744923337E-02 
2036	 9.94015598752357E-02 
2037	 9.94853213478818E-02 
2038	 0.099546765290667 
2039	 9.96229766227359E-02 
2040	 9.97071868297098E-02 
2041	 9.97822420591268E-02 
2042	 9.98745098830314E-02 
2043	 9.99668780198642E-02 
2044	 0.100047732728945 
2045	 0.100124519398393 
2046	 0.100202703168198 
2047	 0.100276772570116 
2048	 0.100343097644121 
2049	 0.100407423104613 
2050	 0.100472931079657 
2051	 0.100526875934608 
2052	 0.100585548675534 
2053	 0.100654358773214 
2054	 0.100714136954896 
2055	 0.100764499147515 
2056	 0.10081383578305 
2057	 0.100878650614603 
2058	 0.1009473028736 
2059	 0.101021790684451 
2060	 0.101118230782797 
2061	 0.101192435394871 
2062	 0.101257152055055 
2063	 0.101324299745473 
2064	 0.101378324252606 
2065	 0.101445860088484 
2066	 0.101530433004825 
2067	 0.101599469702232 
2068	 0.101660083174599 
2069	 0.101729903076071 
2070	 0.101792226671977 
2071	 0.101842707037127 
2072	 0.10190227182995 
2073	 0.101970186121925 
2074	 0.102026515325245 
2075	 0.102071496854443 
2076	 0.102129674917448 
2077	 0.102188440723767 
2078	 0.102251421246187 
2079	 0.102331837854177 
2080	 0.102396490401917 
2081	 0.10245131879616 
2082	 0.102509786907848 
2083	 0.102563923885323 
2084	 0.102615047376428 
2085	 0.102674799025005 
2086	 0.102742931826203 
2087	 0.102802072058134 
2088	 0.102868598373209 
2089	 0.102916942212955 
2090	 0.102938515987174 
2091	 0.102991551433072 
2092	 0.103053765934882 
2093	 0.103109721658278 
2094	 0.103189400669211 
2095	 0.103250887277335 
2096	 0.103287068164638 
2097	 0.103334716946819 
2098	 0.103381260635871 
2099	 0.103435186678144 
2100	 0.103494108880602 
2101	 0.103562279810312 
2102	 0.103621272083268 
2103	 0.103674740164999 
2104	 0.103745940118594 
2105	 0.103825118213444 
2106	 0.10389705762145 
2107	 0.103989495571199 
2108	 0.104058810577588 
2109	 0.104095053464954 
2110	 0.104156158502441 
2111	 0.104232598627976 
2112	 0.104295043132952 
2113	 0.104350622707715 
2114	 0.104420295005715 
2115	 0.104491604982825 
2116	 0.10455228441613 
2117	 0.104628082459383 
2118	 0.104734038776018 
2119	 0.104804408105148 
2120	 0.104859012901503 
2121	 0.104914669698048 
2122	 0.104953650852372 
2123	 0.105002806325569 
2124	 0.105056718099722 
2125	 0.105108711792136 
2126	 0.105164327486522 
2127	 0.105212547388369 
2128	 0.105270446755108 
2129	 0.10530386642662 
2130	 0.105314448874919 
2131	 0.105325600632178 
2132	 0.105339948635806 
2133	 0.105335968139101 
2134	 0.105353115296087 
2135	 0.105393482099715 
2136	 0.105412022067236 
2137	 0.105432174190156 
2138	 0.105435301963417 
2139	 0.105418904177591 
2140	 0.105409534789426 
2141	 0.105391236342691 
2142	 0.105377400418692 
2143	 0.105380618731051 
2144	 0.105359578459692 
2145	 0.105313757199799 
2146	 0.10528104552007 
2147	 0.105229680253908 
2148	 0.105203339545603 
2149	 0.105170549900248 
2150	 0.105157517458635 
2151	 0.105119670614624 
2152	 0.105064175904961 
2153	 0.105022091028449 
2154	 0.1049820666918 
2155	 0.104934109961559 
2156	 0.104893296286244 
2157	 0.104840871058945 
2158	 0.104772356643812 
2159	 0.104706131786024 
2160	 0.104648552637943 
2161	 0.104571018944883 
2162	 0.104470272065984 
2163	 0.104383081851008 
2164	 0.104298412184528 
2165	 0.104195463487527 
2166	 0.104110083572587 
2167	 0.104040242659633 
2168	 0.103956346596908 
2169	 0.103861185103436 
2170	 0.103784478724819 
2171	 0.103716898887393 
2172	 0.10364406875742 
2173	 0.103581489053875 
2174	 0.103511842463726 
2175	 0.103431564430401 
2176	 0.103355773169238 
2177	 0.103284859602498 
2178	 0.103210936434843 
2179	 0.103134203365922 
2180	 0.103058672635581 
2181	 0.102977554675142 
2182	 0.10290548007419 
2183	 0.102835643388473 
2184	 0.102774899452706 
2185	 0.102708975561821 
2186	 0.10265259280028 
2187	 0.102578485752024 
2188	 0.102488815644422 
2189	 0.102415642647484 
2190	 0.102340084244383 
2191	 0.102271976855443 
2192	 0.10220931379629 
2193	 0.102155431547508 
2194	 0.102105623664887 
2195	 0.102062496838762 
2196	 0.102043716803272 
2197	 0.102008687426597 
2198	 0.101958486028569 
2199	 0.101922755981749 
2200	 0.101885240635129 
2201	 0.101854480852788 
2202	 0.101840773182429 
2203	 0.101824873104343 
2204	 0.101805187822841 
2205	 0.101781049156716 
2206	 0.101768227727802 
2207	 0.101756126945103 
2208	 0.101752634324277 
2209	 0.101758955231376 
2210	 0.101768213417793 
2211	 0.101785605247308 
2212	 0.101795023971301 
2213	 0.101814235658518 
2214	 0.10181577914362 
2215	 0.101791130526136 
2216	 0.101793798924163 
2217	 0.101819270453521 
2218	 0.101815947549558 
2219	 0.101797950629356 
2220	 0.101799609139995 
2221	 0.101796168725295 
2222	 0.101779158814675 
2223	 0.101802570228423 
2224	 0.101838310951938 
2225	 0.101862123447817 
2226	 0.101882473282795 
2227	 0.101899112062818 
2228	 0.101913935088093 
2229	 0.101929777522294 
2230	 0.101941376430436 
2231	 0.101953581941755 
2232	 0.101960002156404 
2233	 0.101989652006443 
2234	 0.102026495364697 
2235	 0.102060303106157 
2236	 0.102129687291374 
2237	 0.102158373172382 
2238	 0.102156531943009 
2239	 0.102166310937621 
2240	 0.102151659502675 
2241	 0.102160339346627 
2242	 0.102191695440119 
2243	 0.102211527590088 
2244	 0.102233959873207 
2245	 0.102255045748389 
2246	 0.10228799880189 
2247	 0.102313240992058 
2248	 0.102339456219831 
2249	 0.102382050541898 
2250	 0.102401081080808 
2251	 0.102398799706875 
2252	 0.102414098088916 
2253	 0.102434786268144 
2254	 0.102436123260359 
2255	 0.102413944070393 
2256	 0.102440236645271 
2257	 0.102484444173142 
2258	 0.102517912107974 
2259	 0.102611627061699 
2260	 0.102629422827459 
2261	 0.102566055037851 
2262	 0.102558694596603 
2263	 0.102528875291921 
2264	 0.102541573149027 
2265	 0.102617624273076 
2266	 0.102667481570403 
2267	 0.102745826930676 
2268	 0.102786453003634 
2269	 0.102821219136212 
2270	 0.102796696936567 
2271	 0.102775508461816 
2272	 0.102755784397764 
2273	 0.102735047210908 
2274	 0.102757907443617 
2275	 0.102784045785883 
2276	 0.102833807102014 
2277	 0.102861663717472 
2278	 0.102907475060747 
2279	 0.102920019634777 
2280	 0.102891972581527 
2281	 0.102904326553379 
2282	 0.102916031116266 
2283	 0.102940058488567 
2284	 0.103009713710515 
2285	 0.103034504082226 
2286	 0.103028188100709 
2287	 0.103046832806235 
2288	 0.103065509042368 
2289	 0.103073102891055 
2290	 0.103079430845117 
2291	 0.103098246447166 
2292	 0.103097123174066 
2293	 0.103119816969907 
2294	 0.103196486620323 
2295	 0.103242253573367 
2296	 0.103281812113848 
2297	 0.103312963062392 
2298	 0.103323152374449 
2299	 0.103287431462743 
2300	 0.103277344633012 
2301	 0.103284264816099 
2302	 0.103317194974741 
2303	 0.103392004793143 
2304	 0.103433549210053 
2305	 0.103422816037453 
2306	 0.103408075121712 
2307	 0.103338963601276 
2308	 0.103320174927773 
2309	 0.103315708078159 
2310	 0.103306152543696 
2311	 0.103316877977143 
2312	 0.103308823931096 
2313	 0.103286467849433 
2314	 0.103272884708004 
2315	 0.103252336992332 
2316	 0.103249733718362 
2317	 0.103267990953009 
2318	 0.103256699414059 
2319	 0.103226027794352 
2320	 0.103227257194559 
2321	 0.103223648558648 
2322	 0.103227936020675 
2323	 0.103288557444064 
2324	 0.103300533222314 
2325	 0.103241317084119 
2326	 0.103252808727792 
2327	 0.103289246215038 
2328	 0.103334845787817 
2329	 0.10340471322667 
2330	 0.103443817119339 
2331	 0.103421598495789 
2332	 0.103401861670456 
2333	 0.103377441497509 
2334	 0.103412804799717 
2335	 0.10345611167342 
2336	 0.103469870221656 
2337	 0.103512778738946 
2338	 0.103474308301328 
2339	 0.103432723051517 
2340	 0.103404401920918 
2341	 0.10334626494299 
2342	 0.103328894524959 
2343	 0.103338488163631 
2344	 0.103343506361546 
2345	 0.103372863756075 
2346	 0.103463379782084 
2347	 0.103477149584877 
2348	 0.103456667095021 
2349	 0.103443858949772 
2350	 0.103376408470131 
2351	 0.103377087584084 
2352	 0.103442540971657 
2353	 0.103444113882848 
2354	 0.103437878439924 
2355	 0.103410587577543 
2356	 0.103337046659187 
2357	 0.103293520745215 
2358	 0.103255944800406 
2359	 0.10322461250587 
2360	 0.103213594493866 
2361	 0.103163182951701 
2362	 0.103087598966621 
2363	 0.103042762771639 
2364	 0.102977964683 
2365	 0.102931814853899 
2366	 0.10290999826623 
2367	 0.102905459846743 
2368	 0.102924396182043 
2369	 0.102935484698654 
2370	 0.102972167969505 
2371	 0.103003994833117 
2372	 0.103001035771472 
2373	 0.102865977180904 
2374	 0.102705296015368 
2375	 0.102626839281127 
2376	 0.102577498010463 
2377	 0.102588147314066 
2378	 0.102671586015143 
2379	 0.102671534559487 
2380	 0.102621536886472 
2381	 0.102585428606746 
2382	 0.102499506047792 
2383	 0.102473073024088 
2384	 0.102495924636739 
2385	 0.102502521816521 
2386	 0.102542111665442 
2387	 0.102512813415188 
2388	 0.102404014443125 
2389	 0.102276720611612 
2390	 0.102185506473794 
2391	 0.102146137523891 
2392	 0.102039126688313 
2393	 0.101950890043569 
2394	 0.101861553235832 
2395	 0.101742574615662 
2396	 0.101783746001568 
2397	 0.101827202095383 
2398	 0.101793013639687 
2399	 0.101754123276419 
2400	 0.101591766648652 
2401	 0.101416155463433 
2402	 0.101291820659956 
2403	 0.101195779938191 
2404	 0.101290206202484 
2405	 0.101391274438189 
2406	 0.101350877981656 
2407	 0.101299390417868 
2408	 0.101137948687997 
2409	 0.100979511743659 
2410	 0.100954099502413 
2411	 0.100954519893497 
2412	 0.101011306501232 
2413	 0.101026849696505 
2414	 0.100949294717025 
2415	 0.100868559101476 
2416	 0.100797690892031 
2417	 0.100672316960634 
2418	 0.10058479249158 
2419	 0.100526476576521 
2420	 0.100497017698071 
2421	 0.100477125717854 
2422	 0.100431026421547 
2423	 0.100465942799925 
2424	 0.100389823299452 
2425	 0.100186828148537 
2426	 0.100070761803309 
2427	 9.99645809549737E-02 
2428	 9.98584258145224E-02 
2429	 9.97681296530258E-02 
2430	 9.96807797927857E-02 
2431	 9.96100832189976E-02 
2432	 9.94905383415786E-02 
2433	 9.93615664947046E-02 
2434	 9.92653230181971E-02 
2435	 9.91410761770906E-02 
2436	 9.90041962059454E-02 
2437	 9.88497611323508E-02 
2438	 9.87408165183392E-02 
2439	 9.86688136884921E-02 
2440	 9.85790304537321E-02 
2441	 9.85010734622327E-02 
2442	 9.84668241205495E-02 
2443	 9.83824987846231E-02 
2444	 0.098309670525856 
2445	 0.098380069954514 
2446	 9.84138511597705E-02 
2447	 9.84436796035524E-02 
2448	 9.84430823832316E-02 
2449	 9.83616154356332E-02 
2450	 0.098275267754769 
2451	 9.81724800639768E-02 
2452	 9.80489086395249E-02 
2453	 0.097933186727365 
2454	 9.78700216266018E-02 
2455	 9.77411114520804E-02 
2456	 9.76804668999085E-02 
2457	 9.77426730182894E-02 
2458	 9.76878905914154E-02 
2459	 9.76287989229546E-02 
2460	 9.75505937789314E-02 
2461	 9.73782628709173E-02 
2462	 0.097360654218165 
2463	 9.74382874472416E-02 
2464	 0.097341865802702 
2465	 9.72566126215577E-02 
2466	 9.71506257804628E-02 
2467	 9.68803913650689E-02 
2468	 9.67336094407338E-02 
2469	 9.66552516147904E-02 
2470	 0.096493071455137 
2471	 9.64198425493921E-02 
2472	 9.64618133310191E-02 
2473	 9.64733290553578E-02 
2474	 9.63852956358942E-02 
2475	 9.62847484488717E-02 
2476	 9.60107361522773E-02 
2477	 0.095815031360911 
2478	 9.58244480276272E-02 
2479	 9.57320347567156E-02 
2480	 9.57450726865811E-02 
2481	 9.57465885647338E-02 
2482	 9.56423172039943E-02 
2483	 9.56977187267741E-02 
2484	 9.57520252698501E-02 
2485	 9.58266900616209E-02 
2486	 9.58332223020083E-02 
2487	 9.56002520968683E-02 
2488	 9.54276673448008E-02 
2489	 0.095253604697366 
2490	 9.50416934536326E-02 
2491	 9.52063688582399E-02 
2492	 9.53148347213984E-02 
2493	 9.54162261218362E-02 
2494	 9.56955898430284E-02 
2495	 0.095581501545175 
2496	 9.54019726218322E-02 
2497	 9.52024792736893E-02 
2498	 9.48895583284531E-02 
2499	 9.46993826795583E-02 
2500	 9.46880708741364E-02 
