Wavelength	LMW_1800000.asd
350	 7.33344942671335E-02 
351	 6.83544725540505E-02 
352	 5.38086373886853E-02 
353	 4.48727865905046E-02 
354	 5.33289324331869E-02 
355	 6.16691032414066E-02 
356	 6.23182627093243E-02 
357	 5.47509570662384E-02 
358	 5.17211969783627E-02 
359	 5.02999091065909E-02 
360	 5.05238397043002E-02 
361	 5.38424095243938E-02 
362	 5.19476829083986E-02 
363	 5.07470642032513E-02 
364	 5.33820198301888E-02 
365	 5.62881585558153E-02 
366	 5.59337643754482E-02 
367	 5.34955065150063E-02 
368	 5.17474887019552E-02 
369	 5.35079378145966E-02 
370	 5.41721568012617E-02 
371	 5.34774531184895E-02 
372	 5.39902808776749E-02 
373	 5.33562234430987E-02 
374	 5.17148358889647E-02 
375	 5.07618585639674E-02 
376	 5.46998673602498E-02 
377	 0.053993695047567 
378	 5.21430225560678E-02 
379	 5.45095725882454E-02 
380	 5.67037115327151E-02 
381	 5.61112871804809E-02 
382	 5.51325889826898E-02 
383	 5.89135870971356E-02 
384	 5.71920126960293E-02 
385	 5.52017677521305E-02 
386	 5.63815120658463E-02 
387	 5.66176756051488E-02 
388	 5.65620290842049E-02 
389	 0.057137842636586 
390	 5.83907659621928E-02 
391	 5.50752841795299E-02 
392	 5.47608493007811E-02 
393	 5.79007882415554E-02 
394	 5.87983628989244E-02 
395	 6.01820418050504E-02 
396	 6.10664786923533E-02 
397	 6.06507085928787E-02 
398	 5.94228675794714E-02 
399	 5.93992363370858E-02 
400	 6.04095194394154E-02 
401	 6.12206406726004E-02 
402	 6.00864133962013E-02 
403	 5.97788954869518E-02 
404	 6.06606793391576E-02 
405	 6.05017061256956E-02 
406	 6.13161164118365E-02 
407	 6.18505380750972E-02 
408	 6.13184276066991E-02 
409	 6.18495752218515E-02 
410	 6.06889926446035E-02 
411	 5.94853728699936E-02 
412	 6.11132561476984E-02 
413	 6.14718308506253E-02 
414	 6.14424596990276E-02 
415	 6.17694439479144E-02 
416	 6.24462556642542E-02 
417	 6.19845296397459E-02 
418	 6.17177843571602E-02 
419	 6.26530181250645E-02 
420	 6.23136060438677E-02 
421	 6.18904819551596E-02 
422	 6.19607762182196E-02 
423	 6.25275973484594E-02 
424	 6.23374654700094E-02 
425	 6.21424928017406E-02 
426	 6.24716435909391E-02 
427	 6.30839902840535E-02 
428	 0.062876318165105 
429	 6.23201000575263E-02 
430	 6.22875909594574E-02 
431	 6.27883239812644E-02 
432	 6.29254725459016E-02 
433	 6.27077739159751E-02 
434	 6.29971721862313E-02 
435	 0.06294916302422 
436	 6.30623917105016E-02 
437	 6.35027791356621E-02 
438	 6.27711030526094E-02 
439	 6.27768957556355E-02 
440	 6.32775552543273E-02 
441	 0.063127068387789 
442	 6.34231183413431E-02 
443	 6.36930716340256E-02 
444	 6.37385736499886E-02 
445	 6.40078300274228E-02 
446	 6.39726457774251E-02 
447	 6.39021845723524E-02 
448	 0.064134760780028 
449	 6.42819791835037E-02 
450	 6.45051591049088E-02 
451	 6.46498860066879E-02 
452	 6.43442682038904E-02 
453	 6.44456536363382E-02 
454	 6.47507304255723E-02 
455	 6.49622152598581E-02 
456	 6.50367134941294E-02 
457	 6.51449068517303E-02 
458	 6.52926385505569E-02 
459	 6.53784066772809E-02 
460	 6.50994254844246E-02 
461	 6.50803779126315E-02 
462	 6.54131204744131E-02 
463	 6.53367893403549E-02 
464	 6.55888599544162E-02 
465	 6.58328984596062E-02 
466	 6.57068955166544E-02 
467	 6.59821219179495E-02 
468	 6.60883988801931E-02 
469	 6.59766614795559E-02 
470	 6.60376868642342E-02 
471	 6.63018340276924E-02 
472	 6.65668992033057E-02 
473	 6.66759133710505E-02 
474	 6.66636935487615E-02 
475	 6.66627403816832E-02 
476	 6.67413538876146E-02 
477	 6.69030808427196E-02 
478	 0.066966792300411 
479	 6.70061247947038E-02 
480	 6.70496534273581E-02 
481	 6.70245814014927E-02 
482	 6.71900509491637E-02 
483	 6.75178291447817E-02 
484	 6.78489543243149E-02 
485	 6.78959679669122E-02 
486	 6.78303842114625E-02 
487	 6.77750538544025E-02 
488	 6.77986899974216E-02 
489	 0.0679557868415 
490	 6.82214926016013E-02 
491	 6.84704554993445E-02 
492	 6.83682688179257E-02 
493	 6.81141207137328E-02 
494	 6.81400820855725E-02 
495	 0.068786323338301 
496	 6.88262660511784E-02 
497	 6.86795027731331E-02 
498	 6.86629054645602E-02 
499	 6.86832717165314E-02 
500	 6.89331174525257E-02 
501	 6.91213790660847E-02 
502	 6.89933623093726E-02 
503	 6.91008110001326E-02 
504	 6.92065710784215E-02 
505	 6.92378504543015E-02 
506	 6.92964059271359E-02 
507	 6.94192964231238E-02 
508	 6.95892328494123E-02 
509	 6.97410710670094E-02 
510	 6.97058919788666E-02 
511	 6.97223210982367E-02 
512	 6.97755084368948E-02 
513	 6.97367629410861E-02 
514	 6.97587052979885E-02 
515	 6.99340781115629E-02 
516	 7.01594149501435E-02 
517	 6.99943273347906E-02 
518	 6.99956410792772E-02 
519	 7.01086981037697E-02 
520	 7.01304724578586E-02 
521	 7.02235942711017E-02 
522	 7.03024343300214E-02 
523	 7.03153140726084E-02 
524	 0.070261963685977 
525	 7.03171272123603E-02 
526	 7.04262809677511E-02 
527	 7.05062723163509E-02 
528	 7.05658744938901E-02 
529	 7.06327404806984E-02 
530	 7.07026213289216E-02 
531	 7.07490202077797E-02 
532	 7.07319819232593E-02 
533	 7.08079400883689E-02 
534	 7.10131656794868E-02 
535	 0.071087975830344 
536	 7.11123958145073E-02 
537	 7.11094194390982E-02 
538	 7.10957578020427E-02 
539	 7.11446485371357E-02 
540	 7.11682162955924E-02 
541	 7.11875380568714E-02 
542	 0.071388545494294 
543	 7.14371862500237E-02 
544	 7.14629368457929E-02 
545	 7.16238017889269E-02 
546	 7.16444982333856E-02 
547	 0.071670427774374 
548	 7.17667607197101E-02 
549	 0.071914773346901 
550	 7.20150946119884E-02 
551	 7.20932887639996E-02 
552	 7.21849260743068E-02 
553	 7.22815416266976E-02 
554	 0.072405153748015 
555	 7.24983446491287E-02 
556	 7.24875336414637E-02 
557	 7.25508210536612E-02 
558	 7.26697894507817E-02 
559	 7.28003820793301E-02 
560	 7.28980311041211E-02 
561	 7.29677384771568E-02 
562	 7.30684994465899E-02 
563	 7.32461231495194E-02 
564	 7.33576268638688E-02 
565	 7.34992016454529E-02 
566	 7.37104840036062E-02 
567	 7.39520392769755E-02 
568	 7.42115728361389E-02 
569	 7.43908287728585E-02 
570	 7.44397214597256E-02 
571	 7.45048478131185E-02 
572	 0.074662450112133 
573	 7.48995775150815E-02 
574	 7.51324287756222E-02 
575	 7.52933347642089E-02 
576	 7.53501422869132E-02 
577	 7.53764296082192E-02 
578	 7.56672700623938E-02 
579	 7.59766351814054E-02 
580	 7.62947101646786E-02 
581	 7.66877353837641E-02 
582	 7.70408410900863E-02 
583	 7.73286065379479E-02 
584	 7.75431753767248E-02 
585	 7.76888680391793E-02 
586	 7.77641020347183E-02 
587	 7.78441065596373E-02 
588	 7.80001999385671E-02 
589	 7.82036135535018E-02 
590	 7.83307973194154E-02 
591	 7.84034754228478E-02 
592	 0.078568345384228 
593	 7.86376406749681E-02 
594	 0.078716263737977 
595	 7.89140596646113E-02 
596	 7.92054641244825E-02 
597	 7.95712175447971E-02 
598	 7.99260834184386E-02 
599	 8.01760165568319E-02 
600	 8.04886500539259E-02 
601	 8.07537154822406E-02 
602	 8.09078059569283E-02 
603	 8.10252718484272E-02 
604	 0.081136712346698 
605	 0.0812582050146 
606	 8.13982881799541E-02 
607	 8.15811448479628E-02 
608	 0.081740449530856 
609	 8.18750792050548E-02 
610	 8.20621261571643E-02 
611	 0.082192198384057 
612	 0.082318308871097 
613	 8.24906796345559E-02 
614	 8.26192216608086E-02 
615	 0.082702871194675 
616	 8.27755485151967E-02 
617	 8.28917906195888E-02 
618	 8.30506412803933E-02 
619	 8.31271667736411E-02 
620	 8.31080566114135E-02 
621	 8.32699182155192E-02 
622	 8.33569680906371E-02 
623	 8.33967821852113E-02 
624	 8.35054427198338E-02 
625	 8.35814028887516E-02 
626	 8.36458977390543E-02 
627	 8.37233610891053E-02 
628	 8.38303724069383E-02 
629	 8.38893732179344E-02 
630	 8.39239235237481E-02 
631	 8.39712353129085E-02 
632	 8.39895135828199E-02 
633	 8.40818612992894E-02 
634	 8.42069349674987E-02 
635	 0.084218524017268 
636	 8.43106202505951E-02 
637	 8.44142274443123E-02 
638	 8.44584604774085E-02 
639	 8.44740285184162E-02 
640	 8.45280973793053E-02 
641	 0.084610660763056 
642	 8.46773983484769E-02 
643	 8.47512501992439E-02 
644	 8.48192270348395E-02 
645	 8.48745915524088E-02 
646	 8.49229257798037E-02 
647	 0.084989540451931 
648	 8.50545455191001E-02 
649	 0.085103325242629 
650	 8.52092800841317E-02 
651	 8.52855574518101E-02 
652	 8.53296891402001E-02 
653	 8.54138581836814E-02 
654	 8.55194072989027E-02 
655	 8.56034056395878E-02 
656	 8.56559564453454E-02 
657	 8.57652867017681E-02 
658	 8.58488575051487E-02 
659	 8.59050938023265E-02 
660	 8.59704717600671E-02 
661	 8.60500393046566E-02 
662	 8.61547479460467E-02 
663	 8.62604371566168E-02 
664	 8.62910815682476E-02 
665	 8.63706597756819E-02 
666	 8.64617563456861E-02 
667	 8.65093148158565E-02 
668	 8.65869942663907E-02 
669	 8.67048829802913E-02 
670	 8.68261301701995E-02 
671	 8.68830349903535E-02 
672	 8.69425582130675E-02 
673	 8.70431670840546E-02 
674	 8.71835016959043E-02 
675	 8.72866080572948E-02 
676	 8.73580303707258E-02 
677	 8.74346475178656E-02 
678	 8.75554034704584E-02 
679	 0.087649685891574 
680	 8.77429319371117E-02 
681	 8.78460366711221E-02 
682	 0.087939968275943 
683	 8.80738793180357E-02 
684	 8.81878546332727E-02 
685	 8.82394891982139E-02 
686	 8.83518593303187E-02 
687	 8.84791045208943E-02 
688	 8.86009054638533E-02 
689	 8.87134347837813E-02 
690	 8.87654755250942E-02 
691	 8.88211131944051E-02 
692	 8.89354831829773E-02 
693	 8.91282756354125E-02 
694	 8.92052637691801E-02 
695	 8.92322167983148E-02 
696	 8.93479599272006E-02 
697	 8.94975884281795E-02 
698	 8.96145184005881E-02 
699	 8.97010863725505E-02 
700	 8.98301280873079E-02 
701	 8.99275818829845E-02 
702	 9.00396804911543E-02 
703	 9.01834886350882E-02 
704	 9.02139948326162E-02 
705	 9.02978855673444E-02 
706	 9.04160987076658E-02 
707	 9.04691537034705E-02 
708	 9.05697216522462E-02 
709	 9.06862262297845E-02 
710	 9.07994827886553E-02 
711	 9.09322005008938E-02 
712	 9.10154127805584E-02 
713	 9.10754209340091E-02 
714	 0.09115695602736 
715	 9.12611281457898E-02 
716	 0.091362692824265 
717	 9.14540195279523E-02 
718	 9.15421571250574E-02 
719	 9.16430016887596E-02 
720	 9.17126890654396E-02 
721	 9.17443547670289E-02 
722	 9.18200366059957E-02 
723	 9.18615302650868E-02 
724	 9.19169763208599E-02 
725	 9.20400077655232E-02 
726	 9.20891302740689E-02 
727	 9.21418068134485E-02 
728	 0.092219431591877 
729	 9.22814657557448E-02 
730	 9.23159568487041E-02 
731	 9.23432019255381E-02 
732	 9.23893102435926E-02 
733	 9.24869915465877E-02 
734	 9.25359083174113E-02 
735	 9.25371421148249E-02 
736	 9.25366475901727E-02 
737	 9.25509302002474E-02 
738	 9.25903645107769E-02 
739	 9.26336172562338E-02 
740	 9.26295216771341E-02 
741	 9.26452898111455E-02 
742	 9.26601323568109E-02 
743	 0.092655141006364 
744	 9.26715895660201E-02 
745	 9.26639715954804E-02 
746	 9.26625099347194E-02 
747	 9.27101695082383E-02 
748	 9.26687135233419E-02 
749	 9.26279767290412E-02 
750	 9.26291711117211E-02 
751	 9.26299430652132E-02 
752	 9.26421286723641E-02 
753	 9.26394258293332E-02 
754	 9.26026888010718E-02 
755	 9.25503718639114E-02 
756	 9.25281541763973E-02 
757	 9.25233752964292E-02 
758	 9.24948149457739E-02 
759	 9.24459884957863E-02 
760	 9.24024752484022E-02 
761	 9.23792289655139E-02 
762	 9.23740660380059E-02 
763	 9.23376557868472E-02 
764	 9.22853714907661E-02 
765	 0.092243831631076 
766	 9.22218904182374E-02 
767	 9.22051324043901E-02 
768	 9.21696980934714E-02 
769	 9.21001456381149E-02 
770	 9.20694864491477E-02 
771	 9.20438317148257E-02 
772	 9.19912820018374E-02 
773	 9.18974842746968E-02 
774	 9.18735054026485E-02 
775	 9.18446436965582E-02 
776	 0.091756945570359 
777	 9.17386933520599E-02 
778	 9.16826223995684E-02 
779	 9.16003260355632E-02 
780	 0.091552740103029 
781	 9.15386928072749E-02 
782	 9.15092659629034E-02 
783	 9.14511409681452E-02 
784	 9.13935356895813E-02 
785	 9.13498318524688E-02 
786	 9.12926783395272E-02 
787	 9.12121934569788E-02 
788	 0.0911571339601 
789	 9.11379060191723E-02 
790	 9.11024059152906E-02 
791	 9.09964737264549E-02 
792	 9.08890098789281E-02 
793	 9.08267854559951E-02 
794	 0.090808830051634 
795	 9.07909133376304E-02 
796	 9.07238636338051E-02 
797	 9.06743366899726E-02 
798	 9.06669386492612E-02 
799	 9.06148610598398E-02 
800	 9.05616028221919E-02 
801	 9.05023632910442E-02 
802	 9.04302825328054E-02 
803	 9.03810364767123E-02 
804	 9.03517360991939E-02 
805	 9.03224820777938E-02 
806	 9.02703597887212E-02 
807	 9.02464323253942E-02 
808	 9.01783883141389E-02 
809	 9.00740065247853E-02 
810	 9.00565782470403E-02 
811	 9.00380033691351E-02 
812	 8.99847684645808E-02 
813	 0.089906160780567 
814	 8.98923720986726E-02 
815	 8.98677338975304E-02 
816	 8.98245139758172E-02 
817	 8.97857392137177E-02 
818	 8.97761211420293E-02 
819	 8.97571976605371E-02 
820	 8.97084449224267E-02 
821	 8.96361353116344E-02 
822	 8.96311609885576E-02 
823	 8.95870773554349E-02 
824	 8.94833892446268E-02 
825	 8.94876925955803E-02 
826	 0.089474489458837 
827	 8.94377454292553E-02 
828	 8.94051762335114E-02 
829	 8.94111714037557E-02 
830	 8.93584609125335E-02 
831	 8.92949457088663E-02 
832	 8.93111048832055E-02 
833	 8.92813221640964E-02 
834	 8.92256773836311E-02 
835	 8.91725495865567E-02 
836	 8.91493962769244E-02 
837	 8.92099780315674E-02 
838	 8.92295267387857E-02 
839	 8.91588863943497E-02 
840	 8.91252221163401E-02 
841	 8.91118639330929E-02 
842	 8.90929885545902E-02 
843	 8.90592698409866E-02 
844	 8.90706958192777E-02 
845	 8.90942039406235E-02 
846	 8.90840564410201E-02 
847	 8.90128167709364E-02 
848	 8.89795307377113E-02 
849	 8.89509337513761E-02 
850	 0.088923729876968 
851	 0.088922148548019 
852	 8.89068986436536E-02 
853	 8.89004407176492E-02 
854	 8.89051777154162E-02 
855	 8.88836195140908E-02 
856	 8.89509031041249E-02 
857	 8.90009463600548E-02 
858	 8.89524002827328E-02 
859	 8.89194824468985E-02 
860	 8.89050635311317E-02 
861	 8.89144826041017E-02 
862	 8.89364702098479E-02 
863	 8.89059292560918E-02 
864	 8.89099733646036E-02 
865	 8.89435583707553E-02 
866	 8.89473733449458E-02 
867	 8.89443016295117E-02 
868	 8.89088049499757E-02 
869	 8.88813070114688E-02 
870	 8.89548826988789E-02 
871	 8.89658452215447E-02 
872	 8.89972122086606E-02 
873	 0.089072569914782 
874	 8.90577488315916E-02 
875	 8.90451729485512E-02 
876	 8.90473294717953E-02 
877	 0.089056516220928 
878	 8.90635792879638E-02 
879	 8.90871271909743E-02 
880	 8.91246335066914E-02 
881	 8.91641124157962E-02 
882	 8.91954775726957E-02 
883	 8.91936410783871E-02 
884	 0.089177743060701 
885	 8.91906298433251E-02 
886	 8.92503619101217E-02 
887	 8.93061256772394E-02 
888	 8.93430873819997E-02 
889	 0.089382607668414 
890	 8.94245295140447E-02 
891	 8.94857391972274E-02 
892	 8.95466868920801E-02 
893	 8.95470228009252E-02 
894	 8.95446429232263E-02 
895	 0.089568816106935 
896	 8.96180503689616E-02 
897	 0.089647810578875 
898	 8.97075765963113E-02 
899	 8.97730365944016E-02 
900	 8.98189599940656E-02 
901	 8.98723254701156E-02 
902	 8.98984687401275E-02 
903	 8.98992804802464E-02 
904	 8.99032064501755E-02 
905	 8.99834718571206E-02 
906	 0.090035891703944 
907	 9.00761951702315E-02 
908	 9.01619022790192E-02 
909	 0.09023872743784 
910	 9.02616265575402E-02 
911	 9.02955925092802E-02 
912	 9.04375357013611E-02 
913	 9.04880363779935E-02 
914	 9.05296824656942E-02 
915	 9.06020759882342E-02 
916	 9.06799324778338E-02 
917	 9.07239034560224E-02 
918	 9.07708175370773E-02 
919	 9.08177877094622E-02 
920	 9.08161992427033E-02 
921	 9.09044972355157E-02 
922	 0.091023471053321 
923	 9.11038591137125E-02 
924	 9.11225212320385E-02 
925	 9.12107438449691E-02 
926	 9.12719865201439E-02 
927	 9.12695262249499E-02 
928	 9.13634135881863E-02 
929	 0.091398026459961 
930	 0.091465327374747 
931	 9.16185625118335E-02 
932	 0.091681426345856 
933	 9.17523595341049E-02 
934	 9.18561050536182E-02 
935	 9.19703952317558E-02 
936	 0.092002952492704 
937	 9.20366873667587E-02 
938	 9.21102139645113E-02 
939	 0.092221974651842 
940	 9.22955852706008E-02 
941	 9.23917193345088E-02 
942	 9.25020233494222E-02 
943	 9.25943654898519E-02 
944	 9.26644798563001E-02 
945	 9.26933586744537E-02 
946	 9.27706003871311E-02 
947	 9.29453077036192E-02 
948	 9.28681179957399E-02 
949	 9.29299116942574E-02 
950	 9.31152867779944E-02 
951	 0.093212021534426 
952	 9.32507444077759E-02 
953	 9.33259272730741E-02 
954	 0.093458945442353 
955	 0.093601234756973 
956	 9.36134319636599E-02 
957	 9.37022628314384E-02 
958	 9.38498546661427E-02 
959	 9.39124816321106E-02 
960	 9.39546968351025E-02 
961	 9.40333159233103E-02 
962	 9.41796959440064E-02 
963	 9.43694006051797E-02 
964	 9.43984746477577E-02 
965	 9.44342629958881E-02 
966	 9.45132506365168E-02 
967	 9.45735636245577E-02 
968	 9.46611643446835E-02 
969	 9.47187828174099E-02 
970	 9.47400972664694E-02 
971	 9.47751942359249E-02 
972	 9.49460813232314E-02 
973	 9.51240600410981E-02 
974	 9.51866616876607E-02 
975	 9.51104823257268E-02 
976	 0.095268305875037 
977	 9.54339635612949E-02 
978	 9.55450804703204E-02 
979	 9.56652732280047E-02 
980	 9.57508235869479E-02 
981	 9.57461035526628E-02 
982	 9.57227254088906E-02 
983	 9.58075049289622E-02 
984	 9.59713310111258E-02 
985	 9.61976757937424E-02 
986	 9.62773421140179E-02 
987	 9.60813211101982E-02 
988	 9.63504462239139E-02 
989	 9.65257658278777E-02 
990	 9.65331429500147E-02 
991	 9.65782076549948E-02 
992	 9.67087057611817E-02 
993	 9.67244435060016E-02 
994	 9.67682820707603E-02 
995	 9.69937093153141E-02 
996	 9.69200572727108E-02 
997	 9.69671284653534E-02 
998	 9.70119638384288E-02 
999	 9.69000759640437E-02 
1000	 9.71760105499486E-02 
1001	 9.67204412617231E-02 
1002	 9.67260355053594E-02 
1003	 0.096726820911901 
1004	 9.67654783732079E-02 
1005	 9.68480270140724E-02 
1006	 9.69032743330204E-02 
1007	 9.69630211571761E-02 
1008	 9.70231119381276E-02 
1009	 9.70557408067996E-02 
1010	 9.71304394404501E-02 
1011	 9.71823178857648E-02 
1012	 9.71911344530188E-02 
1013	 9.71809431749804E-02 
1014	 0.097143950767581 
1015	 9.71791756135548E-02 
1016	 9.72349313761375E-02 
1017	 9.72600615619377E-02 
1018	 9.72885163339732E-02 
1019	 9.73651010515761E-02 
1020	 9.73968243120752E-02 
1021	 9.74245667092491E-02 
1022	 9.75020312088083E-02 
1023	 9.75720250094905E-02 
1024	 9.76095226581936E-02 
1025	 9.75942072290538E-02 
1026	 9.75974762699832E-02 
1027	 0.097598615992213 
1028	 9.75773124528224E-02 
1029	 9.76030568558433E-02 
1030	 9.76373954424988E-02 
1031	 9.76591154369674E-02 
1032	 9.76854931169339E-02 
1033	 9.77054724839668E-02 
1034	 9.76924956160639E-02 
1035	 9.76849576274265E-02 
1036	 9.76847864483958E-02 
1037	 9.77048127208427E-02 
1038	 9.77112595448641E-02 
1039	 9.76891292029702E-02 
1040	 9.76869198831028E-02 
1041	 9.76583696600529E-02 
1042	 9.76671929948127E-02 
1043	 9.76922748474973E-02 
1044	 9.77143295815941E-02 
1045	 9.77175519595321E-02 
1046	 9.77955560995945E-02 
1047	 9.78423812776991E-02 
1048	 9.78658460297039E-02 
1049	 9.79153314361712E-02 
1050	 9.79085625053791E-02 
1051	 9.78867573029971E-02 
1052	 9.78775107941535E-02 
1053	 9.79188816618354E-02 
1054	 9.79742431115756E-02 
1055	 9.79935339818963E-02 
1056	 0.098054312421913 
1057	 9.81125864526813E-02 
1058	 9.81378555513847E-02 
1059	 0.098176313339676 
1060	 0.098233233046957 
1061	 9.83177696934659E-02 
1062	 9.83791229469246E-02 
1063	 9.84361526698493E-02 
1064	 9.85109330870748E-02 
1065	 9.85606265494724E-02 
1066	 9.85958855128562E-02 
1067	 9.86335434612112E-02 
1068	 9.86574998547582E-02 
1069	 9.86994859090129E-02 
1070	 9.87508128489472E-02 
1071	 9.87922073834214E-02 
1072	 9.88622648917398E-02 
1073	 0.098988092756148 
1074	 9.90653316490079E-02 
1075	 9.91276055198226E-02 
1076	 9.91889997461213E-02 
1077	 9.92611772384459E-02 
1078	 9.93040403733289E-02 
1079	 9.93641449734822E-02 
1080	 9.94392127404236E-02 
1081	 9.94851066540526E-02 
1082	 0.099527583005317 
1083	 9.95764358246191E-02 
1084	 9.96113155449522E-02 
1085	 9.96794045078115E-02 
1086	 9.98055966676319E-02 
1087	 9.98502970288107E-02 
1088	 9.98501605690659E-02 
1089	 9.99102340658218E-02 
1090	 9.99388820236189E-02 
1091	 9.99244719256174E-02 
1092	 9.99989368601096E-02 
1093	 0.100039237507404 
1094	 0.100022514340734 
1095	 0.100037876258959 
1096	 0.100058670501738 
1097	 0.100060091871588 
1098	 0.100092556744501 
1099	 0.100181371298092 
1100	 0.100201982453014 
1101	 0.100192358107 
1102	 0.100200882488341 
1103	 0.10018122379167 
1104	 0.100177959245742 
1105	 0.100210459686855 
1106	 0.100215881262175 
1107	 0.100215160494329 
1108	 0.100203535324503 
1109	 0.100176445188366 
1110	 0.100207133661567 
1111	 0.100208786946865 
1112	 0.100211518256368 
1113	 0.100196712210751 
1114	 0.100156722637474 
1115	 0.100138940568654 
1116	 0.10013539872008 
1117	 0.100125130138784 
1118	 0.100121773423084 
1119	 0.100109302414928 
1120	 0.100101440021434 
1121	 0.10008511258221 
1122	 0.10004322245783 
1123	 0.100024880936871 
1124	 0.100015741698641 
1125	 0.100001182838133 
1126	 9.99963577486158E-02 
1127	 0.10001076449661 
1128	 0.100021370008785 
1129	 0.100032276705416 
1130	 0.100036819639226 
1131	 0.100060195829197 
1132	 0.100064106075737 
1133	 0.100052678750062 
1134	 0.100035319542251 
1135	 0.100011226302551 
1136	 9.99696130297681E-02 
1137	 9.99405557831616E-02 
1138	 9.99144177315751E-02 
1139	 9.99026400733399E-02 
1140	 9.99065692496074E-02 
1141	 9.99119418904536E-02 
1142	 0.099942026036788 
1143	 0.099931772321775 
1144	 9.98953612588945E-02 
1145	 9.98839926825665E-02 
1146	 0.09985632056389 
1147	 0.099844182209777 
1148	 9.98655273296734E-02 
1149	 9.98746253984178E-02 
1150	 9.98831703524124E-02 
1151	 9.98735843764006E-02 
1152	 9.98850286080962E-02 
1153	 9.98968056083477E-02 
1154	 9.98811987033543E-02 
1155	 9.98440571701572E-02 
1156	 9.98272545071715E-02 
1157	 9.97913387762317E-02 
1158	 9.97811436577588E-02 
1159	 9.98019367091784E-02 
1160	 9.98063114638484E-02 
1161	 9.98039568644863E-02 
1162	 9.98098811692942E-02 
1163	 9.98231905608176E-02 
1164	 9.98277196675607E-02 
1165	 0.09983305111202 
1166	 0.099844050836979 
1167	 0.099820287271216 
1168	 9.97999314632148E-02 
1169	 9.98050023117575E-02 
1170	 9.98197485829775E-02 
1171	 9.98294019035398E-02 
1172	 9.98631827295228E-02 
1173	 9.98739447795615E-02 
1174	 9.98627816403023E-02 
1175	 9.98681435642415E-02 
1176	 0.099875601369575 
1177	 9.98861258603876E-02 
1178	 9.99070485451496E-02 
1179	 9.99180528644795E-02 
1180	 9.99193465878796E-02 
1181	 9.99330873026299E-02 
1182	 9.99562732530297E-02 
1183	 9.99664501817012E-02 
1184	 9.99824572746053E-02 
1185	 0.100002813558275 
1186	 0.100028497491275 
1187	 0.100055610252382 
1188	 0.100079556447911 
1189	 0.100114124247133 
1190	 0.100138077992473 
1191	 0.100150646162587 
1192	 0.100166013837684 
1193	 0.10017484638162 
1194	 0.100195360593454 
1195	 0.100217270883493 
1196	 0.100244216371974 
1197	 0.10029463752482 
1198	 0.100325697419817 
1199	 0.100349509027049 
1200	 0.100366098329084 
1201	 0.100384106519243 
1202	 0.100386117539152 
1203	 0.100408254499036 
1204	 0.100438260237263 
1205	 0.100472007876828 
1206	 0.100526635465318 
1207	 0.100554521649798 
1208	 0.100566104586605 
1209	 0.100592146076103 
1210	 0.100603309139085 
1211	 0.100630978080013 
1212	 0.100695124446271 
1213	 0.100730479533686 
1214	 0.100746042192435 
1215	 0.100772378803641 
1216	 0.100797269545777 
1217	 0.100814281447111 
1218	 0.100829396562364 
1219	 0.100850272796505 
1220	 0.100866604270419 
1221	 0.10086492402092 
1222	 0.100883426555562 
1223	 0.100915227257934 
1224	 0.100944829607037 
1225	 0.100990423629613 
1226	 0.101013951904624 
1227	 0.101020765151705 
1228	 0.101040492463563 
1229	 0.101049924848916 
1230	 0.101068603620814 
1231	 0.101105153826156 
1232	 0.101136748671307 
1233	 0.101167534072365 
1234	 0.101199344447618 
1235	 0.101220800530934 
1236	 0.101239646623636 
1237	 0.101255102113545 
1238	 0.101256660958227 
1239	 0.101271254174086 
1240	 0.10129531864872 
1241	 0.101309057624731 
1242	 0.10131154890216 
1243	 0.101332536293464 
1244	 0.101358190430196 
1245	 0.101384255741925 
1246	 0.10143026234331 
1247	 0.101465025266749 
1248	 0.101495234543539 
1249	 0.101518214535638 
1250	 0.10153156593403 
1251	 0.10155388315339 
1252	 0.1015656288398 
1253	 0.101566795217279 
1254	 0.101573291409624 
1255	 0.101578345058803 
1256	 0.101583738633836 
1257	 0.101590721465861 
1258	 0.101593730802156 
1259	 0.101592980163538 
1260	 0.10159722875425 
1261	 0.1016070535018 
1262	 0.101605516035722 
1263	 0.101589520741591 
1264	 0.101592890359403 
1265	 0.101608635615177 
1266	 0.101609283848822 
1267	 0.10161010298185 
1268	 0.10162060379632 
1269	 0.10162441212546 
1270	 0.101604326900539 
1271	 0.10161498344088 
1272	 0.101649919287744 
1273	 0.101668814313366 
1274	 0.101682313493845 
1275	 0.101711098561192 
1276	 0.101746514457543 
1277	 0.10178009294537 
1278	 0.101827280286521 
1279	 0.101864451236862 
1280	 0.101878446176035 
1281	 0.101919609858288 
1282	 0.101980700524491 
1283	 0.102035479877872 
1284	 0.102098336486687 
1285	 0.102170577826532 
1286	 0.10222494111747 
1287	 0.102262521401721 
1288	 0.102330097287239 
1289	 0.102414244249389 
1290	 0.10248299886506 
1291	 0.102549309319418 
1292	 0.102635196422489 
1293	 0.102720435008024 
1294	 0.10281125243175 
1295	 0.102937799259835 
1296	 0.103035393924802 
1297	 0.103107012678747 
1298	 0.103192537240768 
1299	 0.103278944946259 
1300	 0.103364300021278 
1301	 0.103456021022456 
1302	 0.103542179260109 
1303	 0.103623685976965 
1304	 0.103703807856815 
1305	 0.103785903016376 
1306	 0.103859380970164 
1307	 0.10392185651701 
1308	 0.10397174361307 
1309	 0.104022441818426 
1310	 0.104065175452828 
1311	 0.104103521574401 
1312	 0.104138771973866 
1313	 0.104175103862637 
1314	 0.104196883822578 
1315	 0.104236909128517 
1316	 0.104298279262913 
1317	 0.104332278914058 
1318	 0.104355001493916 
1319	 0.104383069375202 
1320	 0.104400688159875 
1321	 0.104422838610767 
1322	 0.104455868378439 
1323	 0.104486523295403 
1324	 0.104492378736937 
1325	 0.104485159586637 
1326	 0.104468003437431 
1327	 0.104448050526776 
1328	 0.104450336313337 
1329	 0.104431685324206 
1330	 0.104414934233889 
1331	 0.104399371835356 
1332	 0.10438175057606 
1333	 0.104359516747145 
1334	 0.104335041173638 
1335	 0.104305465595319 
1336	 0.104286425734513 
1337	 0.104270668999007 
1338	 0.104247169230245 
1339	 0.104238239452412 
1340	 0.10420763349373 
1341	 0.104144710255867 
1342	 0.104105820081998 
1343	 0.104072483824003 
1344	 0.104041651346714 
1345	 0.104002950528995 
1346	 0.103972340279867 
1347	 0.103932261677371 
1348	 0.103876714455009 
1349	 0.103830824668005 
1350	 0.103781506618618 
1351	 0.103713973728666 
1352	 0.103622095608414 
1353	 0.103550820438107 
1354	 0.103475911272893 
1355	 0.10340533271016 
1356	 0.103346431009128 
1357	 0.103285280110469 
1358	 0.103209669601463 
1359	 0.103157225273501 
1360	 0.103116727227952 
1361	 0.103080676780939 
1362	 0.103056952397391 
1363	 0.103041957178722 
1364	 0.103030933132284 
1365	 0.103032203307729 
1366	 0.103052581835683 
1367	 0.103064242095095 
1368	 0.103083290043532 
1369	 0.103105331056168 
1370	 0.103133656694133 
1371	 0.103147951760876 
1372	 0.10313960247759 
1373	 0.103127943279673 
1374	 0.103103844941716 
1375	 0.103058381348645 
1376	 0.103010875024074 
1377	 0.102966175412537 
1378	 0.102897749529396 
1379	 0.102786256466144 
1380	 0.102721539037356 
1381	 0.102656921095861 
1382	 0.102613070680045 
1383	 0.102607372573737 
1384	 0.102592706021904 
1385	 0.102587635446753 
1386	 0.10257517958092 
1387	 0.102562388142674 
1388	 0.102549435999033 
1389	 0.102535888117443 
1390	 0.102519164377836 
1391	 0.102492277932785 
1392	 0.10246375215908 
1393	 0.102408515726339 
1394	 0.102343528746682 
1395	 0.102291181072811 
1396	 0.102230955946607 
1397	 0.102185354479879 
1398	 0.102153303350894 
1399	 0.102115893632523 
1400	 0.10208478003396 
1401	 0.102046133834432 
1402	 0.101993192277361 
1403	 0.101964544853833 
1404	 0.101945296178607 
1405	 0.101925138245554 
1406	 0.101926521456374 
1407	 0.101913041044668 
1408	 0.101884092884989 
1409	 0.101865807439119 
1410	 0.101842675668428 
1411	 0.101835123703824 
1412	 0.101833015207514 
1413	 0.101846098220783 
1414	 0.101874785327114 
1415	 0.101888537974246 
1416	 0.101899642660277 
1417	 0.101915847650004 
1418	 0.101918303771177 
1419	 0.101924856147311 
1420	 0.101952470681179 
1421	 0.10197242801391 
1422	 0.102006601429726 
1423	 0.102061199876032 
1424	 0.102084231372037 
1425	 0.102093247901227 
1426	 0.102106312400733 
1427	 0.102095520102564 
1428	 0.102108529500703 
1429	 0.102130946230183 
1430	 0.102156896360488 
1431	 0.102202479614598 
1432	 0.10223080046956 
1433	 0.102258588300762 
1434	 0.102281868982347 
1435	 0.102283569372198 
1436	 0.102300545315729 
1437	 0.102326464679442 
1438	 0.102352623728602 
1439	 0.10238691277939 
1440	 0.102420075832511 
1441	 0.102440893256972 
1442	 0.102452154954589 
1443	 0.102462073267559 
1444	 0.102475215686179 
1445	 0.102494692019441 
1446	 0.102511814026979 
1447	 0.102534869960661 
1448	 0.102570561461277 
1449	 0.102603906366554 
1450	 0.102630234106533 
1451	 0.102651295117315 
1452	 0.102652754156183 
1453	 0.102684305282998 
1454	 0.10273277275844 
1455	 0.102763706637981 
1456	 0.102811897913496 
1457	 0.10283135904499 
1458	 0.102817268321311 
1459	 0.102825398030292 
1460	 0.102829855346916 
1461	 0.102842739591996 
1462	 0.10286866573006 
1463	 0.102887586810245 
1464	 0.102910177668086 
1465	 0.102926877565328 
1466	 0.102937502055695 
1467	 0.102951784729775 
1468	 0.102957934233908 
1469	 0.102975580822987 
1470	 0.103005546012066 
1471	 0.103028682222201 
1472	 0.103045815115705 
1473	 0.103065743602592 
1474	 0.103077285500391 
1475	 0.10308303738165 
1476	 0.103099364860228 
1477	 0.103124604406982 
1478	 0.103152128471534 
1479	 0.103179381042683 
1480	 0.103212392929623 
1481	 0.103244368473347 
1482	 0.103269166680167 
1483	 0.10328613130613 
1484	 0.103313641487766 
1485	 0.103341960247078 
1486	 0.103368748045087 
1487	 0.103402546207717 
1488	 0.10343300868343 
1489	 0.103459137709273 
1490	 0.103480332055649 
1491	 0.10350257981267 
1492	 0.103524222953554 
1493	 0.103533205471049 
1494	 0.103557885395543 
1495	 0.103590626877712 
1496	 0.103622177594219 
1497	 0.103665650073603 
1498	 0.103696576128208 
1499	 0.103725029501895 
1500	 0.103752047553533 
1501	 0.103774522158579 
1502	 0.103790754756985 
1503	 0.10380643556015 
1504	 0.103808789750363 
1505	 0.103813749894944 
1506	 0.103827596565272 
1507	 0.103851992318197 
1508	 0.103882056849026 
1509	 0.103904516511206 
1510	 0.103921919653975 
1511	 0.103924891533977 
1512	 0.103929289914333 
1513	 0.103938806810785 
1514	 0.103941058791092 
1515	 0.103974792903642 
1516	 0.104012788183437 
1517	 0.104034272751924 
1518	 0.104063264786488 
1519	 0.104073718175397 
1520	 0.104051615799827 
1521	 0.104063225899471 
1522	 0.104083462623244 
1523	 0.104105829981617 
1524	 0.104148915595602 
1525	 0.104171819149854 
1526	 0.10418460531685 
1527	 0.104198921098695 
1528	 0.104200877443723 
1529	 0.104220541059522 
1530	 0.10425924331103 
1531	 0.104275873498876 
1532	 0.104290274607807 
1533	 0.104302339648452 
1534	 0.104290462710119 
1535	 0.104296828904895 
1536	 0.104314161315584 
1537	 0.104333380785806 
1538	 0.104367067960538 
1539	 0.104385314996421 
1540	 0.104397670142982 
1541	 0.10441319390328 
1542	 0.104415296962322 
1543	 0.104427011348765 
1544	 0.104449634349456 
1545	 0.104469120380795 
1546	 0.104482829563501 
1547	 0.104512326913045 
1548	 0.104539006366982 
1549	 0.104559690549101 
1550	 0.104572310209316 
1551	 0.104576653243604 
1552	 0.104589422918394 
1553	 0.104601943070222 
1554	 0.104626479002243 
1555	 0.104645001753038 
1556	 0.104651928552508 
1557	 0.104667874678029 
1558	 0.104668622249374 
1559	 0.104674430831357 
1560	 0.104677879030961 
1561	 0.104676219121012 
1562	 0.104674850427693 
1563	 0.104669439414034 
1564	 0.104677104408894 
1565	 0.104694767324027 
1566	 0.104695740201716 
1567	 0.104697251827227 
1568	 0.104702880467281 
1569	 0.104692507741426 
1570	 0.104697820606957 
1571	 0.10472508614838 
1572	 0.10473536012808 
1573	 0.104734546927592 
1574	 0.104746650662531 
1575	 0.104765164429084 
1576	 0.104773497532098 
1577	 0.104787540739254 
1578	 0.104787819237116 
1579	 0.104769940491847 
1580	 0.104763877424155 
1581	 0.104753455737956 
1582	 0.104754984385192 
1583	 0.104772438363366 
1584	 0.104774989852712 
1585	 0.104775639146147 
1586	 0.10477539742053 
1587	 0.104758631959397 
1588	 0.104760837178027 
1589	 0.104779210057235 
1590	 0.104789005635678 
1591	 0.104810370329252 
1592	 0.104815506111719 
1593	 0.104803208874279 
1594	 0.104801171127907 
1595	 0.104796928613834 
1596	 0.104791717670637 
1597	 0.104791599779872 
1598	 0.104788289499948 
1599	 0.104781721717196 
1600	 0.104772835169525 
1601	 0.104755457383252 
1602	 0.104750959106242 
1603	 0.104755759724529 
1604	 0.104753545511206 
1605	 0.104755348260293 
1606	 0.10475951308464 
1607	 0.104760575465747 
1608	 0.104756277649117 
1609	 0.104768733702022 
1610	 0.104770610163118 
1611	 0.104758920736555 
1612	 0.104755103943078 
1613	 0.104754223999905 
1614	 0.104751104939187 
1615	 0.10476057899111 
1616	 0.10477317075844 
1617	 0.104784352228627 
1618	 0.10479594802183 
1619	 0.104795319249758 
1620	 0.104796326693063 
1621	 0.104790194243509 
1622	 0.104774765907983 
1623	 0.104764089300857 
1624	 0.104749908644596 
1625	 0.104743088675914 
1626	 0.104736611552061 
1627	 0.104738667686323 
1628	 0.104754764581175 
1629	 0.10475131842663 
1630	 0.104745003715067 
1631	 0.104735828666985 
1632	 0.104708386331379 
1633	 0.104704703182014 
1634	 0.104713745758262 
1635	 0.104717423585946 
1636	 0.1047258454198 
1637	 0.104735087681096 
1638	 0.104746724113132 
1639	 0.104751685597282 
1640	 0.104763106120667 
1641	 0.104759990615327 
1642	 0.104734221617494 
1643	 0.104734522052207 
1644	 0.104744228179398 
1645	 0.104746229596582 
1646	 0.104754816107443 
1647	 0.104766497533051 
1648	 0.104775135464712 
1649	 0.104781027420052 
1650	 0.104800783289742 
1651	 0.104801041179211 
1652	 0.104782336632305 
1653	 0.104769578511422 
1654	 0.1047489732763 
1655	 0.104742813503591 
1656	 0.104742311787596 
1657	 0.104739162530331 
1658	 0.10475001298388 
1659	 0.104742243351184 
1660	 0.104717204206159 
1661	 0.104706639538811 
1662	 0.104693352236068 
1663	 0.104687461844998 
1664	 0.104700263223569 
1665	 0.104690203641895 
1666	 0.104664663323564 
1667	 0.104654541465724 
1668	 0.104644999670415 
1669	 0.10462865634877 
1670	 0.104620335605339 
1671	 0.104605255646855 
1672	 0.104559584184102 
1673	 0.104558148225541 
1674	 0.104595867017848 
1675	 0.104599175154762 
1676	 0.104615728994107 
1677	 0.104606918212291 
1678	 0.104560112500123 
1679	 0.104532373742011 
1680	 0.104502939884415 
1681	 0.104481640305238 
1682	 0.104463016194328 
1683	 0.104449664185439 
1684	 0.104440617996779 
1685	 0.104441703056987 
1686	 0.104450864998062 
1687	 0.104459320534698 
1688	 0.104485194262074 
1689	 0.104491681149307 
1690	 0.104487832248801 
1691	 0.104486153159622 
1692	 0.104476092581561 
1693	 0.104468154419491 
1694	 0.104463895472057 
1695	 0.104452182377483 
1696	 0.104438900605497 
1697	 0.104417666452843 
1698	 0.104382830520155 
1699	 0.104362852302221 
1700	 0.104331230400473 
1701	 0.10432908728101 
1702	 0.104356733705667 
1703	 0.104367194018067 
1704	 0.104392876863018 
1705	 0.104400089823443 
1706	 0.10439004097406 
1707	 0.104386193457632 
1708	 0.104377775121508 
1709	 0.1043731747775 
1710	 0.104372032467703 
1711	 0.10436422670239 
1712	 0.104353883353296 
1713	 0.10434402248999 
1714	 0.104333104730917 
1715	 0.104317131084884 
1716	 0.10429810990652 
1717	 0.104282785561485 
1718	 0.104261886282577 
1719	 0.104243542322659 
1720	 0.104225779991983 
1721	 0.104219763678119 
1722	 0.104228131629437 
1723	 0.104211101378906 
1724	 0.104190974498435 
1725	 0.104171528191748 
1726	 0.10412937790423 
1727	 0.104105063832392 
1728	 0.104098881601261 
1729	 0.104085795741794 
1730	 0.104060349647182 
1731	 0.104057243317211 
1732	 0.104077510470635 
1733	 0.10406684166996 
1734	 0.104054746906341 
1735	 0.104035291868766 
1736	 0.103984054860017 
1737	 0.103971229695688 
1738	 0.103995741962793 
1739	 0.103966876763646 
1740	 0.103930486300455 
1741	 0.10387963899436 
1742	 0.103765006065153 
1743	 0.103734323579489 
1744	 0.103749757484894 
1745	 0.103737096477698 
1746	 0.103750099723881 
1747	 0.103748219518621 
1748	 0.103724258948529 
1749	 0.103694980331666 
1750	 0.103673112219742 
1751	 0.10363848618468 
1752	 0.103574102789715 
1753	 0.103542841795511 
1754	 0.103542179709484 
1755	 0.103510065938448 
1756	 0.103483547907976 
1757	 0.103462358032896 
1758	 0.103431808131295 
1759	 0.103410566513369 
1760	 0.103397652646913 
1761	 0.103401203377655 
1762	 0.103384009199517 
1763	 0.103377813622151 
1764	 0.103388525157269 
1765	 0.103360478655549 
1766	 0.10332700327869 
1767	 0.103295921422188 
1768	 0.103269533101297 
1769	 0.103277861278087 
1770	 0.103290652517726 
1771	 0.103269270959872 
1772	 0.103255751656413 
1773	 0.10323255562893 
1774	 0.10318422053293 
1775	 0.103163086309712 
1776	 0.103133856851681 
1777	 0.103122332433269 
1778	 0.10313051702183 
1779	 0.103108982930285 
1780	 0.103111245268486 
1781	 0.103090512896738 
1782	 0.103047811875655 
1783	 0.103070451659101 
1784	 0.103057570417524 
1785	 0.103025206415043 
1786	 0.103004862503502 
1787	 0.102973496956517 
1788	 0.102942130606437 
1789	 0.102919706401566 
1790	 0.102911894474183 
1791	 0.102899296850579 
1792	 0.102895224823605 
1793	 0.102918327666586 
1794	 0.102910481461398 
1795	 0.102878978010409 
1796	 0.102868995616553 
1797	 0.102861555236437 
1798	 0.102855201219421 
1799	 0.102857180128415 
1800	 0.102863510718181 
1801	 9.92348913498729E-02 
1802	 9.93163498578503E-02 
1803	 9.94447017042737E-02 
1804	 9.95921845297114E-02 
1805	 9.97100378228153E-02 
1806	 9.98196410250768E-02 
1807	 9.99376986601933E-02 
1808	 0.100035753079098 
1809	 0.100128158419186 
1810	 0.100191735382942 
1811	 0.100241067278009 
1812	 0.100272980589954 
1813	 0.100263484968 
1814	 0.10027196673311 
1815	 0.100297560694669 
1816	 0.10031180708824 
1817	 0.100334115982179 
1818	 0.100376497591024 
1819	 0.100392279696269 
1820	 0.100393131840771 
1821	 0.100405943772195 
1822	 0.100398690586074 
1823	 0.100399869864931 
1824	 0.100385000551892 
1825	 0.100387782718974 
1826	 0.100435828874191 
1827	 0.100460323636693 
1828	 0.100473519870664 
1829	 0.100502479832389 
1830	 0.100507682847758 
1831	 0.100470888857154 
1832	 0.100461535365726 
1833	 0.100490047349941 
1834	 0.100473200012061 
1835	 0.100442294404959 
1836	 0.100432351212155 
1837	 0.100399420255336 
1838	 0.100371179809901 
1839	 0.100382127199133 
1840	 0.100434880114309 
1841	 0.100472315995778 
1842	 0.100502247856186 
1843	 0.100560860468108 
1844	 0.100594310826416 
1845	 0.100606742137973 
1846	 0.100633584670369 
1847	 0.100664239199625 
1848	 0.100693894822192 
1849	 0.100738501357885 
1850	 0.100777468066001 
1851	 0.100823593777909 
1852	 0.100858768497831 
1853	 0.100883101448886 
1854	 0.100893729944735 
1855	 0.100920160176521 
1856	 0.100948757516785 
1857	 0.100982809393681 
1858	 0.101013034725411 
1859	 0.101017818080954 
1860	 0.101016705823438 
1861	 0.101000375635281 
1862	 0.100978515760897 
1863	 0.10096330485936 
1864	 0.100928009302932 
1865	 0.100870184919137 
1866	 0.100790500587625 
1867	 0.10070420343454 
1868	 0.100628612104238 
1869	 0.100551791497742 
1870	 0.100492637487103 
1871	 0.100463823163258 
1872	 0.100452066723442 
1873	 0.100455698048773 
1874	 0.100496275447426 
1875	 0.100569666803148 
1876	 0.100602733149019 
1877	 0.1006173731239 
1878	 0.100635501134027 
1879	 0.100625031470015 
1880	 0.100597095786776 
1881	 0.100577025147954 
1882	 0.100511264799785 
1883	 0.10041505266812 
1884	 0.100272265025097 
1885	 0.100130402739152 
1886	 9.99722307796681E-02 
1887	 9.98242254780054E-02 
1888	 9.96908074365317E-02 
1889	 9.95259786658165E-02 
1890	 9.93603229159527E-02 
1891	 9.91838212364978E-02 
1892	 9.89851170131405E-02 
1893	 9.87898717672703E-02 
1894	 9.86034280949545E-02 
1895	 9.83843451524689E-02 
1896	 9.81545312346181E-02 
1897	 9.79227921944944E-02 
1898	 9.76728891177977E-02 
1899	 0.097432434635205 
1900	 0.097199582537274 
1901	 9.69800899016897E-02 
1902	 9.67791722554654E-02 
1903	 0.096595584842453 
1904	 9.64181831749868E-02 
1905	 9.62554495000738E-02 
1906	 9.61090797015854E-02 
1907	 9.59659467379423E-02 
1908	 9.58452708480935E-02 
1909	 0.095737435274176 
1910	 9.56229021452975E-02 
1911	 9.54768788491314E-02 
1912	 9.53385486373846E-02 
1913	 9.52069650655119E-02 
1914	 9.50540629290502E-02 
1915	 9.49340972717593E-02 
1916	 9.48448162244205E-02 
1917	 9.47467008941368E-02 
1918	 9.46442768538887E-02 
1919	 9.45497626016636E-02 
1920	 9.44734857211211E-02 
1921	 9.44224451776806E-02 
1922	 0.094367383932935 
1923	 0.094356131488753 
1924	 9.43446179518622E-02 
1925	 9.43333432615932E-02 
1926	 9.43254738161594E-02 
1927	 9.43440155312169E-02 
1928	 9.43523430013853E-02 
1929	 0.094325396988506 
1930	 9.43162445142711E-02 
1931	 9.43189397945298E-02 
1932	 0.0943094282633 
1933	 9.42996433718686E-02 
1934	 9.43018457090541E-02 
1935	 9.43076267202815E-02 
1936	 9.43068032990721E-02 
1937	 9.43174855254004E-02 
1938	 9.43478469000041E-02 
1939	 9.43694444418043E-02 
1940	 0.094384195440093 
1941	 9.44065058322926E-02 
1942	 9.44397995957148E-02 
1943	 9.44819979813278E-02 
1944	 9.45332826011184E-02 
1945	 9.45846207933168E-02 
1946	 9.46313398625354E-02 
1947	 9.46656883942758E-02 
1948	 0.094723915400135 
1949	 9.47955254399124E-02 
1950	 9.48593643172132E-02 
1951	 9.49476834935905E-02 
1952	 0.095008802906376 
1953	 9.50388215705514E-02 
1954	 9.50680885478785E-02 
1955	 9.50909423296184E-02 
1956	 9.51294546404599E-02 
1957	 0.095188169342808 
1958	 9.52786498098316E-02 
1959	 9.53493892339652E-02 
1960	 9.54238298120904E-02 
1961	 9.55018058613075E-02 
1962	 9.55706432199898E-02 
1963	 9.56531950702996E-02 
1964	 9.57494683640966E-02 
1965	 0.095849897915467 
1966	 9.59493675049361E-02 
1967	 9.60382319723604E-02 
1968	 9.61237919650229E-02 
1969	 9.62030864072582E-02 
1970	 9.62789805525704E-02 
1971	 9.63466675863305E-02 
1972	 9.64196922660388E-02 
1973	 9.64949726977127E-02 
1974	 9.65651868027342E-02 
1975	 9.66249738266436E-02 
1976	 9.67013936080472E-02 
1977	 9.67866950485739E-02 
1978	 0.096865479127608 
1979	 0.096957656197734 
1980	 9.70513402354872E-02 
1981	 9.71302651759919E-02 
1982	 9.71933213342067E-02 
1983	 9.72638419739031E-02 
1984	 9.73287002308806E-02 
1985	 9.73943663754737E-02 
1986	 9.74640600581962E-02 
1987	 9.75284787966268E-02 
1988	 9.75866165887987E-02 
1989	 9.76520971570543E-02 
1990	 9.77094880323615E-02 
1991	 0.097761751075943 
1992	 9.78330084117905E-02 
1993	 9.79176401070368E-02 
1994	 9.79916942493291E-02 
1995	 9.80778337026563E-02 
1996	 9.81521241182474E-02 
1997	 9.82084858885463E-02 
1998	 9.82782682945676E-02 
1999	 9.83563601207081E-02 
2000	 9.84283441362939E-02 
2001	 9.85068914910442E-02 
2002	 9.85727701546498E-02 
2003	 0.09862815644248 
2004	 9.86989320127447E-02 
2005	 9.87689095020006E-02 
2006	 9.88403072208515E-02 
2007	 9.89124960316046E-02 
2008	 9.89896875991062E-02 
2009	 9.90644619436016E-02 
2010	 9.91478414747742E-02 
2011	 9.92137129857171E-02 
2012	 9.92607371449635E-02 
2013	 9.93225850153412E-02 
2014	 9.93724779895342E-02 
2015	 0.09944177658067 
2016	 9.95089933605549E-02 
2017	 9.95870075706085E-02 
2018	 9.96654038605617E-02 
2019	 9.97418772972609E-02 
2020	 9.98148378364922E-02 
2021	 9.99071049224081E-02 
2022	 9.99759545857171E-02 
2023	 0.100018866462541 
2024	 0.100075264644099 
2025	 0.100119386658185 
2026	 0.100177928612681 
2027	 0.1002395189064 
2028	 0.100323813442067 
2029	 0.100401758913323 
2030	 0.100487780664834 
2031	 0.100572589866558 
2032	 0.100661378285539 
2033	 0.100744796746588 
2034	 0.100834779453681 
2035	 0.10091329103387 
2036	 0.100987100879163 
2037	 0.101052971153074 
2038	 0.101102411348738 
2039	 0.101160462813946 
2040	 0.101223766713941 
2041	 0.101277447994017 
2042	 0.101317858327136 
2043	 0.101357298710966 
2044	 0.101393168732233 
2045	 0.101405968224403 
2046	 0.101441120791398 
2047	 0.10147993551924 
2048	 0.101536756242399 
2049	 0.10161660966978 
2050	 0.101676330857838 
2051	 0.101742739888727 
2052	 0.10180690731506 
2053	 0.101868548377317 
2054	 0.101913646635519 
2055	 0.101952315194495 
2056	 0.101986754885603 
2057	 0.102028080732917 
2058	 0.10204730880618 
2059	 0.102095093840076 
2060	 0.102172341728372 
2061	 0.102230016528347 
2062	 0.102290464984241 
2063	 0.102338213809885 
2064	 0.102377719010559 
2065	 0.102416517170178 
2066	 0.102443988547975 
2067	 0.102475536673326 
2068	 0.102510889811661 
2069	 0.102535442993031 
2070	 0.102576503396829 
2071	 0.102619761481563 
2072	 0.102674099792045 
2073	 0.102750928253698 
2074	 0.102800035866112 
2075	 0.10283766465981 
2076	 0.102887612376943 
2077	 0.102920830637771 
2078	 0.10297697975813 
2079	 0.103076247518804 
2080	 0.103132659586322 
2081	 0.103178012050882 
2082	 0.103216529539397 
2083	 0.103218444893217 
2084	 0.103233961871548 
2085	 0.103264775503224 
2086	 0.103306228431372 
2087	 0.103343380567237 
2088	 0.103390446604308 
2089	 0.103434273159036 
2090	 0.103467872610372 
2091	 0.1035170376674 
2092	 0.103583793514221 
2093	 0.103639641211224 
2094	 0.103701643506968 
2095	 0.103755139426532 
2096	 0.103800183692251 
2097	 0.103843910447549 
2098	 0.103881510176057 
2099	 0.103923625527537 
2100	 0.103956815424714 
2101	 0.10398191774316 
2102	 0.104015553302982 
2103	 0.104039434821729 
2104	 0.104085600736215 
2105	 0.10414469475433 
2106	 0.104206861051196 
2107	 0.104296729491043 
2108	 0.104357871313959 
2109	 0.104401524056418 
2110	 0.104458344529735 
2111	 0.104517302295991 
2112	 0.104563173724642 
2113	 0.104612986513077 
2114	 0.104648957492238 
2115	 0.10470538935127 
2116	 0.10475051142029 
2117	 0.104810909681712 
2118	 0.104911830340973 
2119	 0.104964466630099 
2120	 0.105002036913483 
2121	 0.105022332577904 
2122	 0.104999743280453 
2123	 0.105012478311262 
2124	 0.10502684279139 
2125	 0.10504272955493 
2126	 0.105078122053836 
2127	 0.105106802018369 
2128	 0.105130496635418 
2129	 0.105149964951746 
2130	 0.105155053104573 
2131	 0.105193640422073 
2132	 0.105210446990128 
2133	 0.105219106555783 
2134	 0.105228127423268 
2135	 0.10523176595771 
2136	 0.105243184457701 
2137	 0.105249417643556 
2138	 0.105267609453514 
2139	 0.105336569538789 
2140	 0.105327739446356 
2141	 0.105272494508552 
2142	 0.105233686619015 
2143	 0.105128775789728 
2144	 0.105074476065815 
2145	 0.105087205536542 
2146	 0.105058727780336 
2147	 0.105019934689448 
2148	 0.104986760394494 
2149	 0.104927893103299 
2150	 0.10483267463138 
2151	 0.104765158811261 
2152	 0.104690002104117 
2153	 0.104637094255969 
2154	 0.10461298572982 
2155	 0.104560509357265 
2156	 0.104512834390172 
2157	 0.104452164795026 
2158	 0.104356269841386 
2159	 0.104285001658784 
2160	 0.104235097609636 
2161	 0.104165363892598 
2162	 0.104105908517035 
2163	 0.104026301891648 
2164	 0.10391396451495 
2165	 0.103806666877901 
2166	 0.103715148048725 
2167	 0.103616218455451 
2168	 0.103539411109176 
2169	 0.103491052404761 
2170	 0.103422900635416 
2171	 0.103360750282708 
2172	 0.10328639531393 
2173	 0.103195765916356 
2174	 0.103120358468354 
2175	 0.103053627366829 
2176	 0.102971908359058 
2177	 0.102887084934872 
2178	 0.102805126646477 
2179	 0.102698294016923 
2180	 0.102618118798275 
2181	 0.102550958266164 
2182	 0.102497719285536 
2183	 0.102484502075002 
2184	 0.102448812950202 
2185	 0.102391503876846 
2186	 0.10232822380025 
2187	 0.102264221989841 
2188	 0.102172397518731 
2189	 0.102092547635119 
2190	 0.102018226069118 
2191	 0.101953192317898 
2192	 0.101878677591391 
2193	 0.101819951791282 
2194	 0.101784940656051 
2195	 0.101744798370749 
2196	 0.101710282392662 
2197	 0.101666657621634 
2198	 0.101634274011095 
2199	 0.101585706731471 
2200	 0.101494113280437 
2201	 0.101443610004084 
2202	 0.101424907211725 
2203	 0.101377090821133 
2204	 0.101352106187254 
2205	 0.101364174427466 
2206	 0.101337451175046 
2207	 0.10128388727841 
2208	 0.101257425200666 
2209	 0.101231823540662 
2210	 0.10121330421563 
2211	 0.101207364301282 
2212	 0.101204573808616 
2213	 0.101194225670336 
2214	 0.101206262098062 
2215	 0.101254097161509 
2216	 0.101270461447857 
2217	 0.101283386909349 
2218	 0.1012965067934 
2219	 0.101298996045881 
2220	 0.101293614480573 
2221	 0.101275145291054 
2222	 0.101277507542937 
2223	 0.101284757454647 
2224	 0.101257315127842 
2225	 0.101270136601238 
2226	 0.101315981589158 
2227	 0.101332768908133 
2228	 0.10134727976299 
2229	 0.10136594959452 
2230	 0.101379689403318 
2231	 0.101392226749207 
2232	 0.101401157004081 
2233	 0.101423837722484 
2234	 0.101444241142861 
2235	 0.101472391683855 
2236	 0.101543453956091 
2237	 0.101564296401626 
2238	 0.101550113224298 
2239	 0.10155060935133 
2240	 0.10152055368006 
2241	 0.10151161779067 
2242	 0.101518752569095 
2243	 0.101535581179803 
2244	 0.101563067695438 
2245	 0.101601477623579 
2246	 0.101623255038513 
2247	 0.101619124274415 
2248	 0.101647347720934 
2249	 0.101678192542791 
2250	 0.101693274753667 
2251	 0.10172373699386 
2252	 0.101748550899981 
2253	 0.101752880336385 
2254	 0.10174422499106 
2255	 0.101739391103101 
2256	 0.101741641983558 
2257	 0.101713761858878 
2258	 0.101714574256578 
2259	 0.101751178340129 
2260	 0.101767661504643 
2261	 0.101765924994212 
2262	 0.101788673233867 
2263	 0.10183566846228 
2264	 0.101862638398317 
2265	 0.101890940265884 
2266	 0.101914229508508 
2267	 0.101930452508291 
2268	 0.101938670072992 
2269	 0.101936269049172 
2270	 0.101931738606868 
2271	 0.101967742612799 
2272	 0.102014718124984 
2273	 0.102091131334872 
2274	 0.102213964214219 
2275	 0.102258644132856 
2276	 0.102264540648614 
2277	 0.102265578956219 
2278	 0.102220635469752 
2279	 0.102214481843622 
2280	 0.102211817633846 
2281	 0.102222568198114 
2282	 0.102248890927938 
2283	 0.102266944509078 
2284	 0.10229486913398 
2285	 0.102312454740951 
2286	 0.10231116657084 
2287	 0.1023483745623 
2288	 0.10241218199424 
2289	 0.102452612326637 
2290	 0.102517172408508 
2291	 0.102543774320775 
2292	 0.102513167831374 
2293	 0.102518999805889 
2294	 0.102540653050735 
2295	 0.102561640338893 
2296	 0.102600968245549 
2297	 0.10262745935719 
2298	 0.102636614430187 
2299	 0.102635697458544 
2300	 0.10263798012163 
2301	 0.10264818393951 
2302	 0.102681665937924 
2303	 0.102694784378715 
2304	 0.102691059423169 
2305	 0.102712287401089 
2306	 0.102722981778989 
2307	 0.102732470656337 
2308	 0.10272495579882 
2309	 0.10270474543634 
2310	 0.102695854217948 
2311	 0.102667306059019 
2312	 0.102662006021317 
2313	 0.102681031985458 
2314	 0.102702006405498 
2315	 0.102717662719825 
2316	 0.102754651364991 
2317	 0.1028341449245 
2318	 0.102870307291043 
2319	 0.102905739704008 
2320	 0.102928520693208 
2321	 0.10290114670791 
2322	 0.102906967599245 
2323	 0.102931734467994 
2324	 0.102937450915794 
2325	 0.10293062934132 
2326	 0.102957737205811 
2327	 0.102991579796087 
2328	 0.103036181897938 
2329	 0.103106030668665 
2330	 0.10314562627646 
2331	 0.103145534829307 
2332	 0.103145345115292 
2333	 0.103123439645131 
2334	 0.103135614862708 
2335	 0.103191237079762 
2336	 0.103217711247131 
2337	 0.10321013956872 
2338	 0.103212079316984 
2339	 0.103191258679324 
2340	 0.103169798915724 
2341	 0.103243999008261 
2342	 0.103310619383495 
2343	 0.103400905254623 
2344	 0.103495832585621 
2345	 0.103524514726112 
2346	 0.103517225531085 
2347	 0.1035219201761 
2348	 0.103463636553178 
2349	 0.10346344656067 
2350	 0.103509570752928 
2351	 0.103501441537746 
2352	 0.103476527572263 
2353	 0.103462839909503 
2354	 0.103442084422577 
2355	 0.103396075228101 
2356	 0.103330136472489 
2357	 0.103304324580998 
2358	 0.103285624312224 
2359	 0.103261197681616 
2360	 0.103267734862359 
2361	 0.103244249956036 
2362	 0.103168569891448 
2363	 0.103115500710581 
2364	 0.103052185148025 
2365	 0.103056733671222 
2366	 0.103139200962126 
2367	 0.103158138213109 
2368	 0.103172231754439 
2369	 0.103219189955561 
2370	 0.103283535835264 
2371	 0.103244967222563 
2372	 0.10321284728725 
2373	 0.103240331812039 
2374	 0.103183663606882 
2375	 0.103105351902254 
2376	 0.103135490194168 
2377	 0.103107195666701 
2378	 0.103066145550937 
2379	 0.103095152064107 
2380	 0.103082767500952 
2381	 0.103057482683739 
2382	 0.102999887532369 
2383	 0.102906203868477 
2384	 0.102863129381293 
2385	 0.102849282456647 
2386	 0.102816390287505 
2387	 0.102792702982477 
2388	 0.10275547346852 
2389	 0.10270512683814 
2390	 0.102698991848614 
2391	 0.102653204351125 
2392	 0.102633352448566 
2393	 0.102676387267115 
2394	 0.102626993997842 
2395	 0.102554975873438 
2396	 0.102477088189318 
2397	 0.102423928986791 
2398	 0.102454645681103 
2399	 0.102497298397838 
2400	 0.102559968011857 
2401	 0.102529189893317 
2402	 0.102401190252806 
2403	 0.102313256192226 
2404	 0.102225372854096 
2405	 0.102164091087135 
2406	 0.102146799370491 
2407	 0.102187463167098 
2408	 0.102215334931941 
2409	 0.102131256613954 
2410	 0.102057402782372 
2411	 0.101907073145789 
2412	 0.10177783276763 
2413	 0.101755177437276 
2414	 0.101660534826865 
2415	 0.101705019934652 
2416	 0.101715155438966 
2417	 0.101672868309936 
2418	 0.101687172456321 
2419	 0.101773276294171 
2420	 0.101787616525803 
2421	 0.101837936106778 
2422	 0.101828701788523 
2423	 0.101743285461137 
2424	 0.101676212655869 
2425	 0.101618136397815 
2426	 0.101508840786529 
2427	 0.10131269900685 
2428	 0.101222566746604 
2429	 0.101161312510378 
2430	 0.101069612462722 
2431	 0.101030108196565 
2432	 0.101005635760794 
2433	 0.100915103597853 
2434	 0.100884642901924 
2435	 0.100983244148316 
2436	 0.100976579180756 
2437	 0.10095796327283 
2438	 0.100878262002905 
2439	 0.100694676939332 
2440	 0.100563192119398 
2441	 0.100346742519839 
2442	 0.100265464916864 
2443	 0.10030228841181 
2444	 0.100334614366992 
2445	 0.100492919481594 
2446	 0.100546325394645 
2447	 0.100508582943655 
2448	 0.100501093426544 
2449	 0.100499626151802 
2450	 0.100417530928386 
2451	 0.100289372783518 
2452	 0.100252431702218 
2453	 0.100206496256379 
2454	 0.100145375099327 
2455	 0.100150690928395 
2456	 0.100046240934596 
2457	 9.98237390636579E-02 
2458	 9.97255069879299E-02 
2459	 9.97025093665179E-02 
2460	 9.96316210938689E-02 
2461	 9.95728042317954E-02 
2462	 9.95062854953551E-02 
2463	 9.93856404472456E-02 
2464	 9.93124925205705E-02 
2465	 9.92666539539516E-02 
2466	 9.91653551407609E-02 
2467	 9.90680480398404E-02 
2468	 0.098921192767993 
2469	 9.87378083204157E-02 
2470	 9.85284850274636E-02 
2471	 9.84342009837457E-02 
2472	 9.85105922377064E-02 
2473	 0.098388884041872 
2474	 9.83351583425351E-02 
2475	 9.84495375405396E-02 
2476	 9.84034736587284E-02 
2477	 9.84471611410191E-02 
2478	 9.85422876997894E-02 
2479	 9.82964259160374E-02 
2480	 9.80037402172303E-02 
2481	 9.80978404563133E-02 
2482	 9.83188445505033E-02 
2483	 9.85280551540383E-02 
2484	 9.88737703502968E-02 
2485	 0.09892613607488 
2486	 9.86457214293599E-02 
2487	 0.098415596614326 
2488	 9.82373216495259E-02 
2489	 9.81953991538393E-02 
2490	 9.82388884363637E-02 
2491	 9.82353111640529E-02 
2492	 9.81561756680021E-02 
2493	 9.82186446613968E-02 
2494	 9.82523036649687E-02 
2495	 9.81526427430937E-02 
2496	 9.83164884645888E-02 
2497	 9.81932038394721E-02 
2498	 9.79822498832688E-02 
2499	 9.82348380816502E-02 
2500	 9.82169622307917E-02 
