Wavelength	LMW_1100005.asd
350	 4.26928147241393E-02 
351	 3.93957687019026E-02 
352	 3.23712722770633E-02 
353	 2.70460027587739E-02 
354	 2.97295998037491E-02 
355	 3.80060954294044E-02 
356	 4.36775006760264E-02 
357	 4.15635739805512E-02 
358	 4.30176047997867E-02 
359	 4.10722515005274E-02 
360	 3.65644034014441E-02 
361	 3.54347056014814E-02 
362	 0.03766527384067 
363	 3.93553767654525E-02 
364	 3.84478826086745E-02 
365	 3.63320750021032E-02 
366	 3.48036529952379E-02 
367	 3.40109797221039E-02 
368	 3.40289195146733E-02 
369	 3.75980935118641E-02 
370	 3.73883351226617E-02 
371	 3.48260299150321E-02 
372	 3.68269918074903E-02 
373	 3.89906881857062E-02 
374	 3.87212853006307E-02 
375	 3.66172222653955E-02 
376	 3.83153925292748E-02 
377	 3.87010944448411E-02 
378	 3.89957743653051E-02 
379	 4.12910291925688E-02 
380	 4.35943995798056E-02 
381	 4.32650106688348E-02 
382	 4.15186486098251E-02 
383	 4.21484850641884E-02 
384	 4.23557705481402E-02 
385	 4.13514318797219E-02 
386	 0.040183855314143 
387	 4.32049616498589E-02 
388	 4.27743356866773E-02 
389	 4.04040352404731E-02 
390	 0.039999504095073 
391	 4.12890933094035E-02 
392	 4.31809744853133E-02 
393	 4.51207331718473E-02 
394	 4.69691053559197E-02 
395	 4.57647000889743E-02 
396	 4.45895726665392E-02 
397	 4.52883639307722E-02 
398	 4.49010446450881E-02 
399	 4.48588209926943E-02 
400	 4.57025710326591E-02 
401	 4.72204380132222E-02 
402	 4.69637712790801E-02 
403	 4.70756403033964E-02 
404	 4.75854885656661E-02 
405	 4.62747644856456E-02 
406	 4.70094870511662E-02 
407	 4.84895657219049E-02 
408	 4.89478893945334E-02 
409	 4.79741338595628E-02 
410	 4.75749597034764E-02 
411	 4.76721379992235E-02 
412	 4.73538776878106E-02 
413	 4.75017136738914E-02 
414	 4.85158566885062E-02 
415	 4.97018627192503E-02 
416	 4.90685128769105E-02 
417	 4.83406382558164E-02 
418	 4.86640256404367E-02 
419	 5.00192376159367E-02 
420	 4.91203912209773E-02 
421	 0.048614234012193 
422	 4.87999303933304E-02 
423	 0.048474498510781 
424	 4.82282014632605E-02 
425	 4.85522459050941E-02 
426	 4.91969082236099E-02 
427	 4.85772470584069E-02 
428	 4.81332855323454E-02 
429	 4.80947960715635E-02 
430	 4.82684881002998E-02 
431	 4.85552052496833E-02 
432	 4.81435961037745E-02 
433	 4.74765492128691E-02 
434	 4.81048092129652E-02 
435	 4.84125046237218E-02 
436	 4.82086122579806E-02 
437	 4.77710968941696E-02 
438	 4.77901380357752E-02 
439	 4.79713909572713E-02 
440	 4.81095192581629E-02 
441	 4.80898074592486E-02 
442	 4.81643177114817E-02 
443	 4.84991764351482E-02 
444	 4.89044223155204E-02 
445	 4.86742590564167E-02 
446	 4.85602282737672E-02 
447	 4.85206693811255E-02 
448	 4.84121183845888E-02 
449	 4.87143412724278E-02 
450	 4.88049460020614E-02 
451	 4.87357513495656E-02 
452	 0.049104290184844 
453	 4.92389018131198E-02 
454	 4.90099628550957E-02 
455	 4.86178404568884E-02 
456	 4.88268045664924E-02 
457	 0.048928537768655 
458	 4.89635874735545E-02 
459	 4.92187364475195E-02 
460	 4.91161474109122E-02 
461	 4.90493149622953E-02 
462	 4.91881394596108E-02 
463	 4.92751467978742E-02 
464	 4.92621129714867E-02 
465	 4.92028226785181E-02 
466	 4.91596874828392E-02 
467	 4.90601114207729E-02 
468	 0.049015628581454 
469	 4.90146657951157E-02 
470	 4.89499614737425E-02 
471	 4.88746154709135E-02 
472	 4.89371375912958E-02 
473	 4.91158386546394E-02 
474	 4.89402145689689E-02 
475	 4.88389003773041E-02 
476	 4.88381483443761E-02 
477	 4.87993462204228E-02 
478	 0.048740052790112 
479	 4.88275656282021E-02 
480	 4.89816534818622E-02 
481	 4.87591410239175E-02 
482	 4.88712817520362E-02 
483	 0.049066917654249 
484	 4.89977326368804E-02 
485	 4.90916924733148E-02 
486	 4.90665398422875E-02 
487	 4.89354295389545E-02 
488	 4.89491718863026E-02 
489	 4.88201665804901E-02 
490	 4.88057310876696E-02 
491	 4.90290457011802E-02 
492	 4.91048929662929E-02 
493	 4.88333709800479E-02 
494	 4.84814259106963E-02 
495	 4.85081373013648E-02 
496	 4.88853546170737E-02 
497	 4.90212208599579E-02 
498	 4.88663540913868E-02 
499	 4.92634890808878E-02 
500	 4.91565466175468E-02 
501	 0.048792739870235 
502	 4.86948831984047E-02 
503	 4.87893823624002E-02 
504	 4.87739406653934E-02 
505	 4.86504384469566E-02 
506	 4.86916265696561E-02 
507	 4.86932778149387E-02 
508	 0.048755473188508 
509	 4.89107518535407E-02 
510	 4.88568503596392E-02 
511	 4.87991906023656E-02 
512	 4.88044451209252E-02 
513	 4.88574461231257E-02 
514	 4.89218995869304E-02 
515	 4.89273862856718E-02 
516	 4.88920081989116E-02 
517	 4.89943042884958E-02 
518	 4.90214567022661E-02 
519	 4.89630098690513E-02 
520	 4.88950015548983E-02 
521	 4.89471536396854E-02 
522	 4.90702858131296E-02 
523	 4.91572475458397E-02 
524	 4.90600332624799E-02 
525	 4.90013016540079E-02 
526	 4.89931892472228E-02 
527	 0.049010897626465 
528	 4.90889458295498E-02 
529	 4.91256576336121E-02 
530	 4.91351917236413E-02 
531	 4.92014963290851E-02 
532	 4.92591760100815E-02 
533	 4.92896600254614E-02 
534	 4.93061545697991E-02 
535	 4.93880638873823E-02 
536	 4.93418811205135E-02 
537	 4.92885962254232E-02 
538	 4.94215935699331E-02 
539	 4.95103951439861E-02 
540	 4.95382272731171E-02 
541	 4.95519623864815E-02 
542	 0.049658263802521 
543	 4.97118621923803E-02 
544	 4.97645778008946E-02 
545	 0.049883584725933 
546	 4.99789202119409E-02 
547	 5.00143678599102E-02 
548	 5.00594645812339E-02 
549	 5.02543782022551E-02 
550	 5.03309557125039E-02 
551	 5.03666196500567E-02 
552	 5.04702724512358E-02 
553	 5.06776700461433E-02 
554	 0.050779557674381 
555	 5.08099964196666E-02 
556	 5.09269131289188E-02 
557	 5.11143187981157E-02 
558	 5.12623503762234E-02 
559	 5.13595085643951E-02 
560	 5.15885230857302E-02 
561	 5.17821100988851E-02 
562	 5.19986746665052E-02 
563	 5.23316080976731E-02 
564	 5.26317957366805E-02 
565	 5.29032824571012E-02 
566	 5.31974480178429E-02 
567	 5.36045176590469E-02 
568	 5.40297587045351E-02 
569	 5.43429848457686E-02 
570	 5.44973596446577E-02 
571	 5.47230408273397E-02 
572	 5.50097747348201E-02 
573	 5.53727203446817E-02 
574	 5.58288281798105E-02 
575	 5.62174975840122E-02 
576	 5.65959237977234E-02 
577	 5.70191474622976E-02 
578	 5.74479427462305E-02 
579	 5.79680327205051E-02 
580	 5.85486499788177E-02 
581	 5.91213909391182E-02 
582	 5.97619713629407E-02 
583	 0.060370763524717 
584	 6.09099652721562E-02 
585	 6.14499816899985E-02 
586	 6.20184759461816E-02 
587	 6.26160805329939E-02 
588	 6.32272695813697E-02 
589	 6.38306732935225E-02 
590	 6.44265479026918E-02 
591	 6.50119992750052E-02 
592	 6.55833114180385E-02 
593	 6.61253107154388E-02 
594	 6.66615468272958E-02 
595	 6.72349878801435E-02 
596	 0.067926572515861 
597	 6.86371987115908E-02 
598	 6.93432918810885E-02 
599	 7.00637968163192E-02 
600	 7.07851411880369E-02 
601	 7.14292492209514E-02 
602	 0.071972860016046 
603	 0.072500937104478 
604	 7.30365030284581E-02 
605	 7.35925260319949E-02 
606	 7.41638715634869E-02 
607	 7.47044639455678E-02 
608	 7.51735230156918E-02 
609	 7.56083088562296E-02 
610	 7.61306202824256E-02 
611	 7.65627880977734E-02 
612	 7.69719696568233E-02 
613	 0.077429289568738 
614	 7.78144400740341E-02 
615	 7.82026101180717E-02 
616	 7.85714406408714E-02 
617	 7.88410795041653E-02 
618	 7.91473187987588E-02 
619	 7.94192847311689E-02 
620	 7.96250545952835E-02 
621	 7.98803489698938E-02 
622	 8.01630758699345E-02 
623	 0.080425975369248 
624	 8.06233670591342E-02 
625	 8.08181651734612E-02 
626	 8.10352091512189E-02 
627	 0.081256058815235 
628	 8.14089345376617E-02 
629	 8.16293267892449E-02 
630	 8.18644122224777E-02 
631	 8.20400686488669E-02 
632	 8.22173319333863E-02 
633	 0.082358546630846 
634	 8.25042377788871E-02 
635	 8.27464621152183E-02 
636	 8.29150957380465E-02 
637	 8.30608321433695E-02 
638	 8.32385695782604E-02 
639	 8.34180690828289E-02 
640	 8.35898229325339E-02 
641	 8.37552374503085E-02 
642	 8.39235422106667E-02 
643	 8.41120860902957E-02 
644	 8.43007797871824E-02 
645	 8.44692646168075E-02 
646	 8.45997154534491E-02 
647	 8.47797956338156E-02 
648	 8.49941047989296E-02 
649	 8.52065346184781E-02 
650	 8.54430005770422E-02 
651	 8.56772043584446E-02 
652	 8.58783923789637E-02 
653	 0.086025109140497 
654	 8.63041368911436E-02 
655	 8.65729121489074E-02 
656	 8.67354754665847E-02 
657	 8.69643664783928E-02 
658	 8.72123154591654E-02 
659	 0.087468925826571 
660	 0.087731382552763 
661	 8.79507941236716E-02 
662	 8.81792561844371E-02 
663	 8.84436540706163E-02 
664	 8.87196071478878E-02 
665	 0.089034416380808 
666	 8.93407260239428E-02 
667	 8.96008369839737E-02 
668	 8.99029679562625E-02 
669	 9.02225377096863E-02 
670	 0.090550819712375 
671	 9.08932953371216E-02 
672	 9.12411998740968E-02 
673	 9.16069128607755E-02 
674	 9.19813991704508E-02 
675	 9.22880256258044E-02 
676	 9.26502828936256E-02 
677	 9.30457453644098E-02 
678	 9.34034913886348E-02 
679	 9.37984476485973E-02 
680	 9.42245905635331E-02 
681	 9.46552265921102E-02 
682	 9.50471001868543E-02 
683	 9.54414128616775E-02 
684	 9.58778783516864E-02 
685	 0.096362073190297 
686	 0.09677654564037 
687	 9.72510263847998E-02 
688	 9.77811856010002E-02 
689	 9.82648950954356E-02 
690	 9.86766966004628E-02 
691	 9.91315585072796E-02 
692	 9.96719235746996E-02 
693	 0.100155382016508 
694	 0.100646725395853 
695	 0.101160221556229 
696	 0.101691162464283 
697	 0.102223579343962 
698	 0.102737159653835 
699	 0.103250697245245 
700	 0.103821260012524 
701	 0.104389815238067 
702	 0.104958053754309 
703	 0.105528232746228 
704	 0.106058550653987 
705	 0.106634667911164 
706	 0.107237915415484 
707	 0.107803418323461 
708	 0.108403262635531 
709	 0.10894892723034 
710	 0.109453749380935 
711	 0.110104983676583 
712	 0.110654701190179 
713	 0.111185223870115 
714	 0.11180371004999 
715	 0.112332692597879 
716	 0.112876957119268 
717	 0.113463311714396 
718	 0.114050319011168 
719	 0.114560530225194 
720	 0.11506378147036 
721	 0.115594779350955 
722	 0.116075158554932 
723	 0.116570870724203 
724	 0.117071193748935 
725	 0.117544850482303 
726	 0.117998665106661 
727	 0.118419979716595 
728	 0.118828930921042 
729	 0.119269212743443 
730	 0.119643480603869 
731	 0.119986530942392 
732	 0.120333645890065 
733	 0.120662796236944 
734	 0.120959294008849 
735	 0.121219442404508 
736	 0.121450709474629 
737	 0.121686504385054 
738	 0.121907459790161 
739	 0.122098502171608 
740	 0.122254567078683 
741	 0.122384528765188 
742	 0.122493771536789 
743	 0.122576354641163 
744	 0.122594120576904 
745	 0.122606324644312 
746	 0.12263024110128 
747	 0.12264887174937 
748	 0.122571356818828 
749	 0.122484367625627 
750	 0.122424416932917 
751	 0.122347751929955 
752	 0.122257034199132 
753	 0.122151692440813 
754	 0.122020283005964 
755	 0.121815675142937 
756	 0.121599422711744 
757	 0.121377582428335 
758	 0.121131953565512 
759	 0.120900442390814 
760	 0.120631360004644 
761	 0.120329548481158 
762	 0.120077514819077 
763	 0.119778919031736 
764	 0.119456349534453 
765	 0.119143070785653 
766	 0.118816341492363 
767	 0.118485046925937 
768	 0.118153161368464 
769	 0.117818183375806 
770	 0.117456445726619 
771	 0.117087945805523 
772	 0.116718535641001 
773	 0.116332490258564 
774	 0.115929581200533 
775	 0.115549144256559 
776	 0.115206210327376 
777	 0.1148325670016 
778	 0.114422631105621 
779	 0.114026097951015 
780	 0.113693949684254 
781	 0.113307221690835 
782	 0.112905042002592 
783	 0.112511508907089 
784	 0.112122418208066 
785	 0.111753817807155 
786	 0.111374185302695 
787	 0.110973274443876 
788	 0.110613545838484 
789	 0.110254703826381 
790	 0.109876297020994 
791	 0.109472403379527 
792	 0.109067029540943 
793	 0.108710638093217 
794	 0.108402234222992 
795	 0.108094126861126 
796	 0.107740131457458 
797	 0.107378637089064 
798	 0.107039006977272 
799	 0.106706513833601 
800	 0.10637624553025 
801	 0.106034298959744 
802	 0.105683852524344 
803	 0.105403132376465 
804	 0.105100250560964 
805	 0.104777565541678 
806	 0.104493094909302 
807	 0.10420782066349 
808	 0.103918844542308 
809	 0.10362411212422 
810	 0.103317765273874 
811	 0.103056399602878 
812	 0.102810056446178 
813	 0.102547058039701 
814	 0.102286286609916 
815	 0.102051073615519 
816	 0.101824791169453 
817	 0.101585319436931 
818	 0.101385588065221 
819	 0.101168466155854 
820	 0.100923243192877 
821	 0.100684739306141 
822	 0.100456270980596 
823	 0.100273572068681 
824	 0.100123981961583 
825	 9.99121885124229E-02 
826	 9.97243344305833E-02 
827	 9.95502900512506E-02 
828	 9.93668693409387E-02 
829	 0.099195619378114 
830	 9.90165404393183E-02 
831	 9.88573194705247E-02 
832	 9.87481156640025E-02 
833	 9.85934566571738E-02 
834	 9.84147679496035E-02 
835	 9.82512549541016E-02 
836	 9.81460189951503E-02 
837	 9.80921895593914E-02 
838	 9.80352967135611E-02 
839	 9.79302128615885E-02 
840	 9.77608410658938E-02 
841	 9.76325891236556E-02 
842	 9.75220335214573E-02 
843	 9.74009331542589E-02 
844	 0.097356378263319 
845	 9.72961219308339E-02 
846	 9.72019488322757E-02 
847	 9.71016093057745E-02 
848	 9.70492399343525E-02 
849	 9.70182373195751E-02 
850	 9.69808400276245E-02 
851	 9.69202876039081E-02 
852	 0.096894153278779 
853	 9.68532000349308E-02 
854	 9.67820591977135E-02 
855	 9.67355090403716E-02 
856	 9.67806937557904E-02 
857	 9.68116787469428E-02 
858	 9.67558562636285E-02 
859	 9.67328495170666E-02 
860	 9.67186163363086E-02 
861	 9.67379535929133E-02 
862	 9.68054922638376E-02 
863	 9.68417910728952E-02 
864	 9.68277779953413E-02 
865	 9.68197245810688E-02 
866	 9.68941849201686E-02 
867	 9.69306289564266E-02 
868	 9.69500720661849E-02 
869	 9.69805506660862E-02 
870	 9.70418910798523E-02 
871	 9.71334121060958E-02 
872	 0.097235697953206 
873	 9.73241948111513E-02 
874	 9.73733831782078E-02 
875	 9.74315249405039E-02 
876	 9.74828764667439E-02 
877	 9.75270350335746E-02 
878	 9.76475118444087E-02 
879	 9.77873146766393E-02 
880	 9.78935240710957E-02 
881	 9.79553685327855E-02 
882	 0.098118516938784 
883	 9.82877027200994E-02 
884	 9.84124652423173E-02 
885	 9.84971751450742E-02 
886	 9.86771426031549E-02 
887	 0.098854635543436 
888	 9.90071859489297E-02 
889	 9.91867168718929E-02 
890	 9.93539377118181E-02 
891	 0.099537281891937 
892	 9.97332192980667E-02 
893	 9.98912191128753E-02 
894	 0.100026762846498 
895	 0.100190595927163 
896	 0.100417158022586 
897	 0.100700164033009 
898	 0.100910122597164 
899	 0.101096442370866 
900	 0.101321922018824 
901	 0.101539492750382 
902	 0.101801567421222 
903	 0.102079537294419 
904	 0.1023299899447 
905	 0.102570723789575 
906	 0.102783681987653 
907	 0.10302400763273 
908	 0.103360267001143 
909	 0.103756239392936 
910	 0.104078474349542 
911	 0.10435619646306 
912	 0.104701826863577 
913	 0.104955777642596 
914	 0.105300249986986 
915	 0.105704263017593 
916	 0.105964514421925 
917	 0.106352684692448 
918	 0.106726202406909 
919	 0.107029066025201 
920	 0.107365023377173 
921	 0.107779162221406 
922	 0.108209054884428 
923	 0.108614430622665 
924	 0.109021281819265 
925	 0.109430988150399 
926	 0.109876276496074 
927	 0.110347704947284 
928	 0.110751662888354 
929	 0.111189461300199 
930	 0.111660394155556 
931	 0.112129802901209 
932	 0.112549112660477 
933	 0.113023432820105 
934	 0.113557565263504 
935	 0.114110081273239 
936	 0.114610370943427 
937	 0.115132374410782 
938	 0.115656916728393 
939	 0.116180983974996 
940	 0.116872478132713 
941	 0.117496419298567 
942	 0.118073710227435 
943	 0.118697206553377 
944	 0.119286929099472 
945	 0.119857467375589 
946	 0.120455420784773 
947	 0.121094519686757 
948	 0.12158082007393 
949	 0.122179700867534 
950	 0.122894213330081 
951	 0.123594672364338 
952	 0.124298400593891 
953	 0.124959756270451 
954	 0.125629893903701 
955	 0.126381575663741 
956	 0.127096828663436 
957	 0.127874837335324 
958	 0.128648519827367 
959	 0.129304490568323 
960	 0.130103447633416 
961	 0.130928601613084 
962	 0.131747099578955 
963	 0.132580692860263 
964	 0.133340017284152 
965	 0.134161624198877 
966	 0.135029157300293 
967	 0.135836490634613 
968	 0.136653739203937 
969	 0.137549641612323 
970	 0.138448650547621 
971	 0.139246909611265 
972	 0.140302945717132 
973	 0.14125057855093 
974	 0.142097144919506 
975	 0.143098470266344 
976	 0.144154862457074 
977	 0.145072480461901 
978	 0.145917541537874 
979	 0.146884528341616 
980	 0.147835018443454 
981	 0.148749449310194 
982	 0.149686012727482 
983	 0.15073604534936 
984	 0.151920993763354 
985	 0.152984947899518 
986	 0.153908150708966 
987	 0.154848258126632 
988	 0.156019391841184 
989	 0.157024626635028 
990	 0.1579388213698 
991	 0.159047462743626 
992	 0.16029650867874 
993	 0.161482412665151 
994	 0.162529286770401 
995	 0.163487403497291 
996	 0.164569177994057 
997	 0.165642065202644 
998	 0.16674437527329 
999	 0.167951000396543 
1000	 0.169212851912824 
1001	 0.168323355208264 
1002	 0.169268456982587 
1003	 0.170252152030533 
1004	 0.171291245101414 
1005	 0.172376983740692 
1006	 0.173420996351552 
1007	 0.174504596431969 
1008	 0.175570448694089 
1009	 0.176533062978553 
1010	 0.177530213737646 
1011	 0.178638118054295 
1012	 0.179695288319076 
1013	 0.180683944776981 
1014	 0.181674042197848 
1015	 0.182630602712553 
1016	 0.183596278859333 
1017	 0.18458177231859 
1018	 0.185621362326244 
1019	 0.186620935663737 
1020	 0.187567369533777 
1021	 0.188486309032475 
1022	 0.189418816869429 
1023	 0.190378458650137 
1024	 0.191328002697557 
1025	 0.192285186285804 
1026	 0.193234543605207 
1027	 0.194146680417615 
1028	 0.195029973565836 
1029	 0.195994612276212 
1030	 0.196949824036681 
1031	 0.197837954030227 
1032	 0.19867990587263 
1033	 0.199591872545571 
1034	 0.200486594993654 
1035	 0.201340907985641 
1036	 0.202253514618427 
1037	 0.203147450349346 
1038	 0.203959191999157 
1039	 0.204782122475828 
1040	 0.205666202838524 
1041	 0.206529648383573 
1042	 0.207360133189963 
1043	 0.208197824466772 
1044	 0.209043197448932 
1045	 0.209871351687498 
1046	 0.210733614407087 
1047	 0.21161017874835 
1048	 0.212436103701859 
1049	 0.213258181271574 
1050	 0.214078211942843 
1051	 0.214904594545817 
1052	 0.215823460481543 
1053	 0.216742249311035 
1054	 0.217545942763705 
1055	 0.218350717486668 
1056	 0.219160582605847 
1057	 0.219974205093414 
1058	 0.220767955180178 
1059	 0.221626813582949 
1060	 0.222538157006288 
1061	 0.223399188037669 
1062	 0.224268414989943 
1063	 0.225167076798386 
1064	 0.225978350153017 
1065	 0.226752604495963 
1066	 0.227610505094009 
1067	 0.228451087794848 
1068	 0.229306184746747 
1069	 0.23024074594711 
1070	 0.231104547672742 
1071	 0.23189653901586 
1072	 0.23273578785558 
1073	 0.233533731789695 
1074	 0.234397780576261 
1075	 0.235318275883451 
1076	 0.236227651903946 
1077	 0.237109287712415 
1078	 0.237999268000935 
1079	 0.238818214628688 
1080	 0.239672630484084 
1081	 0.240545942835348 
1082	 0.241425400886098 
1083	 0.242308473625539 
1084	 0.243173192482967 
1085	 0.24407052615784 
1086	 0.245016615484781 
1087	 0.245902791077062 
1088	 0.24676980439442 
1089	 0.2476491518048 
1090	 0.248493039890719 
1091	 0.249322143688691 
1092	 0.250219772039192 
1093	 0.251155799830006 
1094	 0.252060550447463 
1095	 0.252964547587974 
1096	 0.253898264183445 
1097	 0.254812563257381 
1098	 0.255705976839558 
1099	 0.256581660151967 
1100	 0.257498957483247 
1101	 0.25841696131349 
1102	 0.259321651286077 
1103	 0.260252675620481 
1104	 0.261188205226831 
1105	 0.262065906550822 
1106	 0.262936778707838 
1107	 0.263860082409446 
1108	 0.264818889184446 
1109	 0.265770725458861 
1110	 0.266716333156024 
1111	 0.267637870392446 
1112	 0.268519830935714 
1113	 0.269439623277308 
1114	 0.270357347797673 
1115	 0.271289335243253 
1116	 0.272262621581439 
1117	 0.273199374885898 
1118	 0.274119971330465 
1119	 0.275040616288854 
1120	 0.275959282193105 
1121	 0.276871566454453 
1122	 0.277823017828545 
1123	 0.278819576182459 
1124	 0.279785960445183 
1125	 0.280770900055737 
1126	 0.281736168318864 
1127	 0.282668883975099 
1128	 0.283622603585283 
1129	 0.284593886344723 
1130	 0.28554073251172 
1131	 0.286488769638972 
1132	 0.287428558729167 
1133	 0.288337185563115 
1134	 0.289269004771481 
1135	 0.290220010380391 
1136	 0.291134475053301 
1137	 0.292080400504078 
1138	 0.293059021062343 
1139	 0.294004480846551 
1140	 0.294956024651017 
1141	 0.295879974834469 
1142	 0.296763601201046 
1143	 0.297681548825289 
1144	 0.298611953816117 
1145	 0.299527585417181 
1146	 0.300466749838974 
1147	 0.301366082426223 
1148	 0.302229472973763 
1149	 0.303097491063889 
1150	 0.30393226723134 
1151	 0.304800046298097 
1152	 0.305699193251144 
1153	 0.306570124112413 
1154	 0.307435142662789 
1155	 0.308306354195579 
1156	 0.30916848116373 
1157	 0.310002235451218 
1158	 0.310865220637393 
1159	 0.311760837653571 
1160	 0.312623067792692 
1161	 0.313479674470345 
1162	 0.31432275828057 
1163	 0.315143882247154 
1164	 0.3159714913656 
1165	 0.316799525812103 
1166	 0.317626379341023 
1167	 0.31843146824429 
1168	 0.319237450238575 
1169	 0.320047496438317 
1170	 0.320859912191353 
1171	 0.321649610559192 
1172	 0.322443970532119 
1173	 0.323217794206016 
1174	 0.323959823585727 
1175	 0.324709346061007 
1176	 0.325466485339316 
1177	 0.32620600486736 
1178	 0.326941442029956 
1179	 0.327659196085443 
1180	 0.328350794153411 
1181	 0.329051560767964 
1182	 0.329750708468215 
1183	 0.330442519638559 
1184	 0.331115649214103 
1185	 0.331785756278095 
1186	 0.332446738247138 
1187	 0.33308450122383 
1188	 0.333728984956689 
1189	 0.334404894687871 
1190	 0.335016701621921 
1191	 0.335583912834287 
1192	 0.336163120589222 
1193	 0.336705490625099 
1194	 0.337264969147891 
1195	 0.337851089583389 
1196	 0.338410673680136 
1197	 0.338973378503559 
1198	 0.339502461808673 
1199	 0.340009587229337 
1200	 0.340487058232267 
1201	 0.340981404754911 
1202	 0.341457764480558 
1203	 0.341937810152689 
1204	 0.342430418212231 
1205	 0.342907831160155 
1206	 0.343375262880473 
1207	 0.34383176652244 
1208	 0.344282450925119 
1209	 0.344728921200872 
1210	 0.345157345441501 
1211	 0.345590454856553 
1212	 0.346042093017573 
1213	 0.346464908606644 
1214	 0.346866137131161 
1215	 0.347268793999107 
1216	 0.347663322742888 
1217	 0.348044094812344 
1218	 0.348417839894012 
1219	 0.348796192139872 
1220	 0.349149117542654 
1221	 0.349471488394214 
1222	 0.349811920768237 
1223	 0.350151400631352 
1224	 0.350484935971122 
1225	 0.350819308963891 
1226	 0.351152700469299 
1227	 0.351484301895434 
1228	 0.35180713863078 
1229	 0.352136569928608 
1230	 0.35245027996397 
1231	 0.352750533363413 
1232	 0.353041604251363 
1233	 0.35332348871862 
1234	 0.353595644801124 
1235	 0.353862364808545 
1236	 0.354127522184856 
1237	 0.354367219735295 
1238	 0.354586878902303 
1239	 0.354814687837163 
1240	 0.355023783531856 
1241	 0.355241503241642 
1242	 0.355469350000365 
1243	 0.355689839481694 
1244	 0.355899260623369 
1245	 0.356116157240423 
1246	 0.356343691495406 
1247	 0.35656291659866 
1248	 0.356790471493824 
1249	 0.356997669163045 
1250	 0.357197955155811 
1251	 0.357388226120719 
1252	 0.357580065071599 
1253	 0.357765198626213 
1254	 0.357947867517081 
1255	 0.358131602594306 
1256	 0.358305907205801 
1257	 0.358474338383008 
1258	 0.35863536752373 
1259	 0.358780757956753 
1260	 0.358940619481868 
1261	 0.359091641995824 
1262	 0.359257855111135 
1263	 0.359455804975453 
1264	 0.359627464951693 
1265	 0.359796856620909 
1266	 0.359957858381956 
1267	 0.36010756455012 
1268	 0.360240573593427 
1269	 0.360376884981986 
1270	 0.360512194677433 
1271	 0.360638991310921 
1272	 0.360752714196821 
1273	 0.360879964619105 
1274	 0.361005142905183 
1275	 0.361132148343857 
1276	 0.361269791220018 
1277	 0.361398775185739 
1278	 0.361525818899696 
1279	 0.361649222041751 
1280	 0.361772687861728 
1281	 0.361884822126605 
1282	 0.361995429999792 
1283	 0.362089792879895 
1284	 0.362160628066258 
1285	 0.362242653235959 
1286	 0.362306031033097 
1287	 0.362386562416484 
1288	 0.362485820117667 
1289	 0.362608016025234 
1290	 0.362713723051852 
1291	 0.36282723268074 
1292	 0.362935761630276 
1293	 0.36304311188723 
1294	 0.363135697116223 
1295	 0.363215274769472 
1296	 0.363317069030255 
1297	 0.363412846456672 
1298	 0.363517025338789 
1299	 0.363648823282499 
1300	 0.363765182543333 
1301	 0.363874119309556 
1302	 0.363978102227708 
1303	 0.364077902276426 
1304	 0.364180052757861 
1305	 0.3642830855279 
1306	 0.3643623549957 
1307	 0.364437899066089 
1308	 0.364512799370847 
1309	 0.364574190032247 
1310	 0.364613450996234 
1311	 0.364675711183901 
1312	 0.364751322575562 
1313	 0.364795061347193 
1314	 0.364835832131813 
1315	 0.364862311171818 
1316	 0.364854278445097 
1317	 0.364869841264246 
1318	 0.364902649220313 
1319	 0.364913629786062 
1320	 0.364931228074077 
1321	 0.364916448425067 
1322	 0.364859692476539 
1323	 0.364826792507801 
1324	 0.364793768900259 
1325	 0.364759855777466 
1326	 0.364761366958965 
1327	 0.364747689231524 
1328	 0.364687302839191 
1329	 0.364623248171089 
1330	 0.364558392071491 
1331	 0.364466291071191 
1332	 0.3643960616326 
1333	 0.364348514931739 
1334	 0.36427593687849 
1335	 0.36418952482028 
1336	 0.364115182976398 
1337	 0.364037889218922 
1338	 0.363957630832483 
1339	 0.363892697759346 
1340	 0.363804256493163 
1341	 0.363713765981607 
1342	 0.363597228339647 
1343	 0.363451279009941 
1344	 0.363309172263469 
1345	 0.363177676993355 
1346	 0.363028681575586 
1347	 0.362893027091366 
1348	 0.362758589197271 
1349	 0.362581317641672 
1350	 0.362378813040358 
1351	 0.362165704530441 
1352	 0.361920655634271 
1353	 0.36169921898561 
1354	 0.361476263032955 
1355	 0.361247344601012 
1356	 0.361010184544038 
1357	 0.360798308731616 
1358	 0.360558100325729 
1359	 0.360386205515537 
1360	 0.360258729685369 
1361	 0.360151803915964 
1362	 0.360098748635304 
1363	 0.36003570581132 
1364	 0.359980388913998 
1365	 0.359946488450309 
1366	 0.359911074568158 
1367	 0.359913038822976 
1368	 0.359962781216398 
1369	 0.359984097391611 
1370	 0.359990210634485 
1371	 0.359953396335826 
1372	 0.359817645410958 
1373	 0.35964759033688 
1374	 0.359434321202325 
1375	 0.359177947566664 
1376	 0.358843368040141 
1377	 0.358464243130136 
1378	 0.358017740423895 
1379	 0.357437298468302 
1380	 0.356938295785271 
1381	 0.356413686108197 
1382	 0.355917263021415 
1383	 0.355496798170023 
1384	 0.354994131244724 
1385	 0.354502984323627 
1386	 0.35392258660477 
1387	 0.353288601190171 
1388	 0.352593352872319 
1389	 0.351847454133066 
1390	 0.351024025656662 
1391	 0.350116173897565 
1392	 0.349140256039707 
1393	 0.348069116216562 
1394	 0.346941294676993 
1395	 0.345783001685191 
1396	 0.344599346932359 
1397	 0.343406891918612 
1398	 0.342196697874507 
1399	 0.340957067688925 
1400	 0.33969879880309 
1401	 0.338417873675782 
1402	 0.337084480863781 
1403	 0.335797200070229 
1404	 0.334484128473025 
1405	 0.333236565781853 
1406	 0.332047834944183 
1407	 0.330836075250237 
1408	 0.329621143747397 
1409	 0.328463327849248 
1410	 0.327280584077335 
1411	 0.326197832167358 
1412	 0.325180529715557 
1413	 0.324235987894151 
1414	 0.323374493093822 
1415	 0.322534648114847 
1416	 0.321739178279426 
1417	 0.320991920899781 
1418	 0.320248935811754 
1419	 0.319550631538503 
1420	 0.318925529008687 
1421	 0.318356153239186 
1422	 0.317831738207583 
1423	 0.317337238935379 
1424	 0.316852635343538 
1425	 0.316385908089251 
1426	 0.315943946038306 
1427	 0.315502331332201 
1428	 0.315134477737186 
1429	 0.314810081511358 
1430	 0.3145192167428 
1431	 0.314313424215631 
1432	 0.314063423302962 
1433	 0.313797507467067 
1434	 0.31357897152038 
1435	 0.313347768130255 
1436	 0.313176760931656 
1437	 0.313080088817911 
1438	 0.312975695195984 
1439	 0.31289809749563 
1440	 0.312832326031608 
1441	 0.312730830094232 
1442	 0.312637083593262 
1443	 0.312557663867852 
1444	 0.312492726190251 
1445	 0.31250376160959 
1446	 0.31252467446832 
1447	 0.312529598075853 
1448	 0.312539859836364 
1449	 0.312502017908073 
1450	 0.312464690827707 
1451	 0.31244870011513 
1452	 0.31242437297137 
1453	 0.312435647130996 
1454	 0.312486044162915 
1455	 0.312516809367749 
1456	 0.312568691047176 
1457	 0.312595227636449 
1458	 0.312594785440316 
1459	 0.312620216676204 
1460	 0.312629003587336 
1461	 0.312683107162916 
1462	 0.312762570247211 
1463	 0.312856106983434 
1464	 0.313003440348522 
1465	 0.313116521925295 
1466	 0.313209234827659 
1467	 0.31333603038285 
1468	 0.313422307197715 
1469	 0.313591673826276 
1470	 0.313834332543881 
1471	 0.314084537130136 
1472	 0.314362678480566 
1473	 0.314644652685742 
1474	 0.31486108551717 
1475	 0.315110952583528 
1476	 0.315379551623246 
1477	 0.315657236167833 
1478	 0.31600189934438 
1479	 0.316349096968486 
1480	 0.316702159766609 
1481	 0.317061097858036 
1482	 0.317393999488558 
1483	 0.317708822054328 
1484	 0.318033603714286 
1485	 0.318337031315783 
1486	 0.318671022961859 
1487	 0.319029359607673 
1488	 0.319367147749818 
1489	 0.319721726933628 
1490	 0.32004874605362 
1491	 0.320349100604316 
1492	 0.320660518673101 
1493	 0.320947114411974 
1494	 0.321267910873106 
1495	 0.321615267414357 
1496	 0.321948763914401 
1497	 0.322306645549284 
1498	 0.322636531835224 
1499	 0.322952529626818 
1500	 0.323251402706705 
1501	 0.323520028696937 
1502	 0.323809034363941 
1503	 0.324094676953434 
1504	 0.324379247906476 
1505	 0.324665557985291 
1506	 0.32494595520411 
1507	 0.325212276240645 
1508	 0.325465527278908 
1509	 0.325717719334568 
1510	 0.325972840755309 
1511	 0.326243793823007 
1512	 0.326504266311085 
1513	 0.326767522449634 
1514	 0.327033495789771 
1515	 0.327287496950605 
1516	 0.327544427049849 
1517	 0.327791736305921 
1518	 0.328048898115536 
1519	 0.328284152554992 
1520	 0.32849696457832 
1521	 0.328712854421524 
1522	 0.328914886264505 
1523	 0.329134565911686 
1524	 0.329358686103372 
1525	 0.329580855721763 
1526	 0.329821410857854 
1527	 0.330035428867099 
1528	 0.330233249691953 
1529	 0.330429747734342 
1530	 0.330613317979077 
1531	 0.330803925862042 
1532	 0.330999224804176 
1533	 0.331184074592134 
1534	 0.33136253887377 
1535	 0.331538957377036 
1536	 0.331700076169344 
1537	 0.33187002297463 
1538	 0.332042505578655 
1539	 0.332225101022166 
1540	 0.332428029077069 
1541	 0.332608375926317 
1542	 0.332781750811039 
1543	 0.332956311809441 
1544	 0.333122730888729 
1545	 0.333278803948075 
1546	 0.333442070121727 
1547	 0.333578838909214 
1548	 0.333714059834349 
1549	 0.333851275406775 
1550	 0.334004880591769 
1551	 0.334161054248075 
1552	 0.334298050747177 
1553	 0.334435023855945 
1554	 0.334548461152706 
1555	 0.334660868468117 
1556	 0.334769286494335 
1557	 0.334883041460682 
1558	 0.335030115499211 
1559	 0.335154400612351 
1560	 0.335273215190652 
1561	 0.335394716881172 
1562	 0.335502287743925 
1563	 0.335587285005684 
1564	 0.335693269106308 
1565	 0.335799980208447 
1566	 0.335916410083537 
1567	 0.336049822701293 
1568	 0.336158808131786 
1569	 0.336270295391633 
1570	 0.336362590598404 
1571	 0.336436144326193 
1572	 0.336505850537641 
1573	 0.336566125148437 
1574	 0.336620050086787 
1575	 0.336646141310193 
1576	 0.336703858188857 
1577	 0.336767542070643 
1578	 0.336847338113725 
1579	 0.336958848778377 
1580	 0.337053258818579 
1581	 0.337150145771681 
1582	 0.33723942136443 
1583	 0.337319914405444 
1584	 0.337402103781226 
1585	 0.337480115110983 
1586	 0.337562897899296 
1587	 0.337665797555315 
1588	 0.337732865652438 
1589	 0.337778427918392 
1590	 0.337830689025512 
1591	 0.337856579753385 
1592	 0.337894372682094 
1593	 0.337953029880262 
1594	 0.337995085026693 
1595	 0.338017957350982 
1596	 0.338054808787985 
1597	 0.338101907491588 
1598	 0.33813552757122 
1599	 0.338177174335453 
1600	 0.338202370077597 
1601	 0.338191783065826 
1602	 0.338206332601197 
1603	 0.338232108084053 
1604	 0.338251414581395 
1605	 0.338279686890131 
1606	 0.338309774781482 
1607	 0.338337836785376 
1608	 0.33835440708426 
1609	 0.338398031022517 
1610	 0.338446159555626 
1611	 0.338479616705477 
1612	 0.338513631653538 
1613	 0.338541345518073 
1614	 0.33854660933755 
1615	 0.338547271348411 
1616	 0.338560103203194 
1617	 0.338570895552519 
1618	 0.338579877451971 
1619	 0.338585635053744 
1620	 0.338582687975173 
1621	 0.338579951871587 
1622	 0.338561619338506 
1623	 0.338561605284328 
1624	 0.338568632751308 
1625	 0.338583494490759 
1626	 0.338606311797571 
1627	 0.338630401970905 
1628	 0.338671481603373 
1629	 0.338680527175808 
1630	 0.338680741036273 
1631	 0.338669575458317 
1632	 0.33863155480432 
1633	 0.338615965313986 
1634	 0.338603021735264 
1635	 0.338591799283848 
1636	 0.338593387323658 
1637	 0.338574204324197 
1638	 0.338543788753563 
1639	 0.338519321423408 
1640	 0.338494981935984 
1641	 0.338453591378398 
1642	 0.338404971648178 
1643	 0.338360994164302 
1644	 0.338294043013974 
1645	 0.338255228555616 
1646	 0.338229784799598 
1647	 0.338220382124751 
1648	 0.33822564604116 
1649	 0.338234650274208 
1650	 0.338280041171976 
1651	 0.338274512727488 
1652	 0.338251210445917 
1653	 0.338221741065412 
1654	 0.33816291907741 
1655	 0.338113405982736 
1656	 0.338066513414469 
1657	 0.338010079240753 
1658	 0.337934270266885 
1659	 0.337881450934562 
1660	 0.337844491995442 
1661	 0.337787449065695 
1662	 0.337730728823605 
1663	 0.337673264491448 
1664	 0.337597363781677 
1665	 0.337535374917388 
1666	 0.337501688572569 
1667	 0.337426920518336 
1668	 0.337329058410616 
1669	 0.337237877170726 
1670	 0.337115297097997 
1671	 0.337029468670225 
1672	 0.336957411358126 
1673	 0.336901535939982 
1674	 0.336868929426636 
1675	 0.3368347295372 
1676	 0.336829839225955 
1677	 0.336787902010427 
1678	 0.336741753225703 
1679	 0.336669829000271 
1680	 0.336550980783623 
1681	 0.336469508915702 
1682	 0.336401866047721 
1683	 0.336310552474806 
1684	 0.336219546277886 
1685	 0.336130884399526 
1686	 0.336005321839972 
1687	 0.335925378312554 
1688	 0.335893801319543 
1689	 0.335827707866845 
1690	 0.3357737521502 
1691	 0.335687179765971 
1692	 0.335565235480302 
1693	 0.335458829921572 
1694	 0.335341650052157 
1695	 0.335232170441027 
1696	 0.335125253088927 
1697	 0.335024190570405 
1698	 0.334925213893644 
1699	 0.334829780213471 
1700	 0.334742597010937 
1701	 0.334656051664452 
1702	 0.334566330397821 
1703	 0.334488600269578 
1704	 0.334419557826997 
1705	 0.334351097011837 
1706	 0.334304146419202 
1707	 0.334222114454181 
1708	 0.334134155331433 
1709	 0.334028484992898 
1710	 0.333879564435737 
1711	 0.333763321040045 
1712	 0.333656548231745 
1713	 0.333539885857902 
1714	 0.333437042980651 
1715	 0.333316638428696 
1716	 0.333173858756713 
1717	 0.333044419637036 
1718	 0.332919941614961 
1719	 0.33278791039074 
1720	 0.332660660179443 
1721	 0.332517727116922 
1722	 0.332360844815778 
1723	 0.332203714133682 
1724	 0.332044021048681 
1725	 0.331874166569326 
1726	 0.331698034886208 
1727	 0.331516738919428 
1728	 0.331319143359645 
1729	 0.331129919702697 
1730	 0.33093242060719 
1731	 0.33076635653438 
1732	 0.330615118528125 
1733	 0.330463958241596 
1734	 0.330351231437808 
1735	 0.330181976952705 
1736	 0.329988140266638 
1737	 0.329789431792071 
1738	 0.329557336304002 
1739	 0.329343817303174 
1740	 0.329128709179927 
1741	 0.328926738525311 
1742	 0.328733668422984 
1743	 0.328536521984242 
1744	 0.328337088447193 
1745	 0.328165768488 
1746	 0.328011505948677 
1747	 0.327847730802561 
1748	 0.327680247547284 
1749	 0.327470899303656 
1750	 0.327239210011781 
1751	 0.327035224833575 
1752	 0.326815778218198 
1753	 0.32659651235317 
1754	 0.326416559527714 
1755	 0.326205776669878 
1756	 0.326010627423826 
1757	 0.325854769155505 
1758	 0.325653464205954 
1759	 0.325457173670528 
1760	 0.325290779774793 
1761	 0.325107527597819 
1762	 0.324922990591788 
1763	 0.32474693286631 
1764	 0.324553443496046 
1765	 0.324349051485111 
1766	 0.324175566668558 
1767	 0.323993846651823 
1768	 0.323826373738019 
1769	 0.323674169439373 
1770	 0.323476403019882 
1771	 0.323317521219474 
1772	 0.323165440714037 
1773	 0.32298482623658 
1774	 0.322863493012644 
1775	 0.322743640515346 
1776	 0.322580021809349 
1777	 0.322419483730926 
1778	 0.322257054603764 
1779	 0.322076025799589 
1780	 0.321928912763951 
1781	 0.321826936837418 
1782	 0.321694595022623 
1783	 0.321563434901188 
1784	 0.321439350640157 
1785	 0.321319405289543 
1786	 0.32119186920253 
1787	 0.3210505257042 
1788	 0.320927307499115 
1789	 0.320801597019374 
1790	 0.320684206186489 
1791	 0.32057530076984 
1792	 0.320492424567889 
1793	 0.320433944705402 
1794	 0.320365600571662 
1795	 0.320338378456809 
1796	 0.320262705770556 
1797	 0.320131932361057 
1798	 0.320034652595144 
1799	 0.31993909468345 
1800	 0.319842625548372 
1801	 0.314057177912118 
1802	 0.31438859798191 
1803	 0.314791370429508 
1804	 0.315201907105332 
1805	 0.315583345049223 
1806	 0.315937146950782 
1807	 0.316262477219608 
1808	 0.316530404966775 
1809	 0.316759155289367 
1810	 0.316940691853308 
1811	 0.31708691464335 
1812	 0.317175560452818 
1813	 0.317196387998007 
1814	 0.317170994165087 
1815	 0.317138816604327 
1816	 0.31711211868053 
1817	 0.317091723976101 
1818	 0.317072238835856 
1819	 0.317052351638804 
1820	 0.317039272662635 
1821	 0.317016016209988 
1822	 0.316981123188741 
1823	 0.316971400966415 
1824	 0.316957390383869 
1825	 0.316932141881877 
1826	 0.316886165754564 
1827	 0.316831519985261 
1828	 0.316742595168572 
1829	 0.316614118670469 
1830	 0.316477158517658 
1831	 0.316312216210073 
1832	 0.316141979860952 
1833	 0.31597705547218 
1834	 0.315826994578036 
1835	 0.315715799669895 
1836	 0.315646925643856 
1837	 0.315586099847968 
1838	 0.315528834775969 
1839	 0.31548168864916 
1840	 0.31545660375946 
1841	 0.315393187056547 
1842	 0.315321168654245 
1843	 0.315264488987202 
1844	 0.3151687553379 
1845	 0.315068840928224 
1846	 0.314981704003081 
1847	 0.314923913100095 
1848	 0.314871207464755 
1849	 0.314784901583103 
1850	 0.314680530779131 
1851	 0.314587321733521 
1852	 0.314414094211287 
1853	 0.314179548292184 
1854	 0.313945264639139 
1855	 0.313661033723162 
1856	 0.313342418733081 
1857	 0.313019795931865 
1858	 0.312675608472987 
1859	 0.31230258176487 
1860	 0.311847200274365 
1861	 0.311355306202192 
1862	 0.310766467598884 
1863	 0.310076994914336 
1864	 0.30927585647207 
1865	 0.308404200902249 
1866	 0.307448005183202 
1867	 0.306453537520609 
1868	 0.305459615596976 
1869	 0.304453540753378 
1870	 0.303458808677961 
1871	 0.302445858033796 
1872	 0.301439851729175 
1873	 0.300419951081526 
1874	 0.299349701318066 
1875	 0.298263666327063 
1876	 0.297119048251934 
1877	 0.29588142358377 
1878	 0.294520106688272 
1879	 0.292991833138441 
1880	 0.291318845954285 
1881	 0.289469052369817 
1882	 0.287515571428148 
1883	 0.285427265035171 
1884	 0.283201261977479 
1885	 0.280890170339832 
1886	 0.278470509485805 
1887	 0.275900953639549 
1888	 0.273252747403722 
1889	 0.270489802160853 
1890	 0.267645994650779 
1891	 0.264780475795839 
1892	 0.26183612215391 
1893	 0.258873135164644 
1894	 0.255867544153458 
1895	 0.252843191915672 
1896	 0.249756563416845 
1897	 0.246716944592645 
1898	 0.243690924000262 
1899	 0.240708574091248 
1900	 0.237836559758174 
1901	 0.235039787447451 
1902	 0.232386364959384 
1903	 0.229872047564899 
1904	 0.227456853737944 
1905	 0.225145185988913 
1906	 0.222988311435535 
1907	 0.220928991267177 
1908	 0.218985940672685 
1909	 0.217183573035513 
1910	 0.215476350915769 
1911	 0.213887759885897 
1912	 0.212394412798616 
1913	 0.210991238417896 
1914	 0.20968350304212 
1915	 0.208467348775031 
1916	 0.207330372707563 
1917	 0.206303272238455 
1918	 0.205411982112523 
1919	 0.20459602940704 
1920	 0.203899584870329 
1921	 0.203307658323422 
1922	 0.202732874808438 
1923	 0.202231047654843 
1924	 0.201804046509248 
1925	 0.201453289462434 
1926	 0.201145966722782 
1927	 0.200905418964858 
1928	 0.200727103666675 
1929	 0.200589702215054 
1930	 0.200490560942657 
1931	 0.200444163578194 
1932	 0.200442391331191 
1933	 0.200458584352352 
1934	 0.200513682915752 
1935	 0.20060508707252 
1936	 0.200729523416779 
1937	 0.200886701037429 
1938	 0.20108410170827 
1939	 0.201309206408103 
1940	 0.201567280566948 
1941	 0.201857203000644 
1942	 0.202158175411621 
1943	 0.202483139531458 
1944	 0.202837056298473 
1945	 0.203204774051632 
1946	 0.203586932836999 
1947	 0.204008455153634 
1948	 0.204414068658053 
1949	 0.204808883359297 
1950	 0.205231945229223 
1951	 0.205663244631054 
1952	 0.206114375571164 
1953	 0.20658698743291 
1954	 0.20707018424612 
1955	 0.20755666475936 
1956	 0.20806338336161 
1957	 0.208602648052529 
1958	 0.209174850069793 
1959	 0.209748541372629 
1960	 0.210352446122175 
1961	 0.2109536066383 
1962	 0.211552280532225 
1963	 0.212171520726454 
1964	 0.212801227345928 
1965	 0.213463827520107 
1966	 0.21412056589354 
1967	 0.214757758383011 
1968	 0.215404855323393 
1969	 0.216048307024549 
1970	 0.216685405209055 
1971	 0.217330566977923 
1972	 0.217972106994538 
1973	 0.218586406816672 
1974	 0.219234735130074 
1975	 0.219911279626398 
1976	 0.220570524906951 
1977	 0.221226046567267 
1978	 0.221893029026451 
1979	 0.222554926490385 
1980	 0.223213496060327 
1981	 0.223879385435972 
1982	 0.224551740211654 
1983	 0.225237002746598 
1984	 0.225929433399656 
1985	 0.226621951291323 
1986	 0.227351235877477 
1987	 0.228042316987255 
1988	 0.228704855894377 
1989	 0.229371774169676 
1990	 0.230045550255572 
1991	 0.23071125136398 
1992	 0.23138156364867 
1993	 0.232071190626088 
1994	 0.2327358540055 
1995	 0.233390152509892 
1996	 0.234033990627365 
1997	 0.234664637250246 
1998	 0.235302171833765 
1999	 0.23591864476021 
2000	 0.236552334056995 
2001	 0.237200214397687 
2002	 0.23783848223384 
2003	 0.238508369491304 
2004	 0.239206532304184 
2005	 0.239857461874085 
2006	 0.240505089126805 
2007	 0.241147516014379 
2008	 0.241745775391866 
2009	 0.242372207347557 
2010	 0.243039422276273 
2011	 0.243665499800218 
2012	 0.244266756402046 
2013	 0.244872042982274 
2014	 0.245446965171155 
2015	 0.246046320079489 
2016	 0.246663417413002 
2017	 0.247278562390358 
2018	 0.247885270808735 
2019	 0.248503673219294 
2020	 0.24909600355414 
2021	 0.249671940311196 
2022	 0.25023846330714 
2023	 0.250783810218986 
2024	 0.251340822631564 
2025	 0.251882030901405 
2026	 0.252441020369517 
2027	 0.253022440496296 
2028	 0.253593237874569 
2029	 0.254155653460074 
2030	 0.25473135340382 
2031	 0.255262390545409 
2032	 0.255765267510496 
2033	 0.256269528064767 
2034	 0.256738420108476 
2035	 0.257230155675769 
2036	 0.257741170954066 
2037	 0.258225918811821 
2038	 0.258710729683384 
2039	 0.259178046008971 
2040	 0.259609398927415 
2041	 0.260054945707349 
2042	 0.260513349940865 
2043	 0.26096854882579 
2044	 0.261425254059405 
2045	 0.261907713977173 
2046	 0.262346381974345 
2047	 0.262749711096869 
2048	 0.263177789856914 
2049	 0.2636020756618 
2050	 0.264023191919517 
2051	 0.264465006840841 
2052	 0.264884258781729 
2053	 0.26527013205772 
2054	 0.265672228192723 
2055	 0.266092915390083 
2056	 0.266488281132504 
2057	 0.26686969261819 
2058	 0.267242315948655 
2059	 0.267620066676752 
2060	 0.267972967000284 
2061	 0.268342735490826 
2062	 0.268733295789015 
2063	 0.269108296386152 
2064	 0.269472074873309 
2065	 0.269840625244634 
2066	 0.270207584537179 
2067	 0.270577241237639 
2068	 0.270947379089822 
2069	 0.271319933927338 
2070	 0.271687185994914 
2071	 0.272062715126286 
2072	 0.27241394257954 
2073	 0.272748869235906 
2074	 0.273088152667349 
2075	 0.273408279311002 
2076	 0.273748354910225 
2077	 0.274102329138866 
2078	 0.27444749011005 
2079	 0.274804884154982 
2080	 0.275142131537096 
2081	 0.275465886700612 
2082	 0.275789127960707 
2083	 0.276099534404784 
2084	 0.276415001285415 
2085	 0.276717160936052 
2086	 0.277015271484139 
2087	 0.277303608073653 
2088	 0.277572792475406 
2089	 0.277858941399669 
2090	 0.278145611390964 
2091	 0.278434902279248 
2092	 0.278732399325259 
2093	 0.279025878103116 
2094	 0.279311506546897 
2095	 0.279609447997584 
2096	 0.279904552272901 
2097	 0.280217009075142 
2098	 0.280557179297883 
2099	 0.280893448630439 
2100	 0.281193530780203 
2101	 0.281485346646478 
2102	 0.281774262004115 
2103	 0.282023184945261 
2104	 0.28230288197922 
2105	 0.282602624826568 
2106	 0.282895634192622 
2107	 0.283185968294036 
2108	 0.283479047630628 
2109	 0.283772439953188 
2110	 0.284076563914119 
2111	 0.284384186744939 
2112	 0.284697356676269 
2113	 0.285030034359784 
2114	 0.285347816681839 
2115	 0.285677245629552 
2116	 0.286016149917556 
2117	 0.286332262735613 
2118	 0.286659965687581 
2119	 0.286946255714598 
2120	 0.287202636628611 
2121	 0.287451365592432 
2122	 0.287672242130713 
2123	 0.287895804352959 
2124	 0.288109888915089 
2125	 0.288318018287892 
2126	 0.288506074067765 
2127	 0.288711383845342 
2128	 0.288924225411444 
2129	 0.289128788385577 
2130	 0.289344265313195 
2131	 0.289556281891458 
2132	 0.289741926997869 
2133	 0.289913775336918 
2134	 0.290063295096567 
2135	 0.290185417718915 
2136	 0.290312166140634 
2137	 0.290427491553733 
2138	 0.290531691378961 
2139	 0.290646600239073 
2140	 0.290720426911543 
2141	 0.290753789379286 
2142	 0.290791290039686 
2143	 0.290806361520802 
2144	 0.290819576690284 
2145	 0.290833470878762 
2146	 0.290837226049294 
2147	 0.29081979742427 
2148	 0.29081804101163 
2149	 0.290790158491529 
2150	 0.290746913804964 
2151	 0.290710151923843 
2152	 0.290670753385371 
2153	 0.290609538335392 
2154	 0.290551850791678 
2155	 0.290465742413629 
2156	 0.290344879979058 
2157	 0.290228222237484 
2158	 0.290099450828796 
2159	 0.289967847685634 
2160	 0.28983104508786 
2161	 0.289685696968742 
2162	 0.289528412210115 
2163	 0.289374271669624 
2164	 0.289214729035806 
2165	 0.289049854895714 
2166	 0.288895485539876 
2167	 0.288760732026104 
2168	 0.288582949120733 
2169	 0.288395305185204 
2170	 0.288192290766821 
2171	 0.287952863513859 
2172	 0.287727548241669 
2173	 0.287477498453135 
2174	 0.2872757297033 
2175	 0.287093254384947 
2176	 0.286913625387106 
2177	 0.286786909419482 
2178	 0.286622711834371 
2179	 0.286450533281113 
2180	 0.286255566306651 
2181	 0.286026034342967 
2182	 0.285809738504973 
2183	 0.285587521727253 
2184	 0.285355478030076 
2185	 0.285123134637717 
2186	 0.284899939379117 
2187	 0.284664934135147 
2188	 0.284404862888369 
2189	 0.284174994599524 
2190	 0.283943443538712 
2191	 0.28374640181669 
2192	 0.283584796006462 
2193	 0.283406511528426 
2194	 0.283234447388924 
2195	 0.283078032536769 
2196	 0.282926682797212 
2197	 0.282776127993632 
2198	 0.28261564082827 
2199	 0.282507388487072 
2200	 0.282418593532267 
2201	 0.282342142472255 
2202	 0.282316320855282 
2203	 0.282304446906603 
2204	 0.282277928848932 
2205	 0.282239940851435 
2206	 0.282223558492658 
2207	 0.282215908821985 
2208	 0.282220279054409 
2209	 0.282246525982606 
2210	 0.282249863235186 
2211	 0.282258002977694 
2212	 0.282255571960363 
2213	 0.282242925451544 
2214	 0.282219066963075 
2215	 0.282176397340477 
2216	 0.282155719961376 
2217	 0.282131085540365 
2218	 0.282107965314972 
2219	 0.282111324055097 
2220	 0.282096171363064 
2221	 0.282055862439214 
2222	 0.282037168802413 
2223	 0.282015493696858 
2224	 0.281961333015072 
2225	 0.281908470911386 
2226	 0.281832551755105 
2227	 0.281786421239173 
2228	 0.281750030613699 
2229	 0.281704672047942 
2230	 0.281683646255122 
2231	 0.281628710152494 
2232	 0.281540148039851 
2233	 0.281468777367015 
2234	 0.281394738500516 
2235	 0.281314967680182 
2236	 0.281240078762997 
2237	 0.281159595229451 
2238	 0.28107617862796 
2239	 0.280979781436862 
2240	 0.280846219572937 
2241	 0.280759043402097 
2242	 0.280702373552312 
2243	 0.280623922108694 
2244	 0.280559983430912 
2245	 0.280511661004373 
2246	 0.280421359947102 
2247	 0.280296349985225 
2248	 0.280192383194658 
2249	 0.280103803882487 
2250	 0.27997886336008 
2251	 0.27982417862033 
2252	 0.279699821973319 
2253	 0.279552057812693 
2254	 0.279449845864823 
2255	 0.279381694170221 
2256	 0.279322766568437 
2257	 0.279303362962178 
2258	 0.279254981035859 
2259	 0.279218629509231 
2260	 0.279152381151132 
2261	 0.279059355126946 
2262	 0.278960197573127 
2263	 0.278820282184171 
2264	 0.278736652323473 
2265	 0.278676331103605 
2266	 0.278608476130329 
2267	 0.278588260758213 
2268	 0.278533972277613 
2269	 0.278456524852629 
2270	 0.278363459360172 
2271	 0.278298439734291 
2272	 0.278195150097525 
2273	 0.278075188823966 
2274	 0.278031574099331 
2275	 0.277970353700482 
2276	 0.277926444596844 
2277	 0.277849221555951 
2278	 0.277761915537296 
2279	 0.277685306725336 
2280	 0.277577756196792 
2281	 0.27751509480143 
2282	 0.277507586134494 
2283	 0.277451004575555 
2284	 0.277389435057488 
2285	 0.27731458583919 
2286	 0.277204616491681 
2287	 0.277121791413735 
2288	 0.277043139658964 
2289	 0.276966960547188 
2290	 0.27690912962649 
2291	 0.276833082294526 
2292	 0.276759991181191 
2293	 0.276664188929199 
2294	 0.276542424516305 
2295	 0.276432144023321 
2296	 0.276292499900932 
2297	 0.276187519234902 
2298	 0.27614063404729 
2299	 0.276047311691345 
2300	 0.275939642389393 
2301	 0.275853784729811 
2302	 0.275786161180298 
2303	 0.275679036665298 
2304	 0.275574759286155 
2305	 0.27550035167764 
2306	 0.275332673497683 
2307	 0.2750592907154 
2308	 0.274870397704201 
2309	 0.274658214707329 
2310	 0.274498822995069 
2311	 0.274412423135851 
2312	 0.274261168911969 
2313	 0.27412837576433 
2314	 0.273919504960985 
2315	 0.273610694948473 
2316	 0.273401773855793 
2317	 0.273211283895114 
2318	 0.273001116902186 
2319	 0.272849152589651 
2320	 0.272649604741957 
2321	 0.2723639058458 
2322	 0.272144136186901 
2323	 0.271966370691846 
2324	 0.271772366275395 
2325	 0.271580662265752 
2326	 0.271407960152981 
2327	 0.271243211592963 
2328	 0.271078984265869 
2329	 0.27093588975672 
2330	 0.270802972349643 
2331	 0.270610016790164 
2332	 0.270397320416927 
2333	 0.270196915022612 
2334	 0.270024101300768 
2335	 0.269883631718571 
2336	 0.269713782944605 
2337	 0.269541758046339 
2338	 0.269359257279124 
2339	 0.269111541939688 
2340	 0.268882590859682 
2341	 0.268644446764463 
2342	 0.2683510686755 
2343	 0.26811814077449 
2344	 0.267894941978516 
2345	 0.267641780587283 
2346	 0.267406402909038 
2347	 0.267100525077661 
2348	 0.266735992959394 
2349	 0.26639212328236 
2350	 0.265975812874571 
2351	 0.265640721187114 
2352	 0.265364964630205 
2353	 0.265043463962721 
2354	 0.264754449518458 
2355	 0.264420960340102 
2356	 0.264052856401516 
2357	 0.263673461146682 
2358	 0.263236227914513 
2359	 0.262877442276269 
2360	 0.262533077513643 
2361	 0.262196359846093 
2362	 0.261959084008294 
2363	 0.261633529276194 
2364	 0.261236634513727 
2365	 0.260868572791859 
2366	 0.260487826461972 
2367	 0.260084261053037 
2368	 0.259688609616308 
2369	 0.259283751627534 
2370	 0.258839635601372 
2371	 0.258416862149465 
2372	 0.258011812926658 
2373	 0.257636344552935 
2374	 0.257325110201912 
2375	 0.256952235928694 
2376	 0.256561854123903 
2377	 0.256158270179486 
2378	 0.255777737261967 
2379	 0.25540457466272 
2380	 0.254925613388293 
2381	 0.25448748181587 
2382	 0.25399173158111 
2383	 0.253444177872042 
2384	 0.252967090560367 
2385	 0.252516056217914 
2386	 0.2520796365671 
2387	 0.251587833853118 
2388	 0.251199795002157 
2389	 0.250835258726288 
2390	 0.250370122794551 
2391	 0.249987269597019 
2392	 0.249597911806601 
2393	 0.249128636900875 
2394	 0.248685522709105 
2395	 0.248241636880307 
2396	 0.247788694066029 
2397	 0.247302828560313 
2398	 0.246781632429522 
2399	 0.246278096686121 
2400	 0.245694816636453 
2401	 0.245165952021302 
2402	 0.244715060499344 
2403	 0.244214306930805 
2404	 0.243793633895627 
2405	 0.24334919330638 
2406	 0.242794782413496 
2407	 0.242252333325183 
2408	 0.241705325330768 
2409	 0.241111217147931 
2410	 0.24055375194412 
2411	 0.240020065002016 
2412	 0.239481374898878 
2413	 0.239054586214055 
2414	 0.238568359641584 
2415	 0.237957783957513 
2416	 0.23739588637776 
2417	 0.236712589860711 
2418	 0.236205438661619 
2419	 0.235857995774042 
2420	 0.235444198358191 
2421	 0.235117826299777 
2422	 0.234658530199701 
2423	 0.234099201700389 
2424	 0.233567833837467 
2425	 0.23298756549607 
2426	 0.232422237917501 
2427	 0.23186427029922 
2428	 0.231330152619845 
2429	 0.230777437535082 
2430	 0.230271679663046 
2431	 0.22984391632499 
2432	 0.229295841444176 
2433	 0.228709609855116 
2434	 0.22819005735102 
2435	 0.227623411178122 
2436	 0.227109326128045 
2437	 0.226708752271226 
2438	 0.226161640478158 
2439	 0.225504370103796 
2440	 0.224924047686569 
2441	 0.224287548829595 
2442	 0.223789675387324 
2443	 0.223419781260442 
2444	 0.222964271923687 
2445	 0.222581590582279 
2446	 0.222114097295613 
2447	 0.221589488730344 
2448	 0.221069589346135 
2449	 0.220462940949206 
2450	 0.219870114091242 
2451	 0.219288870138676 
2452	 0.218757249094205 
2453	 0.218204152155727 
2454	 0.217694651286661 
2455	 0.217251663166933 
2456	 0.216821714380306 
2457	 0.21647333454002 
2458	 0.216112844456697 
2459	 0.215743251605736 
2460	 0.215260941451946 
2461	 0.214722465971672 
2462	 0.214191162812511 
2463	 0.213622043401025 
2464	 0.213099555500293 
2465	 0.212532400000609 
2466	 0.212070947851749 
2467	 0.211736187120322 
2468	 0.211291792833851 
2469	 0.210850334434988 
2470	 0.21033364866346 
2471	 0.209796239325316 
2472	 0.209326009744535 
2473	 0.209040647264314 
2474	 0.208721694187131 
2475	 0.208219356518861 
2476	 0.207805437167891 
2477	 0.207371261882135 
2478	 0.206794747159691 
2479	 0.206298967249537 
2480	 0.205812492421591 
2481	 0.205322026839956 
2482	 0.205041911195943 
2483	 0.204755175300686 
2484	 0.204433956652325 
2485	 0.203994831940749 
2486	 0.20344369921512 
2487	 0.202870876271224 
2488	 0.202254909876972 
2489	 0.20202258143853 
2490	 0.201755293408818 
2491	 0.201459063325265 
2492	 0.201325675319065 
2493	 0.200706737301433 
2494	 0.200066140412835 
2495	 0.199673981923996 
2496	 0.199311263683004 
2497	 0.199044544222908 
2498	 0.198815260681302 
2499	 0.198548552101815 
2500	 0.19835016864624 
