Wavelength	LMW_1100000.asd
350	 3.55161757206387E-02 
351	 4.04604750012424E-02 
352	 3.59416471209474E-02 
353	 2.52086873303988E-02 
354	 0.030074754213332 
355	 4.08268814996868E-02 
356	 4.65959925479755E-02 
357	 4.19698533145123E-02 
358	 4.20934243680632E-02 
359	 4.21573940872583E-02 
360	 4.10833693443374E-02 
361	 4.03197641666925E-02 
362	 3.63094423846738E-02 
363	 3.53966521137693E-02 
364	 3.89687107864165E-02 
365	 3.92040638978868E-02 
366	 0.037645116850415 
367	 3.75418074315283E-02 
368	 4.06566838229552E-02 
369	 4.14307921500229E-02 
370	 3.79556556119768E-02 
371	 3.50880306151111E-02 
372	 4.05673309843574E-02 
373	 3.85674424041706E-02 
374	 3.79095795835581E-02 
375	 4.22778004604551E-02 
376	 4.09350465056358E-02 
377	 4.02892752054909E-02 
378	 4.04616965686292E-02 
379	 4.04514102444194E-02 
380	 0.042841895467419 
381	 4.20684165229234E-02 
382	 3.99573096060291E-02 
383	 0.043211161066127 
384	 4.37249021978623E-02 
385	 4.29861446085339E-02 
386	 4.25457557410908E-02 
387	 4.12164514590068E-02 
388	 4.12086567064218E-02 
389	 4.24029878274037E-02 
390	 4.35647115370739E-02 
391	 0.042036133902391 
392	 4.28936305165519E-02 
393	 4.56480241943812E-02 
394	 4.51877773653925E-02 
395	 4.36308455790257E-02 
396	 4.37923305711038E-02 
397	 4.59414854019245E-02 
398	 4.45584986030623E-02 
399	 4.46879981640601E-02 
400	 4.60138955445831E-02 
401	 4.65482567750385E-02 
402	 4.68655347369351E-02 
403	 4.72348889532311E-02 
404	 4.74524713545404E-02 
405	 0.046923443611412 
406	 4.77638659274494E-02 
407	 4.80656988459186E-02 
408	 4.69026400194761E-02 
409	 0.048069110819568 
410	 0.047372939254607 
411	 4.63576477740378E-02 
412	 4.83673974361392E-02 
413	 4.92191579492666E-02 
414	 0.048372875521728 
415	 4.69572464791639E-02 
416	 4.77035116744013E-02 
417	 4.76619004830367E-02 
418	 4.79735680973806E-02 
419	 4.95448829187213E-02 
420	 0.049185934175201 
421	 0.048038601874617 
422	 4.74776585402219E-02 
423	 0.048582848143876 
424	 4.80376752038288E-02 
425	 4.77549370921273E-02 
426	 4.86441207925229E-02 
427	 4.86423898868777E-02 
428	 4.82366502879144E-02 
429	 4.76132318341222E-02 
430	 4.69806320678327E-02 
431	 0.046835045855467 
432	 4.69449289175483E-02 
433	 0.04710768597481 
434	 4.71997089306794E-02 
435	 4.72986189069374E-02 
436	 4.73981682173927E-02 
437	 4.74629046252941E-02 
438	 4.73843575288122E-02 
439	 4.75415439393872E-02 
440	 4.77475257388426E-02 
441	 4.76031574143228E-02 
442	 4.74689499869631E-02 
443	 4.75567506308568E-02 
444	 4.78202182529476E-02 
445	 4.78679872507522E-02 
446	 4.78927860980491E-02 
447	 4.78361926738202E-02 
448	 4.76825907126138E-02 
449	 4.78618688695207E-02 
450	 4.81071892180136E-02 
451	 4.83008315105548E-02 
452	 4.84689447440735E-02 
453	 4.85293009531413E-02 
454	 4.83241983429833E-02 
455	 4.79618089687263E-02 
456	 4.82493312534603E-02 
457	 4.83697169611988E-02 
458	 4.82647774551697E-02 
459	 4.82253810379383E-02 
460	 4.83616936921411E-02 
461	 0.048327134569539 
462	 4.81389197731594E-02 
463	 4.83792369446645E-02 
464	 4.84390090515101E-02 
465	 4.83579677103885E-02 
466	 0.048332944048244 
467	 4.84394618651492E-02 
468	 4.83621300510309E-02 
469	 4.81668926007892E-02 
470	 4.82165546925236E-02 
471	 4.83906688792541E-02 
472	 4.84056872601698E-02 
473	 4.81861102473825E-02 
474	 4.82026416618808E-02 
475	 4.82110565171988E-02 
476	 4.81011542584216E-02 
477	 4.78847262995635E-02 
478	 4.80222324686505E-02 
479	 4.82307645566722E-02 
480	 4.83116424160854E-02 
481	 4.82765575053053E-02 
482	 4.81980139272816E-02 
483	 4.81603994880162E-02 
484	 0.048197654205725 
485	 4.81432504220325E-02 
486	 4.81285683911955E-02 
487	 4.81217651755148E-02 
488	 4.79722813407031E-02 
489	 4.79995568758943E-02 
490	 4.80784826962348E-02 
491	 4.81108755031465E-02 
492	 4.83073981167495E-02 
493	 4.81775694019378E-02 
494	 4.79487373320033E-02 
495	 4.80969103029494E-02 
496	 0.048150537089678 
497	 4.80548752426704E-02 
498	 4.79209248237841E-02 
499	 4.80420158742073E-02 
500	 4.81399869707957E-02 
501	 4.81561873240443E-02 
502	 4.81133974458979E-02 
503	 4.80780996514742E-02 
504	 4.80664514714322E-02 
505	 4.80726686404578E-02 
506	 0.048076365759867 
507	 4.81669304761843E-02 
508	 4.82372679229407E-02 
509	 4.82028488200774E-02 
510	 0.048124338869786 
511	 4.81154251619236E-02 
512	 4.81606260894326E-02 
513	 4.81744972617795E-02 
514	 4.81568874775368E-02 
515	 4.81502096370841E-02 
516	 4.81687146003459E-02 
517	 0.048170733730053 
518	 4.81797218388919E-02 
519	 4.81338989280026E-02 
520	 4.80270741479505E-02 
521	 4.82978854300486E-02 
522	 4.84072734953071E-02 
523	 4.82675609702785E-02 
524	 4.83089736447584E-02 
525	 0.048328337169716 
526	 4.83075684269079E-02 
527	 4.82871533030919E-02 
528	 4.83759326372345E-02 
529	 4.84627768832568E-02 
530	 4.85315974352992E-02 
531	 4.86171866040885E-02 
532	 4.85396588948814E-02 
533	 4.84915681113423E-02 
534	 4.85771714960995E-02 
535	 4.86236761022299E-02 
536	 4.85761333776499E-02 
537	 4.85507722102029E-02 
538	 4.86805454928749E-02 
539	 4.86686982161712E-02 
540	 4.86613282133605E-02 
541	 4.87450454184804E-02 
542	 4.88835084525907E-02 
543	 4.89725163875296E-02 
544	 0.049032436565145 
545	 4.91153752510482E-02 
546	 4.92512861145495E-02 
547	 4.92827748252995E-02 
548	 0.049276795322764 
549	 4.94721557837502E-02 
550	 4.95346573605219E-02 
551	 0.04958474920217 
552	 4.97467215127938E-02 
553	 4.99565012337422E-02 
554	 5.00097340347987E-02 
555	 5.00082774858888E-02 
556	 5.01823574003365E-02 
557	 0.050270334842089 
558	 5.03898508950786E-02 
559	 0.050602090229208 
560	 5.08019843684376E-02 
561	 5.09558322259001E-02 
562	 5.11643077083668E-02 
563	 0.051529730365382 
564	 5.18904584783409E-02 
565	 5.21502722321174E-02 
566	 5.23731803742683E-02 
567	 0.052789513096278 
568	 5.32079992306497E-02 
569	 5.35011410750964E-02 
570	 5.36437232862221E-02 
571	 5.38719621072969E-02 
572	 5.41729896127923E-02 
573	 5.45440908105239E-02 
574	 5.49779503140684E-02 
575	 5.53553737079125E-02 
576	 5.57161523423204E-02 
577	 5.61107607013585E-02 
578	 5.65430218481418E-02 
579	 5.70935242214338E-02 
580	 5.77068227376945E-02 
581	 5.82845791405015E-02 
582	 5.89169455222014E-02 
583	 5.95056159307088E-02 
584	 6.00129784099914E-02 
585	 6.05064079377684E-02 
586	 6.11108327822862E-02 
587	 6.17194508948436E-02 
588	 6.22278981091554E-02 
589	 6.28816296103163E-02 
590	 6.35449506057758E-02 
591	 6.41416650781151E-02 
592	 6.46687507184206E-02 
593	 6.51569430028419E-02 
594	 6.56794501487625E-02 
595	 0.066279539058366 
596	 6.69079998012241E-02 
597	 6.75771674442273E-02 
598	 6.82787486663323E-02 
599	 6.89923783519587E-02 
600	 6.96726988172933E-02 
601	 7.03223251367262E-02 
602	 7.09253554184471E-02 
603	 7.14166805050262E-02 
604	 7.19419437035458E-02 
605	 7.25016410892959E-02 
606	 7.30416379321457E-02 
607	 7.35285720018694E-02 
608	 7.40020581427278E-02 
609	 7.44659153101337E-02 
610	 7.48804775371902E-02 
611	 7.53061432888964E-02 
612	 0.075765912836388 
613	 7.62323701262067E-02 
614	 7.65507952635141E-02 
615	 0.076856183725031 
616	 7.71828766676818E-02 
617	 7.74941708728306E-02 
618	 7.78546536276331E-02 
619	 7.81423875131647E-02 
620	 7.83184256251022E-02 
621	 7.85770303778482E-02 
622	 7.88354518139286E-02 
623	 7.90614707401136E-02 
624	 7.92497016190258E-02 
625	 7.94597463652921E-02 
626	 0.079677119430017 
627	 7.98843169396658E-02 
628	 8.00678195776985E-02 
629	 0.08025318773507 
630	 8.04231534731227E-02 
631	 8.05688593904727E-02 
632	 8.07613391813424E-02 
633	 8.09392464008498E-02 
634	 8.10913394210046E-02 
635	 8.12496236601728E-02 
636	 8.14039509346653E-02 
637	 8.15826651205313E-02 
638	 0.081778595344813 
639	 8.18717098440576E-02 
640	 8.20559709887006E-02 
641	 8.22896856824034E-02 
642	 8.24368728355309E-02 
643	 8.25635199619769E-02 
644	 8.27500909198469E-02 
645	 8.29871062017169E-02 
646	 8.31320793976269E-02 
647	 8.33299684080618E-02 
648	 8.35230632743178E-02 
649	 8.36461795516202E-02 
650	 8.38578214442595E-02 
651	 8.40784911008505E-02 
652	 8.42733593640058E-02 
653	 8.44565722404373E-02 
654	 0.084691884186903 
655	 8.49281192767853E-02 
656	 8.51287009471921E-02 
657	 8.53430472756333E-02 
658	 8.56010225849451E-02 
659	 8.58660198615758E-02 
660	 0.086081506928207 
661	 8.63223000040943E-02 
662	 8.65852647684719E-02 
663	 8.68502007467914E-02 
664	 8.70822290605781E-02 
665	 8.73588035957679E-02 
666	 8.76500465108838E-02 
667	 8.79217151639787E-02 
668	 8.82634171744554E-02 
669	 8.85911576674319E-02 
670	 8.88878306469443E-02 
671	 8.91951062503962E-02 
672	 8.95066225385763E-02 
673	 8.98632353411236E-02 
674	 9.02636107052581E-02 
675	 9.05889599109659E-02 
676	 9.09293008564828E-02 
677	 9.13011848331232E-02 
678	 9.16876991247348E-02 
679	 9.20667407615795E-02 
680	 9.24616545389614E-02 
681	 9.28770139468485E-02 
682	 9.32886341461375E-02 
683	 9.36749200756147E-02 
684	 9.40821291433664E-02 
685	 9.45439656574094E-02 
686	 0.094981592757986 
687	 9.54253661049503E-02 
688	 9.58845560426177E-02 
689	 9.63518317509078E-02 
690	 0.096830315128726 
691	 9.72862852202301E-02 
692	 9.77239209151136E-02 
693	 9.82353054031035E-02 
694	 9.87413041173389E-02 
695	 9.92470067176825E-02 
696	 0.099779570344183 
697	 0.100315371873535 
698	 0.100823788260809 
699	 0.101333144528132 
700	 0.101928168319729 
701	 0.102470646997565 
702	 0.102987847912943 
703	 0.103527769611918 
704	 0.104089404397163 
705	 0.104662331905474 
706	 0.105241058265363 
707	 0.105817808670744 
708	 0.10635199797756 
709	 0.106897242923569 
710	 0.107468222714601 
711	 0.108010977813623 
712	 0.108603810399657 
713	 0.109186078847105 
714	 0.109698639609183 
715	 0.110228658351636 
716	 0.110807823032442 
717	 0.111389991537812 
718	 0.111884950643695 
719	 0.112404275754519 
720	 0.112926185016067 
721	 0.113425014724276 
722	 0.11390442082096 
723	 0.114390768384996 
724	 0.114892915458487 
725	 0.115398449203264 
726	 0.115835867301856 
727	 0.116220988451676 
728	 0.116603133526162 
729	 0.117046382134802 
730	 0.117387026246655 
731	 0.117719723245097 
732	 0.11810839828397 
733	 0.118428576249016 
734	 0.118735856543432 
735	 0.119008859092429 
736	 0.119216781926169 
737	 0.11946044948038 
738	 0.119671781834886 
739	 0.119832534179378 
740	 0.119991281289146 
741	 0.120130797984013 
742	 0.120224054261313 
743	 0.12026887469843 
744	 0.120337081019211 
745	 0.12037636603296 
746	 0.120390023364337 
747	 0.120398350026235 
748	 0.120347395820594 
749	 0.120251524182396 
750	 0.120145587723118 
751	 0.120078717445952 
752	 0.119979788152124 
753	 0.119852401058629 
754	 0.119704019427707 
755	 0.119492122242738 
756	 0.119299297479494 
757	 0.119127235327876 
758	 0.118931281658176 
759	 0.118678269786961 
760	 0.11838915335023 
761	 0.118094397934336 
762	 0.117826331706693 
763	 0.117545095448193 
764	 0.117245710101008 
765	 0.116933638270746 
766	 0.116618607327926 
767	 0.11629070506136 
768	 0.115950802581491 
769	 0.115605791886581 
770	 0.115269665791154 
771	 0.114904461675634 
772	 0.114512420300279 
773	 0.114147265834445 
774	 0.113775563464265 
775	 0.113399927752529 
776	 0.113027644193374 
777	 0.112660552950287 
778	 0.11228361783534 
779	 0.111917614418863 
780	 0.111582560716428 
781	 0.111182317760262 
782	 0.11080779203852 
783	 0.110465358844998 
784	 0.110062666370954 
785	 0.109677273296041 
786	 0.109289581787524 
787	 0.108889692200965 
788	 0.108535973207905 
789	 0.108188314821518 
790	 0.107835274729664 
791	 0.107470601952468 
792	 0.107054036704847 
793	 0.106694667333831 
794	 0.106399314697399 
795	 0.106082364179077 
796	 0.105738184887691 
797	 0.105403095619575 
798	 0.105087403132534 
799	 0.104738771067641 
800	 0.104399852485254 
801	 0.104065770573235 
802	 0.103732547332121 
803	 0.103459630391076 
804	 0.103180913475551 
805	 0.10287376584894 
806	 0.102555767000944 
807	 0.102304071796754 
808	 0.10205489991769 
809	 0.101772650664547 
810	 0.101479730809685 
811	 0.10121525778851 
812	 0.100941424830463 
813	 0.100640240398805 
814	 0.100397311907079 
815	 0.100162459918884 
816	 9.99317610793103E-02 
817	 9.97171526441131E-02 
818	 9.95143686983057E-02 
819	 9.92875606212004E-02 
820	 9.90363125651871E-02 
821	 9.87946894092705E-02 
822	 9.86009855691205E-02 
823	 9.84246925122605E-02 
824	 9.82388541038544E-02 
825	 9.80420082644114E-02 
826	 0.097868066541777 
827	 9.76950924131835E-02 
828	 9.75100635023442E-02 
829	 9.73853354606109E-02 
830	 9.72132462970544E-02 
831	 9.70312963710071E-02 
832	 9.69257427001006E-02 
833	 9.68056082580488E-02 
834	 9.66714091207538E-02 
835	 9.65256663281194E-02 
836	 0.096372620177562 
837	 9.62872362907708E-02 
838	 9.62222394235425E-02 
839	 9.61258395811136E-02 
840	 9.59754585961213E-02 
841	 9.58506451970505E-02 
842	 9.57425459420748E-02 
843	 9.56364232838013E-02 
844	 9.55872031692828E-02 
845	 9.55494869147217E-02 
846	 9.54740236739003E-02 
847	 9.53399243742832E-02 
848	 9.52763517924771E-02 
849	 0.095218117236363 
850	 9.51776880260367E-02 
851	 0.095224373680524 
852	 9.51997953771996E-02 
853	 9.51318428844879E-02 
854	 9.50618416169211E-02 
855	 9.50076327542971E-02 
856	 9.49987215804361E-02 
857	 9.50111835421013E-02 
858	 9.50144646233997E-02 
859	 9.49980106219198E-02 
860	 9.49761808688914E-02 
861	 9.49768273119148E-02 
862	 0.095018710224135 
863	 9.50697559076061E-02 
864	 9.50742315946881E-02 
865	 9.50813281175921E-02 
866	 9.51769762750695E-02 
867	 9.52199179667197E-02 
868	 0.095205086931716 
869	 9.51968237427396E-02 
870	 9.52994004093847E-02 
871	 9.53731853996413E-02 
872	 9.54665191187593E-02 
873	 9.55839287922563E-02 
874	 9.56134662300024E-02 
875	 9.56474436292391E-02 
876	 9.57059564751924E-02 
877	 9.57891147200053E-02 
878	 9.58961709806905E-02 
879	 9.60092322160726E-02 
880	 9.61049651133469E-02 
881	 9.61893272215964E-02 
882	 9.63934200928185E-02 
883	 9.65170924444218E-02 
884	 9.65963023915947E-02 
885	 9.67755578682806E-02 
886	 9.69548096533486E-02 
887	 0.097089637626747 
888	 9.72068404451871E-02 
889	 9.73829418908299E-02 
890	 9.75870852482312E-02 
891	 9.77682370281421E-02 
892	 9.79171693961045E-02 
893	 9.80779579479363E-02 
894	 0.098217425138711 
895	 9.83816677330924E-02 
896	 9.86102353150762E-02 
897	 9.89057840573713E-02 
898	 9.91066558462398E-02 
899	 9.92931600637922E-02 
900	 9.95479761841627E-02 
901	 9.97754837142786E-02 
902	 9.99837202284744E-02 
903	 0.100211100858409 
904	 0.100485086691368 
905	 0.100749059476343 
906	 0.100986404119669 
907	 0.101253223122848 
908	 0.1016095999168 
909	 0.101962292719037 
910	 0.10223351558076 
911	 0.10246318170044 
912	 0.102754871883256 
913	 0.103052463238724 
914	 0.103448961905053 
915	 0.103855707880561 
916	 0.104067397424758 
917	 0.104415638332036 
918	 0.104786707313494 
919	 0.105116614466221 
920	 0.105464160148317 
921	 0.105826376507052 
922	 0.106211372434928 
923	 0.106622782131123 
924	 0.107056667496566 
925	 0.107445445483259 
926	 0.107853692766016 
927	 0.108304327127587 
928	 0.108691364263854 
929	 0.109141395421034 
930	 0.109638441730303 
931	 0.110129703233601 
932	 0.110565395269959 
933	 0.111133229458962 
934	 0.111654923108481 
935	 0.112014345470568 
936	 0.112600003908667 
937	 0.113104929219227 
938	 0.113587558374837 
939	 0.114170564550697 
940	 0.114758805963724 
941	 0.115319725143136 
942	 0.115926349205993 
943	 0.116616913791521 
944	 0.117118917151273 
945	 0.117646660509449 
946	 0.118247907413863 
947	 0.11887607980561 
948	 0.119474269321454 
949	 0.120107456565085 
950	 0.120762677917548 
951	 0.121402012008052 
952	 0.122085581348907 
953	 0.122784038919807 
954	 0.123509628851357 
955	 0.124266271870168 
956	 0.124891395213861 
957	 0.125526587931524 
958	 0.126237759517744 
959	 0.127018646795415 
960	 0.12785381962977 
961	 0.128565496935816 
962	 0.12929545069083 
963	 0.130279363574582 
964	 0.13100496691386 
965	 0.131782157599741 
966	 0.132675344709046 
967	 0.133554477034594 
968	 0.134449177572879 
969	 0.135262641147179 
970	 0.136058001787 
971	 0.136966825575308 
972	 0.137820224759071 
973	 0.138760739189339 
974	 0.13974412881563 
975	 0.140639735118236 
976	 0.141671458213546 
977	 0.142618802291901 
978	 0.143493099451086 
979	 0.144446178214993 
980	 0.145404399255995 
981	 0.146245168745348 
982	 0.147134908253413 
983	 0.148298822440679 
984	 0.149275291444506 
985	 0.150320347194675 
986	 0.151399313530142 
987	 0.152362111749457 
988	 0.153484170368314 
989	 0.154488435513262 
990	 0.155426670848484 
991	 0.156493329870865 
992	 0.157626846596116 
993	 0.158705273538121 
994	 0.159806575242767 
995	 0.161011821964822 
996	 0.162018872689588 
997	 0.163090224518659 
998	 0.164269960779802 
999	 0.165453338282369 
1000	 0.166371343482577 
1001	 0.16544180751586 
1002	 0.166565232424564 
1003	 0.16759005017416 
1004	 0.168608066049074 
1005	 0.169637493733578 
1006	 0.170606900045071 
1007	 0.171469489534519 
1008	 0.172458282653629 
1009	 0.173451061538839 
1010	 0.174489713455782 
1011	 0.175606208522788 
1012	 0.176663499211642 
1013	 0.177645746380316 
1014	 0.178653186513533 
1015	 0.179663666732057 
1016	 0.180573415734098 
1017	 0.181556738067161 
1018	 0.182569305426919 
1019	 0.183607409770451 
1020	 0.184576196298742 
1021	 0.185578088533703 
1022	 0.186454988502411 
1023	 0.187294891788165 
1024	 0.188235118911569 
1025	 0.189077087970504 
1026	 0.189930919970575 
1027	 0.190914136269901 
1028	 0.191854504870396 
1029	 0.192766904978794 
1030	 0.193734349887013 
1031	 0.194649975530057 
1032	 0.195505842154139 
1033	 0.196310542776167 
1034	 0.197204070427344 
1035	 0.198078406510631 
1036	 0.198940215452208 
1037	 0.199830905285844 
1038	 0.200646895361826 
1039	 0.201478903617036 
1040	 0.202355071398685 
1041	 0.20318771481929 
1042	 0.204031998546271 
1043	 0.204885507369711 
1044	 0.205707488503807 
1045	 0.20648167311904 
1046	 0.207271004107389 
1047	 0.208106070298279 
1048	 0.208948095588442 
1049	 0.209799779499609 
1050	 0.210671238401814 
1051	 0.211492269021376 
1052	 0.212260276878067 
1053	 0.213101321802168 
1054	 0.213935324424059 
1055	 0.214741018402906 
1056	 0.215581248036908 
1057	 0.216413259625791 
1058	 0.217199100118821 
1059	 0.218028995167595 
1060	 0.218895725183799 
1061	 0.219754305646006 
1062	 0.220592823629268 
1063	 0.221399566029093 
1064	 0.222211961879994 
1065	 0.223055338566218 
1066	 0.223897677227621 
1067	 0.224756591282787 
1068	 0.225639582282521 
1069	 0.22648117632701 
1070	 0.227321106925067 
1071	 0.22815875538695 
1072	 0.228993808809984 
1073	 0.22980480590211 
1074	 0.230634726050524 
1075	 0.231470259490743 
1076	 0.232290657022917 
1077	 0.233138784856512 
1078	 0.233969764272658 
1079	 0.234841983214728 
1080	 0.235776446185522 
1081	 0.236667373022289 
1082	 0.237550704914061 
1083	 0.238425934622129 
1084	 0.239265508027628 
1085	 0.240118319309191 
1086	 0.240985083125063 
1087	 0.241837237078177 
1088	 0.242666462533553 
1089	 0.243506639026809 
1090	 0.244409316385636 
1091	 0.245299736518504 
1092	 0.246216862712336 
1093	 0.247164367500426 
1094	 0.248052670612396 
1095	 0.248886789804849 
1096	 0.249734111451179 
1097	 0.25061719396307 
1098	 0.251490439723702 
1099	 0.252372466467509 
1100	 0.253257970730952 
1101	 0.254132537348893 
1102	 0.255026521916536 
1103	 0.255940799954452 
1104	 0.256843011199531 
1105	 0.25774935411404 
1106	 0.258678955324714 
1107	 0.25959143613083 
1108	 0.260508407947405 
1109	 0.261453913351175 
1110	 0.262359234387551 
1111	 0.263245873157788 
1112	 0.264107246415014 
1113	 0.264979004028296 
1114	 0.265813341019851 
1115	 0.266700361120968 
1116	 0.267610121064717 
1117	 0.268529295830071 
1118	 0.269482461176094 
1119	 0.270422994634238 
1120	 0.271342834031703 
1121	 0.272243591762976 
1122	 0.273187848900126 
1123	 0.274128876218814 
1124	 0.275065519862871 
1125	 0.276038060541053 
1126	 0.276979830970919 
1127	 0.277879221716046 
1128	 0.278808767649335 
1129	 0.279759536063287 
1130	 0.280680996255838 
1131	 0.281582470937128 
1132	 0.282508008181965 
1133	 0.283436560093011 
1134	 0.284361541188781 
1135	 0.285282853003212 
1136	 0.286235888567262 
1137	 0.287201234886705 
1138	 0.288109183612605 
1139	 0.289021253794015 
1140	 0.289939578946922 
1141	 0.290844990188331 
1142	 0.291723718474271 
1143	 0.292614465882315 
1144	 0.293512976511835 
1145	 0.294395340751043 
1146	 0.295262948470843 
1147	 0.296130076484074 
1148	 0.297007642421957 
1149	 0.297869161685602 
1150	 0.298710583206732 
1151	 0.299561273647131 
1152	 0.300404704316137 
1153	 0.301220962092017 
1154	 0.3020657411141 
1155	 0.302923209652183 
1156	 0.303765012595815 
1157	 0.304624337634117 
1158	 0.305454913682264 
1159	 0.306257251121192 
1160	 0.307077651261904 
1161	 0.307885373424806 
1162	 0.308710207855669 
1163	 0.309582613345586 
1164	 0.310398056411305 
1165	 0.311193538083789 
1166	 0.311980819869499 
1167	 0.312751438593045 
1168	 0.313504710480307 
1169	 0.314262350133956 
1170	 0.315026356966574 
1171	 0.315791870453042 
1172	 0.316558911291727 
1173	 0.317304590333977 
1174	 0.318058508863559 
1175	 0.318788905658702 
1176	 0.319475338728282 
1177	 0.320187960006666 
1178	 0.320929928726866 
1179	 0.321633676056763 
1180	 0.32232081920356 
1181	 0.323007170031389 
1182	 0.323677962097919 
1183	 0.324334239426265 
1184	 0.324989418082499 
1185	 0.325654648451629 
1186	 0.326293459358112 
1187	 0.326917284565781 
1188	 0.327525404980226 
1189	 0.328117888608972 
1190	 0.328705098200368 
1191	 0.329276232399054 
1192	 0.329843793333419 
1193	 0.330417978134659 
1194	 0.330965309573982 
1195	 0.331482727677703 
1196	 0.332009412849559 
1197	 0.332541418896318 
1198	 0.33304675318692 
1199	 0.333539715013324 
1200	 0.334027999807192 
1201	 0.334509587336386 
1202	 0.334960988283037 
1203	 0.335434608355427 
1204	 0.335927481860469 
1205	 0.336397339227718 
1206	 0.33685848029376 
1207	 0.337317011098764 
1208	 0.337778167746596 
1209	 0.338215818838516 
1210	 0.338641282431413 
1211	 0.339059421854014 
1212	 0.33946207079328 
1213	 0.339854042305483 
1214	 0.340236214583034 
1215	 0.340615042830791 
1216	 0.340985807703926 
1217	 0.341343472600395 
1218	 0.341696211006537 
1219	 0.342051234098647 
1220	 0.342386210926414 
1221	 0.342686298959016 
1222	 0.343026160440374 
1223	 0.343391362607396 
1224	 0.343720765022947 
1225	 0.344059354088379 
1226	 0.344379484809093 
1227	 0.344667649488128 
1228	 0.344953448181757 
1229	 0.345235498538937 
1230	 0.345515887066364 
1231	 0.345778302030505 
1232	 0.346043795349257 
1233	 0.346310605349103 
1234	 0.34659173600642 
1235	 0.346844450257853 
1236	 0.347080255400217 
1237	 0.347324493345171 
1238	 0.347565508798186 
1239	 0.347795427779003 
1240	 0.348026449426265 
1241	 0.348248083321244 
1242	 0.348444577808866 
1243	 0.348657986165483 
1244	 0.348882835698211 
1245	 0.349096769636749 
1246	 0.349317879995009 
1247	 0.349525436380866 
1248	 0.349709274934264 
1249	 0.349907535250441 
1250	 0.350128444053889 
1251	 0.35032287769516 
1252	 0.350517028131399 
1253	 0.350720004098047 
1254	 0.350909156970405 
1255	 0.351075882251351 
1256	 0.351251757470646 
1257	 0.351441182019048 
1258	 0.351603399619225 
1259	 0.351733595175868 
1260	 0.351896770469177 
1261	 0.35206947912445 
1262	 0.352232123550328 
1263	 0.352418438815887 
1264	 0.352582552066141 
1265	 0.352725221530091 
1266	 0.352862612656895 
1267	 0.352992715532394 
1268	 0.35311430370681 
1269	 0.353242985581139 
1270	 0.353365178147043 
1271	 0.353489333644953 
1272	 0.353625828492227 
1273	 0.353743018623979 
1274	 0.35384107240609 
1275	 0.353952423953096 
1276	 0.354060589003987 
1277	 0.35417333145218 
1278	 0.354297230334946 
1279	 0.354411553823466 
1280	 0.354526697112483 
1281	 0.354632124909883 
1282	 0.354732998760139 
1283	 0.354825173465601 
1284	 0.354903878389936 
1285	 0.354985292954341 
1286	 0.355054661099223 
1287	 0.355123102775835 
1288	 0.35521292352357 
1289	 0.355312769578647 
1290	 0.355412408582955 
1291	 0.355532889659459 
1292	 0.355631186700309 
1293	 0.355716650050859 
1294	 0.355808310713087 
1295	 0.355900001624865 
1296	 0.355984421043201 
1297	 0.356055887622285 
1298	 0.356149100329262 
1299	 0.356250177399391 
1300	 0.356347992010486 
1301	 0.356468912023588 
1302	 0.356568939067683 
1303	 0.356648798465996 
1304	 0.356728492807824 
1305	 0.35682043780536 
1306	 0.356919822283243 
1307	 0.357023611226839 
1308	 0.357106716330883 
1309	 0.357184853623272 
1310	 0.35726095288649 
1311	 0.357307184457286 
1312	 0.357333503389059 
1313	 0.357358703523079 
1314	 0.357356210285483 
1315	 0.357364348564135 
1316	 0.357374818573922 
1317	 0.35738631252103 
1318	 0.357392609583879 
1319	 0.357401232575091 
1320	 0.35742598266773 
1321	 0.357426797502119 
1322	 0.357410747886776 
1323	 0.35740253390317 
1324	 0.357380112425693 
1325	 0.357362895983433 
1326	 0.357343944345257 
1327	 0.357312534534439 
1328	 0.357276532650081 
1329	 0.357220584986661 
1330	 0.357165664596967 
1331	 0.35710248622308 
1332	 0.357046213742547 
1333	 0.356992677664903 
1334	 0.356927935823039 
1335	 0.356861600960287 
1336	 0.356796453219587 
1337	 0.356721830226379 
1338	 0.356643956302564 
1339	 0.356577713931967 
1340	 0.356491006530727 
1341	 0.356392797276403 
1342	 0.356288805485752 
1343	 0.356177854203053 
1344	 0.356051782061714 
1345	 0.355932964117669 
1346	 0.355796491981489 
1347	 0.355645327997977 
1348	 0.355483457520455 
1349	 0.355289653797665 
1350	 0.355062398321172 
1351	 0.354837307059821 
1352	 0.354583787454427 
1353	 0.354354564324428 
1354	 0.354134411676133 
1355	 0.35390450021666 
1356	 0.353667585627728 
1357	 0.353449353083514 
1358	 0.353201151565549 
1359	 0.353022312634873 
1360	 0.352885107787215 
1361	 0.352759804021417 
1362	 0.352676494895111 
1363	 0.352599413649692 
1364	 0.352524124763971 
1365	 0.352485820777974 
1366	 0.352486160239336 
1367	 0.352489669060013 
1368	 0.352516370775 
1369	 0.352529998255056 
1370	 0.352494194417655 
1371	 0.352429575075728 
1372	 0.352327809026635 
1373	 0.352190486707621 
1374	 0.351995510918345 
1375	 0.35178154155689 
1376	 0.351463154170055 
1377	 0.351065007554574 
1378	 0.350619928631461 
1379	 0.35005200086441 
1380	 0.349556022717323 
1381	 0.349017421943472 
1382	 0.34852774573104 
1383	 0.348117812813447 
1384	 0.347638805542937 
1385	 0.347196710627855 
1386	 0.346656428574466 
1387	 0.346071837137557 
1388	 0.345410929940633 
1389	 0.344687659614844 
1390	 0.343884380156715 
1391	 0.343020671437381 
1392	 0.342071846606859 
1393	 0.341012635815794 
1394	 0.339905833113628 
1395	 0.338746144629539 
1396	 0.33755552689406 
1397	 0.336382367964909 
1398	 0.335223130122105 
1399	 0.334006786136657 
1400	 0.332773019056544 
1401	 0.33150858983093 
1402	 0.330165344961891 
1403	 0.328897852732187 
1404	 0.327627117152224 
1405	 0.326400489945971 
1406	 0.325230944305528 
1407	 0.32404632942106 
1408	 0.322844892294478 
1409	 0.321708151809468 
1410	 0.320569786501575 
1411	 0.319515004390369 
1412	 0.31851272693142 
1413	 0.317594268580018 
1414	 0.316725807274756 
1415	 0.315893674109398 
1416	 0.315106025019211 
1417	 0.31433535227252 
1418	 0.313601067415281 
1419	 0.312919845872761 
1420	 0.31231312491416 
1421	 0.311760894453077 
1422	 0.311236280835232 
1423	 0.310747653628456 
1424	 0.310260698487444 
1425	 0.309777140403383 
1426	 0.309330826821502 
1427	 0.308887430861792 
1428	 0.308515211930463 
1429	 0.308192814373166 
1430	 0.307892079188907 
1431	 0.307659492002463 
1432	 0.307408070380574 
1433	 0.307156191763792 
1434	 0.306935979024359 
1435	 0.306710615453135 
1436	 0.306539388205433 
1437	 0.306436890281349 
1438	 0.30631073291146 
1439	 0.306202815655832 
1440	 0.306109095331156 
1441	 0.305972738781217 
1442	 0.305836381079001 
1443	 0.305738980533705 
1444	 0.305662804977503 
1445	 0.30565338108133 
1446	 0.305660826841997 
1447	 0.305662286506108 
1448	 0.305672051986344 
1449	 0.305639761901907 
1450	 0.305599208883122 
1451	 0.305576072528097 
1452	 0.305540413210998 
1453	 0.305540054671766 
1454	 0.305567486231259 
1455	 0.305588865326736 
1456	 0.305641542179552 
1457	 0.305653322098789 
1458	 0.305632637911286 
1459	 0.305647856160344 
1460	 0.305633269739001 
1461	 0.305680799113409 
1462	 0.305789882299682 
1463	 0.305880774173276 
1464	 0.306001193196754 
1465	 0.306109641434872 
1466	 0.306193230264498 
1467	 0.306314051085244 
1468	 0.306424472147259 
1469	 0.306587811081018 
1470	 0.30679860082232 
1471	 0.307033780187797 
1472	 0.307264206743413 
1473	 0.307511774891351 
1474	 0.30771935495619 
1475	 0.307942779417739 
1476	 0.308200889006556 
1477	 0.30847336966189 
1478	 0.308801561773931 
1479	 0.309127502072348 
1480	 0.309458991042283 
1481	 0.309804177506386 
1482	 0.31011673034027 
1483	 0.310403568029451 
1484	 0.310712097800182 
1485	 0.311001751477804 
1486	 0.311324659375444 
1487	 0.311681058617146 
1488	 0.312008289949117 
1489	 0.312340232990379 
1490	 0.312663578306633 
1491	 0.312973937359512 
1492	 0.313285797703436 
1493	 0.313592196967567 
1494	 0.313907041676913 
1495	 0.314213108309981 
1496	 0.314528946189615 
1497	 0.314871382342192 
1498	 0.315187938795345 
1499	 0.315509082678758 
1500	 0.315805627693692 
1501	 0.316062676894141 
1502	 0.31634117308332 
1503	 0.316619269699073 
1504	 0.316885394225939 
1505	 0.317179693877547 
1506	 0.31745999090346 
1507	 0.317723081556259 
1508	 0.317995167156475 
1509	 0.318245271907254 
1510	 0.318492333320273 
1511	 0.31874923611394 
1512	 0.318985611991059 
1513	 0.319213381261667 
1514	 0.319451471543571 
1515	 0.319702526153093 
1516	 0.319941116341322 
1517	 0.32017879764424 
1518	 0.32043632076148 
1519	 0.320663040004376 
1520	 0.320854057601602 
1521	 0.321082108914997 
1522	 0.321313776338593 
1523	 0.321548889383332 
1524	 0.321820745940775 
1525	 0.32203996708186 
1526	 0.322235751271882 
1527	 0.322427186750146 
1528	 0.322579836354379 
1529	 0.322757140817326 
1530	 0.322949102565362 
1531	 0.323129450082423 
1532	 0.323316622698485 
1533	 0.323485595508056 
1534	 0.323631341861881 
1535	 0.323789455736449 
1536	 0.323934734329768 
1537	 0.324097109073437 
1538	 0.324267902658247 
1539	 0.324451776337703 
1540	 0.324663328003682 
1541	 0.324856619893227 
1542	 0.325056806937321 
1543	 0.325242249905049 
1544	 0.325410435962987 
1545	 0.325574869999128 
1546	 0.325733420852065 
1547	 0.325889390948385 
1548	 0.326039796958626 
1549	 0.326170535466221 
1550	 0.326295212500303 
1551	 0.326438294981958 
1552	 0.326589099014289 
1553	 0.326739312650136 
1554	 0.326886249509441 
1555	 0.327013232517592 
1556	 0.327106657292567 
1557	 0.327195332222532 
1558	 0.327301807880304 
1559	 0.32740928560397 
1560	 0.327518689759697 
1561	 0.32764685486524 
1562	 0.327754223362193 
1563	 0.327845627274539 
1564	 0.327946474713109 
1565	 0.328040826179629 
1566	 0.328156071523768 
1567	 0.328282552804813 
1568	 0.328405610540606 
1569	 0.328561865449683 
1570	 0.328658406617848 
1571	 0.328734878501065 
1572	 0.328787869380371 
1573	 0.328782311111309 
1574	 0.328817944888337 
1575	 0.328840877724558 
1576	 0.328897030581163 
1577	 0.3289869088383 
1578	 0.329068388235338 
1579	 0.329163588136605 
1580	 0.329256134723973 
1581	 0.329357553038915 
1582	 0.329442064252174 
1583	 0.329519936288729 
1584	 0.329598005551652 
1585	 0.329659779440303 
1586	 0.3297309329831 
1587	 0.329813006553886 
1588	 0.32988924428474 
1589	 0.329971779656324 
1590	 0.330038793182678 
1591	 0.330099138314209 
1592	 0.330148165792964 
1593	 0.330185039489543 
1594	 0.330212465305702 
1595	 0.330213352044404 
1596	 0.330237440708895 
1597	 0.330274113856329 
1598	 0.330297023474046 
1599	 0.330333195480764 
1600	 0.33035497806355 
1601	 0.330337058411182 
1602	 0.330349836275381 
1603	 0.330384387650953 
1604	 0.330409157396872 
1605	 0.330447247281582 
1606	 0.330475749612829 
1607	 0.330481583162099 
1608	 0.330500515056133 
1609	 0.330553492777489 
1610	 0.330605671617212 
1611	 0.330648853731238 
1612	 0.330684334347862 
1613	 0.330693238146017 
1614	 0.330703963707297 
1615	 0.330729475505836 
1616	 0.330757296464775 
1617	 0.330798140092262 
1618	 0.330816949132989 
1619	 0.330809885160189 
1620	 0.330824243485675 
1621	 0.330830109007076 
1622	 0.330822177541705 
1623	 0.330825432534939 
1624	 0.330841643401541 
1625	 0.330844534284722 
1626	 0.330835463818382 
1627	 0.330838467713961 
1628	 0.330851963268842 
1629	 0.330843672080245 
1630	 0.330828591574532 
1631	 0.330818829326921 
1632	 0.330794932899921 
1633	 0.330783391316834 
1634	 0.330788089381795 
1635	 0.330774394752814 
1636	 0.330754056423316 
1637	 0.330728559411567 
1638	 0.330697856808745 
1639	 0.330661065108414 
1640	 0.330617758491623 
1641	 0.33057025040532 
1642	 0.330515328948582 
1643	 0.330460078802611 
1644	 0.330388643513477 
1645	 0.33034846596756 
1646	 0.33031364107863 
1647	 0.330298823611806 
1648	 0.330315652095056 
1649	 0.330319219529306 
1650	 0.33034002049952 
1651	 0.330327964311277 
1652	 0.330305314057877 
1653	 0.330272439121899 
1654	 0.330202814408798 
1655	 0.33017063977859 
1656	 0.330161729952385 
1657	 0.330122012128932 
1658	 0.330080187606933 
1659	 0.330040145922226 
1660	 0.3299800332828 
1661	 0.329927478196896 
1662	 0.329896873366327 
1663	 0.329839046858176 
1664	 0.329751035484243 
1665	 0.329686721091721 
1666	 0.329627108342677 
1667	 0.329564698434738 
1668	 0.329519278571748 
1669	 0.329447812452309 
1670	 0.329349010532081 
1671	 0.32927736857382 
1672	 0.329196905347537 
1673	 0.329142984364656 
1674	 0.329130803657058 
1675	 0.329083478521023 
1676	 0.329043757846559 
1677	 0.328972424074732 
1678	 0.328866273357979 
1679	 0.328772209578568 
1680	 0.328654693641263 
1681	 0.328566870237955 
1682	 0.328495444923557 
1683	 0.32842109430321 
1684	 0.328363715695535 
1685	 0.328294382381621 
1686	 0.328218093968221 
1687	 0.328143670734791 
1688	 0.328064778073589 
1689	 0.327994300152891 
1690	 0.327946271379374 
1691	 0.327853750319296 
1692	 0.327747841636388 
1693	 0.327629968158048 
1694	 0.327466752475899 
1695	 0.327332919382776 
1696	 0.32718987641595 
1697	 0.327090500805055 
1698	 0.327026950442369 
1699	 0.32694368202975 
1700	 0.326884940829078 
1701	 0.326812331133394 
1702	 0.326719089865741 
1703	 0.326631777438695 
1704	 0.326557139117966 
1705	 0.326473721932167 
1706	 0.326377334996251 
1707	 0.326283762235843 
1708	 0.326189911920503 
1709	 0.326101678208978 
1710	 0.326015645057273 
1711	 0.325928697942936 
1712	 0.325858622606113 
1713	 0.32575501534206 
1714	 0.32562341472381 
1715	 0.325507951947476 
1716	 0.325384922950835 
1717	 0.325261909092919 
1718	 0.325161735260561 
1719	 0.325020171317373 
1720	 0.324854106025392 
1721	 0.324682236426711 
1722	 0.324473946577113 
1723	 0.324302327476075 
1724	 0.324148029645461 
1725	 0.323971521950348 
1726	 0.323805473209238 
1727	 0.323626409855264 
1728	 0.323415084918248 
1729	 0.323229966072581 
1730	 0.323049432471207 
1731	 0.322889218302989 
1732	 0.322756675811985 
1733	 0.322585047608307 
1734	 0.322419192801322 
1735	 0.322240734532409 
1736	 0.322024315533476 
1737	 0.321830714813744 
1738	 0.32166331566352 
1739	 0.32145407119214 
1740	 0.321208519917061 
1741	 0.321012396144085 
1742	 0.320809764503963 
1743	 0.320633033083694 
1744	 0.320507172399388 
1745	 0.320350474997236 
1746	 0.320188601221373 
1747	 0.320024793991514 
1748	 0.319835297314876 
1749	 0.319622076019543 
1750	 0.319429576547791 
1751	 0.319221934082388 
1752	 0.318979903946438 
1753	 0.318747231982122 
1754	 0.318541517331036 
1755	 0.318325266635701 
1756	 0.318133594890358 
1757	 0.317979862518345 
1758	 0.317783075413045 
1759	 0.317604974976222 
1760	 0.317465683069066 
1761	 0.317282625048873 
1762	 0.317101350077417 
1763	 0.316948356886626 
1764	 0.316758282137897 
1765	 0.316547336742266 
1766	 0.31636841569913 
1767	 0.31615341223316 
1768	 0.315947756969822 
1769	 0.315795926376185 
1770	 0.31562808610086 
1771	 0.31551370145963 
1772	 0.315398542021098 
1773	 0.315262887563755 
1774	 0.315150349598606 
1775	 0.314980857001281 
1776	 0.314800296736732 
1777	 0.314622058465661 
1778	 0.314443176579861 
1779	 0.314307862849761 
1780	 0.314181463942459 
1781	 0.314051667515867 
1782	 0.313920419137938 
1783	 0.31377302389043 
1784	 0.313633710625641 
1785	 0.313516200696592 
1786	 0.313388435442277 
1787	 0.31323847165798 
1788	 0.313109766580259 
1789	 0.312974128868971 
1790	 0.312869511590466 
1791	 0.312798002517363 
1792	 0.312733936031111 
1793	 0.312702571563318 
1794	 0.312642808091926 
1795	 0.312587724175746 
1796	 0.312505208427834 
1797	 0.312388618087595 
1798	 0.312303094614888 
1799	 0.312209231856933 
1800	 0.312114668739035 
1801	 0.306520099559287 
1802	 0.306876641064067 
1803	 0.307233965685462 
1804	 0.307637426135573 
1805	 0.308018907898596 
1806	 0.308361080702884 
1807	 0.308716217376548 
1808	 0.308983382404176 
1809	 0.309203858179712 
1810	 0.309387049184252 
1811	 0.309526550516112 
1812	 0.309592284921735 
1813	 0.30965273501425 
1814	 0.309687083409329 
1815	 0.309641850876257 
1816	 0.309615126409081 
1817	 0.309598857960604 
1818	 0.309557016536155 
1819	 0.309536633758035 
1820	 0.309545138506487 
1821	 0.309543500747825 
1822	 0.309502421875338 
1823	 0.309480562770647 
1824	 0.309485910879052 
1825	 0.309452797573881 
1826	 0.309412114331149 
1827	 0.309372105564041 
1828	 0.309298773244623 
1829	 0.3091858174551 
1830	 0.309072265839849 
1831	 0.308937058943636 
1832	 0.308815656130801 
1833	 0.308675233870791 
1834	 0.308504136237512 
1835	 0.308387923986643 
1836	 0.308279182501113 
1837	 0.30817489195351 
1838	 0.308113838425422 
1839	 0.30805171694416 
1840	 0.30801016151653 
1841	 0.307937571839147 
1842	 0.307868609257537 
1843	 0.30781017389163 
1844	 0.307730242852268 
1845	 0.307659680504359 
1846	 0.307606103841445 
1847	 0.307516850283211 
1848	 0.307393326021383 
1849	 0.307276363536546 
1850	 0.307142714322882 
1851	 0.306989790060705 
1852	 0.306816793810594 
1853	 0.306666706684163 
1854	 0.306470641746932 
1855	 0.306196400620547 
1856	 0.305922671037255 
1857	 0.305637261801887 
1858	 0.305295697452236 
1859	 0.304939515576646 
1860	 0.304502326982348 
1861	 0.304025015033968 
1862	 0.303433813555152 
1863	 0.30275821148205 
1864	 0.302004694705652 
1865	 0.301196124108137 
1866	 0.300285009451347 
1867	 0.299354505870926 
1868	 0.298371588449094 
1869	 0.297337592974504 
1870	 0.296362985854264 
1871	 0.295363681749717 
1872	 0.294355686649555 
1873	 0.293363996066724 
1874	 0.292357304705621 
1875	 0.291287597154546 
1876	 0.290165136956198 
1877	 0.28895929114045 
1878	 0.287622091569366 
1879	 0.286146440744315 
1880	 0.284535462316895 
1881	 0.282757340272433 
1882	 0.28089091918244 
1883	 0.278918908196416 
1884	 0.276795142722722 
1885	 0.274563861892093 
1886	 0.272219796379951 
1887	 0.269731572342374 
1888	 0.267162520830914 
1889	 0.264495012034061 
1890	 0.2617707461498 
1891	 0.259001795811349 
1892	 0.256123705013812 
1893	 0.253266247690526 
1894	 0.250386323056664 
1895	 0.247462437324441 
1896	 0.244508015771662 
1897	 0.241585827024952 
1898	 0.238637369844059 
1899	 0.235755708975932 
1900	 0.233000897937011 
1901	 0.230310545229995 
1902	 0.227741978897177 
1903	 0.225308950532007 
1904	 0.222954746850272 
1905	 0.220659886811402 
1906	 0.218540252724514 
1907	 0.216563786203365 
1908	 0.214705257597872 
1909	 0.212984345783996 
1910	 0.211345830106454 
1911	 0.209802132987373 
1912	 0.208333557820674 
1913	 0.206956291175687 
1914	 0.205678732553028 
1915	 0.20448481675244 
1916	 0.203368521297903 
1917	 0.202334606524822 
1918	 0.201423106103707 
1919	 0.200591108320017 
1920	 0.199854164925862 
1921	 0.199222169571829 
1922	 0.198663920676051 
1923	 0.198178364064421 
1924	 0.197742165974245 
1925	 0.197378677374288 
1926	 0.197065362784223 
1927	 0.196804319346213 
1928	 0.196593788218928 
1929	 0.196455785561626 
1930	 0.196355746315492 
1931	 0.196275957881965 
1932	 0.196241585922143 
1933	 0.196244851597947 
1934	 0.196266764160877 
1935	 0.1963355636982 
1936	 0.196456889249487 
1937	 0.196595028818844 
1938	 0.196770239490704 
1939	 0.196962675687001 
1940	 0.197179973652917 
1941	 0.197419246317443 
1942	 0.197673532810865 
1943	 0.197960574666574 
1944	 0.19826297170155 
1945	 0.198578146076635 
1946	 0.198921113064087 
1947	 0.19928616041891 
1948	 0.19966667450364 
1949	 0.200078504379838 
1950	 0.200491626280166 
1951	 0.200911849513805 
1952	 0.201354908906445 
1953	 0.201793809590054 
1954	 0.2022714698406 
1955	 0.202762882008707 
1956	 0.203244533847377 
1957	 0.203753996977727 
1958	 0.204277241092336 
1959	 0.204824553792925 
1960	 0.205404523974724 
1961	 0.205977102161022 
1962	 0.20657621785347 
1963	 0.207163396987397 
1964	 0.207733532230849 
1965	 0.208319889330552 
1966	 0.208936308234632 
1967	 0.209544259259876 
1968	 0.210164771752921 
1969	 0.210819905650916 
1970	 0.211434590950903 
1971	 0.212030851351315 
1972	 0.212639010626082 
1973	 0.21321778226301 
1974	 0.213830004930122 
1975	 0.214474617418952 
1976	 0.215102236981172 
1977	 0.215735319123336 
1978	 0.216380413592046 
1979	 0.217010083420894 
1980	 0.217658604818975 
1981	 0.218308306727405 
1982	 0.218960760979076 
1983	 0.219627949048566 
1984	 0.220314049813714 
1985	 0.220985260144351 
1986	 0.221684049666093 
1987	 0.222340946985852 
1988	 0.222964736050661 
1989	 0.223589832699311 
1990	 0.224212971422929 
1991	 0.224826499295596 
1992	 0.225449028106145 
1993	 0.226078596343776 
1994	 0.226717186101544 
1995	 0.227361754194941 
1996	 0.2279960747597 
1997	 0.228641354589601 
1998	 0.229280337501992 
1999	 0.229904567432957 
2000	 0.230532706158366 
2001	 0.231165310604855 
2002	 0.231796147032588 
2003	 0.232435432705121 
2004	 0.233079865499601 
2005	 0.233700729382046 
2006	 0.234316973836738 
2007	 0.234936885483803 
2008	 0.235536263427366 
2009	 0.236141400582252 
2010	 0.236775973836098 
2011	 0.23737352185166 
2012	 0.237927316263078 
2013	 0.23851068629756 
2014	 0.239095590710055 
2015	 0.239683687813131 
2016	 0.240276673081741 
2017	 0.240854776634524 
2018	 0.241425408751844 
2019	 0.241966673752227 
2020	 0.24252950991832 
2021	 0.243109297996885 
2022	 0.243666386931165 
2023	 0.244214775293654 
2024	 0.24476840220116 
2025	 0.245311717527921 
2026	 0.245854993516305 
2027	 0.246398628524114 
2028	 0.246950236087034 
2029	 0.247493875824799 
2030	 0.248037650763313 
2031	 0.248553991679511 
2032	 0.249060946840752 
2033	 0.249562632395102 
2034	 0.250037844729188 
2035	 0.250520611668627 
2036	 0.251008543696111 
2037	 0.251488296824229 
2038	 0.2519643596 
2039	 0.252427112905517 
2040	 0.252873873324903 
2041	 0.253340238908741 
2042	 0.253776298432689 
2043	 0.254185022775726 
2044	 0.254609213114928 
2045	 0.255027959749345 
2046	 0.255447624472475 
2047	 0.255884227774624 
2048	 0.256290515253654 
2049	 0.25667148819364 
2050	 0.257065607870146 
2051	 0.257431014978116 
2052	 0.257829238010259 
2053	 0.258267559643631 
2054	 0.258682301035268 
2055	 0.259117197229845 
2056	 0.259524324633729 
2057	 0.259902212735621 
2058	 0.260251251057243 
2059	 0.260597752235675 
2060	 0.260899421095989 
2061	 0.261245024282184 
2062	 0.261602693171043 
2063	 0.261956558654837 
2064	 0.262333751159622 
2065	 0.26269328089715 
2066	 0.263043851936713 
2067	 0.263390245432113 
2068	 0.263722389445868 
2069	 0.264072478511598 
2070	 0.264405050978065 
2071	 0.264718863977558 
2072	 0.265058293745444 
2073	 0.265408775690868 
2074	 0.265745123118154 
2075	 0.266091187212722 
2076	 0.266427570738704 
2077	 0.266747607958953 
2078	 0.267073704329786 
2079	 0.267414318102142 
2080	 0.26773416229823 
2081	 0.268043780592965 
2082	 0.268344587903004 
2083	 0.268634784856115 
2084	 0.2689062359558 
2085	 0.269195495151741 
2086	 0.269486986746138 
2087	 0.26977006060678 
2088	 0.270055855085921 
2089	 0.270339431288884 
2090	 0.270604793611463 
2091	 0.27089238571871 
2092	 0.271201576113747 
2093	 0.271495224105816 
2094	 0.271782437269102 
2095	 0.272080171333186 
2096	 0.272381786848143 
2097	 0.272676754906198 
2098	 0.272976270275589 
2099	 0.273281876576489 
2100	 0.273570384204745 
2101	 0.273838916898749 
2102	 0.274125805896049 
2103	 0.274414294198216 
2104	 0.274706086502595 
2105	 0.275002413341204 
2106	 0.275302499985476 
2107	 0.27560771516358 
2108	 0.275909358678997 
2109	 0.276223245741151 
2110	 0.276521961365403 
2111	 0.276796999126091 
2112	 0.277093482994161 
2113	 0.277405291010116 
2114	 0.2776901433482 
2115	 0.278010985227207 
2116	 0.278372538592787 
2117	 0.278677427047381 
2118	 0.278979779860705 
2119	 0.279256916887099 
2120	 0.279492578616984 
2121	 0.279736923369179 
2122	 0.279982005930222 
2123	 0.280206462232611 
2124	 0.280401712272032 
2125	 0.280613920103495 
2126	 0.280816694145743 
2127	 0.281027121279779 
2128	 0.281255715521674 
2129	 0.281473953915314 
2130	 0.281697734407935 
2131	 0.281910358937836 
2132	 0.282089949918384 
2133	 0.282259917052125 
2134	 0.282394325490182 
2135	 0.28247377573476 
2136	 0.282585481241155 
2137	 0.282690029082232 
2138	 0.282794333853963 
2139	 0.282921663011994 
2140	 0.28301206646607 
2141	 0.283094220075563 
2142	 0.283141601410605 
2143	 0.283141711542093 
2144	 0.283155282020477 
2145	 0.283149676925782 
2146	 0.283142756908668 
2147	 0.283135375208955 
2148	 0.283136471240726 
2149	 0.283119840463273 
2150	 0.283087110223946 
2151	 0.283060496467962 
2152	 0.283038998820498 
2153	 0.282995877618016 
2154	 0.282963175681267 
2155	 0.282877304277171 
2156	 0.282753849308836 
2157	 0.282624943030636 
2158	 0.282443689328493 
2159	 0.282291022121528 
2160	 0.282154628876823 
2161	 0.281997438467868 
2162	 0.281828897529097 
2163	 0.281668101422353 
2164	 0.281488322175953 
2165	 0.281324133146242 
2166	 0.28116798757433 
2167	 0.281045712477597 
2168	 0.280863496881946 
2169	 0.280653725053434 
2170	 0.280460680084432 
2171	 0.280233405199583 
2172	 0.280038717761125 
2173	 0.279875904855091 
2174	 0.27969965158717 
2175	 0.279520423927254 
2176	 0.279343606226611 
2177	 0.279166447602842 
2178	 0.27899543840505 
2179	 0.278848409749413 
2180	 0.278666383703771 
2181	 0.278479556770548 
2182	 0.278275259525837 
2183	 0.278039183543868 
2184	 0.277786801585347 
2185	 0.27754769540655 
2186	 0.277299146870213 
2187	 0.277066990251071 
2188	 0.276840574391739 
2189	 0.276622917453076 
2190	 0.276399668729376 
2191	 0.276217310102246 
2192	 0.276071053548766 
2193	 0.275904180379279 
2194	 0.275754226663383 
2195	 0.275607177786934 
2196	 0.275434270395336 
2197	 0.275294264863865 
2198	 0.275193113415247 
2199	 0.27508246220818 
2200	 0.274960621520309 
2201	 0.274871438322255 
2202	 0.274794620537092 
2203	 0.274728466429711 
2204	 0.274704608340183 
2205	 0.274740076343373 
2206	 0.274720856467147 
2207	 0.274703925916329 
2208	 0.274690178784995 
2209	 0.274650128850775 
2210	 0.274634049528547 
2211	 0.274641400503199 
2212	 0.274642801662944 
2213	 0.274655619402829 
2214	 0.274643303016443 
2215	 0.274619689307692 
2216	 0.274609068768359 
2217	 0.274578277395724 
2218	 0.274559318235345 
2219	 0.274573763298471 
2220	 0.27456259842193 
2221	 0.27452927194335 
2222	 0.274511900273464 
2223	 0.274473095773619 
2224	 0.274410315348022 
2225	 0.274374007765355 
2226	 0.274343485366679 
2227	 0.274296904030934 
2228	 0.274260937558518 
2229	 0.274209486437679 
2230	 0.274132241594937 
2231	 0.274066385279261 
2232	 0.274001718487887 
2233	 0.273940735016486 
2234	 0.273886082307844 
2235	 0.273816777466702 
2236	 0.273740802389948 
2237	 0.273671198421099 
2238	 0.273602778489249 
2239	 0.273517218971074 
2240	 0.273419176418827 
2241	 0.273338340771056 
2242	 0.27324192334819 
2243	 0.273161200177838 
2244	 0.273113181824141 
2245	 0.273060592186776 
2246	 0.272975191179998 
2247	 0.272872957968924 
2248	 0.27278789980675 
2249	 0.272695779410566 
2250	 0.272600372723835 
2251	 0.27252005890938 
2252	 0.272416423097927 
2253	 0.272266416964688 
2254	 0.272181551135326 
2255	 0.272132569491114 
2256	 0.272061710366309 
2257	 0.272029622206409 
2258	 0.271949654232953 
2259	 0.271816179123233 
2260	 0.271721771127078 
2261	 0.271638423404218 
2262	 0.271541852290145 
2263	 0.271428373832609 
2264	 0.271357125125044 
2265	 0.271309764791126 
2266	 0.271246880161363 
2267	 0.271221169376551 
2268	 0.271177008668718 
2269	 0.271120699262468 
2270	 0.271024859877194 
2271	 0.27094641748643 
2272	 0.270849221763244 
2273	 0.270759612051501 
2274	 0.270703286931723 
2275	 0.270646364616615 
2276	 0.270633440361985 
2277	 0.270574989471414 
2278	 0.270487186522009 
2279	 0.27041964725702 
2280	 0.270341089103245 
2281	 0.270285491784704 
2282	 0.270266783033823 
2283	 0.270204044407464 
2284	 0.270119734684268 
2285	 0.270054937433481 
2286	 0.269983172165622 
2287	 0.269904582015408 
2288	 0.269847389221341 
2289	 0.269769649551851 
2290	 0.26964096648766 
2291	 0.269552738053488 
2292	 0.269518640123106 
2293	 0.269422247597571 
2294	 0.269279644011761 
2295	 0.269179838918121 
2296	 0.26907120895352 
2297	 0.268961351966388 
2298	 0.2688708868187 
2299	 0.268789767989941 
2300	 0.268664630248161 
2301	 0.268567062572384 
2302	 0.268508893574843 
2303	 0.2684395337429 
2304	 0.268343570289699 
2305	 0.268189678679349 
2306	 0.26801913631707 
2307	 0.267780036073908 
2308	 0.267607276555259 
2309	 0.267442642198944 
2310	 0.267275884407512 
2311	 0.267145681961772 
2312	 0.266978534002705 
2313	 0.266800271052515 
2314	 0.266594346224844 
2315	 0.266339295533195 
2316	 0.266141259553158 
2317	 0.265941990862166 
2318	 0.265751078291121 
2319	 0.26562339158729 
2320	 0.26544237006763 
2321	 0.265208190929089 
2322	 0.265014264662273 
2323	 0.264810209682946 
2324	 0.264637622549054 
2325	 0.2645242515027 
2326	 0.264370057582425 
2327	 0.264206696236308 
2328	 0.264046608415376 
2329	 0.263878664517307 
2330	 0.263722375948924 
2331	 0.263539142757286 
2332	 0.263351752290271 
2333	 0.263199907634133 
2334	 0.263001285194946 
2335	 0.262800763749167 
2336	 0.262617871519663 
2337	 0.262366459383077 
2338	 0.26212943357688 
2339	 0.261951313115379 
2340	 0.261778318397315 
2341	 0.261580323027443 
2342	 0.261363470776982 
2343	 0.26110957110602 
2344	 0.260809600854028 
2345	 0.260562194422403 
2346	 0.260367974929635 
2347	 0.260095628819784 
2348	 0.259801447671411 
2349	 0.259510026745691 
2350	 0.259174718796117 
2351	 0.258834629050609 
2352	 0.258498046897798 
2353	 0.258175311100972 
2354	 0.257816880344755 
2355	 0.25748951844945 
2356	 0.257224151170361 
2357	 0.256912490531392 
2358	 0.25658033096061 
2359	 0.256242152245867 
2360	 0.255882196512743 
2361	 0.255515897937482 
2362	 0.255145042605002 
2363	 0.254776366981641 
2364	 0.254379508111905 
2365	 0.254022320318831 
2366	 0.253697638946801 
2367	 0.253340955870657 
2368	 0.253022647807485 
2369	 0.2526532190672 
2370	 0.252233450468707 
2371	 0.251807958925124 
2372	 0.251366002906706 
2373	 0.250950390090624 
2374	 0.250587542153234 
2375	 0.250143216377728 
2376	 0.24971836966683 
2377	 0.249269074475522 
2378	 0.248782178414125 
2379	 0.248442914001815 
2380	 0.248130941408064 
2381	 0.247708489552498 
2382	 0.247217458214043 
2383	 0.246744530211945 
2384	 0.246275633655869 
2385	 0.245836016801684 
2386	 0.245485874043266 
2387	 0.245078389212077 
2388	 0.244629769291954 
2389	 0.244191111344795 
2390	 0.243719319515546 
2391	 0.243280291387485 
2392	 0.242840146419525 
2393	 0.242351695816714 
2394	 0.241849151692645 
2395	 0.241319414120008 
2396	 0.240733018720813 
2397	 0.240232001798042 
2398	 0.239793410448836 
2399	 0.239329297691146 
2400	 0.238945326265561 
2401	 0.238507817174188 
2402	 0.237968277171319 
2403	 0.237493169970925 
2404	 0.237034512689159 
2405	 0.236587264434105 
2406	 0.236204949774322 
2407	 0.235797987063506 
2408	 0.235319738636694 
2409	 0.234750197165963 
2410	 0.23420160642598 
2411	 0.233687728331646 
2412	 0.233106062735462 
2413	 0.232643903301102 
2414	 0.232256055849442 
2415	 0.231771765738674 
2416	 0.231261145859573 
2417	 0.230726441243528 
2418	 0.230202055437411 
2419	 0.229578805238697 
2420	 0.229154374367727 
2421	 0.22892140861444 
2422	 0.228531070584072 
2423	 0.228165946121061 
2424	 0.227707784478756 
2425	 0.227097470410754 
2426	 0.226561948088048 
2427	 0.226056597044467 
2428	 0.225495776425264 
2429	 0.224910311822807 
2430	 0.22436590989161 
2431	 0.223807583384897 
2432	 0.223301394978061 
2433	 0.222809514784473 
2434	 0.222332468407476 
2435	 0.221894684706967 
2436	 0.221408533440327 
2437	 0.220980906527744 
2438	 0.220482947613862 
2439	 0.219887033383412 
2440	 0.219377681978996 
2441	 0.218833879347289 
2442	 0.218401697862443 
2443	 0.218115740475137 
2444	 0.217691121875709 
2445	 0.217283345057 
2446	 0.216774219250247 
2447	 0.216097147430803 
2448	 0.215597041466019 
2449	 0.215148643928445 
2450	 0.214621302258816 
2451	 0.214150174760801 
2452	 0.213652857423439 
2453	 0.213071690420969 
2454	 0.212585193870783 
2455	 0.21215492230598 
2456	 0.211770063225358 
2457	 0.21147152110544 
2458	 0.211036022171248 
2459	 0.210576433054201 
2460	 0.210037522115057 
2461	 0.2093225031948 
2462	 0.208746447077086 
2463	 0.208280464814374 
2464	 0.207814907007667 
2465	 0.207343937688681 
2466	 0.206869491795214 
2467	 0.206400831070472 
2468	 0.205948659911989 
2469	 0.205504478450218 
2470	 0.205156946011211 
2471	 0.204757066702032 
2472	 0.204268176635901 
2473	 0.20382437473659 
2474	 0.203417924215386 
2475	 0.202974344044767 
2476	 0.202557509324382 
2477	 0.202183727480653 
2478	 0.201675746652021 
2479	 0.201180443506401 
2480	 0.200882026204944 
2481	 0.200548548998659 
2482	 0.200227693995589 
2483	 0.199867092468805 
2484	 0.199450501261613 
2485	 0.199054752966094 
2486	 0.198727404285695 
2487	 0.1983697972601 
2488	 0.197782734770573 
2489	 0.197406272596408 
2490	 0.19701158415206 
2491	 0.196628073395445 
2492	 0.19647118038939 
2493	 0.196015319323116 
2494	 0.195510167272691 
2495	 0.195242674956098 
2496	 0.194990780656824 
2497	 0.194744587904314 
2498	 0.194630354830711 
2499	 0.194408917262445 
2500	 0.194144570373359 
