Wavelength	LMW_1400008.asd
350	 0.062439991829014 
351	 6.33116712376803E-02 
352	 6.27963547251998E-02 
353	 5.75548666560686E-02 
354	 6.82234554189568E-02 
355	 0.067686297752791 
356	 6.43089969312885E-02 
357	 6.99949788925971E-02 
358	 7.45106227187137E-02 
359	 0.072657925076526 
360	 6.78889174482957E-02 
361	 6.81075202229666E-02 
362	 6.58045490002268E-02 
363	 0.065479509883025 
364	 6.78855183192008E-02 
365	 6.56455273768412E-02 
366	 6.52841249437638E-02 
367	 6.75620963071468E-02 
368	 7.02975061737517E-02 
369	 6.64410695615001E-02 
370	 6.46265083299489E-02 
371	 6.68417388171523E-02 
372	 6.98918129025959E-02 
373	 6.97596858750685E-02 
374	 6.74500741145073E-02 
375	 6.50240060656381E-02 
376	 6.50065937730822E-02 
377	 6.51569133599408E-02 
378	 6.63818717227522E-02 
379	 6.93560667360913E-02 
380	 7.07128920510939E-02 
381	 6.71632824572381E-02 
382	 6.37877612608436E-02 
383	 7.02216257678002E-02 
384	 7.10663979988042E-02 
385	 6.81356651964297E-02 
386	 6.58472297954965E-02 
387	 6.88888272538744E-02 
388	 6.96017817641058E-02 
389	 6.84774408750053E-02 
390	 6.82819619188984E-02 
391	 6.88209918281567E-02 
392	 6.94309908278524E-02 
393	 6.96008480236833E-02 
394	 6.91722210393114E-02 
395	 7.13644669849143E-02 
396	 7.27031163023091E-02 
397	 7.15244503126219E-02 
398	 7.24364013724072E-02 
399	 7.24814243823703E-02 
400	 7.17179788627728E-02 
401	 7.12766186352938E-02 
402	 7.19019169631789E-02 
403	 7.15855190720145E-02 
404	 7.06259828050749E-02 
405	 7.16422777986071E-02 
406	 7.24740793882633E-02 
407	 7.31653599075401E-02 
408	 7.35028446208395E-02 
409	 7.11454400070288E-02 
410	 6.98492084676608E-02 
411	 7.02922397131342E-02 
412	 7.14574053240665E-02 
413	 7.21745342972465E-02 
414	 7.23439648970752E-02 
415	 7.20862324588343E-02 
416	 7.15903737301913E-02 
417	 0.071621322123152 
418	 0.072159035860897 
419	 7.28374958567662E-02 
420	 7.30506403738748E-02 
421	 7.23999432339869E-02 
422	 7.18654627607116E-02 
423	 7.29603420678061E-02 
424	 7.28941632470059E-02 
425	 7.25906674614546E-02 
426	 7.28236607366537E-02 
427	 7.32848178518067E-02 
428	 7.30929617687874E-02 
429	 7.27944589610691E-02 
430	 7.31938758214682E-02 
431	 0.073912441830875 
432	 7.39228986483963E-02 
433	 7.33285865984992E-02 
434	 7.32872010766811E-02 
435	 7.37087261451456E-02 
436	 0.074161023242419 
437	 7.42678695522272E-02 
438	 7.39030947999687E-02 
439	 7.41258508878517E-02 
440	 7.46602505317288E-02 
441	 7.46866820467486E-02 
442	 7.50362357518126E-02 
443	 7.52946833357526E-02 
444	 7.52378209181302E-02 
445	 7.50796068386505E-02 
446	 7.52051410504574E-02 
447	 0.075461793639553 
448	 7.56249735414532E-02 
449	 0.075931286731214 
450	 7.63873636407513E-02 
451	 7.68308267383857E-02 
452	 7.69888308810088E-02 
453	 0.077105548509919 
454	 7.70865590614293E-02 
455	 7.69907124505255E-02 
456	 7.74345375684157E-02 
457	 7.76777984055879E-02 
458	 7.77390596946806E-02 
459	 7.79504328363363E-02 
460	 7.81648028944412E-02 
461	 7.82647120534444E-02 
462	 0.078349774023484 
463	 7.88189423186585E-02 
464	 7.91979602025622E-02 
465	 7.94814270523652E-02 
466	 7.97578873234477E-02 
467	 0.079928357961021 
468	 8.00462409193728E-02 
469	 0.080129684358501 
470	 8.01787596899782E-02 
471	 8.04299788423965E-02 
472	 8.07237212581739E-02 
473	 8.09260562895994E-02 
474	 8.10965260895533E-02 
475	 8.15284891749254E-02 
476	 8.20037153657457E-02 
477	 8.21508432506916E-02 
478	 8.23366924127541E-02 
479	 8.25209409823719E-02 
480	 8.27238686193608E-02 
481	 8.31047705957054E-02 
482	 8.32827887114659E-02 
483	 8.33924516432712E-02 
484	 8.36405195456409E-02 
485	 8.39082867905563E-02 
486	 8.40684743189471E-02 
487	 8.41810624061269E-02 
488	 0.084441006514215 
489	 8.45489587245573E-02 
490	 8.46910937646414E-02 
491	 8.49807616261312E-02 
492	 8.51423790929273E-02 
493	 8.53384030059953E-02 
494	 8.55743272926889E-02 
495	 8.57944223304091E-02 
496	 8.60656954579392E-02 
497	 8.62881102934044E-02 
498	 8.64291257582512E-02 
499	 8.65749555893804E-02 
500	 8.67250477849184E-02 
501	 8.68539666177741E-02 
502	 8.69654658205351E-02 
503	 8.72597023207314E-02 
504	 8.73886526108359E-02 
505	 8.73285803277574E-02 
506	 8.73605764259654E-02 
507	 8.74604168245555E-02 
508	 8.76760790138243E-02 
509	 8.79841736027537E-02 
510	 8.81705155663341E-02 
511	 8.82700431081964E-02 
512	 8.83343051365331E-02 
513	 8.84275293772233E-02 
514	 8.85850778450253E-02 
515	 0.088772658431357 
516	 8.89477590640658E-02 
517	 8.90798422342615E-02 
518	 8.90262107221808E-02 
519	 0.089001443381064 
520	 8.92371094628644E-02 
521	 8.94018608166031E-02 
522	 8.95250235408194E-02 
523	 8.96154490687686E-02 
524	 8.96417862850874E-02 
525	 8.97792844405271E-02 
526	 8.99042689241908E-02 
527	 0.089913708489573 
528	 8.99882434081708E-02 
529	 9.00777386163256E-02 
530	 9.01574007676409E-02 
531	 9.02245254666099E-02 
532	 9.03213177142217E-02 
533	 9.05119455925038E-02 
534	 9.07465100065723E-02 
535	 9.07168233489841E-02 
536	 9.07435157885067E-02 
537	 9.08557949656029E-02 
538	 9.09633992414317E-02 
539	 9.10025567965585E-02 
540	 9.10604394740157E-02 
541	 9.11683815502742E-02 
542	 9.12686369457431E-02 
543	 9.13424314718301E-02 
544	 9.14297771046057E-02 
545	 9.15618812117789E-02 
546	 9.16664273022913E-02 
547	 9.17412972954849E-02 
548	 9.18090563603946E-02 
549	 9.19065945228478E-02 
550	 9.19473551986926E-02 
551	 9.20027311189164E-02 
552	 9.21227541038368E-02 
553	 0.092232427315686 
554	 9.23127737089436E-02 
555	 9.23891297813225E-02 
556	 0.092501989330611 
557	 9.25773599735775E-02 
558	 9.26459656463915E-02 
559	 9.27311744915148E-02 
560	 9.28292845934178E-02 
561	 9.28306371868154E-02 
562	 9.28555235841242E-02 
563	 9.30399334952606E-02 
564	 9.31361348457579E-02 
565	 9.31949763337362E-02 
566	 9.32580054627232E-02 
567	 9.33357247096873E-02 
568	 9.34306341732673E-02 
569	 9.35360631868999E-02 
570	 9.36224561214913E-02 
571	 9.35748729920592E-02 
572	 9.36420290488211E-02 
573	 9.37966863632155E-02 
574	 9.38229189953327E-02 
575	 9.37952503245082E-02 
576	 9.38540111495676E-02 
577	 9.40164862763089E-02 
578	 9.39924302922837E-02 
579	 9.40680357557984E-02 
580	 9.41852028175363E-02 
581	 9.41786089595193E-02 
582	 9.42520342720878E-02 
583	 9.42539753357096E-02 
584	 9.41569803266715E-02 
585	 9.41471061426458E-02 
586	 9.42293448456472E-02 
587	 9.43378347759146E-02 
588	 9.44004998995878E-02 
589	 9.44470644099736E-02 
590	 9.44827059455719E-02 
591	 9.45002489775606E-02 
592	 0.094482527299838 
593	 9.44265776656597E-02 
594	 9.43562216502076E-02 
595	 9.43042882307798E-02 
596	 9.43107912860378E-02 
597	 9.43714103315416E-02 
598	 9.44525641068399E-02 
599	 9.45124292157662E-02 
600	 9.46088900946824E-02 
601	 9.46884056726303E-02 
602	 9.47216374787426E-02 
603	 9.47432574051204E-02 
604	 9.47488024045895E-02 
605	 9.47944976239478E-02 
606	 9.49246526469551E-02 
607	 9.50162070138063E-02 
608	 9.50555921698785E-02 
609	 9.50763045926762E-02 
610	 9.51548484992317E-02 
611	 9.52090913503297E-02 
612	 9.52378828090991E-02 
613	 0.095258008779171 
614	 9.52797308978616E-02 
615	 0.095268297060724 
616	 9.52535130504351E-02 
617	 9.53037933657389E-02 
618	 9.53782091941564E-02 
619	 9.54000281635837E-02 
620	 9.53470187391405E-02 
621	 9.53058421210037E-02 
622	 9.53904754071603E-02 
623	 9.55276449244728E-02 
624	 9.55753929136917E-02 
625	 9.55465523584076E-02 
626	 9.55560422104188E-02 
627	 9.56239964237914E-02 
628	 9.56346767010582E-02 
629	 9.57223255702205E-02 
630	 9.58028204493702E-02 
631	 9.57843845679211E-02 
632	 9.57745678185431E-02 
633	 9.58261570660428E-02 
634	 9.59142432316023E-02 
635	 9.59557677701002E-02 
636	 9.60086874551629E-02 
637	 9.60760599791919E-02 
638	 9.61378837225308E-02 
639	 9.61341607743796E-02 
640	 9.61541024422561E-02 
641	 0.096223011296441 
642	 9.63224521332988E-02 
643	 9.63603371148961E-02 
644	 9.64114566894789E-02 
645	 9.64908007372707E-02 
646	 9.65021495174173E-02 
647	 9.65260249627985E-02 
648	 9.65674873077296E-02 
649	 9.66217034677147E-02 
650	 9.67492367909748E-02 
651	 9.68108230185327E-02 
652	 9.68250805090884E-02 
653	 9.69405875583102E-02 
654	 9.70013656663698E-02 
655	 9.70283141867743E-02 
656	 9.70669744331918E-02 
657	 9.71435935384249E-02 
658	 9.72149047907515E-02 
659	 9.72843990630151E-02 
660	 9.73687338273504E-02 
661	 9.74018737215655E-02 
662	 9.74365198369714E-02 
663	 9.75011568223432E-02 
664	 9.75728442583437E-02 
665	 9.76548858784472E-02 
666	 0.097711420317281 
667	 9.77290210741183E-02 
668	 9.78289724762727E-02 
669	 9.79119876570386E-02 
670	 9.79594047979425E-02 
671	 9.80227968576152E-02 
672	 9.80785549210058E-02 
673	 9.81383665037238E-02 
674	 9.82078150874946E-02 
675	 9.82676228819812E-02 
676	 9.83082159494389E-02 
677	 9.83355365462158E-02 
678	 9.83659138278535E-02 
679	 9.84214919673631E-02 
680	 9.84971308928831E-02 
681	 9.85746967598398E-02 
682	 9.86236715440911E-02 
683	 9.86691130967776E-02 
684	 9.87278853074609E-02 
685	 9.88034694369008E-02 
686	 9.88642070915528E-02 
687	 9.88981575441305E-02 
688	 9.89243088641324E-02 
689	 9.89772615039942E-02 
690	 9.89986240190402E-02 
691	 0.098999823200356 
692	 9.90144905948547E-02 
693	 9.91068116871898E-02 
694	 9.91584555314319E-02 
695	 9.91735526068367E-02 
696	 9.91984662461148E-02 
697	 9.92339018392835E-02 
698	 9.92718697284241E-02 
699	 9.93076577390626E-02 
700	 9.93416152352539E-02 
701	 9.93986265592434E-02 
702	 9.94237679350701E-02 
703	 9.93989472678429E-02 
704	 0.099459834007495 
705	 9.94934969889096E-02 
706	 9.94950993801996E-02 
707	 9.95118160250447E-02 
708	 9.95111653850798E-02 
709	 9.95268286037738E-02 
710	 0.099567454030137 
711	 9.95975525899751E-02 
712	 9.96178276761397E-02 
713	 9.96113384887245E-02 
714	 9.95799564612916E-02 
715	 9.96079493657866E-02 
716	 9.96331057162324E-02 
717	 0.099640089988699 
718	 9.96504040865105E-02 
719	 9.96681581671924E-02 
720	 9.96745351002257E-02 
721	 9.96488896610443E-02 
722	 9.95631454875786E-02 
723	 9.95679025416662E-02 
724	 9.96116825267822E-02 
725	 9.95940488580183E-02 
726	 9.95671630640992E-02 
727	 9.95420108948309E-02 
728	 9.95150810743773E-02 
729	 9.94728657131925E-02 
730	 9.94520797881886E-02 
731	 9.94431569605929E-02 
732	 9.94306836967247E-02 
733	 9.94076719251969E-02 
734	 9.93781920607286E-02 
735	 9.93384597097061E-02 
736	 9.92869389180452E-02 
737	 9.92513429498408E-02 
738	 9.92263106401994E-02 
739	 9.92025245914909E-02 
740	 9.91694190900029E-02 
741	 9.91127524098399E-02 
742	 9.90515066633316E-02 
743	 9.89970673383354E-02 
744	 9.89158619626703E-02 
745	 9.88488206840305E-02 
746	 9.88265892330306E-02 
747	 9.88514162294936E-02 
748	 9.87847491370484E-02 
749	 9.86904352495447E-02 
750	 9.86261248578197E-02 
751	 9.86161064374794E-02 
752	 0.098584634109172 
753	 9.85313869107679E-02 
754	 9.84769453381454E-02 
755	 9.84473563521348E-02 
756	 9.83959350700623E-02 
757	 9.83276164464345E-02 
758	 9.82742779011042E-02 
759	 9.82486774334087E-02 
760	 9.82011718878881E-02 
761	 9.81291775557645E-02 
762	 9.80946284436495E-02 
763	 9.80521512976598E-02 
764	 9.79957528960664E-02 
765	 9.79365729639492E-02 
766	 9.79111125256854E-02 
767	 9.78657449802424E-02 
768	 9.77951913325789E-02 
769	 9.77221574840252E-02 
770	 9.76679430714445E-02 
771	 9.76222334616871E-02 
772	 9.75696730409095E-02 
773	 9.74945420557344E-02 
774	 9.74377930909056E-02 
775	 9.73973136118197E-02 
776	 9.73617477783686E-02 
777	 9.73280150461287E-02 
778	 9.72678591086496E-02 
779	 9.71956261934651E-02 
780	 9.71409335380673E-02 
781	 9.70885764661334E-02 
782	 9.70229008788711E-02 
783	 9.69564644800289E-02 
784	 9.69281508087681E-02 
785	 0.096882819882615 
786	 9.68091987560927E-02 
787	 9.67232895963905E-02 
788	 9.66833718930134E-02 
789	 9.66451861643999E-02 
790	 9.65978877895765E-02 
791	 9.65386036365338E-02 
792	 0.096435487668562 
793	 0.096362266896817 
794	 9.63342410526764E-02 
795	 9.63078381525011E-02 
796	 0.096229700990957 
797	 9.61525106894035E-02 
798	 9.61093879564683E-02 
799	 9.60658597090596E-02 
800	 9.60059770694863E-02 
801	 9.59294829530841E-02 
802	 9.58474854891236E-02 
803	 9.57858507900078E-02 
804	 9.57242502839812E-02 
805	 9.56642428972472E-02 
806	 9.56186971423174E-02 
807	 9.55684435632676E-02 
808	 9.55082407890817E-02 
809	 0.095438518827117 
810	 9.53648772956809E-02 
811	 9.53200190503116E-02 
812	 9.52740056177526E-02 
813	 9.52018207027757E-02 
814	 9.51302293332426E-02 
815	 9.50729451060955E-02 
816	 9.50236011752052E-02 
817	 9.49722476805103E-02 
818	 9.49496855743864E-02 
819	 9.49030661796174E-02 
820	 9.48106116444958E-02 
821	 9.46888504967497E-02 
822	 9.46132002286003E-02 
823	 9.45594507652914E-02 
824	 9.45048874095387E-02 
825	 9.44575992078675E-02 
826	 9.44126397938414E-02 
827	 9.43535622785809E-02 
828	 9.42848645151343E-02 
829	 9.42918643806747E-02 
830	 9.42482117511122E-02 
831	 9.41603503997357E-02 
832	 9.41012488975174E-02 
833	 9.41043808215435E-02 
834	 9.40391322876089E-02 
835	 9.39085904504702E-02 
836	 9.38479518973891E-02 
837	 9.38531157220696E-02 
838	 9.38428867918568E-02 
839	 9.37781899897537E-02 
840	 9.37161699246953E-02 
841	 9.36373777019503E-02 
842	 9.35705466617703E-02 
843	 0.093533906637288 
844	 9.34719919991785E-02 
845	 9.34558731027605E-02 
846	 9.34381022810861E-02 
847	 9.33491542340228E-02 
848	 9.33319717602849E-02 
849	 0.093306187966134 
850	 9.32362025634704E-02 
851	 9.31423681868497E-02 
852	 9.30727121463916E-02 
853	 9.30423862880208E-02 
854	 9.30206075006406E-02 
855	 0.092924588604751 
856	 9.29031238526994E-02 
857	 9.29098563522692E-02 
858	 9.28790530226579E-02 
859	 9.28193533243273E-02 
860	 9.27557729321556E-02 
861	 9.27107849133938E-02 
862	 9.26908051132836E-02 
863	 9.26471113786037E-02 
864	 9.26014407022911E-02 
865	 9.25822337013706E-02 
866	 9.25996029959095E-02 
867	 9.25263583106997E-02 
868	 0.092431109282398 
869	 9.23760377110329E-02 
870	 9.23831489499481E-02 
871	 9.23024118104149E-02 
872	 9.22548333004391E-02 
873	 9.22795836933955E-02 
874	 9.22147792087179E-02 
875	 9.22169418179948E-02 
876	 9.21841065164168E-02 
877	 9.20587305920096E-02 
878	 0.092066219361587 
879	 9.20742452130126E-02 
880	 9.20430122021005E-02 
881	 9.19823806770713E-02 
882	 9.19625464931615E-02 
883	 9.19703639861749E-02 
884	 9.19450046250055E-02 
885	 9.18391183611511E-02 
886	 9.18389311117288E-02 
887	 9.18426796539173E-02 
888	 9.18054974345192E-02 
889	 9.17572724156653E-02 
890	 9.17691448285828E-02 
891	 9.17472678303959E-02 
892	 9.16679940311694E-02 
893	 9.16212448421699E-02 
894	 9.16323707394609E-02 
895	 9.16477316352911E-02 
896	 9.16358311042819E-02 
897	 9.16378965156171E-02 
898	 9.15755833160808E-02 
899	 9.15316884031424E-02 
900	 9.15628410481722E-02 
901	 9.15493943606566E-02 
902	 9.14650526759507E-02 
903	 9.14336836390587E-02 
904	 9.15313381874161E-02 
905	 9.14540696378249E-02 
906	 9.13572207083747E-02 
907	 9.13138460391408E-02 
908	 9.13335983577803E-02 
909	 9.13570050469251E-02 
910	 9.13275125680739E-02 
911	 9.12860580557497E-02 
912	 0.091317360483029 
913	 9.13356563652755E-02 
914	 9.13297259360664E-02 
915	 9.13090532745154E-02 
916	 0.091293280704337 
917	 9.12613327077562E-02 
918	 9.12523812575174E-02 
919	 9.12450240106249E-02 
920	 0.091157573154188 
921	 9.11729980541083E-02 
922	 9.11874544326122E-02 
923	 9.11481404762379E-02 
924	 9.11459533994808E-02 
925	 9.10891672374653E-02 
926	 9.10678034567048E-02 
927	 9.11079070596986E-02 
928	 9.10540994277107E-02 
929	 9.10526400053882E-02 
930	 9.10818754458646E-02 
931	 9.10800004680222E-02 
932	 9.09928764015592E-02 
933	 9.10029940341891E-02 
934	 9.10337825469719E-02 
935	 9.10040549406095E-02 
936	 9.10714394590074E-02 
937	 9.09738577819999E-02 
938	 9.08826728951687E-02 
939	 9.09950384809366E-02 
940	 9.10809137800389E-02 
941	 9.10354973431907E-02 
942	 9.09574542543427E-02 
943	 9.09760943186763E-02 
944	 9.09742502362689E-02 
945	 9.09176841950117E-02 
946	 9.08949825789796E-02 
947	 0.09097491723366 
948	 9.08868688092591E-02 
949	 9.07927762603905E-02 
950	 0.090766148154067 
951	 9.08035053080366E-02 
952	 9.08204506867518E-02 
953	 9.09256786425298E-02 
954	 9.09793727828115E-02 
955	 9.08093099742526E-02 
956	 9.08510242549132E-02 
957	 9.08864631888404E-02 
958	 9.08354949248921E-02 
959	 9.07558311262575E-02 
960	 9.08106657011652E-02 
961	 9.08525800574891E-02 
962	 9.08415239222698E-02 
963	 9.08197482091821E-02 
964	 9.07585121538423E-02 
965	 9.08060291677905E-02 
966	 9.08748191539475E-02 
967	 9.07806609749483E-02 
968	 9.08062782549781E-02 
969	 9.08082438834225E-02 
970	 9.07511907285609E-02 
971	 9.06982551765293E-02 
972	 9.06886248560465E-02 
973	 9.06928140861711E-02 
974	 9.06759540517459E-02 
975	 0.090638390614464 
976	 9.07771603937085E-02 
977	 9.08162177795414E-02 
978	 9.07255123822493E-02 
979	 9.06497366656736E-02 
980	 9.05662693275976E-02 
981	 9.05582878508369E-02 
982	 9.05798915083038E-02 
983	 9.05499769762356E-02 
984	 9.06788511113145E-02 
985	 9.07193609679015E-02 
986	 9.06176917085456E-02 
987	 9.04794168103546E-02 
988	 9.04620243116007E-02 
989	 0.090526447280483 
990	 9.05703089899945E-02 
991	 9.05112380587368E-02 
992	 9.04620162487138E-02 
993	 9.04867529288175E-02 
994	 9.06131661459149E-02 
995	 0.090754295028046 
996	 9.04794478333271E-02 
997	 9.03983928295987E-02 
998	 9.04704719497073E-02 
999	 9.04544566832339E-02 
1000	 9.04606520389879E-02 
1001	 8.74516731173362E-02 
1002	 8.72916144870552E-02 
1003	 8.72649554597859E-02 
1004	 8.72432032842224E-02 
1005	 8.71996704525952E-02 
1006	 0.087188808822418 
1007	 8.72981545370287E-02 
1008	 8.72559377280094E-02 
1009	 8.71224262021712E-02 
1010	 8.71093720237661E-02 
1011	 8.70751845121504E-02 
1012	 8.70190749940326E-02 
1013	 8.70395863613465E-02 
1014	 8.70442786488735E-02 
1015	 8.70524064286683E-02 
1016	 8.70803016680921E-02 
1017	 8.70559651668749E-02 
1018	 8.70004827106386E-02 
1019	 8.69272166580001E-02 
1020	 8.68711554848378E-02 
1021	 8.68510566908025E-02 
1022	 0.086859357862338 
1023	 8.68571955944952E-02 
1024	 8.68396433861726E-02 
1025	 0.086798026835196 
1026	 8.67707378433601E-02 
1027	 8.67471252285982E-02 
1028	 8.67470748743583E-02 
1029	 8.67525581734889E-02 
1030	 8.67197574440336E-02 
1031	 8.66645930172713E-02 
1032	 8.65917597116996E-02 
1033	 8.65051014161778E-02 
1034	 0.086439590941023 
1035	 8.63574783271366E-02 
1036	 8.63651668784012E-02 
1037	 8.64156748665427E-02 
1038	 8.64098126221605E-02 
1039	 8.64588984145246E-02 
1040	 0.086470651097517 
1041	 8.64177179315121E-02 
1042	 8.63574329600539E-02 
1043	 8.63270828023849E-02 
1044	 8.63183628277047E-02 
1045	 8.63367991092528E-02 
1046	 8.63288390463998E-02 
1047	 8.63418888126078E-02 
1048	 8.63384058393186E-02 
1049	 8.63040974185908E-02 
1050	 8.63572655899487E-02 
1051	 8.64102371228375E-02 
1052	 8.64017046192186E-02 
1053	 8.63841923807386E-02 
1054	 8.63590141954943E-02 
1055	 8.63353370959943E-02 
1056	 8.63217447534429E-02 
1057	 8.63164990549755E-02 
1058	 8.63240578301817E-02 
1059	 8.63258199016965E-02 
1060	 8.63261740457626E-02 
1061	 8.63452505983908E-02 
1062	 8.63379218739322E-02 
1063	 8.63072564771452E-02 
1064	 8.62816662911004E-02 
1065	 8.62642579570848E-02 
1066	 8.63011924023769E-02 
1067	 8.63671362136877E-02 
1068	 8.64042154373538E-02 
1069	 8.64174139657495E-02 
1070	 8.64205877725546E-02 
1071	 8.63810827045398E-02 
1072	 8.63667463010977E-02 
1073	 8.63511173739002E-02 
1074	 8.63544585739161E-02 
1075	 0.086372498435821 
1076	 8.63864863766746E-02 
1077	 8.64079816795277E-02 
1078	 8.64260491230592E-02 
1079	 8.64338478905929E-02 
1080	 8.64675985919994E-02 
1081	 8.64462293436677E-02 
1082	 8.64034746551998E-02 
1083	 8.63998237946921E-02 
1084	 8.63913378285406E-02 
1085	 8.63868365567615E-02 
1086	 8.64393622400626E-02 
1087	 8.64298421705892E-02 
1088	 8.63745365932164E-02 
1089	 8.63354894949929E-02 
1090	 8.63316074434926E-02 
1091	 8.63378720281829E-02 
1092	 8.63809905146331E-02 
1093	 8.64261874797105E-02 
1094	 8.63959993598304E-02 
1095	 0.086361711300701 
1096	 8.63507521630577E-02 
1097	 8.63308493671903E-02 
1098	 8.63273877791685E-02 
1099	 8.63622435788722E-02 
1100	 8.63605771528061E-02 
1101	 0.086341180477684 
1102	 8.63290519392271E-02 
1103	 8.63061087923731E-02 
1104	 8.62881497865828E-02 
1105	 8.62833623094571E-02 
1106	 8.62739308463781E-02 
1107	 8.62591802867149E-02 
1108	 8.62374178394265E-02 
1109	 8.62215488407376E-02 
1110	 8.62275003264937E-02 
1111	 8.62072674941314E-02 
1112	 0.086170315267464 
1113	 8.61542214875923E-02 
1114	 8.61326367939349E-02 
1115	 8.61159063265156E-02 
1116	 8.61205001237645E-02 
1117	 8.61135990243265E-02 
1118	 8.60951874486925E-02 
1119	 8.60790863157075E-02 
1120	 8.60861747564434E-02 
1121	 8.61035485299286E-02 
1122	 0.086127743478174 
1123	 8.61380317340354E-02 
1124	 8.61337912161462E-02 
1125	 8.61105107810788E-02 
1126	 8.60978758994837E-02 
1127	 8.60798420050889E-02 
1128	 8.60633631079366E-02 
1129	 0.086050370562734 
1130	 8.60305567187373E-02 
1131	 8.59904730805253E-02 
1132	 8.59772977429568E-02 
1133	 8.59844920484685E-02 
1134	 8.59795238602664E-02 
1135	 0.085968832529007 
1136	 0.085987669442615 
1137	 8.60087294061244E-02 
1138	 8.59997282010776E-02 
1139	 8.59898693611778E-02 
1140	 8.59754630428261E-02 
1141	 8.59764782636553E-02 
1142	 8.59734670520907E-02 
1143	 8.59677970595202E-02 
1144	 8.59767683692075E-02 
1145	 8.59828445095146E-02 
1146	 8.59720013379373E-02 
1147	 8.59684964756347E-02 
1148	 8.59840707113065E-02 
1149	 0.085988612425434 
1150	 8.59776129046916E-02 
1151	 0.085977216157534 
1152	 0.085981430133362 
1153	 8.59844289324646E-02 
1154	 8.59859514618893E-02 
1155	 8.59917726308025E-02 
1156	 0.085987518980037 
1157	 8.59725227971376E-02 
1158	 8.59684140074696E-02 
1159	 0.08596541157243 
1160	 8.59612276048764E-02 
1161	 8.59589431822941E-02 
1162	 8.59611785308338E-02 
1163	 8.59614218737944E-02 
1164	 8.59637610823502E-02 
1165	 8.59697977287058E-02 
1166	 8.59850280506162E-02 
1167	 8.59846934723734E-02 
1168	 8.59974716199019E-02 
1169	 0.086003963205235 
1170	 0.086002584602523 
1171	 0.086021376010299 
1172	 0.086056527349139 
1173	 8.60712899631174E-02 
1174	 0.086081991370838 
1175	 8.61044354707113E-02 
1176	 8.61178891693877E-02 
1177	 8.61385445390825E-02 
1178	 8.61929538453744E-02 
1179	 8.62169357195016E-02 
1180	 8.62153720444323E-02 
1181	 8.62220232520831E-02 
1182	 8.62197450435971E-02 
1183	 8.62117737897023E-02 
1184	 8.62325076325066E-02 
1185	 8.62756701269614E-02 
1186	 8.62974512919729E-02 
1187	 8.63212117568531E-02 
1188	 8.63530151179128E-02 
1189	 8.63752413942145E-02 
1190	 8.64063629814949E-02 
1191	 8.64684563269551E-02 
1192	 8.64994612375165E-02 
1193	 8.64994894601925E-02 
1194	 8.65232999836378E-02 
1195	 8.65536063001073E-02 
1196	 8.65763993531782E-02 
1197	 8.66103684694906E-02 
1198	 8.66377644787254E-02 
1199	 8.66594293522508E-02 
1200	 8.66600912544029E-02 
1201	 8.66924004406589E-02 
1202	 0.086743852590739 
1203	 8.67740743949475E-02 
1204	 8.68111189221423E-02 
1205	 8.68371489055003E-02 
1206	 8.68338335883551E-02 
1207	 0.086861475345142 
1208	 0.086907582110218 
1209	 8.69450652906297E-02 
1210	 8.69967175337529E-02 
1211	 8.70350384981003E-02 
1212	 8.70621071744538E-02 
1213	 8.70906022187909E-02 
1214	 8.71096678086254E-02 
1215	 8.71374819115495E-02 
1216	 8.71685472406379E-02 
1217	 0.087205231499606 
1218	 8.72322742506573E-02 
1219	 8.72595614525024E-02 
1220	 0.08728780155063 
1221	 8.73075511685074E-02 
1222	 8.73353360112258E-02 
1223	 8.73746917553619E-02 
1224	 8.74040599054181E-02 
1225	 8.74283924450641E-02 
1226	 0.087454068327829 
1227	 0.087467416403484 
1228	 8.74990121049216E-02 
1229	 8.75500456104418E-02 
1230	 8.75866061069246E-02 
1231	 8.76245634843715E-02 
1232	 8.76637411646457E-02 
1233	 8.76997255987586E-02 
1234	 8.77199756373702E-02 
1235	 0.087759194269672 
1236	 8.78186701669322E-02 
1237	 8.78514995278717E-02 
1238	 8.78671085941423E-02 
1239	 8.79054694443343E-02 
1240	 8.79477513095251E-02 
1241	 8.79811835226477E-02 
1242	 8.80350594924791E-02 
1243	 8.80673662277055E-02 
1244	 8.80597498138159E-02 
1245	 8.80832057209338E-02 
1246	 8.81227413180083E-02 
1247	 8.81560570323815E-02 
1248	 8.81883236537296E-02 
1249	 8.82436537633124E-02 
1250	 8.82886533950135E-02 
1251	 8.83113504677144E-02 
1252	 8.83466811054904E-02 
1253	 0.088386755951469 
1254	 8.84208461774557E-02 
1255	 8.84503720666809E-02 
1256	 0.088484356720939 
1257	 8.85206228546621E-02 
1258	 8.85521632199859E-02 
1259	 8.85786064995045E-02 
1260	 8.86147187180834E-02 
1261	 8.86591845903735E-02 
1262	 8.86901046018268E-02 
1263	 8.87269273877578E-02 
1264	 8.87515900519047E-02 
1265	 8.87328045298744E-02 
1266	 8.87589225932935E-02 
1267	 8.88146884052653E-02 
1268	 8.88668724352177E-02 
1269	 8.89034951586464E-02 
1270	 8.89598043154424E-02 
1271	 8.89868483593355E-02 
1272	 8.89663000399679E-02 
1273	 8.89968918747194E-02 
1274	 8.90533886755264E-02 
1275	 0.089093861836894 
1276	 8.91474408420374E-02 
1277	 8.91888924442249E-02 
1278	 8.92045951274143E-02 
1279	 8.92505827828767E-02 
1280	 8.93080036249321E-02 
1281	 8.93695904575446E-02 
1282	 8.94607924266291E-02 
1283	 8.95316062087929E-02 
1284	 8.95874024274811E-02 
1285	 8.96532294763733E-02 
1286	 8.97322185638654E-02 
1287	 8.97918361167608E-02 
1288	 8.98709144657991E-02 
1289	 8.99745567746307E-02 
1290	 9.00541364411654E-02 
1291	 9.01224297314833E-02 
1292	 9.01993774509233E-02 
1293	 9.02746591272938E-02 
1294	 9.03462042100005E-02 
1295	 9.04177768899621E-02 
1296	 9.04923264925652E-02 
1297	 9.05682432728691E-02 
1298	 9.06362088072825E-02 
1299	 9.07111190119427E-02 
1300	 9.07742886510279E-02 
1301	 9.08183310739312E-02 
1302	 9.08665088355929E-02 
1303	 0.090910553011647 
1304	 9.09548998144684E-02 
1305	 9.10035696304529E-02 
1306	 9.10607634431314E-02 
1307	 9.11237126318255E-02 
1308	 9.11946515194703E-02 
1309	 9.12438185391017E-02 
1310	 0.091279245710819 
1311	 9.13270814590322E-02 
1312	 9.13691986867704E-02 
1313	 9.14078970492431E-02 
1314	 9.14583001621578E-02 
1315	 9.14987678093903E-02 
1316	 9.15212615934917E-02 
1317	 9.15534305943139E-02 
1318	 9.15916727382978E-02 
1319	 9.16248576253534E-02 
1320	 9.16553832565364E-02 
1321	 9.16854023718492E-02 
1322	 9.17096573434628E-02 
1323	 9.17448261107966E-02 
1324	 9.17752693499756E-02 
1325	 9.18062954171214E-02 
1326	 9.18393007122958E-02 
1327	 9.18550043645619E-02 
1328	 0.091868364850626 
1329	 9.18919609395483E-02 
1330	 9.19122767621888E-02 
1331	 9.19328220318038E-02 
1332	 9.19537858302879E-02 
1333	 9.19731195931363E-02 
1334	 9.19957195869664E-02 
1335	 9.20198608864093E-02 
1336	 9.20466529184943E-02 
1337	 9.20817714685588E-02 
1338	 9.21074035054053E-02 
1339	 9.21357814346384E-02 
1340	 0.092152689292262 
1341	 9.21564320367047E-02 
1342	 9.21616281490344E-02 
1343	 9.21602913064427E-02 
1344	 9.21565136503489E-02 
1345	 0.092173067449783 
1346	 9.21879578485666E-02 
1347	 9.22011570317327E-02 
1348	 9.22270391648403E-02 
1349	 9.22217359003214E-02 
1350	 9.22093353915924E-02 
1351	 9.22010064474504E-02 
1352	 9.21880164475121E-02 
1353	 9.21713725170729E-02 
1354	 9.21569775517919E-02 
1355	 9.21337922060602E-02 
1356	 9.20856306607933E-02 
1357	 9.20712838889998E-02 
1358	 9.20707566089934E-02 
1359	 9.20711296831841E-02 
1360	 9.20875131879265E-02 
1361	 9.21069589050197E-02 
1362	 0.092124367854417 
1363	 9.21494365400807E-02 
1364	 9.21917048150553E-02 
1365	 9.22283380115315E-02 
1366	 9.22596676584523E-02 
1367	 0.092293309958165 
1368	 9.23552611310169E-02 
1369	 9.24062683118191E-02 
1370	 9.24595811513223E-02 
1371	 9.25258687318941E-02 
1372	 0.092570862585971 
1373	 9.26152686461622E-02 
1374	 0.092657471347639 
1375	 9.27053181632163E-02 
1376	 9.27302335854765E-02 
1377	 9.27580573568682E-02 
1378	 9.27472794149048E-02 
1379	 9.26892384964383E-02 
1380	 9.26686216136116E-02 
1381	 9.26213913411687E-02 
1382	 9.26188792668155E-02 
1383	 9.26619433158398E-02 
1384	 9.26899556807706E-02 
1385	 9.27378976525723E-02 
1386	 9.27691239111588E-02 
1387	 9.27838401453399E-02 
1388	 9.28137417899434E-02 
1389	 9.28531844982038E-02 
1390	 9.28810899578761E-02 
1391	 9.29025383077906E-02 
1392	 9.29350130645113E-02 
1393	 9.29339057216279E-02 
1394	 9.29245612950907E-02 
1395	 9.29287990893359E-02 
1396	 9.29250242738307E-02 
1397	 9.29373923422754E-02 
1398	 0.092963931286387 
1399	 9.29841669431823E-02 
1400	 9.30116660167945E-02 
1401	 9.30276798309043E-02 
1402	 9.30310600739763E-02 
1403	 9.30519052296178E-02 
1404	 9.30766022717918E-02 
1405	 0.093102647654852 
1406	 9.31462681414816E-02 
1407	 9.31731542166737E-02 
1408	 9.31847664778241E-02 
1409	 9.32085786516637E-02 
1410	 9.32283398187319E-02 
1411	 9.32587681372178E-02 
1412	 0.093295776693905 
1413	 9.33376336705794E-02 
1414	 9.34061508235604E-02 
1415	 9.34605373695322E-02 
1416	 9.35030441769789E-02 
1417	 9.35601769012238E-02 
1418	 9.35952786667537E-02 
1419	 9.36194908497262E-02 
1420	 9.36548252479036E-02 
1421	 9.36850875065571E-02 
1422	 9.37182582080348E-02 
1423	 9.37616542060313E-02 
1424	 9.38001278623402E-02 
1425	 9.38458803375277E-02 
1426	 9.38816900320477E-02 
1427	 9.39037322465886E-02 
1428	 9.39421453030406E-02 
1429	 9.39782709694546E-02 
1430	 9.40310294189514E-02 
1431	 9.41138106222814E-02 
1432	 9.41642043551871E-02 
1433	 9.42085291617676E-02 
1434	 9.42520480549211E-02 
1435	 9.42719756794036E-02 
1436	 0.094307338303494 
1437	 9.43606500861125E-02 
1438	 9.43990256850771E-02 
1439	 9.44338180605837E-02 
1440	 9.44604134707474E-02 
1441	 9.44855719204567E-02 
1442	 9.45135644212348E-02 
1443	 9.45278436828834E-02 
1444	 9.45553712658389E-02 
1445	 9.46053538718331E-02 
1446	 9.46424645761452E-02 
1447	 9.46763778992884E-02 
1448	 9.47178406389692E-02 
1449	 9.47475186529939E-02 
1450	 9.47691887923175E-02 
1451	 9.48014732511561E-02 
1452	 9.48474996389373E-02 
1453	 9.48860509087257E-02 
1454	 9.49194515220715E-02 
1455	 9.49588556167649E-02 
1456	 9.50101750470013E-02 
1457	 0.095040182224796 
1458	 9.50521955642135E-02 
1459	 9.50892690409611E-02 
1460	 9.51246408184767E-02 
1461	 9.51644037925886E-02 
1462	 9.52379821552094E-02 
1463	 9.52770629383426E-02 
1464	 9.52900997998885E-02 
1465	 9.53173991928092E-02 
1466	 9.53357629594023E-02 
1467	 9.53561885243322E-02 
1468	 9.53792376610816E-02 
1469	 9.54087267062059E-02 
1470	 9.54376769930838E-02 
1471	 9.54765254184969E-02 
1472	 0.09552081298186 
1473	 9.55502022839353E-02 
1474	 9.55684745980322E-02 
1475	 0.095594050507257 
1476	 9.56133624172387E-02 
1477	 9.56396544938051E-02 
1478	 9.56769987464569E-02 
1479	 9.57060325616747E-02 
1480	 9.57351098243248E-02 
1481	 9.57706007460813E-02 
1482	 9.58036493057436E-02 
1483	 9.58366102713127E-02 
1484	 9.58598977534474E-02 
1485	 9.58761351675138E-02 
1486	 9.59051157515597E-02 
1487	 9.59320603337368E-02 
1488	 9.59596801342455E-02 
1489	 9.60052490958062E-02 
1490	 9.60314155468574E-02 
1491	 9.60424505329909E-02 
1492	 9.60549062238758E-02 
1493	 0.096056197506049 
1494	 9.60724909756265E-02 
1495	 9.60894779605342E-02 
1496	 9.61142471582442E-02 
1497	 9.61580921348979E-02 
1498	 9.61891865502271E-02 
1499	 9.62214825804139E-02 
1500	 0.096244099531645 
1501	 9.62512529301249E-02 
1502	 9.62693692797214E-02 
1503	 9.62860785043989E-02 
1504	 0.096305414536979 
1505	 9.63304590004526E-02 
1506	 9.63616033317995E-02 
1507	 9.63889135804555E-02 
1508	 9.64107315088264E-02 
1509	 9.64213197445073E-02 
1510	 0.096419207580381 
1511	 9.64252037778858E-02 
1512	 9.64389893597724E-02 
1513	 9.64683800610601E-02 
1514	 9.65073982568478E-02 
1515	 0.096523904146548 
1516	 9.65304155775415E-02 
1517	 9.65403737568679E-02 
1518	 9.65394818021263E-02 
1519	 0.096547975218253 
1520	 9.65598309113908E-02 
1521	 9.65776489017396E-02 
1522	 9.66010691337132E-02 
1523	 9.66201910265867E-02 
1524	 9.66467069239983E-02 
1525	 9.66657210826489E-02 
1526	 9.66717967158955E-02 
1527	 9.66892001792295E-02 
1528	 9.67146238876664E-02 
1529	 9.67318780646141E-02 
1530	 0.096752278834349 
1531	 9.67676140284889E-02 
1532	 9.67768970095803E-02 
1533	 9.67852899743357E-02 
1534	 9.67876655708021E-02 
1535	 9.67944634599607E-02 
1536	 9.67975764288971E-02 
1537	 9.68075569821546E-02 
1538	 9.68273183562669E-02 
1539	 9.68427110766195E-02 
1540	 0.096860643449102 
1541	 0.096875104370277 
1542	 9.68828443627712E-02 
1543	 9.68953352090523E-02 
1544	 9.69154588205886E-02 
1545	 9.69267307442012E-02 
1546	 9.69345645520553E-02 
1547	 9.69368467872122E-02 
1548	 9.69570204584955E-02 
1549	 9.69676384564092E-02 
1550	 9.69783991906356E-02 
1551	 9.70102305122887E-02 
1552	 9.70243717933921E-02 
1553	 9.70229059858837E-02 
1554	 9.70398783775725E-02 
1555	 9.70497183035474E-02 
1556	 9.70348416837686E-02 
1557	 9.70314287881243E-02 
1558	 9.70288319857362E-02 
1559	 0.097020926314476 
1560	 9.70269047013975E-02 
1561	 9.70480471672784E-02 
1562	 9.70672753520273E-02 
1563	 9.70913849784247E-02 
1564	 9.71115602629302E-02 
1565	 9.71389536055014E-02 
1566	 9.71564854790087E-02 
1567	 9.71678125932306E-02 
1568	 9.71745696502531E-02 
1569	 9.71809459605563E-02 
1570	 9.71778301955928E-02 
1571	 9.71625831944739E-02 
1572	 0.097150225941859 
1573	 0.097125373735788 
1574	 9.71200063480171E-02 
1575	 0.097118284162411 
1576	 9.71280701178731E-02 
1577	 9.71669858139179E-02 
1578	 9.71762920120738E-02 
1579	 9.71742289211604E-02 
1580	 9.71819084368894E-02 
1581	 9.71761201370531E-02 
1582	 0.097181309316478 
1583	 9.72015409380616E-02 
1584	 9.72129380753844E-02 
1585	 9.72233926996457E-02 
1586	 9.72286808780405E-02 
1587	 9.72299758120372E-02 
1588	 9.72376769744898E-02 
1589	 9.72459609736245E-02 
1590	 9.72488198015543E-02 
1591	 9.72497663082551E-02 
1592	 9.72539077220787E-02 
1593	 9.72569194559828E-02 
1594	 9.72569358970535E-02 
1595	 9.72630131258724E-02 
1596	 9.72631038814803E-02 
1597	 9.72555396282823E-02 
1598	 9.72461309405809E-02 
1599	 9.72222029433067E-02 
1600	 9.72193334282989E-02 
1601	 9.72254850120654E-02 
1602	 0.097232240228989 
1603	 9.72680153457158E-02 
1604	 9.72822095703486E-02 
1605	 9.72784142495139E-02 
1606	 9.72776495619728E-02 
1607	 9.72748711111567E-02 
1608	 9.72581629483791E-02 
1609	 9.72477453484307E-02 
1610	 0.097240112345042 
1611	 9.72342778381873E-02 
1612	 9.72439185983936E-02 
1613	 9.72648253366953E-02 
1614	 9.72746266135329E-02 
1615	 9.72679666759835E-02 
1616	 9.72663330250383E-02 
1617	 9.72816607574529E-02 
1618	 9.72954363986165E-02 
1619	 9.73048944307935E-02 
1620	 9.73173210317851E-02 
1621	 9.73221488402599E-02 
1622	 9.73108051862373E-02 
1623	 9.73002528831141E-02 
1624	 9.72935836652333E-02 
1625	 9.72833447143993E-02 
1626	 9.72512736731406E-02 
1627	 9.72561622779637E-02 
1628	 9.72854500447651E-02 
1629	 9.72964277981428E-02 
1630	 9.73157675747475E-02 
1631	 9.73280007836573E-02 
1632	 9.73361577964702E-02 
1633	 9.73300089428916E-02 
1634	 0.097312042813507 
1635	 9.73155430662694E-02 
1636	 9.73144077242379E-02 
1637	 9.73143189192321E-02 
1638	 9.73357038007401E-02 
1639	 9.73408085485316E-02 
1640	 9.73247507049809E-02 
1641	 9.73253141197138E-02 
1642	 9.73354305516792E-02 
1643	 9.73462837090849E-02 
1644	 9.73666839188978E-02 
1645	 9.73648487355334E-02 
1646	 9.73507230992998E-02 
1647	 9.73539111448325E-02 
1648	 9.73509415889162E-02 
1649	 0.097348952022068 
1650	 9.73657851083674E-02 
1651	 9.73690860115531E-02 
1652	 9.73556484855912E-02 
1653	 9.73480518628245E-02 
1654	 9.73474357692952E-02 
1655	 9.73406879455614E-02 
1656	 9.73258148073774E-02 
1657	 9.73134257092533E-02 
1658	 9.72988077321579E-02 
1659	 9.72933310669801E-02 
1660	 9.72901458716641E-02 
1661	 9.72871181306088E-02 
1662	 9.72891062063228E-02 
1663	 9.72962775143785E-02 
1664	 9.73028863991249E-02 
1665	 9.73138167907152E-02 
1666	 9.73460173524372E-02 
1667	 9.73495402957686E-02 
1668	 9.73339537363679E-02 
1669	 0.097330087947757 
1670	 9.73130417671988E-02 
1671	 9.73107348711156E-02 
1672	 0.097331830563359 
1673	 0.097327694908717 
1674	 9.73048921715364E-02 
1675	 9.73042554901615E-02 
1676	 9.73045345759127E-02 
1677	 9.73043085631309E-02 
1678	 9.73217187270798E-02 
1679	 9.73277701254471E-02 
1680	 9.73164129270167E-02 
1681	 9.73210331511383E-02 
1682	 9.73420686709304E-02 
1683	 9.73459623360101E-02 
1684	 0.097344910651634 
1685	 9.73450766865391E-02 
1686	 9.73326394501601E-02 
1687	 9.73316681474624E-02 
1688	 9.73257697130935E-02 
1689	 9.73496341488261E-02 
1690	 9.74154295149472E-02 
1691	 9.74293833648293E-02 
1692	 9.74410128413398E-02 
1693	 9.74405058039837E-02 
1694	 0.097387055307725 
1695	 9.73711827725269E-02 
1696	 9.73875726689083E-02 
1697	 0.097374951516713 
1698	 9.73437528834691E-02 
1699	 9.73343705457029E-02 
1700	 9.73212980611654E-02 
1701	 9.73223022034366E-02 
1702	 9.73470247783513E-02 
1703	 9.73599799054032E-02 
1704	 0.097376669916942 
1705	 9.73792207996135E-02 
1706	 9.73766512364987E-02 
1707	 9.73728446363258E-02 
1708	 9.73485845881169E-02 
1709	 9.73470972085428E-02 
1710	 9.73536534963698E-02 
1711	 9.73691481301125E-02 
1712	 0.097411260603199 
1713	 9.74247269088845E-02 
1714	 9.74332308179822E-02 
1715	 9.74328941217544E-02 
1716	 9.74067812352366E-02 
1717	 9.73973625682297E-02 
1718	 9.74026800951865E-02 
1719	 9.73866632139526E-02 
1720	 9.73445811267918E-02 
1721	 9.73440315537524E-02 
1722	 9.73524843152106E-02 
1723	 9.73665980988855E-02 
1724	 9.74299857481976E-02 
1725	 9.74398667348042E-02 
1726	 9.74235839751019E-02 
1727	 9.73969103227434E-02 
1728	 9.73285459411166E-02 
1729	 9.73154093876605E-02 
1730	 9.73149053244818E-02 
1731	 9.73149752287665E-02 
1732	 9.73555428437693E-02 
1733	 9.73565273640371E-02 
1734	 9.73387494944393E-02 
1735	 9.73174262406859E-02 
1736	 9.72765075085053E-02 
1737	 9.72566804119907E-02 
1738	 9.72337308374215E-02 
1739	 9.72193237749941E-02 
1740	 9.72221367366591E-02 
1741	 0.097219455202804 
1742	 9.72216957589242E-02 
1743	 9.72120794596708E-02 
1744	 9.71982521960733E-02 
1745	 9.71865897154608E-02 
1746	 9.71640403833744E-02 
1747	 9.71606499166084E-02 
1748	 9.71484581897989E-02 
1749	 9.71312039734077E-02 
1750	 9.71054447733014E-02 
1751	 9.70871644408432E-02 
1752	 9.70936655515789E-02 
1753	 9.70843521079326E-02 
1754	 0.097088759281097 
1755	 9.70927127480539E-02 
1756	 9.70733238448305E-02 
1757	 9.70836182971209E-02 
1758	 9.70768022612836E-02 
1759	 9.70441176064178E-02 
1760	 9.70471191437703E-02 
1761	 0.09705963674852 
1762	 0.097056990927668 
1763	 9.70576340852038E-02 
1764	 9.70765883293556E-02 
1765	 9.70794719900317E-02 
1766	 0.097086011228859 
1767	 9.71183032976097E-02 
1768	 9.71179527867445E-02 
1769	 0.097102686204472 
1770	 9.71006945687939E-02 
1771	 9.70878341914035E-02 
1772	 9.70536467020298E-02 
1773	 0.097025216824986 
1774	 9.70184992952739E-02 
1775	 0.09701647422112 
1776	 9.70253091797676E-02 
1777	 9.70297978167627E-02 
1778	 9.70113106920799E-02 
1779	 9.70028468671614E-02 
1780	 9.70006463906134E-02 
1781	 9.70015209445616E-02 
1782	 9.70243814077208E-02 
1783	 0.097012645070108 
1784	 9.70206293965774E-02 
1785	 0.097065582128598 
1786	 9.70631964796976E-02 
1787	 9.70288996257791E-02 
1788	 9.70147842369583E-02 
1789	 9.69872429413106E-02 
1790	 9.69717317927688E-02 
1791	 9.69824915069118E-02 
1792	 0.096980829766614 
1793	 9.69524410964596E-02 
1794	 9.69487954874098E-02 
1795	 9.69716727234872E-02 
1796	 9.69792014137799E-02 
1797	 0.096996578236161 
1798	 9.69907491296572E-02 
1799	 9.69506251860239E-02 
1800	 9.69375259044273E-02 
1801	 9.41650367272603E-02 
1802	 0.09427634437815 
1803	 9.43729709803298E-02 
1804	 9.44889447800123E-02 
1805	 9.46151990586052E-02 
1806	 9.47141901328916E-02 
1807	 9.48194058840933E-02 
1808	 9.49002519438783E-02 
1809	 9.49648008363333E-02 
1810	 9.50180235104262E-02 
1811	 0.095060562761317 
1812	 0.095091435582872 
1813	 9.50872984495204E-02 
1814	 9.50515431561471E-02 
1815	 9.50406433564741E-02 
1816	 9.50343187888492E-02 
1817	 9.50404334966686E-02 
1818	 9.50832280501993E-02 
1819	 9.51205364171257E-02 
1820	 9.51697351052048E-02 
1821	 9.51823865797556E-02 
1822	 9.52017067243018E-02 
1823	 0.095200315242847 
1824	 9.51800301917146E-02 
1825	 9.51746845218627E-02 
1826	 9.51663702919933E-02 
1827	 9.51533371178175E-02 
1828	 0.095156199507465 
1829	 9.51751612402947E-02 
1830	 9.51676516764086E-02 
1831	 9.51504127059625E-02 
1832	 0.095156868653663 
1833	 9.51530865904869E-02 
1834	 0.095141153184934 
1835	 9.51342613294831E-02 
1836	 9.51239619482957E-02 
1837	 9.51129716555902E-02 
1838	 9.50906846333086E-02 
1839	 9.51036479242655E-02 
1840	 9.51460842487123E-02 
1841	 9.52122377166439E-02 
1842	 9.52523233680037E-02 
1843	 0.095288333826779 
1844	 9.53197527148214E-02 
1845	 0.095336615869625 
1846	 9.53739511569224E-02 
1847	 9.54118453903355E-02 
1848	 9.54393769662087E-02 
1849	 9.54680672990295E-02 
1850	 9.54919603078011E-02 
1851	 9.55035825280539E-02 
1852	 9.55183685942783E-02 
1853	 9.55487859880055E-02 
1854	 9.56028755682681E-02 
1855	 9.56542214082346E-02 
1856	 9.57087408070179E-02 
1857	 9.57566191731881E-02 
1858	 9.57712703656641E-02 
1859	 9.57817578076431E-02 
1860	 0.095785277255415 
1861	 9.57844616054967E-02 
1862	 9.57731731637776E-02 
1863	 0.095743000981355 
1864	 9.57027400518254E-02 
1865	 9.56496561875331E-02 
1866	 0.095598450039177 
1867	 9.55839938059929E-02 
1868	 9.55262948666602E-02 
1869	 9.54756247416913E-02 
1870	 9.54743667908002E-02 
1871	 9.54787983192768E-02 
1872	 9.54821460840885E-02 
1873	 9.55332056786174E-02 
1874	 9.55945512863254E-02 
1875	 9.56452241534222E-02 
1876	 9.56890139632122E-02 
1877	 9.57465677901406E-02 
1878	 9.58086243051234E-02 
1879	 9.58445792930433E-02 
1880	 9.58762127444495E-02 
1881	 9.59008443426592E-02 
1882	 9.59075222195666E-02 
1883	 9.58985684789362E-02 
1884	 0.095896179146726 
1885	 9.58730420771263E-02 
1886	 9.58334312656359E-02 
1887	 9.57932172511372E-02 
1888	 9.57580448447488E-02 
1889	 9.57265270951494E-02 
1890	 9.56930968012266E-02 
1891	 9.56493939681339E-02 
1892	 9.56023743149912E-02 
1893	 9.55435158086522E-02 
1894	 9.54641473745735E-02 
1895	 9.54015811222175E-02 
1896	 0.095349998432462 
1897	 9.52773253715787E-02 
1898	 9.51650226841576E-02 
1899	 9.50493483037964E-02 
1900	 9.49588329882295E-02 
1901	 9.48845925292141E-02 
1902	 9.48178751923544E-02 
1903	 9.47967002157006E-02 
1904	 9.47571538994308E-02 
1905	 9.47059127736846E-02 
1906	 9.46602809436138E-02 
1907	 9.46203868031244E-02 
1908	 9.45965423696859E-02 
1909	 9.45695997872047E-02 
1910	 9.45260674343082E-02 
1911	 9.44825919474576E-02 
1912	 9.44378846106909E-02 
1913	 0.094396758926849 
1914	 9.43480766977437E-02 
1915	 9.43066774317145E-02 
1916	 9.42721120830059E-02 
1917	 9.42345748401967E-02 
1918	 9.42094226564008E-02 
1919	 9.42048788525065E-02 
1920	 0.094215787465194 
1921	 9.42151479878599E-02 
1922	 9.42068304576121E-02 
1923	 0.094198555428645 
1924	 9.41899997235594E-02 
1925	 0.094175356941774 
1926	 9.41775303228686E-02 
1927	 9.41958188751266E-02 
1928	 9.41884876620942E-02 
1929	 9.42075478488846E-02 
1930	 9.42243603864028E-02 
1931	 0.094224502576139 
1932	 9.42448990357799E-02 
1933	 9.42481234196042E-02 
1934	 9.42353314507167E-02 
1935	 9.42393019993794E-02 
1936	 9.42514685755599E-02 
1937	 9.42560474050239E-02 
1938	 9.42693939523465E-02 
1939	 9.42782404321857E-02 
1940	 9.42783512969805E-02 
1941	 0.094272729362241 
1942	 9.42957402321284E-02 
1943	 9.43250654121169E-02 
1944	 9.43655087442309E-02 
1945	 9.44134650442885E-02 
1946	 9.44350304571806E-02 
1947	 9.44323372533949E-02 
1948	 9.44425263812369E-02 
1949	 9.44379919113904E-02 
1950	 9.44484019920345E-02 
1951	 9.44702212313791E-02 
1952	 9.45008019196171E-02 
1953	 9.45149109197697E-02 
1954	 9.45096320879436E-02 
1955	 9.45174785631215E-02 
1956	 9.45120773204638E-02 
1957	 9.45272903408703E-02 
1958	 9.45561424657424E-02 
1959	 9.45916364925962E-02 
1960	 9.46366126124885E-02 
1961	 9.46879683322371E-02 
1962	 9.47611156294245E-02 
1963	 0.094815319699188 
1964	 9.48694820500604E-02 
1965	 9.49160904215251E-02 
1966	 0.094954904664702 
1967	 9.49718598194807E-02 
1968	 9.49997950259007E-02 
1969	 9.50186720978952E-02 
1970	 9.50554505940232E-02 
1971	 9.51048627904143E-02 
1972	 9.51519343291331E-02 
1973	 9.52145916001706E-02 
1974	 9.52586469466407E-02 
1975	 9.52945948063355E-02 
1976	 9.53217481127822E-02 
1977	 9.53383285443549E-02 
1978	 0.095394217311116 
1979	 9.54558216859585E-02 
1980	 9.55026356243468E-02 
1981	 9.55574080607898E-02 
1982	 9.56234049887608E-02 
1983	 9.56712169553273E-02 
1984	 0.095705546145884 
1985	 9.57533530091522E-02 
1986	 9.58023335950695E-02 
1987	 9.58454044191031E-02 
1988	 9.58940565676886E-02 
1989	 9.59453647349844E-02 
1990	 9.59754540676533E-02 
1991	 9.59912219212755E-02 
1992	 9.60134804484549E-02 
1993	 9.60222113328579E-02 
1994	 9.60560645384558E-02 
1995	 9.61054922217134E-02 
1996	 9.61458616610475E-02 
1997	 9.62017514763504E-02 
1998	 9.62415482248535E-02 
1999	 9.62611436320276E-02 
2000	 9.62935914325388E-02 
2001	 9.63267791248901E-02 
2002	 9.63634490013951E-02 
2003	 9.64076636706537E-02 
2004	 9.64578012378809E-02 
2005	 9.65059290348137E-02 
2006	 9.65534433092774E-02 
2007	 9.66100740451342E-02 
2008	 9.66702847239575E-02 
2009	 9.67317729349156E-02 
2010	 9.68129952466619E-02 
2011	 9.68707444521883E-02 
2012	 9.69157191086343E-02 
2013	 9.69656156748919E-02 
2014	 9.70117660534391E-02 
2015	 0.097041066710151 
2016	 9.70911784687017E-02 
2017	 9.71331289189812E-02 
2018	 9.71801728219848E-02 
2019	 9.72287200715767E-02 
2020	 9.72773289098916E-02 
2021	 9.73287336764397E-02 
2022	 9.73775752427739E-02 
2023	 9.74287883269113E-02 
2024	 9.74710017807698E-02 
2025	 9.75014850802258E-02 
2026	 0.097544146711611 
2027	 0.097585199461148 
2028	 9.76260839899361E-02 
2029	 9.76810601595424E-02 
2030	 9.77580805353676E-02 
2031	 9.78098020879303E-02 
2032	 0.097860450546889 
2033	 9.79011243751762E-02 
2034	 9.79285811235577E-02 
2035	 9.79570264496594E-02 
2036	 9.79701907950371E-02 
2037	 9.80018657837531E-02 
2038	 9.80423863375935E-02 
2039	 0.098077862029258 
2040	 9.81113373597337E-02 
2041	 9.81664879697949E-02 
2042	 0.098219540351239 
2043	 9.82416746599933E-02 
2044	 9.82812816211564E-02 
2045	 9.83320110556808E-02 
2046	 9.83661639969949E-02 
2047	 9.83900113589025E-02 
2048	 9.84229731608484E-02 
2049	 9.84513529010914E-02 
2050	 9.84842339494107E-02 
2051	 9.85240749587511E-02 
2052	 9.85612029809758E-02 
2053	 9.86005604820192E-02 
2054	 9.86344076586708E-02 
2055	 9.86641101206845E-02 
2056	 9.86951231350046E-02 
2057	 9.87299918972975E-02 
2058	 9.87606549150827E-02 
2059	 9.87984665220761E-02 
2060	 9.88510931394876E-02 
2061	 0.098884688026107 
2062	 9.89079259590038E-02 
2063	 9.89373527636359E-02 
2064	 9.89609640770666E-02 
2065	 9.89890400008741E-02 
2066	 9.90372367905766E-02 
2067	 9.90585905815736E-02 
2068	 9.90611622453348E-02 
2069	 0.09906061895597 
2070	 9.90755061224819E-02 
2071	 9.90804968820235E-02 
2072	 9.91009085967523E-02 
2073	 9.91414581350371E-02 
2074	 9.91761434676883E-02 
2075	 0.099208224483814 
2076	 9.92428387074009E-02 
2077	 9.92941892994378E-02 
2078	 9.93268440921148E-02 
2079	 9.93509727224833E-02 
2080	 9.93710821440569E-02 
2081	 9.93750639805467E-02 
2082	 9.93893966465427E-02 
2083	 0.099393693335201 
2084	 9.94129236224067E-02 
2085	 9.94494051519668E-02 
2086	 9.95076877712867E-02 
2087	 9.95461994556519E-02 
2088	 9.96017251794662E-02 
2089	 9.96308853701312E-02 
2090	 9.96268805304153E-02 
2091	 9.96495913696348E-02 
2092	 9.96734591709357E-02 
2093	 9.97038462858064E-02 
2094	 9.97441077584339E-02 
2095	 9.97890246378732E-02 
2096	 9.98501272415418E-02 
2097	 9.98945019272396E-02 
2098	 9.99325773012434E-02 
2099	 9.99759229556735E-02 
2100	 0.100016836326575 
2101	 0.100038023278338 
2102	 0.100090603199109 
2103	 0.100167630822534 
2104	 0.100225951339213 
2105	 0.100297369371522 
2106	 0.100345597722489 
2107	 0.100368450189749 
2108	 0.100407549813634 
2109	 0.100430863162086 
2110	 0.10047990728122 
2111	 0.100560470473622 
2112	 0.100622311733049 
2113	 0.100687358557965 
2114	 0.100756769342668 
2115	 0.100805922595855 
2116	 0.100835737216667 
2117	 0.100870871362446 
2118	 0.100891031643165 
2119	 0.100934263611693 
2120	 0.100992559789664 
2121	 0.101032184208003 
2122	 0.101082652397189 
2123	 0.101117280657105 
2124	 0.101118621462659 
2125	 0.101143513356843 
2126	 0.10118661516153 
2127	 0.101213561971831 
2128	 0.101234539007912 
2129	 0.101261359966001 
2130	 0.101291445988511 
2131	 0.101302615157956 
2132	 0.101323126034112 
2133	 0.101357110111098 
2134	 0.101370748565324 
2135	 0.10136735126493 
2136	 0.101376976180218 
2137	 0.101401386104149 
2138	 0.10138975418284 
2139	 0.101363567077272 
2140	 0.10133637309073 
2141	 0.101275797698359 
2142	 0.101231964653336 
2143	 0.101191290620974 
2144	 0.101163133091586 
2145	 0.101144523150315 
2146	 0.101122266475496 
2147	 0.101122424182039 
2148	 0.101106743208998 
2149	 0.101073735828499 
2150	 0.101018505809426 
2151	 0.100977307468291 
2152	 0.100930952133731 
2153	 0.100879846482879 
2154	 0.100841778461088 
2155	 0.10077870797264 
2156	 0.1006770776246 
2157	 0.100611930156376 
2158	 0.100557935437612 
2159	 0.100495664863587 
2160	 0.100457511980238 
2161	 0.100399761699596 
2162	 0.100325903120232 
2163	 0.100246951344221 
2164	 0.100160536970139 
2165	 0.100063566749928 
2166	 9.99871985613197E-02 
2167	 9.99060150466359E-02 
2168	 0.099839045887999 
2169	 9.98102273886413E-02 
2170	 9.97303236918249E-02 
2171	 9.96278836414804E-02 
2172	 9.95317568744393E-02 
2173	 9.93952131788943E-02 
2174	 9.93055026421352E-02 
2175	 9.92472911848835E-02 
2176	 9.91771291498553E-02 
2177	 9.91227198745202E-02 
2178	 9.90631850746649E-02 
2179	 9.89837957314113E-02 
2180	 9.89283369149984E-02 
2181	 9.89149457065232E-02 
2182	 9.88640752740251E-02 
2183	 9.88048096109924E-02 
2184	 0.098738413875519 
2185	 0.09866634911573 
2186	 9.85512553253583E-02 
2187	 9.84920064318492E-02 
2188	 9.84703953551242E-02 
2189	 9.84183792134805E-02 
2190	 9.83672386066697E-02 
2191	 9.83242480401142E-02 
2192	 9.82785892319481E-02 
2193	 9.82232986369337E-02 
2194	 9.81777545852476E-02 
2195	 0.098123595873098 
2196	 9.80315227065902E-02 
2197	 0.097976206988307 
2198	 9.79515091450167E-02 
2199	 9.79174594006534E-02 
2200	 9.78889819538082E-02 
2201	 9.78670402840201E-02 
2202	 9.78473737575469E-02 
2203	 9.78218789264491E-02 
2204	 9.78142395074895E-02 
2205	 9.78231875863671E-02 
2206	 9.78218531506419E-02 
2207	 9.78345595695658E-02 
2208	 9.78182718101413E-02 
2209	 9.77865951250593E-02 
2210	 9.77603554519044E-02 
2211	 9.77051107748469E-02 
2212	 9.76851911463705E-02 
2213	 0.097690495947871 
2214	 9.76844293956498E-02 
2215	 9.76851630408601E-02 
2216	 9.76879052359228E-02 
2217	 9.76919295026245E-02 
2218	 9.76920561615753E-02 
2219	 9.77044847931549E-02 
2220	 9.77048986721035E-02 
2221	 9.76916667434603E-02 
2222	 9.76678110151469E-02 
2223	 9.76924693839307E-02 
2224	 9.76928383591586E-02 
2225	 9.77214657455358E-02 
2226	 9.77878065011329E-02 
2227	 0.097814269512427 
2228	 9.78389516116386E-02 
2229	 9.78423508305785E-02 
2230	 9.78131219341547E-02 
2231	 0.097811391496768 
2232	 9.77918649140364E-02 
2233	 9.78108022464491E-02 
2234	 9.78759773562071E-02 
2235	 9.79050112214724E-02 
2236	 9.79481379238098E-02 
2237	 9.79637953375072E-02 
2238	 9.79428864286719E-02 
2239	 9.79356903990881E-02 
2240	 9.79091252986338E-02 
2241	 9.79073731141362E-02 
2242	 9.79213097450768E-02 
2243	 9.79323172614228E-02 
2244	 9.79548040718336E-02 
2245	 9.79881854654087E-02 
2246	 9.79931594494513E-02 
2247	 9.80075285052908E-02 
2248	 9.80217582237458E-02 
2249	 9.80336909115142E-02 
2250	 9.80440428335295E-02 
2251	 9.80505979442246E-02 
2252	 9.80753490409689E-02 
2253	 9.80971194462905E-02 
2254	 9.81438679040458E-02 
2255	 9.82277784009675E-02 
2256	 9.82826144248678E-02 
2257	 0.098357767364829 
2258	 9.83839270300933E-02 
2259	 9.83619566475039E-02 
2260	 9.83662577289914E-02 
2261	 9.83466665177211E-02 
2262	 9.83445388314578E-02 
2263	 9.83640909283528E-02 
2264	 9.83819048099615E-02 
2265	 9.84025514504668E-02 
2266	 0.098423188676722 
2267	 9.84644841703469E-02 
2268	 9.84803681630809E-02 
2269	 9.84772848351305E-02 
2270	 9.84679665437213E-02 
2271	 0.098463271017697 
2272	 9.84599767451304E-02 
2273	 0.098493938110834 
2274	 9.85321012719935E-02 
2275	 9.85544069534603E-02 
2276	 9.85747035260965E-02 
2277	 9.86025350105227E-02 
2278	 9.86226797315821E-02 
2279	 9.86482974111909E-02 
2280	 9.86813178427373E-02 
2281	 9.87197509992443E-02 
2282	 9.87552041683456E-02 
2283	 9.87914979420257E-02 
2284	 9.88548120124236E-02 
2285	 9.88885548679539E-02 
2286	 9.89085317940564E-02 
2287	 9.89196731174405E-02 
2288	 9.89145498297358E-02 
2289	 9.89038597565421E-02 
2290	 9.88537525610996E-02 
2291	 9.88499017166388E-02 
2292	 9.88629499271018E-02 
2293	 9.88824557911403E-02 
2294	 9.89455476401598E-02 
2295	 9.89902557408391E-02 
2296	 9.90315897092628E-02 
2297	 9.90605426707465E-02 
2298	 9.90999758716733E-02 
2299	 9.91463771761212E-02 
2300	 9.91742803815988E-02 
2301	 9.92183753136962E-02 
2302	 9.92802428797961E-02 
2303	 9.92837402646519E-02 
2304	 9.92713549562588E-02 
2305	 0.099268833457387 
2306	 9.92636024042258E-02 
2307	 9.92289771429144E-02 
2308	 9.92340140204755E-02 
2309	 9.92798288769861E-02 
2310	 9.92748638662434E-02 
2311	 9.92298790769789E-02 
2312	 0.099246931651387 
2313	 9.92746125380491E-02 
2314	 9.93144544295849E-02 
2315	 9.94128314954093E-02 
2316	 9.94704378074016E-02 
2317	 9.95088275328818E-02 
2318	 9.95314672150409E-02 
2319	 9.95539328642532E-02 
2320	 9.95657747391048E-02 
2321	 9.95255144011113E-02 
2322	 0.099535625378503 
2323	 9.95668203953581E-02 
2324	 9.95927902415846E-02 
2325	 0.099641562520552 
2326	 9.96967050500461E-02 
2327	 9.97748172923395E-02 
2328	 9.98133015837635E-02 
2329	 9.98350728858453E-02 
2330	 0.09987881682281 
2331	 9.98147032196079E-02 
2332	 9.97559070102185E-02 
2333	 9.97775088200211E-02 
2334	 9.97425251967248E-02 
2335	 9.98148751199744E-02 
2336	 9.99330717900225E-02 
2337	 0.099992569092798 
2338	 0.100080739626044 
2339	 0.100156002968326 
2340	 0.100221096805805 
2341	 0.100252104499134 
2342	 0.100271777271399 
2343	 0.100262970726077 
2344	 0.10022019519499 
2345	 0.100231201404227 
2346	 0.100278414307096 
2347	 0.100308290420737 
2348	 0.100356216788761 
2349	 0.100392380622454 
2350	 0.100435447277971 
2351	 0.100456942757511 
2352	 0.100465076386856 
2353	 0.100476310872299 
2354	 0.100440826843142 
2355	 0.100452061565006 
2356	 0.100530157062836 
2357	 0.100540749678872 
2358	 0.100515176109024 
2359	 0.100534648164117 
2360	 0.100520634244918 
2361	 0.100542300418909 
2362	 0.10066982915688 
2363	 0.100715065936802 
2364	 0.100681638826528 
2365	 0.100696206947061 
2366	 0.100724099670443 
2367	 0.100720663401746 
2368	 0.100734086897866 
2369	 0.10073733503626 
2370	 0.100701031821422 
2371	 0.100651164302833 
2372	 0.100700110781173 
2373	 0.10079481733505 
2374	 0.10088363775896 
2375	 0.100898361809198 
2376	 0.100785330992257 
2377	 0.100689700718724 
2378	 0.100658085987344 
2379	 0.100641603285004 
2380	 0.100671535184133 
2381	 0.100693444742335 
2382	 0.100647640378493 
2383	 0.100605149872501 
2384	 0.100597368643426 
2385	 0.100624441844911 
2386	 0.100686189157673 
2387	 0.100738964433726 
2388	 0.100786908356543 
2389	 0.100803841179084 
2390	 0.100821098522451 
2391	 0.100842832723085 
2392	 0.100829155080921 
2393	 0.100789705619701 
2394	 0.100727209672636 
2395	 0.100754973396534 
2396	 0.100782476946616 
2397	 0.100788211139438 
2398	 0.100818005165007 
2399	 0.100769570676835 
2400	 0.100731547838775 
2401	 0.100737551574932 
2402	 0.10075732140508 
2403	 0.100715014764517 
2404	 0.100654253144124 
2405	 0.100661154007059 
2406	 0.10062265097855 
2407	 0.100672628825521 
2408	 0.100744306725439 
2409	 0.100716177059626 
2410	 0.100748750767363 
2411	 0.100700374780119 
2412	 0.100626277429223 
2413	 0.100650363367766 
2414	 0.100680213622671 
2415	 0.100771213471674 
2416	 0.100680402069932 
2417	 0.10040331786785 
2418	 0.100278548905287 
2419	 0.100064533169885 
2420	 9.99721360643889E-02 
2421	 0.100098156633775 
2422	 0.10012669328 
2423	 0.100104278356962 
2424	 0.100111900424861 
2425	 0.100156287460436 
2426	 0.100142883085353 
2427	 0.100115828253888 
2428	 0.100108227778193 
2429	 0.100077678980549 
2430	 0.100045755383489 
2431	 0.100016143671939 
2432	 9.99606350528227E-02 
2433	 9.98805077352393E-02 
2434	 9.98464184197908E-02 
2435	 9.98356938891837E-02 
2436	 9.98074524074591E-02 
2437	 9.97432477960813E-02 
2438	 9.97291610059691E-02 
2439	 9.97747103149105E-02 
2440	 9.97580031237806E-02 
2441	 9.97055251181785E-02 
2442	 9.97329528739958E-02 
2443	 9.98002870372665E-02 
2444	 9.98302897586145E-02 
2445	 9.98761771784121E-02 
2446	 9.99241740132864E-02 
2447	 9.99606473398321E-02 
2448	 9.99710967783901E-02 
2449	 0.10004134209839 
2450	 0.100036168983449 
2451	 9.98637658286805E-02 
2452	 9.97876830759941E-02 
2453	 9.97527955181533E-02 
2454	 9.97637630700107E-02 
2455	 9.98563138708364E-02 
2456	 9.98988014026924E-02 
2457	 9.99535139269029E-02 
2458	 0.099984052455412 
2459	 0.099973250502632 
2460	 9.98962548593882E-02 
2461	 9.97739773219673E-02 
2462	 9.96709047309214E-02 
2463	 9.95674224416791E-02 
2464	 9.94998619766057E-02 
2465	 9.93884211341385E-02 
2466	 9.93803089743636E-02 
2467	 9.94439984524949E-02 
2468	 9.94216886224802E-02 
2469	 9.94862349559852E-02 
2470	 9.94333179751887E-02 
2471	 9.92594626536237E-02 
2472	 9.92351524927913E-02 
2473	 9.92089784101761E-02 
2474	 9.92220545576972E-02 
2475	 9.94173525778976E-02 
2476	 9.94576781423188E-02 
2477	 0.099569809231281 
2478	 9.96280220029713E-02 
2479	 9.95034485608816E-02 
2480	 9.94041942627707E-02 
2481	 9.91627584235066E-02 
2482	 9.89336299314043E-02 
2483	 9.88493436901964E-02 
2484	 9.87988740788509E-02 
2485	 9.87039151422083E-02 
2486	 9.86782525556601E-02 
2487	 9.88233867903016E-02 
2488	 9.88220582242556E-02 
2489	 9.88283060028001E-02 
2490	 0.098871174781713 
2491	 9.87369133709257E-02 
2492	 9.88247071946868E-02 
2493	 9.89308705752689E-02 
2494	 9.88406116840575E-02 
2495	 9.89020428368989E-02 
2496	 0.098898774440103 
2497	 9.88944512481893E-02 
2498	 9.89536682826847E-02 
2499	 9.86764759617069E-02 
2500	 9.85788652225631E-02 
