Wavelength	LMW_13_a00007.asd
350	 4.62890253236174E-02 
351	 5.31584510375713E-02 
352	 5.30925458804824E-02 
353	 0.039573130092133 
354	 4.67502263022615E-02 
355	 4.77458989834401E-02 
356	 4.39311418090947E-02 
357	 4.27484020446828E-02 
358	 0.045813956256884 
359	 4.62211140637515E-02 
360	 4.56567615850487E-02 
361	 4.99033260391775E-02 
362	 4.37131751798941E-02 
363	 3.79451232555443E-02 
364	 3.92502909908443E-02 
365	 0.043108763222783 
366	 4.32161579112251E-02 
367	 4.28815166024493E-02 
368	 0.045783526828656 
369	 4.53808148802496E-02 
370	 4.36312183781058E-02 
371	 4.21871263874464E-02 
372	 4.22050819134374E-02 
373	 4.25587042299398E-02 
374	 4.26452284500055E-02 
375	 4.29848641389944E-02 
376	 4.61529655813342E-02 
377	 4.59100680648401E-02 
378	 4.43206787528426E-02 
379	 4.51695785279115E-02 
380	 4.83100918596911E-02 
381	 4.78879660389495E-02 
382	 0.045438117351793 
383	 4.74584859986967E-02 
384	 4.65269507961084E-02 
385	 4.57171415189807E-02 
386	 4.76343962624245E-02 
387	 5.17195868741537E-02 
388	 5.12771768391634E-02 
389	 4.95926774097631E-02 
390	 0.051319558030919 
391	 5.03640546498063E-02 
392	 5.06799261143324E-02 
393	 5.30032217305397E-02 
394	 5.49986838556172E-02 
395	 5.55671293634614E-02 
396	 5.56147786565313E-02 
397	 5.62859900824156E-02 
398	 5.86902251732284E-02 
399	 5.93522759690458E-02 
400	 5.95339798808125E-02 
401	 6.14102282744907E-02 
402	 6.16475993887254E-02 
403	 6.11638502200854E-02 
404	 0.061181812386141 
405	 0.062827265677544 
406	 0.063907905276826 
407	 6.46767349686173E-02 
408	 6.53356959520427E-02 
409	 6.43910162498156E-02 
410	 6.43144960895945E-02 
411	 6.47532098344177E-02 
412	 6.42728096563859E-02 
413	 6.41641332307495E-02 
414	 6.39986949903989E-02 
415	 6.36712485361462E-02 
416	 6.36870740094546E-02 
417	 6.32701114272252E-02 
418	 6.29466463158273E-02 
419	 6.31118919108264E-02 
420	 6.27339621857076E-02 
421	 6.15452370642313E-02 
422	 0.060480331436662 
423	 6.08967664869797E-02 
424	 5.98755320957803E-02 
425	 5.91534935789206E-02 
426	 5.94367061201152E-02 
427	 5.84393912897027E-02 
428	 5.80405200800183E-02 
429	 5.79505124893493E-02 
430	 5.74298800520612E-02 
431	 5.71266950449128E-02 
432	 5.67397917105196E-02 
433	 5.66242279057818E-02 
434	 5.77140135325779E-02 
435	 5.82561383699135E-02 
436	 5.88404086911208E-02 
437	 5.99193923949729E-02 
438	 6.02884340727566E-02 
439	 6.08745892458748E-02 
440	 6.19060242138033E-02 
441	 6.31637186820991E-02 
442	 6.38948851805151E-02 
443	 6.47208486388824E-02 
444	 0.065862063702358 
445	 6.67271124890157E-02 
446	 6.77340430257261E-02 
447	 6.87902065568131E-02 
448	 6.97517158797998E-02 
449	 7.08966294076209E-02 
450	 7.20162060294565E-02 
451	 7.30974393169364E-02 
452	 0.074289068176003 
453	 7.53024991348049E-02 
454	 7.59753454264043E-02 
455	 7.65381354233406E-02 
456	 7.82154207731341E-02 
457	 7.93171722944822E-02 
458	 7.97829347329491E-02 
459	 8.03448148748266E-02 
460	 8.14598391388761E-02 
461	 8.23019252477379E-02 
462	 8.27945118300435E-02 
463	 8.40697151051654E-02 
464	 8.50973474886994E-02 
465	 8.58608458726365E-02 
466	 8.66322005393142E-02 
467	 8.76620092862057E-02 
468	 8.84866061220302E-02 
469	 8.90129958374782E-02 
470	 8.94951414273942E-02 
471	 9.05045568516758E-02 
472	 9.15109793292984E-02 
473	 9.21543420437733E-02 
474	 9.29196055402541E-02 
475	 0.09369018207886 
476	 9.44836711331512E-02 
477	 9.53227444658576E-02 
478	 9.59202573794349E-02 
479	 9.65404029224592E-02 
480	 9.72571717248576E-02 
481	 9.78164318901358E-02 
482	 9.84160673110561E-02 
483	 9.90528255827551E-02 
484	 9.96567126720251E-02 
485	 0.100131943664339 
486	 0.100551762048765 
487	 0.100950104217265 
488	 0.101337246138457 
489	 0.101978973893551 
490	 0.102559532125611 
491	 0.102869913842855 
492	 0.103215888682663 
493	 0.103404266216682 
494	 0.103624707009754 
495	 0.104162169219201 
496	 0.104621072226607 
497	 0.104848965296783 
498	 0.104959301626318 
499	 0.105426130969701 
500	 0.105565446387673 
501	 0.105587384838521 
502	 0.105854030952816 
503	 0.10617914963251 
504	 0.106323132056212 
505	 0.106328326692335 
506	 0.106482879608976 
507	 0.106689339441173 
508	 0.106858037942998 
509	 0.106930069553597 
510	 0.106909591889808 
511	 0.106978081954461 
512	 0.107121388882295 
513	 0.107225363630953 
514	 0.107352743857625 
515	 0.107416069599274 
516	 0.107423857926051 
517	 0.107582708133099 
518	 0.107634742313609 
519	 0.107555774420844 
520	 0.10745200317012 
521	 0.107654039030437 
522	 0.107828907805947 
523	 0.107858880582885 
524	 0.107890089115957 
525	 0.107918502506617 
526	 0.10796931186229 
527	 0.108044792691087 
528	 0.108064182307464 
529	 0.108114713946249 
530	 0.108202062699044 
531	 0.108272712381035 
532	 0.108236278522036 
533	 0.108322257984518 
534	 0.108572215016799 
535	 0.108539257917468 
536	 0.10849715585789 
537	 0.108597565650918 
538	 0.108881160264089 
539	 0.108972245889818 
540	 0.108977065811496 
541	 0.10901615929746 
542	 0.109171768173711 
543	 0.109374150123076 
544	 0.109536780092852 
545	 0.109617120998981 
546	 0.109753558518722 
547	 0.109942545545917 
548	 0.110150022031502 
549	 0.110317453045512 
550	 0.110335425406989 
551	 0.110370263323057 
552	 0.110551358556356 
553	 0.110794026384438 
554	 0.11098621924623 
555	 0.111159596391741 
556	 0.111401319972179 
557	 0.111497016652716 
558	 0.111695853959582 
559	 0.112077266983789 
560	 0.112340319349011 
561	 0.11261990772266 
562	 0.112893459958892 
563	 0.113118115173746 
564	 0.113406635702778 
565	 0.113717736033025 
566	 0.114028752916088 
567	 0.114348634054488 
568	 0.114731275475405 
569	 0.115101455524149 
570	 0.11538106026612 
571	 0.115567698657135 
572	 0.115877390723045 
573	 0.116311277248619 
574	 0.116714809245643 
575	 0.11707705631603 
576	 0.117542369753496 
577	 0.118124008736073 
578	 0.118470244227092 
579	 0.118938446197776 
580	 0.119526979097217 
581	 0.120098214769254 
582	 0.120754649721055 
583	 0.121230892619561 
584	 0.121482164133504 
585	 0.121809639625671 
586	 0.122228359133252 
587	 0.122718726124656 
588	 0.123255881698922 
589	 0.123917236633148 
590	 0.124518330366761 
591	 0.125030969082599 
592	 0.125576333762726 
593	 0.126082291258947 
594	 0.126641528002171 
595	 0.127316815775107 
596	 0.128031548004555 
597	 0.128697552866616 
598	 0.129290224521229 
599	 0.129822954195825 
600	 0.130237151785714 
601	 0.13062138991737 
602	 0.131037210185788 
603	 0.131468219561981 
604	 0.131988725487063 
605	 0.132518399251284 
606	 0.132973175443572 
607	 0.133582396972504 
608	 0.134178562103398 
609	 0.134664508692089 
610	 0.135053358206101 
611	 0.135364882892273 
612	 0.135707351334074 
613	 0.136135719209237 
614	 0.13647162238626 
615	 0.136773075524147 
616	 0.137065838895974 
617	 0.137355295321376 
618	 0.137720065576992 
619	 0.13800466058497 
620	 0.138160750939254 
621	 0.138438842025158 
622	 0.138761777773173 
623	 0.139056882483261 
624	 0.139267871819915 
625	 0.139488090245446 
626	 0.139728667731859 
627	 0.139984110706109 
628	 0.140236863534144 
629	 0.140450156992665 
630	 0.140621447728094 
631	 0.140783466669152 
632	 0.141058701970276 
633	 0.141318418266016 
634	 0.141486108501785 
635	 0.14155364607007 
636	 0.14179164488378 
637	 0.142066112456795 
638	 0.142242054820198 
639	 0.142352176133709 
640	 0.142552041137303 
641	 0.142809867566588 
642	 0.143013549296063 
643	 0.143218163073648 
644	 0.143432124153497 
645	 0.143631891378031 
646	 0.143749276019091 
647	 0.143958589329299 
648	 0.144183185656691 
649	 0.144322228340473 
650	 0.144507014152943 
651	 0.144716572664342 
652	 0.14491871933863 
653	 0.145083603276907 
654	 0.145349001617433 
655	 0.1455820017484 
656	 0.145698114749121 
657	 0.145850048976169 
658	 0.14603236338196 
659	 0.146258672837864 
660	 0.146527771993705 
661	 0.146709321709425 
662	 0.146872750411899 
663	 0.147074793022825 
664	 0.147324352628101 
665	 0.147590455336014 
666	 0.147792992673963 
667	 0.147900017651793 
668	 0.148121534973728 
669	 0.148335765830272 
670	 0.148536742331956 
671	 0.148808844295918 
672	 0.148961534247556 
673	 0.14915278085607 
674	 0.149463967647792 
675	 0.149651725838389 
676	 0.149833621888225 
677	 0.1500440877115 
678	 0.15028268458514 
679	 0.150547968256025 
680	 0.150772054896245 
681	 0.150952452676993 
682	 0.151177012116947 
683	 0.151401513652601 
684	 0.151639326549018 
685	 0.151897941915761 
686	 0.152113363859837 
687	 0.152334873715113 
688	 0.152585044066588 
689	 0.152856274017208 
690	 0.153035402016185 
691	 0.153250355121011 
692	 0.153549795316801 
693	 0.153752515984445 
694	 0.153958413364483 
695	 0.154204651186317 
696	 0.154487772455388 
697	 0.154703952810181 
698	 0.15491041750888 
699	 0.155140091604388 
700	 0.155388536084789 
701	 0.155621621771956 
702	 0.155852452241989 
703	 0.156086304180447 
704	 0.15626306104218 
705	 0.156527246450584 
706	 0.156816360225016 
707	 0.156984562883498 
708	 0.157184562957617 
709	 0.157412884225466 
710	 0.157639276284939 
711	 0.157819601391384 
712	 0.158029564007633 
713	 0.158231113147475 
714	 0.158381852618073 
715	 0.158537468220963 
716	 0.158772592445361 
717	 0.159019615109418 
718	 0.159127207148962 
719	 0.159267979802887 
720	 0.159429699585492 
721	 0.159573341507395 
722	 0.15965452100742 
723	 0.159808641961043 
724	 0.159981988235901 
725	 0.160082714645983 
726	 0.160192124791782 
727	 0.160292778707801 
728	 0.160359018925012 
729	 0.16036850966111 
730	 0.160430919750274 
731	 0.160533135059966 
732	 0.16061588154917 
733	 0.160553822390265 
734	 0.160589563392246 
735	 0.160635405116808 
736	 0.160522378674664 
737	 0.160500712212864 
738	 0.160493597375261 
739	 0.160454491351019 
740	 0.160396309424245 
741	 0.160311028652891 
742	 0.160218060263615 
743	 0.1601241837073 
744	 0.159985866490877 
745	 0.159829251939391 
746	 0.159686743940041 
747	 0.159571832530274 
748	 0.15934398283234 
749	 0.159138085323662 
750	 0.158995774927249 
751	 0.158817647038445 
752	 0.158616280654612 
753	 0.158420559804321 
754	 0.158230469250446 
755	 0.157936172096828 
756	 0.157687613890167 
757	 0.157477169195554 
758	 0.15722079885092 
759	 0.156942645064712 
760	 0.156613249815596 
761	 0.156276540382475 
762	 0.156066206530888 
763	 0.15575957660022 
764	 0.155444061746114 
765	 0.155202152244947 
766	 0.154872945490329 
767	 0.154562415025462 
768	 0.154255870607958 
769	 0.1538904333537 
770	 0.153525078705058 
771	 0.153186039138637 
772	 0.152873814005425 
773	 0.152561897240049 
774	 0.152228492966072 
775	 0.151896506876825 
776	 0.151577969515884 
777	 0.151222128573383 
778	 0.15088844833988 
779	 0.150586740689171 
780	 0.150294605773008 
781	 0.149961188765752 
782	 0.149581916320068 
783	 0.149187679939341 
784	 0.148840005440257 
785	 0.148542978612612 
786	 0.148231577752166 
787	 0.14787782944211 
788	 0.14757876779706 
789	 0.147244171839251 
790	 0.146893186469544 
791	 0.146568148764989 
792	 0.146193579457719 
793	 0.145902420321253 
794	 0.145678765170452 
795	 0.145377891893339 
796	 0.145037842124424 
797	 0.144688737943453 
798	 0.144360532259748 
799	 0.144083661716053 
800	 0.143774635171398 
801	 0.14343280028842 
802	 0.143108514408611 
803	 0.142943591861595 
804	 0.142706194784924 
805	 0.142364830941164 
806	 0.142031199536114 
807	 0.141788229269738 
808	 0.141502487245658 
809	 0.14117166318555 
810	 0.140987945783638 
811	 0.140811318487491 
812	 0.140570068630684 
813	 0.140258280107822 
814	 0.13999372594133 
815	 0.139758643457626 
816	 0.139538747602341 
817	 0.139319137684482 
818	 0.139093578824248 
819	 0.138890034215437 
820	 0.138692657184516 
821	 0.138453227570884 
822	 0.138214099187454 
823	 0.138013544551734 
824	 0.137850884406688 
825	 0.137666454030982 
826	 0.137436050206265 
827	 0.13720016408472 
828	 0.137014623662366 
829	 0.13692769659701 
830	 0.136762370157293 
831	 0.13654588678651 
832	 0.136397138129153 
833	 0.136299673266744 
834	 0.136162582422069 
835	 0.135996403379212 
836	 0.135900579595592 
837	 0.135750050089545 
838	 0.135610798664571 
839	 0.135511114271701 
840	 0.135363058297952 
841	 0.135213611040557 
842	 0.135071685899283 
843	 0.134951648020161 
844	 0.134927819979654 
845	 0.134831383385104 
846	 0.134678566760233 
847	 0.134564111285973 
848	 0.134459291758179 
849	 0.134369686348386 
850	 0.13428718630138 
851	 0.134197270533067 
852	 0.134158436201012 
853	 0.134133398228587 
854	 0.134089095834927 
855	 0.13402116173934 
856	 0.133990740362747 
857	 0.133977932333271 
858	 0.133949185436537 
859	 0.13388792607195 
860	 0.133837651659322 
861	 0.13380533620135 
862	 0.133785461239055 
863	 0.133788243948847 
864	 0.133766476598599 
865	 0.133759301492927 
866	 0.133827030567719 
867	 0.133774677774634 
868	 0.133733919008152 
869	 0.133765676872045 
870	 0.13382076507948 
871	 0.133797395613468 
872	 0.133861182436708 
873	 0.134030373023073 
874	 0.134024292028313 
875	 0.133970749887693 
876	 0.133909601768189 
877	 0.133878181395933 
878	 0.133956228118415 
879	 0.134070709661331 
880	 0.134186327677933 
881	 0.134292669727518 
882	 0.134423427309513 
883	 0.134541977238081 
884	 0.134614638941659 
885	 0.134645079010334 
886	 0.134832176559523 
887	 0.134963729264519 
888	 0.13501124070283 
889	 0.13512223036901 
890	 0.135286340875504 
891	 0.13538900718824 
892	 0.135420484852877 
893	 0.135513876515029 
894	 0.135639379630993 
895	 0.135830286181538 
896	 0.136057244452551 
897	 0.136167980273657 
898	 0.136367901185385 
899	 0.136567102416738 
900	 0.136685356220887 
901	 0.136883150782379 
902	 0.137025167899371 
903	 0.137163507352011 
904	 0.137370462376574 
905	 0.137541774229742 
906	 0.137740923299899 
907	 0.137942499235351 
908	 0.138118682003583 
909	 0.138469449040222 
910	 0.138706335115658 
911	 0.138842031452021 
912	 0.139080296287084 
913	 0.139330602933407 
914	 0.139557469948059 
915	 0.139801037672735 
916	 0.140143734742373 
917	 0.140452721105964 
918	 0.140688749896789 
919	 0.140886206119034 
920	 0.141140107865756 
921	 0.141423241177744 
922	 0.141695266651885 
923	 0.141952795781277 
924	 0.14224786616752 
925	 0.142471968244511 
926	 0.142755812686027 
927	 0.143167702605907 
928	 0.143571036611658 
929	 0.143918521695815 
930	 0.144209007125893 
931	 0.144479411151524 
932	 0.144808182159936 
933	 0.145112537244841 
934	 0.145448364207287 
935	 0.1458623316917 
936	 0.146265658374713 
937	 0.146635382634867 
938	 0.146993580237853 
939	 0.147374502279051 
940	 0.147790215793933 
941	 0.148140753782198 
942	 0.148497905222312 
943	 0.148944072701935 
944	 0.149311282654107 
945	 0.149692718222302 
946	 0.150099215697669 
947	 0.150508221350866 
948	 0.150944121452131 
949	 0.151357009711966 
950	 0.151790391359251 
951	 0.152293648682926 
952	 0.152696151675617 
953	 0.153111967586844 
954	 0.153561778581241 
955	 0.154005384238791 
956	 0.154426047203898 
957	 0.15497727860966 
958	 0.155527806236082 
959	 0.155852938627308 
960	 0.156251282664797 
961	 0.156795898486039 
962	 0.157390324010509 
963	 0.157867831310666 
964	 0.158302784403628 
965	 0.158782668207291 
966	 0.159278015143498 
967	 0.159709089206673 
968	 0.160204757812386 
969	 0.16071225368141 
970	 0.161233074028574 
971	 0.16179455806984 
972	 0.162312071253678 
973	 0.162797314079095 
974	 0.163293131869392 
975	 0.163852241357708 
976	 0.16450251582146 
977	 0.164994098826361 
978	 0.165408581059838 
979	 0.165989307955552 
980	 0.166507512022353 
981	 0.167058574431296 
982	 0.167638025540172 
983	 0.168192450927774 
984	 0.168828171155388 
985	 0.169316486579824 
986	 0.169726494770757 
987	 0.170264177200711 
988	 0.170832835758167 
989	 0.171460824771504 
990	 0.17205729436899 
991	 0.172545710840452 
992	 0.173193193724241 
993	 0.173717368618143 
994	 0.174262971411496 
995	 0.175019173625392 
996	 0.175503738906804 
997	 0.176051640425627 
998	 0.176643427211588 
999	 0.177171093754833 
1000	 0.177770300593519 
1001	 0.177382305560931 
1002	 0.177883023910137 
1003	 0.178397784538511 
1004	 0.17889999729003 
1005	 0.179328038441252 
1006	 0.179813581933106 
1007	 0.180329945917157 
1008	 0.180850666069705 
1009	 0.181382490897691 
1010	 0.181948891212139 
1011	 0.182464627989445 
1012	 0.182917713843023 
1013	 0.183407190995867 
1014	 0.183872668490982 
1015	 0.184333297682048 
1016	 0.184841465974391 
1017	 0.185331877450759 
1018	 0.1857974132677 
1019	 0.186294961249443 
1020	 0.186834738356871 
1021	 0.187328554238828 
1022	 0.187835439059826 
1023	 0.188275630588876 
1024	 0.188602976234931 
1025	 0.188969171641209 
1026	 0.189370420138462 
1027	 0.189742937877029 
1028	 0.19013011853024 
1029	 0.190547216901564 
1030	 0.190944783532509 
1031	 0.191311158590007 
1032	 0.191649777649195 
1033	 0.192021511394931 
1034	 0.192381426560579 
1035	 0.192692520470364 
1036	 0.193037480682762 
1037	 0.193355792807245 
1038	 0.193655168451179 
1039	 0.193966699920257 
1040	 0.194230728171457 
1041	 0.194538933625746 
1042	 0.19487416965027 
1043	 0.195188523369292 
1044	 0.195484740597234 
1045	 0.195800373701608 
1046	 0.196062706908133 
1047	 0.196316736996842 
1048	 0.196559419507285 
1049	 0.196788938575594 
1050	 0.197081866115159 
1051	 0.197320464213245 
1052	 0.197548555185746 
1053	 0.197885911444946 
1054	 0.198184252478137 
1055	 0.198458832980701 
1056	 0.198802982580799 
1057	 0.19912567410154 
1058	 0.199379652545322 
1059	 0.199720857861361 
1060	 0.200126682379725 
1061	 0.200529203783097 
1062	 0.200881001257823 
1063	 0.201245445983619 
1064	 0.201615003391736 
1065	 0.201988414465415 
1066	 0.202417476263237 
1067	 0.202869559421381 
1068	 0.203257058380978 
1069	 0.203584760571496 
1070	 0.203977110025592 
1071	 0.204365249198133 
1072	 0.204779261702744 
1073	 0.205258563690841 
1074	 0.205728136826859 
1075	 0.206204799907684 
1076	 0.206626186049582 
1077	 0.207082564554086 
1078	 0.207513218102992 
1079	 0.207945248426138 
1080	 0.208432950276447 
1081	 0.208883559287952 
1082	 0.209325279978157 
1083	 0.209768909182607 
1084	 0.210165347194794 
1085	 0.210591166290926 
1086	 0.211061533349945 
1087	 0.211496964260474 
1088	 0.211904301301188 
1089	 0.21233230196381 
1090	 0.212788323769538 
1091	 0.213187149518488 
1092	 0.213561027657843 
1093	 0.213951647813178 
1094	 0.214304064934406 
1095	 0.214638075603221 
1096	 0.214960084312929 
1097	 0.215263248826716 
1098	 0.215556158204916 
1099	 0.215804838147628 
1100	 0.216087605793585 
1101	 0.216412977080035 
1102	 0.216673005041412 
1103	 0.21690780294072 
1104	 0.217139652129403 
1105	 0.217361493335067 
1106	 0.217574072802546 
1107	 0.217784068378341 
1108	 0.217991516927097 
1109	 0.218166946142589 
1110	 0.218280392950567 
1111	 0.21841365838332 
1112	 0.218545319805247 
1113	 0.218676365908396 
1114	 0.21880724655159 
1115	 0.218928659134284 
1116	 0.219057481511593 
1117	 0.219154893237087 
1118	 0.219234645046488 
1119	 0.21928487350621 
1120	 0.219355477185646 
1121	 0.21942172208006 
1122	 0.219501611323219 
1123	 0.219583665143759 
1124	 0.219640422499658 
1125	 0.219690138109065 
1126	 0.219725009618602 
1127	 0.219727741147712 
1128	 0.219756212050618 
1129	 0.219778445362851 
1130	 0.219813095560228 
1131	 0.219881126128848 
1132	 0.219916972020389 
1133	 0.219936875575209 
1134	 0.219964007637626 
1135	 0.21997992667768 
1136	 0.219991055207793 
1137	 0.220023168588951 
1138	 0.220050678695309 
1139	 0.220054414673286 
1140	 0.220035352415628 
1141	 0.220026807291223 
1142	 0.220006712586072 
1143	 0.21999863094094 
1144	 0.219990950769549 
1145	 0.220001195718746 
1146	 0.220020948780764 
1147	 0.2200353197206 
1148	 0.220083667059924 
1149	 0.220096580873565 
1150	 0.220082061601233 
1151	 0.220068526310181 
1152	 0.220057678785633 
1153	 0.22004457227926 
1154	 0.220061728900895 
1155	 0.220108388809915 
1156	 0.220147506744341 
1157	 0.220198557375663 
1158	 0.220242681110181 
1159	 0.220289287882523 
1160	 0.220331367167464 
1161	 0.22036183144629 
1162	 0.220412611271242 
1163	 0.220457709285362 
1164	 0.220527070981103 
1165	 0.220621193225682 
1166	 0.220722792597744 
1167	 0.220807284416456 
1168	 0.220917788460052 
1169	 0.221015363732799 
1170	 0.221104044332778 
1171	 0.221196346310874 
1172	 0.221286796552871 
1173	 0.221390933171356 
1174	 0.221506584324161 
1175	 0.221611106267711 
1176	 0.221716279154693 
1177	 0.221830183096479 
1178	 0.221937143543079 
1179	 0.222047656511768 
1180	 0.222171825334406 
1181	 0.222297077279392 
1182	 0.2224253932202 
1183	 0.222541737119352 
1184	 0.222666441156062 
1185	 0.222793508056878 
1186	 0.222933593330377 
1187	 0.223083666309696 
1188	 0.223222608672075 
1189	 0.223380592999472 
1190	 0.223510330905874 
1191	 0.223613971226206 
1192	 0.223724445183813 
1193	 0.22381464845432 
1194	 0.22393058112642 
1195	 0.224072758459071 
1196	 0.224190644463686 
1197	 0.22431357469142 
1198	 0.224428555971214 
1199	 0.224533018916294 
1200	 0.224603334455213 
1201	 0.224717275991849 
1202	 0.224854232494126 
1203	 0.224968983933189 
1204	 0.225091360359146 
1205	 0.225205236810657 
1206	 0.225307189726171 
1207	 0.225406661800776 
1208	 0.225499845625318 
1209	 0.225603774336581 
1210	 0.225707075490405 
1211	 0.225806906921456 
1212	 0.225909740681741 
1213	 0.226020118724048 
1214	 0.22613511430136 
1215	 0.226239557958927 
1216	 0.226343146207751 
1217	 0.226466585336403 
1218	 0.22654798115804 
1219	 0.226593942565682 
1220	 0.226666202566659 
1221	 0.226727613719322 
1222	 0.226802806065915 
1223	 0.226897891293207 
1224	 0.226980233011075 
1225	 0.227062679596094 
1226	 0.227137733105164 
1227	 0.227205462997935 
1228	 0.227276220997335 
1229	 0.227339957438852 
1230	 0.227408759919594 
1231	 0.227481469012163 
1232	 0.227555542275954 
1233	 0.227631237934663 
1234	 0.22771373010069 
1235	 0.227780163982525 
1236	 0.22784877710457 
1237	 0.227899239518683 
1238	 0.227927260595552 
1239	 0.227966738348451 
1240	 0.227995083261999 
1241	 0.228039453742055 
1242	 0.228085540291751 
1243	 0.228147333386959 
1244	 0.228230441260683 
1245	 0.228301964772827 
1246	 0.22838063251257 
1247	 0.228458052881491 
1248	 0.228535797878332 
1249	 0.228606331202404 
1250	 0.228675959336399 
1251	 0.228723537718609 
1252	 0.228769670384673 
1253	 0.228793908530142 
1254	 0.228833246740523 
1255	 0.228879777669855 
1256	 0.228914115990277 
1257	 0.228937328633109 
1258	 0.228975012678904 
1259	 0.22901360274685 
1260	 0.229051148878461 
1261	 0.229097964574964 
1262	 0.229143113054447 
1263	 0.229192829581023 
1264	 0.229228232952643 
1265	 0.229255080514771 
1266	 0.229287084735349 
1267	 0.229305378251574 
1268	 0.229329967407539 
1269	 0.229359846149229 
1270	 0.229402921452354 
1271	 0.229436961625525 
1272	 0.229474623122432 
1273	 0.229492639215144 
1274	 0.229498883171101 
1275	 0.229513240127438 
1276	 0.229515017639025 
1277	 0.229525264234734 
1278	 0.229551671155593 
1279	 0.229562982012128 
1280	 0.229551173059345 
1281	 0.229564784655421 
1282	 0.229578598996502 
1283	 0.229609834137589 
1284	 0.229670493881273 
1285	 0.229718806581049 
1286	 0.229771736293187 
1287	 0.229856699827226 
1288	 0.229943674733797 
1289	 0.230037519935661 
1290	 0.230153717022688 
1291	 0.23027919471281 
1292	 0.230429201221167 
1293	 0.230597947971367 
1294	 0.230790201768928 
1295	 0.231019960676407 
1296	 0.231237407924544 
1297	 0.231463923515081 
1298	 0.231701138080923 
1299	 0.231937763422729 
1300	 0.232189129945905 
1301	 0.232467785297407 
1302	 0.232736229322098 
1303	 0.233009202412732 
1304	 0.233271247257695 
1305	 0.233551770162152 
1306	 0.233813718473394 
1307	 0.234070245984673 
1308	 0.234349827023855 
1309	 0.234593270666632 
1310	 0.234812959790399 
1311	 0.235043488092734 
1312	 0.235279305676939 
1313	 0.235469751612218 
1314	 0.235651718467302 
1315	 0.235807093393504 
1316	 0.235916372668838 
1317	 0.236028245920846 
1318	 0.236140194455429 
1319	 0.236224979013162 
1320	 0.236297129486327 
1321	 0.236336474895326 
1322	 0.236353646924316 
1323	 0.236346649669484 
1324	 0.236307583688161 
1325	 0.236240772215594 
1326	 0.236142586139019 
1327	 0.236029868138481 
1328	 0.235891219507931 
1329	 0.235732853240636 
1330	 0.235568515193681 
1331	 0.235394267392892 
1332	 0.235198021044342 
1333	 0.234989581254491 
1334	 0.234765075792327 
1335	 0.234531043543035 
1336	 0.234266604320657 
1337	 0.233971880534386 
1338	 0.233680862851799 
1339	 0.233376989574238 
1340	 0.233053038870187 
1341	 0.232720697482591 
1342	 0.232383249023567 
1343	 0.232019574611399 
1344	 0.231656463705252 
1345	 0.231312613435721 
1346	 0.230960455551255 
1347	 0.23060506626364 
1348	 0.230240020954911 
1349	 0.22986332458085 
1350	 0.229477202513729 
1351	 0.229097337092721 
1352	 0.228715990724774 
1353	 0.228326518018892 
1354	 0.227937321314693 
1355	 0.227543312285946 
1356	 0.227121135469271 
1357	 0.226737846563475 
1358	 0.226349782212839 
1359	 0.226007230147895 
1360	 0.225701378056957 
1361	 0.225410680610385 
1362	 0.225159932677469 
1363	 0.224904700326007 
1364	 0.224651960878427 
1365	 0.224417876111156 
1366	 0.224190879461889 
1367	 0.223988757936208 
1368	 0.223811661296761 
1369	 0.223636123993487 
1370	 0.223427182559955 
1371	 0.223198505092344 
1372	 0.222945211943394 
1373	 0.22266707037958 
1374	 0.222374831018783 
1375	 0.222086187908637 
1376	 0.221734351133722 
1377	 0.221336032509411 
1378	 0.220931475197512 
1379	 0.22045960422892 
1380	 0.220040515702731 
1381	 0.219623319867001 
1382	 0.219229594600654 
1383	 0.218874747873615 
1384	 0.218502138493179 
1385	 0.218155450172031 
1386	 0.2177719452654 
1387	 0.217395588531692 
1388	 0.216965852856036 
1389	 0.216517783195963 
1390	 0.2160070554127 
1391	 0.215441557156233 
1392	 0.214854150767768 
1393	 0.214205008343532 
1394	 0.213539737596545 
1395	 0.212864883399016 
1396	 0.212151497711425 
1397	 0.211425531344863 
1398	 0.210690526812449 
1399	 0.209917073060693 
1400	 0.209104272757019 
1401	 0.208291787317331 
1402	 0.207451315474854 
1403	 0.206625756825634 
1404	 0.205807188520317 
1405	 0.204968712500564 
1406	 0.204125992039712 
1407	 0.203262120779259 
1408	 0.202359413138093 
1409	 0.201486658396831 
1410	 0.200587239076241 
1411	 0.199750959397007 
1412	 0.198951242061174 
1413	 0.198172779724868 
1414	 0.19743304285482 
1415	 0.19671180725887 
1416	 0.195989705334915 
1417	 0.195290556343842 
1418	 0.194616696925229 
1419	 0.193963892254883 
1420	 0.193348554254574 
1421	 0.192769046994225 
1422	 0.192210484685808 
1423	 0.191668250575378 
1424	 0.191149353045005 
1425	 0.190650965549058 
1426	 0.19016986118211 
1427	 0.189709211766872 
1428	 0.18927375166741 
1429	 0.18886104197667 
1430	 0.18846170779613 
1431	 0.18809751676867 
1432	 0.187720939778264 
1433	 0.187343362614162 
1434	 0.186978548208301 
1435	 0.186614298704013 
1436	 0.186265355250253 
1437	 0.185944592929551 
1438	 0.185608226328782 
1439	 0.185269630625497 
1440	 0.184935999185644 
1441	 0.184592355897405 
1442	 0.184265828430356 
1443	 0.18396891778573 
1444	 0.183677640686679 
1445	 0.183411238127144 
1446	 0.183175881929488 
1447	 0.182947847877324 
1448	 0.182743908204481 
1449	 0.182579136215242 
1450	 0.182464209306849 
1451	 0.182401797239848 
1452	 0.182393787951326 
1453	 0.182427944467622 
1454	 0.182519028629158 
1455	 0.182625742126954 
1456	 0.182787564743867 
1457	 0.182937262355212 
1458	 0.183111774316309 
1459	 0.183278901271727 
1460	 0.183449842460653 
1461	 0.183624707224144 
1462	 0.183815654042029 
1463	 0.183978294718689 
1464	 0.184150455310528 
1465	 0.184280222413774 
1466	 0.184369122659216 
1467	 0.184460427851028 
1468	 0.18451314859203 
1469	 0.184588275163412 
1470	 0.184673661283513 
1471	 0.184759513611676 
1472	 0.184832561022495 
1473	 0.184899073025934 
1474	 0.184942418660078 
1475	 0.184983488082164 
1476	 0.185044309230882 
1477	 0.185111163523812 
1478	 0.185198618424675 
1479	 0.185283267850011 
1480	 0.185371037527483 
1481	 0.185474624400282 
1482	 0.185570490838685 
1483	 0.185669364123537 
1484	 0.185768784861181 
1485	 0.185865816624263 
1486	 0.185962153747349 
1487	 0.186064636251635 
1488	 0.186154386487446 
1489	 0.186235910636022 
1490	 0.186322674259706 
1491	 0.186404907837931 
1492	 0.186486965232985 
1493	 0.18656049125949 
1494	 0.186656260339831 
1495	 0.186766577223416 
1496	 0.186866586737374 
1497	 0.186994543250694 
1498	 0.187086258185177 
1499	 0.187140090054748 
1500	 0.187212261013722 
1501	 0.187277666300368 
1502	 0.187346259108808 
1503	 0.187420525697698 
1504	 0.187495765531327 
1505	 0.187577182351375 
1506	 0.187657945867029 
1507	 0.187744247913553 
1508	 0.187817242624703 
1509	 0.187866181443 
1510	 0.187915665870344 
1511	 0.187962730903624 
1512	 0.188025573590718 
1513	 0.188096577180432 
1514	 0.18816021305423 
1515	 0.188246181886778 
1516	 0.188338818511925 
1517	 0.188419725700158 
1518	 0.188517019856436 
1519	 0.188579516916067 
1520	 0.188611243750317 
1521	 0.188660362835036 
1522	 0.188696873038343 
1523	 0.188749655968244 
1524	 0.188821174878572 
1525	 0.188872235184202 
1526	 0.188919720756388 
1527	 0.188962761868415 
1528	 0.188989197498867 
1529	 0.189030547071234 
1530	 0.189082311070819 
1531	 0.189123526301371 
1532	 0.189162526055939 
1533	 0.189204490551885 
1534	 0.189243246202594 
1535	 0.189283069319517 
1536	 0.189325199887591 
1537	 0.189365335539399 
1538	 0.189398311276583 
1539	 0.189437957338388 
1540	 0.189486700026157 
1541	 0.189533750239136 
1542	 0.189579411506547 
1543	 0.189626282788099 
1544	 0.189681205822698 
1545	 0.189725028635541 
1546	 0.189763196578815 
1547	 0.189805724643248 
1548	 0.189828813273335 
1549	 0.189837615923593 
1550	 0.189865591855387 
1551	 0.189896571733427 
1552	 0.189935383014762 
1553	 0.189972265785568 
1554	 0.189980059662875 
1555	 0.189988540836863 
1556	 0.18999976859967 
1557	 0.190007550645306 
1558	 0.190028110849798 
1559	 0.190039850347881 
1560	 0.190052206082657 
1561	 0.190055918942632 
1562	 0.190073114770061 
1563	 0.190095853791866 
1564	 0.19012363007915 
1565	 0.190162115033306 
1566	 0.190188987970945 
1567	 0.190221072391437 
1568	 0.190232974895532 
1569	 0.190227814332516 
1570	 0.190232213185571 
1571	 0.190233072398922 
1572	 0.1902303545258 
1573	 0.190225314921323 
1574	 0.190225767948018 
1575	 0.190218567488905 
1576	 0.190218731370647 
1577	 0.190237329920333 
1578	 0.190238097229026 
1579	 0.190226739441674 
1580	 0.190224471988352 
1581	 0.190230553132813 
1582	 0.190215220304153 
1583	 0.190186717576693 
1584	 0.190167854996679 
1585	 0.190130959910824 
1586	 0.190109773346395 
1587	 0.190112798153662 
1588	 0.190103182033415 
1589	 0.190090395179965 
1590	 0.190072894001981 
1591	 0.190050548811648 
1592	 0.190028715547496 
1593	 0.190011045321397 
1594	 0.189980738202635 
1595	 0.189942458221217 
1596	 0.189903719107923 
1597	 0.189851285497856 
1598	 0.189802726776671 
1599	 0.189752981276627 
1600	 0.189710146756124 
1601	 0.189669280058766 
1602	 0.189633102648283 
1603	 0.189614865809321 
1604	 0.189580838013802 
1605	 0.18954349484943 
1606	 0.18949585088157 
1607	 0.189427302709944 
1608	 0.189368966739312 
1609	 0.189314767566239 
1610	 0.189254460464671 
1611	 0.189202946604932 
1612	 0.189150931755606 
1613	 0.18908673748755 
1614	 0.189019053653288 
1615	 0.188949347755265 
1616	 0.188882859703191 
1617	 0.188833687357384 
1618	 0.188784728592924 
1619	 0.188712616039014 
1620	 0.188628811997793 
1621	 0.188545760435972 
1622	 0.188432096002598 
1623	 0.188359121199783 
1624	 0.188316387739437 
1625	 0.188240476614288 
1626	 0.188166136087038 
1627	 0.188078155690674 
1628	 0.18796290832466 
1629	 0.187873395428268 
1630	 0.187789248930617 
1631	 0.187713115864983 
1632	 0.18764994863166 
1633	 0.187575441638963 
1634	 0.18750258718269 
1635	 0.187427732862114 
1636	 0.187350759748455 
1637	 0.187267046391447 
1638	 0.187187364303097 
1639	 0.187088132076088 
1640	 0.186967412547853 
1641	 0.186864403482307 
1642	 0.186752985601969 
1643	 0.186659629341291 
1644	 0.186586969389271 
1645	 0.186496761364971 
1646	 0.186406862883225 
1647	 0.186314083983186 
1648	 0.186212617796195 
1649	 0.186115638509858 
1650	 0.186020967775885 
1651	 0.185925657753116 
1652	 0.18582697240755 
1653	 0.185733336462878 
1654	 0.185637772842631 
1655	 0.185556699820862 
1656	 0.185497162157829 
1657	 0.185405760640267 
1658	 0.185308382225224 
1659	 0.185210135460046 
1660	 0.185082415683052 
1661	 0.184981464076093 
1662	 0.184902533413164 
1663	 0.18481045111183 
1664	 0.184720795784688 
1665	 0.184622659328517 
1666	 0.184518869751086 
1667	 0.184413891193246 
1668	 0.184296867506513 
1669	 0.184195743467911 
1670	 0.184092712147466 
1671	 0.18400988068903 
1672	 0.183940885008265 
1673	 0.183882215647826 
1674	 0.183854953307401 
1675	 0.183796001956259 
1676	 0.183745791873468 
1677	 0.183660368186156 
1678	 0.183527437974524 
1679	 0.183429018191675 
1680	 0.183333300860603 
1681	 0.183229110891912 
1682	 0.183143607965734 
1683	 0.183033092546543 
1684	 0.182872644299584 
1685	 0.182774299289679 
1686	 0.182710082959528 
1687	 0.182623838656901 
1688	 0.182573465520525 
1689	 0.18248124229401 
1690	 0.182341607735236 
1691	 0.182233438948511 
1692	 0.182125863450094 
1693	 0.182026805798516 
1694	 0.181939924976888 
1695	 0.181851589986363 
1696	 0.1817641112335 
1697	 0.181683588743995 
1698	 0.181613448271559 
1699	 0.18153464512621 
1700	 0.181458651263704 
1701	 0.181376307576801 
1702	 0.181287785398831 
1703	 0.181199233187292 
1704	 0.181116427409964 
1705	 0.181010907771326 
1706	 0.1808817928821 
1707	 0.180774778189625 
1708	 0.18065956530116 
1709	 0.180563990257775 
1710	 0.180494076772125 
1711	 0.180410423023173 
1712	 0.180318684107261 
1713	 0.180243995786621 
1714	 0.180185455723723 
1715	 0.180111920391858 
1716	 0.180039108900939 
1717	 0.179966770047117 
1718	 0.179896486453627 
1719	 0.179802053642726 
1720	 0.179695595897706 
1721	 0.179599051288345 
1722	 0.179486384899539 
1723	 0.179374881788838 
1724	 0.179276334557263 
1725	 0.179172400009057 
1726	 0.179051231953822 
1727	 0.178941317096739 
1728	 0.178848774054423 
1729	 0.178742747102998 
1730	 0.178613550437906 
1731	 0.178524795305028 
1732	 0.1784541012139 
1733	 0.178379787368736 
1734	 0.178337167622166 
1735	 0.17825491412207 
1736	 0.178156755476804 
1737	 0.178045878338902 
1738	 0.177902337679271 
1739	 0.177806826449653 
1740	 0.177711708489849 
1741	 0.177642636242032 
1742	 0.177620703678575 
1743	 0.177558228857701 
1744	 0.177485419742956 
1745	 0.177421236419408 
1746	 0.177355015670551 
1747	 0.177279113042848 
1748	 0.177200200841377 
1749	 0.17711695268801 
1750	 0.177038616014075 
1751	 0.176940346167466 
1752	 0.176850962841964 
1753	 0.176757053403698 
1754	 0.176637173254628 
1755	 0.176567135340515 
1756	 0.176513596364496 
1757	 0.176446361420908 
1758	 0.176395070921134 
1759	 0.176326801774988 
1760	 0.176245327101139 
1761	 0.176187524143169 
1762	 0.176112523945806 
1763	 0.176034459633517 
1764	 0.175969030328332 
1765	 0.175900023698076 
1766	 0.175844642995408 
1767	 0.175759370720153 
1768	 0.175677521775865 
1769	 0.175618640120294 
1770	 0.175547800809862 
1771	 0.175508313978894 
1772	 0.175465585591837 
1773	 0.175388486792178 
1774	 0.175306637651204 
1775	 0.17522287074675 
1776	 0.175155609752067 
1777	 0.175073847927022 
1778	 0.174983725578126 
1779	 0.174910671274825 
1780	 0.174840484667263 
1781	 0.174790023506147 
1782	 0.174756982312471 
1783	 0.174752875370885 
1784	 0.174716931205941 
1785	 0.174683584388826 
1786	 0.174626674735022 
1787	 0.174512531538966 
1788	 0.174442333538258 
1789	 0.174391938914729 
1790	 0.174327324881496 
1791	 0.17427400310824 
1792	 0.174232413314842 
1793	 0.174175325112784 
1794	 0.174135089174156 
1795	 0.174138012648441 
1796	 0.174107420438467 
1797	 0.174041626696696 
1798	 0.174015148544717 
1799	 0.17401578135331 
1800	 0.173971653205011 
1801	 0.169944129842869 
1802	 0.170113420174461 
1803	 0.17025309368133 
1804	 0.17041409188128 
1805	 0.170587535768562 
1806	 0.170714198966197 
1807	 0.170841767281598 
1808	 0.17093780397802 
1809	 0.170995325781252 
1810	 0.171069253920258 
1811	 0.171137410040926 
1812	 0.171187760226567 
1813	 0.171253730775876 
1814	 0.171297868245823 
1815	 0.171323090222181 
1816	 0.1713476377257 
1817	 0.171365603040314 
1818	 0.171383789673564 
1819	 0.171385453464216 
1820	 0.171377696078622 
1821	 0.171351116932527 
1822	 0.171319598685731 
1823	 0.171332572691305 
1824	 0.17138044983387 
1825	 0.171421906108657 
1826	 0.171461460034623 
1827	 0.171464764811015 
1828	 0.171458391725013 
1829	 0.171416030316464 
1830	 0.171391221517913 
1831	 0.171365369098123 
1832	 0.171348656334217 
1833	 0.171308313647025 
1834	 0.171238973234853 
1835	 0.171168937511963 
1836	 0.17110010626552 
1837	 0.171063147099322 
1838	 0.171049396575882 
1839	 0.171036696645918 
1840	 0.171050525784548 
1841	 0.171045573771674 
1842	 0.171026212905519 
1843	 0.171033847527669 
1844	 0.171043387587825 
1845	 0.171065689128905 
1846	 0.171102347937416 
1847	 0.171102410017915 
1848	 0.171072925077497 
1849	 0.171049346678572 
1850	 0.171029795594473 
1851	 0.171001759295835 
1852	 0.170980657375183 
1853	 0.170968686993075 
1854	 0.170925050644142 
1855	 0.170850792947684 
1856	 0.170777077787038 
1857	 0.170698852528352 
1858	 0.170615005794512 
1859	 0.170542059364827 
1860	 0.170429933214204 
1861	 0.170298865211056 
1862	 0.170126030905544 
1863	 0.169935900867018 
1864	 0.169708533766366 
1865	 0.169438727602102 
1866	 0.169130336669384 
1867	 0.168822121154522 
1868	 0.168480228785156 
1869	 0.168145103558949 
1870	 0.167843322890952 
1871	 0.167522456945509 
1872	 0.1671819181788 
1873	 0.166873810689181 
1874	 0.166581775953328 
1875	 0.166300254271214 
1876	 0.166020324571985 
1877	 0.165689609209538 
1878	 0.165306878898727 
1879	 0.1648765223491 
1880	 0.164412545834208 
1881	 0.163918021236636 
1882	 0.163372035880352 
1883	 0.16279778782712 
1884	 0.16214283398694 
1885	 0.161427520109583 
1886	 0.160682352644472 
1887	 0.159873496350805 
1888	 0.159030407203045 
1889	 0.158159373962446 
1890	 0.157254347877492 
1891	 0.156308138432154 
1892	 0.155321388756631 
1893	 0.154303459589341 
1894	 0.153253032841023 
1895	 0.152143618094725 
1896	 0.151013948874757 
1897	 0.149849356484749 
1898	 0.148647309477647 
1899	 0.147460120869006 
1900	 0.146261226249792 
1901	 0.145070245615384 
1902	 0.1439329387882 
1903	 0.142829194780927 
1904	 0.141756999675752 
1905	 0.14072292844748 
1906	 0.139739173146221 
1907	 0.138768982942051 
1908	 0.137799858782262 
1909	 0.136872123370091 
1910	 0.135964440023128 
1911	 0.135079328334869 
1912	 0.13422597554652 
1913	 0.133411223566154 
1914	 0.13262674513796 
1915	 0.131878234836706 
1916	 0.131161367784721 
1917	 0.130486407131381 
1918	 0.129857597500972 
1919	 0.129254439004223 
1920	 0.128712014420161 
1921	 0.128229046269823 
1922	 0.127756665083616 
1923	 0.12730716655929 
1924	 0.126892768444096 
1925	 0.126507716658532 
1926	 0.126146299660534 
1927	 0.125812018869203 
1928	 0.125517786078932 
1929	 0.125244321586213 
1930	 0.124963412290507 
1931	 0.124715936495758 
1932	 0.124502714638578 
1933	 0.124292938739113 
1934	 0.124105027098066 
1935	 0.123928948954338 
1936	 0.123756988909114 
1937	 0.123613495310453 
1938	 0.12349214343385 
1939	 0.123388949003588 
1940	 0.123306421002753 
1941	 0.123240574904674 
1942	 0.123205309901049 
1943	 0.123197804004558 
1944	 0.12320975673851 
1945	 0.123277473562002 
1946	 0.123366416277781 
1947	 0.123494233813978 
1948	 0.123625769317152 
1949	 0.123794643215702 
1950	 0.123951416917542 
1951	 0.124112893400161 
1952	 0.124277296031221 
1953	 0.124442782435267 
1954	 0.124635069825333 
1955	 0.124832510146349 
1956	 0.125021609153199 
1957	 0.125204473587239 
1958	 0.125382241448551 
1959	 0.125569924311743 
1960	 0.12575836902263 
1961	 0.125935822381263 
1962	 0.126117588870999 
1963	 0.126297435242358 
1964	 0.126465484560464 
1965	 0.126639906478778 
1966	 0.126807237249664 
1967	 0.126951335247186 
1968	 0.127117776374025 
1969	 0.127289784690637 
1970	 0.127439780707707 
1971	 0.127589499637918 
1972	 0.127745243467788 
1973	 0.127867219391598 
1974	 0.128017309458839 
1975	 0.12819035079705 
1976	 0.128375591379652 
1977	 0.128545103733463 
1978	 0.128733258136936 
1979	 0.128942642381688 
1980	 0.129158781993843 
1981	 0.129375406827921 
1982	 0.12961422884537 
1983	 0.129833860911726 
1984	 0.130053710238024 
1985	 0.130252136485334 
1986	 0.130439217931197 
1987	 0.130615972104581 
1988	 0.130761336450014 
1989	 0.130924706513375 
1990	 0.131093340608303 
1991	 0.131258420798131 
1992	 0.13143772667727 
1993	 0.131624747896907 
1994	 0.131821954463442 
1995	 0.132033787649647 
1996	 0.132243269378428 
1997	 0.132470309194396 
1998	 0.132676703754783 
1999	 0.132876404465554 
2000	 0.133072125445936 
2001	 0.133238408750461 
2002	 0.133435593838548 
2003	 0.133657873961383 
2004	 0.133863113720731 
2005	 0.134072183973039 
2006	 0.134296260617325 
2007	 0.134508025545189 
2008	 0.134707780768144 
2009	 0.13491261938264 
2010	 0.135123329340752 
2011	 0.135325498490264 
2012	 0.13550853996717 
2013	 0.135709381545653 
2014	 0.135903381709409 
2015	 0.136130040664166 
2016	 0.136359456571004 
2017	 0.136586248136546 
2018	 0.136810800647137 
2019	 0.137037645845003 
2020	 0.137253395679637 
2021	 0.137461542143292 
2022	 0.137676603881269 
2023	 0.137889478834161 
2024	 0.138100422144367 
2025	 0.138309999339604 
2026	 0.138522143871394 
2027	 0.138729327134501 
2028	 0.138944983962474 
2029	 0.139157398417996 
2030	 0.139375827979243 
2031	 0.139591054300781 
2032	 0.139813340916994 
2033	 0.140010630162805 
2034	 0.140189471140811 
2035	 0.140385884502187 
2036	 0.14056806927315 
2037	 0.140761419592925 
2038	 0.140995115351555 
2039	 0.141186759542917 
2040	 0.141351950506191 
2041	 0.141520910473267 
2042	 0.141654022401696 
2043	 0.141807636800786 
2044	 0.141982592656368 
2045	 0.142175401241385 
2046	 0.142364364572452 
2047	 0.142573045314978 
2048	 0.142774870408155 
2049	 0.142980895151706 
2050	 0.143175907573923 
2051	 0.143375200566545 
2052	 0.143562300149629 
2053	 0.143738368063366 
2054	 0.14390391505645 
2055	 0.144049196838744 
2056	 0.144205531190648 
2057	 0.144369746082472 
2058	 0.144528352081989 
2059	 0.144695781604187 
2060	 0.144888796654027 
2061	 0.14505738713353 
2062	 0.145207430959153 
2063	 0.145373416602542 
2064	 0.14553181453326 
2065	 0.145704583506327 
2066	 0.145912330228189 
2067	 0.146085177985099 
2068	 0.146239340003029 
2069	 0.146407911734449 
2070	 0.146556130001471 
2071	 0.146671954945194 
2072	 0.146818160695299 
2073	 0.146977308313471 
2074	 0.14712522278158 
2075	 0.147277779716083 
2076	 0.147422998608619 
2077	 0.147558683473051 
2078	 0.147697714739481 
2079	 0.147837283057687 
2080	 0.147976075381407 
2081	 0.148117087863296 
2082	 0.148250856517673 
2083	 0.148374240253111 
2084	 0.148501243572924 
2085	 0.148645964435324 
2086	 0.148797754427245 
2087	 0.148945842630242 
2088	 0.149117710941787 
2089	 0.149260089560589 
2090	 0.149371213271336 
2091	 0.149510742184561 
2092	 0.14965346799155 
2093	 0.149800559448919 
2094	 0.14998064468429 
2095	 0.150125418956676 
2096	 0.150251133289926 
2097	 0.15037753977309 
2098	 0.150490714934654 
2099	 0.150590685191938 
2100	 0.150703885537682 
2101	 0.150822076291926 
2102	 0.150938447747973 
2103	 0.151052152308887 
2104	 0.151174893442612 
2105	 0.151301506756059 
2106	 0.151431746470585 
2107	 0.151556030638031 
2108	 0.151705514151058 
2109	 0.151880541672274 
2110	 0.152040388381789 
2111	 0.152212988551274 
2112	 0.152381386706031 
2113	 0.15254828672782 
2114	 0.152697304927109 
2115	 0.152845966161994 
2116	 0.15300079385391 
2117	 0.153135972078297 
2118	 0.153243602845195 
2119	 0.153376525484436 
2120	 0.153521121641385 
2121	 0.15364959327394 
2122	 0.15377460337514 
2123	 0.153904704724745 
2124	 0.154027118671164 
2125	 0.154149617543126 
2126	 0.154303016888786 
2127	 0.154414513487185 
2128	 0.154488314193596 
2129	 0.154572231412504 
2130	 0.154658017472519 
2131	 0.154703409785282 
2132	 0.15476652081961 
2133	 0.154833780722184 
2134	 0.154901591891545 
2135	 0.154965031713182 
2136	 0.155025845658072 
2137	 0.155099959284914 
2138	 0.155152140488378 
2139	 0.155190224978742 
2140	 0.155222070932241 
2141	 0.155242673434539 
2142	 0.155259544231899 
2143	 0.155266395432377 
2144	 0.155269760213034 
2145	 0.155271228404592 
2146	 0.155264720444521 
2147	 0.15524304233688 
2148	 0.155231836339271 
2149	 0.155207887612698 
2150	 0.155179160765943 
2151	 0.155140728151863 
2152	 0.155090354714017 
2153	 0.15504611332856 
2154	 0.155002209922563 
2155	 0.154946482128256 
2156	 0.154887580064927 
2157	 0.154825560722122 
2158	 0.154746229477019 
2159	 0.154675125759238 
2160	 0.154599887415696 
2161	 0.154540131610408 
2162	 0.15449215252385 
2163	 0.154441370640387 
2164	 0.154412614674383 
2165	 0.154368795766372 
2166	 0.154305814475819 
2167	 0.154234726239294 
2168	 0.154138263403371 
2169	 0.154003968932832 
2170	 0.153904130637954 
2171	 0.153794777569717 
2172	 0.153699365461566 
2173	 0.153636870926954 
2174	 0.153544875385432 
2175	 0.153435978450254 
2176	 0.153336360896757 
2177	 0.153234654086407 
2178	 0.153129740994934 
2179	 0.153020520663559 
2180	 0.152919792359632 
2181	 0.152822343317787 
2182	 0.152719849125943 
2183	 0.152629909016353 
2184	 0.15253390793064 
2185	 0.152409906137383 
2186	 0.152257391986563 
2187	 0.152126540311204 
2188	 0.151975752956233 
2189	 0.151853715290247 
2190	 0.151750597015953 
2191	 0.15165422277078 
2192	 0.151571573478047 
2193	 0.151486340115031 
2194	 0.15141698708027 
2195	 0.151337421623259 
2196	 0.151244404814284 
2197	 0.151168290124014 
2198	 0.151098088199696 
2199	 0.151029141042054 
2200	 0.150963559682932 
2201	 0.150910818944505 
2202	 0.150857818606524 
2203	 0.150827609846156 
2204	 0.150790739816704 
2205	 0.150769048409381 
2206	 0.150734228402767 
2207	 0.150687424358432 
2208	 0.150656056757999 
2209	 0.150625114479523 
2210	 0.150609920306363 
2211	 0.150607115458433 
2212	 0.150609039310629 
2213	 0.150635958364306 
2214	 0.150636632999008 
2215	 0.150628841640095 
2216	 0.150623679768192 
2217	 0.150611761095734 
2218	 0.150591942054376 
2219	 0.150564014609001 
2220	 0.150543145665953 
2221	 0.150514234705681 
2222	 0.150479014893997 
2223	 0.150475321299504 
2224	 0.150526756959874 
2225	 0.150559297199209 
2226	 0.150616139697535 
2227	 0.150654200472874 
2228	 0.150690462819313 
2229	 0.150714482616568 
2230	 0.150744121563714 
2231	 0.150743465538228 
2232	 0.150707375570078 
2233	 0.1506976904166 
2234	 0.150664626175023 
2235	 0.150668326316587 
2236	 0.15073374383599 
2237	 0.150737226288208 
2238	 0.150730058675467 
2239	 0.15071144125752 
2240	 0.150643417742208 
2241	 0.150593968655881 
2242	 0.150534569677558 
2243	 0.150499849956922 
2244	 0.150493756192607 
2245	 0.150466543133049 
2246	 0.150435154862033 
2247	 0.15041431143609 
2248	 0.150372160283099 
2249	 0.150283432481852 
2250	 0.150268671708964 
2251	 0.150287869645953 
2252	 0.150284650623562 
2253	 0.150319608565349 
2254	 0.15030879115073 
2255	 0.150267451757821 
2256	 0.150232512300903 
2257	 0.15019389148147 
2258	 0.150131843551837 
2259	 0.150040220110087 
2260	 0.149971063084888 
2261	 0.149892473502471 
2262	 0.14982932083681 
2263	 0.149780406369054 
2264	 0.149735226829627 
2265	 0.149689102914253 
2266	 0.149654380503829 
2267	 0.149642238520536 
2268	 0.149626206101852 
2269	 0.149612176222856 
2270	 0.149607280345961 
2271	 0.1496007576991 
2272	 0.149562862402558 
2273	 0.149515856113104 
2274	 0.149456927418863 
2275	 0.149399225535297 
2276	 0.149321475552408 
2277	 0.149267314112253 
2278	 0.149231516578976 
2279	 0.149173643504841 
2280	 0.14911131428441 
2281	 0.149056415204965 
2282	 0.148990560670449 
2283	 0.148935053590239 
2284	 0.148887336361359 
2285	 0.148837505096558 
2286	 0.148808485053014 
2287	 0.148736447538235 
2288	 0.148649609642743 
2289	 0.148569709936457 
2290	 0.14845619297377 
2291	 0.148351256196511 
2292	 0.148237962120426 
2293	 0.148145717677862 
2294	 0.148065033492146 
2295	 0.1479820102211 
2296	 0.147918986978396 
2297	 0.147870876694396 
2298	 0.147760781532475 
2299	 0.147641944202213 
2300	 0.14751075935463 
2301	 0.147400276574979 
2302	 0.147334900524959 
2303	 0.147241926582179 
2304	 0.147183364386325 
2305	 0.147112747021532 
2306	 0.147013303941872 
2307	 0.146915646828256 
2308	 0.146762788603263 
2309	 0.146546303172599 
2310	 0.146371190384265 
2311	 0.146148817668453 
2312	 0.14600427049817 
2313	 0.145939122662943 
2314	 0.145808699484963 
2315	 0.145686053194981 
2316	 0.14554115903926 
2317	 0.145362826279076 
2318	 0.145179137525804 
2319	 0.144959544544835 
2320	 0.144795972841079 
2321	 0.144627302590083 
2322	 0.14449423863307 
2323	 0.144460371356344 
2324	 0.144354908396711 
2325	 0.144221222946687 
2326	 0.144085125650698 
2327	 0.143907423775469 
2328	 0.143758279478552 
2329	 0.143625426361346 
2330	 0.143461302612283 
2331	 0.143307676878644 
2332	 0.143125024493278 
2333	 0.142892467041956 
2334	 0.142702508460395 
2335	 0.142559424867942 
2336	 0.142383387134203 
2337	 0.142223429706438 
2338	 0.142098473748737 
2339	 0.141934939955913 
2340	 0.141798487691317 
2341	 0.141646950740953 
2342	 0.141435082586846 
2343	 0.141224149472719 
2344	 0.140986441038585 
2345	 0.140796331777921 
2346	 0.140668076612168 
2347	 0.140476500860257 
2348	 0.140283076959257 
2349	 0.140073558472985 
2350	 0.139823384679609 
2351	 0.139574893119275 
2352	 0.139306619491905 
2353	 0.139071293253756 
2354	 0.138838579811677 
2355	 0.138617260872617 
2356	 0.138439321778362 
2357	 0.138218920116482 
2358	 0.137978229929898 
2359	 0.137729650523876 
2360	 0.137481284121166 
2361	 0.137192283098727 
2362	 0.136835457918408 
2363	 0.136560621168298 
2364	 0.136302487109438 
2365	 0.136044936271653 
2366	 0.135878260710232 
2367	 0.135624331418135 
2368	 0.135276795478949 
2369	 0.13499923389979 
2370	 0.134750487313709 
2371	 0.134452626177765 
2372	 0.134175851513562 
2373	 0.133911308861151 
2374	 0.133634022750999 
2375	 0.133346940324334 
2376	 0.133099771023421 
2377	 0.13282782851749 
2378	 0.13251182970185 
2379	 0.132206396662446 
2380	 0.131901061792232 
2381	 0.131658270411263 
2382	 0.131449997830085 
2383	 0.131219077711108 
2384	 0.130970864272706 
2385	 0.130712954138942 
2386	 0.130471331031766 
2387	 0.130256753165057 
2388	 0.130053147041008 
2389	 0.12984160778372 
2390	 0.12957630358864 
2391	 0.129295045221429 
2392	 0.129064060240371 
2393	 0.128828048003155 
2394	 0.128620959635107 
2395	 0.128447459694732 
2396	 0.128213771396735 
2397	 0.127973061703198 
2398	 0.127777604273067 
2399	 0.127557341700122 
2400	 0.127329791975723 
2401	 0.127124701608516 
2402	 0.126921024118615 
2403	 0.126692283079378 
2404	 0.126443825255805 
2405	 0.126251519852428 
2406	 0.126121541234033 
2407	 0.125987519898384 
2408	 0.125819898416877 
2409	 0.125648326764959 
2410	 0.125383978638495 
2411	 0.125114712577623 
2412	 0.124980815510226 
2413	 0.124793563120224 
2414	 0.124636607580543 
2415	 0.124513932128907 
2416	 0.124312706809648 
2417	 0.124054434498507 
2418	 0.123863797903995 
2419	 0.123634726929093 
2420	 0.123392790977303 
2421	 0.123164934822517 
2422	 0.123017949475858 
2423	 0.122904994485099 
2424	 0.122773619008118 
2425	 0.12272354906953 
2426	 0.122530407597351 
2427	 0.122229739471399 
2428	 0.121986699920735 
2429	 0.121690722112979 
2430	 0.121511076741741 
2431	 0.121415276536927 
2432	 0.121242282097034 
2433	 0.121111982822598 
2434	 0.120961846939426 
2435	 0.120722177559734 
2436	 0.120523621406582 
2437	 0.120398836945271 
2438	 0.120205572479191 
2439	 0.119935449054652 
2440	 0.119803176479701 
2441	 0.119757617286461 
2442	 0.119599135244373 
2443	 0.119475776172105 
2444	 0.119266715708539 
2445	 0.118859685697345 
2446	 0.11862671520037 
2447	 0.118503748557174 
2448	 0.118341905374352 
2449	 0.118239065047066 
2450	 0.118072297663584 
2451	 0.117854055069127 
2452	 0.117658848660154 
2453	 0.117458656442407 
2454	 0.117291095750485 
2455	 0.117122579910806 
2456	 0.116926207763492 
2457	 0.116769273572591 
2458	 0.116509046799031 
2459	 0.116159833452927 
2460	 0.115925453856868 
2461	 0.115629906843391 
2462	 0.11546716281638 
2463	 0.115528938159308 
2464	 0.11538618863826 
2465	 0.115146993620631 
2466	 0.115026055992638 
2467	 0.114915631087276 
2468	 0.114585237051729 
2469	 0.114286076091418 
2470	 0.113790522533692 
2471	 0.113343074085127 
2472	 0.113241945985886 
2473	 0.113147597427511 
2474	 0.113119626704769 
2475	 0.113077764001864 
2476	 0.11294826125373 
2477	 0.112784011243361 
2478	 0.112558306392396 
2479	 0.112336421254593 
2480	 0.112106690977748 
2481	 0.112043153698372 
2482	 0.112133632957681 
2483	 0.112074007780108 
2484	 0.112088816878887 
2485	 0.112044861357948 
2486	 0.111634155361202 
2487	 0.111241056439055 
2488	 0.11102003321375 
2489	 0.110792469731261 
2490	 0.110573344663861 
2491	 0.110786093579057 
2492	 0.111063595077992 
2493	 0.111029893706558 
2494	 0.111174332388614 
2495	 0.111115103219547 
2496	 0.110780769491994 
2497	 0.110566977310722 
2498	 0.110402777219684 
2499	 0.110080773825864 
2500	 0.109829980194536 
