Wavelength	LMW_1500006.asd
350	 5.47578939278178E-02 
351	 6.50456590683498E-02 
352	 6.52564970738963E-02 
353	 0.055269253098467 
354	 5.47168752455182E-02 
355	 5.87864571762783E-02 
356	 6.24401100803111E-02 
357	 6.16267334698508E-02 
358	 5.64175255153346E-02 
359	 5.22637898372046E-02 
360	 5.19833035277875E-02 
361	 5.54991664569785E-02 
362	 5.24348702429471E-02 
363	 4.99648603626813E-02 
364	 5.16992131614087E-02 
365	 5.24283292084216E-02 
366	 5.09430224943495E-02 
367	 4.95879472036283E-02 
368	 5.10871306586825E-02 
369	 5.58576881646386E-02 
370	 5.63914196157983E-02 
371	 5.30417290470903E-02 
372	 5.14509737520996E-02 
373	 5.04185698081033E-02 
374	 5.15737324781274E-02 
375	 5.43333194934507E-02 
376	 0.053973484806397 
377	 5.18017053405345E-02 
378	 5.12494655616292E-02 
379	 5.44405370378554E-02 
380	 5.55251071449706E-02 
381	 5.48802501816999E-02 
382	 5.45121035377605E-02 
383	 5.67834868890138E-02 
384	 5.40084412716861E-02 
385	 5.01283955420701E-02 
386	 4.93664855640546E-02 
387	 5.38193781364957E-02 
388	 5.50877906485408E-02 
389	 0.053304131251606 
390	 5.15525145368791E-02 
391	 5.16798044014426E-02 
392	 0.051590168031207 
393	 5.18085102606173E-02 
394	 5.48355674374101E-02 
395	 5.57554843491598E-02 
396	 5.44428943575448E-02 
397	 5.27087583924882E-02 
398	 5.48624688862461E-02 
399	 0.055301540506762 
400	 5.46027974613327E-02 
401	 5.51652345434961E-02 
402	 5.59147015617025E-02 
403	 5.48811220796651E-02 
404	 5.32653832370316E-02 
405	 5.51765631406087E-02 
406	 0.05537930520266 
407	 5.52352783986996E-02 
408	 5.59394263119645E-02 
409	 5.46160992073293E-02 
410	 0.054403418916272 
411	 5.51298087173633E-02 
412	 5.51789010315897E-02 
413	 5.47905260314085E-02 
414	 5.45672889956411E-02 
415	 5.47649080540776E-02 
416	 5.51739445960267E-02 
417	 5.52502250767681E-02 
418	 5.52821577860098E-02 
419	 5.56008011751935E-02 
420	 5.60032167592354E-02 
421	 5.57526375470431E-02 
422	 5.55047547546765E-02 
423	 5.65261902846262E-02 
424	 5.63537413321656E-02 
425	 5.58605904157335E-02 
426	 5.57693901171181E-02 
427	 5.56829934654485E-02 
428	 5.62882910780829E-02 
429	 5.67175658295524E-02 
430	 5.60735566120553E-02 
431	 5.58407831785166E-02 
432	 5.59232019758454E-02 
433	 5.60987675020779E-02 
434	 5.61325999463951E-02 
435	 5.65799451068528E-02 
436	 5.67819598280866E-02 
437	 0.056413184553749 
438	 5.65845609832111E-02 
439	 5.69888047089501E-02 
440	 5.74802687907388E-02 
441	 5.79299066509669E-02 
442	 5.77673837131368E-02 
443	 5.76948853401368E-02 
444	 5.79159267977834E-02 
445	 5.76945164058127E-02 
446	 5.76981795391402E-02 
447	 5.79714089905513E-02 
448	 5.83538908602404E-02 
449	 5.86676360645679E-02 
450	 5.89219419627269E-02 
451	 5.90683412595365E-02 
452	 5.90260373881151E-02 
453	 5.91131915426653E-02 
454	 5.91715900467128E-02 
455	 5.91399318760096E-02 
456	 5.94298964933161E-02 
457	 0.059665638517137 
458	 5.97003727039463E-02 
459	 5.95749142870653E-02 
460	 5.98848062202706E-02 
461	 5.98947107881705E-02 
462	 5.95919197314974E-02 
463	 0.060132877892641 
464	 6.04973034745693E-02 
465	 6.06642916358616E-02 
466	 6.08377054360225E-02 
467	 6.09390839597833E-02 
468	 6.11012134348237E-02 
469	 6.12640749896776E-02 
470	 6.12451063016874E-02 
471	 6.15613430668098E-02 
472	 6.19329565770685E-02 
473	 6.20633738441761E-02 
474	 6.18929445750122E-02 
475	 6.19231348438671E-02 
476	 6.21144363903434E-02 
477	 0.062213446680452 
478	 6.24052650378952E-02 
479	 6.25826713451704E-02 
480	 6.27242039471992E-02 
481	 6.29591607177542E-02 
482	 6.31612553527744E-02 
483	 6.33361959034734E-02 
484	 6.35047942023018E-02 
485	 0.063602924983409 
486	 6.35973548903737E-02 
487	 6.35905765843676E-02 
488	 6.37788193644109E-02 
489	 6.39898274259961E-02 
490	 6.42788765745859E-02 
491	 6.46058905416757E-02 
492	 0.064581603479071 
493	 6.46095449989951E-02 
494	 6.47229550803704E-02 
495	 6.48094140894846E-02 
496	 0.065113160141978 
497	 6.51761177727199E-02 
498	 6.50202522537895E-02 
499	 6.54788338339459E-02 
500	 6.56755871867249E-02 
501	 6.56226839234842E-02 
502	 6.56172070025842E-02 
503	 6.60023059235715E-02 
504	 6.60884772447099E-02 
505	 6.58821471425371E-02 
506	 6.60245632599962E-02 
507	 6.61775842383318E-02 
508	 6.63011612022904E-02 
509	 6.63980470865799E-02 
510	 6.64460054189575E-02 
511	 6.64049100059698E-02 
512	 6.64128337552115E-02 
513	 6.66439911019514E-02 
514	 6.66769048765251E-02 
515	 6.67111300692363E-02 
516	 6.68462943657052E-02 
517	 6.68886249394139E-02 
518	 6.69686580884181E-02 
519	 6.70308818071392E-02 
520	 6.70081413030559E-02 
521	 6.70897702743302E-02 
522	 6.71541072412845E-02 
523	 6.71853140978499E-02 
524	 6.72925636865676E-02 
525	 6.73212708982166E-02 
526	 6.73461159902898E-02 
527	 6.74287893653555E-02 
528	 6.74102830813141E-02 
529	 6.74722192223117E-02 
530	 6.76063001011075E-02 
531	 6.76826266280499E-02 
532	 6.77323093001831E-02 
533	 6.77720698671734E-02 
534	 6.78227222230395E-02 
535	 6.79267246719662E-02 
536	 6.79624115867788E-02 
537	 6.79493738534024E-02 
538	 6.79608116876134E-02 
539	 6.79984409522931E-02 
540	 6.80409474053126E-02 
541	 6.80995186644183E-02 
542	 6.82339721373017E-02 
543	 6.83010389742697E-02 
544	 6.82929974148118E-02 
545	 0.068272197045765 
546	 6.84136099619628E-02 
547	 6.85091136266233E-02 
548	 6.85088033147497E-02 
549	 6.85074118558788E-02 
550	 6.85244653628478E-02 
551	 0.068565664129943 
552	 6.86254978468016E-02 
553	 0.068688227229382 
554	 6.87325420624251E-02 
555	 6.87751525367058E-02 
556	 6.88467848898809E-02 
557	 6.88971966634548E-02 
558	 6.89677234238979E-02 
559	 6.90421793125594E-02 
560	 6.89771334815749E-02 
561	 6.89690900324598E-02 
562	 6.90162133993306E-02 
563	 6.90543184459866E-02 
564	 6.90976118928564E-02 
565	 6.91083436180735E-02 
566	 6.90995076443912E-02 
567	 6.91416546667396E-02 
568	 6.92407986902196E-02 
569	 6.93474689123667E-02 
570	 0.069410499266449 
571	 6.94206067476185E-02 
572	 6.94472704309773E-02 
573	 6.94695336812964E-02 
574	 6.94139126828526E-02 
575	 6.94158060108005E-02 
576	 6.94731927026797E-02 
577	 6.95339095920589E-02 
578	 6.94771213887897E-02 
579	 0.069453512087149 
580	 6.94539383361005E-02 
581	 6.94190238784073E-02 
582	 6.94685161914669E-02 
583	 6.94440256533681E-02 
584	 0.069318242249592 
585	 0.069278674753018 
586	 0.069296613677848 
587	 0.06931111757567 
588	 6.92848306947655E-02 
589	 6.93555083842059E-02 
590	 6.93726432110776E-02 
591	 6.93317805523148E-02 
592	 6.93599501749235E-02 
593	 6.92671419712314E-02 
594	 6.91892901432716E-02 
595	 6.92286224975639E-02 
596	 6.92257156015612E-02 
597	 6.92766252660016E-02 
598	 6.93431405641633E-02 
599	 6.93318271387201E-02 
600	 0.069351685749441 
601	 6.93655992203387E-02 
602	 6.93417658751335E-02 
603	 6.92847616427038E-02 
604	 6.92343740245647E-02 
605	 0.069221898154287 
606	 6.92638136189871E-02 
607	 6.93354289501423E-02 
608	 0.069364090603868 
609	 6.93492132573775E-02 
610	 6.93731210207545E-02 
611	 6.93778324433433E-02 
612	 6.93878623384652E-02 
613	 6.94274134625439E-02 
614	 6.94600124003513E-02 
615	 6.94555414631869E-02 
616	 6.94382041994172E-02 
617	 0.069467092772627 
618	 6.95350240057482E-02 
619	 6.95295870094127E-02 
620	 6.94376281691065E-02 
621	 6.94982499681782E-02 
622	 6.95255541279564E-02 
623	 6.95300925387658E-02 
624	 6.95796969139375E-02 
625	 6.95815956071358E-02 
626	 6.95743338473225E-02 
627	 0.069580030568174 
628	 6.95847995162737E-02 
629	 6.96253821027146E-02 
630	 6.96733339804233E-02 
631	 6.96961526384315E-02 
632	 6.97191853372891E-02 
633	 6.97561108054056E-02 
634	 0.069779894750664 
635	 6.97415519312963E-02 
636	 6.97983482791646E-02 
637	 6.98507005420263E-02 
638	 6.98243946802544E-02 
639	 6.98150741896336E-02 
640	 6.98238646531974E-02 
641	 6.98664979278579E-02 
642	 6.99486380472388E-02 
643	 6.99808575774759E-02 
644	 7.00231791882937E-02 
645	 0.070083489944312 
646	 7.00727840047535E-02 
647	 7.00429404316779E-02 
648	 7.00513343618287E-02 
649	 0.070125973698856 
650	 7.01702340030216E-02 
651	 7.01982339013317E-02 
652	 7.02308920203929E-02 
653	 7.02883974026633E-02 
654	 7.03157790800127E-02 
655	 7.03042003631091E-02 
656	 7.02807480192439E-02 
657	 7.03387827039292E-02 
658	 7.04093917505531E-02 
659	 7.04805922176557E-02 
660	 7.05548753636472E-02 
661	 7.05319282187776E-02 
662	 7.05506364180785E-02 
663	 7.06454515808437E-02 
664	 7.06682953933575E-02 
665	 0.070694220416283 
666	 7.07163766325417E-02 
667	 0.070716320618514 
668	 0.070710656486574 
669	 0.070754127373679 
670	 0.070834755339731 
671	 7.08838171590547E-02 
672	 7.08632402415987E-02 
673	 7.08775165300387E-02 
674	 0.070969034133481 
675	 7.09753941022652E-02 
676	 7.09563881682176E-02 
677	 7.09582001894197E-02 
678	 7.10097805821083E-02 
679	 7.10383320583937E-02 
680	 7.10661363796067E-02 
681	 7.10985783171494E-02 
682	 7.11078071595548E-02 
683	 7.11736505292363E-02 
684	 7.12341085660003E-02 
685	 7.12280566194428E-02 
686	 7.12339326182355E-02 
687	 7.12667541146411E-02 
688	 7.13039485124973E-02 
689	 7.13031243686202E-02 
690	 0.071332378476147 
691	 7.13414848729388E-02 
692	 7.13235758067479E-02 
693	 7.14014345524087E-02 
694	 7.14077681229151E-02 
695	 7.13777579844203E-02 
696	 7.14024871806528E-02 
697	 7.14397527696797E-02 
698	 7.14484069477569E-02 
699	 0.071430038126293 
700	 7.14301364184061E-02 
701	 7.14353096148971E-02 
702	 7.14550791925767E-02 
703	 7.14834692966121E-02 
704	 7.14554887747786E-02 
705	 7.14598778775643E-02 
706	 7.14822384984875E-02 
707	 7.14652508958497E-02 
708	 7.14865207615966E-02 
709	 0.071502179369796 
710	 7.14995390100172E-02 
711	 7.15297740394947E-02 
712	 7.15252267108908E-02 
713	 7.15077505049577E-02 
714	 7.15173557453384E-02 
715	 7.15681790699446E-02 
716	 7.15719516014308E-02 
717	 7.15334384795801E-02 
718	 7.15235493186187E-02 
719	 7.15101463080514E-02 
720	 7.15038882827592E-02 
721	 7.15103387369421E-02 
722	 7.15158826876412E-02 
723	 7.15192039527098E-02 
724	 7.15176637088194E-02 
725	 7.15104680416953E-02 
726	 7.15049228039353E-02 
727	 7.14927609147945E-02 
728	 0.071482511269251 
729	 7.14953885096955E-02 
730	 7.14748921234483E-02 
731	 7.14600194372141E-02 
732	 7.14710848275956E-02 
733	 7.14368465601075E-02 
734	 7.14395354879073E-02 
735	 0.071443587355164 
736	 7.13859473157358E-02 
737	 7.13546494317227E-02 
738	 7.13305376613803E-02 
739	 7.13130448612915E-02 
740	 7.13282538290757E-02 
741	 0.071330879841302 
742	 7.12922517873432E-02 
743	 7.12208151603068E-02 
744	 7.12112002412583E-02 
745	 0.071197206248176 
746	 7.11837144187442E-02 
747	 7.11948209490225E-02 
748	 7.11399849353671E-02 
749	 7.10906726100772E-02 
750	 7.10795151777298E-02 
751	 7.10742715275097E-02 
752	 7.10478494753059E-02 
753	 7.10145760386193E-02 
754	 7.09917204839371E-02 
755	 7.09701589759151E-02 
756	 7.09624672433391E-02 
757	 7.09577225837988E-02 
758	 7.09374072142657E-02 
759	 7.09271507237207E-02 
760	 7.08955068745002E-02 
761	 7.08497840345191E-02 
762	 7.08498273302149E-02 
763	 7.08246406274165E-02 
764	 7.07953675074345E-02 
765	 7.07868007111635E-02 
766	 0.070766845564613 
767	 7.07622104337522E-02 
768	 7.07586912839317E-02 
769	 7.07284662148704E-02 
770	 7.07058082925864E-02 
771	 7.06816520899658E-02 
772	 7.06526537231867E-02 
773	 7.06267715176665E-02 
774	 7.06035017588009E-02 
775	 7.05946313692594E-02 
776	 7.06005041709638E-02 
777	 7.05886646794186E-02 
778	 7.05326541840478E-02 
779	 7.04887355325625E-02 
780	 7.05227745620511E-02 
781	 7.04980908738353E-02 
782	 7.04669013107404E-02 
783	 7.04491427350595E-02 
784	 0.070416029238654 
785	 7.03781373499859E-02 
786	 7.03357155401013E-02 
787	 7.02936956037577E-02 
788	 7.02694360026427E-02 
789	 7.02824314285199E-02 
790	 7.02923600997898E-02 
791	 7.02508662145991E-02 
792	 7.01968506345777E-02 
793	 7.01715845729901E-02 
794	 0.07017390428705 
795	 7.01657875508125E-02 
796	 7.01415566286442E-02 
797	 0.070115171938213 
798	 0.070094210046628 
799	 7.00661301238112E-02 
800	 7.00692594304068E-02 
801	 7.00517265468376E-02 
802	 0.069976154373216 
803	 6.99695288635349E-02 
804	 6.99660538417243E-02 
805	 6.99454901822089E-02 
806	 0.06992113842513 
807	 6.99089429240556E-02 
808	 6.98835348229316E-02 
809	 6.98392867094155E-02 
810	 6.98019860065577E-02 
811	 6.98068026872166E-02 
812	 6.97864770173616E-02 
813	 6.97080671845311E-02 
814	 6.96952328499023E-02 
815	 0.069675729912889 
816	 0.069659710036321 
817	 6.96736547217377E-02 
818	 6.96468162992846E-02 
819	 6.96266180849697E-02 
820	 6.96032009756749E-02 
821	 6.95247124813992E-02 
822	 6.95105666140855E-02 
823	 6.95110031539706E-02 
824	 6.94831288976331E-02 
825	 6.94391215816049E-02 
826	 6.94112787220218E-02 
827	 6.93845643289285E-02 
828	 6.93490695107934E-02 
829	 6.93619082157904E-02 
830	 6.93379447878721E-02 
831	 6.93033231101964E-02 
832	 6.93211613772954E-02 
833	 6.93160940333486E-02 
834	 6.92823889110607E-02 
835	 6.92408868748074E-02 
836	 0.06922972109794 
837	 6.92392831957634E-02 
838	 6.92358376289936E-02 
839	 6.91967092462903E-02 
840	 6.91240631552047E-02 
841	 6.90906676035475E-02 
842	 6.90777243258891E-02 
843	 6.90603126796551E-02 
844	 6.90886709809177E-02 
845	 6.91140483845617E-02 
846	 0.069077976746586 
847	 0.068961942281312 
848	 6.89721959397786E-02 
849	 6.89800875358694E-02 
850	 6.89510274949984E-02 
851	 6.89442630291197E-02 
852	 6.89172663491411E-02 
853	 6.88963832651593E-02 
854	 6.88902875684483E-02 
855	 6.88696007195049E-02 
856	 6.88716308871727E-02 
857	 0.068885684185774 
858	 6.88826917705722E-02 
859	 6.88099063696307E-02 
860	 0.06878910520403 
861	 6.88115732013121E-02 
862	 0.068819200781626 
863	 6.87741941656862E-02 
864	 6.87545850886814E-02 
865	 6.87598166513534E-02 
866	 6.87417260366653E-02 
867	 6.87109142687672E-02 
868	 6.86910939850541E-02 
869	 6.86747415867882E-02 
870	 6.86291830151571E-02 
871	 6.86503095632056E-02 
872	 0.068676631792434 
873	 6.86597763766215E-02 
874	 6.86169907938511E-02 
875	 6.85870757967369E-02 
876	 0.068552463165878 
877	 6.85191312173484E-02 
878	 6.86056609195341E-02 
879	 6.86171083979784E-02 
880	 6.85772344691919E-02 
881	 6.85670718981811E-02 
882	 6.85417303413509E-02 
883	 6.85380832486445E-02 
884	 6.85418170963408E-02 
885	 6.85181767400725E-02 
886	 6.85003675954285E-02 
887	 6.84937201570749E-02 
888	 6.84813971145246E-02 
889	 6.84389638982473E-02 
890	 6.84348978144542E-02 
891	 6.84693713294612E-02 
892	 6.85087307531975E-02 
893	 6.84943924517717E-02 
894	 6.84302123419765E-02 
895	 6.83928438798704E-02 
896	 6.84210505118456E-02 
897	 6.84611869854304E-02 
898	 6.84334504625603E-02 
899	 6.83873636679533E-02 
900	 6.83795077337312E-02 
901	 0.068382868186904 
902	 6.83893883426512E-02 
903	 6.83767828289601E-02 
904	 6.83477475766646E-02 
905	 6.84141488568428E-02 
906	 6.84121645645187E-02 
907	 6.83644246351798E-02 
908	 6.83689196963835E-02 
909	 6.83942160179761E-02 
910	 6.83385482802558E-02 
911	 6.82825013397942E-02 
912	 6.83757037263493E-02 
913	 6.83569709592315E-02 
914	 6.83161809289249E-02 
915	 6.83051039096453E-02 
916	 6.83105660490073E-02 
917	 6.83149991439705E-02 
918	 6.83301170561407E-02 
919	 6.83159086783004E-02 
920	 6.81937142695433E-02 
921	 0.068240476786673 
922	 6.83135878242688E-02 
923	 0.068300570913825 
924	 6.82494250633631E-02 
925	 6.82823560477697E-02 
926	 0.068308564374256 
927	 6.82589057668893E-02 
928	 6.81934194673633E-02 
929	 6.82046069008537E-02 
930	 6.82736284741753E-02 
931	 6.83347288846981E-02 
932	 6.82972487610293E-02 
933	 6.82976632391284E-02 
934	 6.82639080020284E-02 
935	 0.068162934599988 
936	 6.82570172763675E-02 
937	 6.82977616399361E-02 
938	 6.82703860632088E-02 
939	 6.82453007476393E-02 
940	 6.82864515065955E-02 
941	 0.068289222779705 
942	 6.82972861110248E-02 
943	 6.83597749218038E-02 
944	 6.83024681448728E-02 
945	 6.82346898043254E-02 
946	 6.82211045660186E-02 
947	 6.82649429030921E-02 
948	 6.82317202974461E-02 
949	 6.81734899394237E-02 
950	 6.81377919819032E-02 
951	 6.81521587072991E-02 
952	 6.81763593989163E-02 
953	 6.82672809605694E-02 
954	 6.83245896910178E-02 
955	 6.82337211096618E-02 
956	 0.068292030829677 
957	 0.068332315495549 
958	 6.82761660233702E-02 
959	 6.81636398730633E-02 
960	 6.82426610743474E-02 
961	 6.82727661046948E-02 
962	 6.82594865381842E-02 
963	 6.83375922372642E-02 
964	 6.82624567379673E-02 
965	 6.82375035764815E-02 
966	 6.82604734845336E-02 
967	 6.82130331454354E-02 
968	 6.83069141108638E-02 
969	 6.83269412858778E-02 
970	 6.82459698641556E-02 
971	 6.81897211819012E-02 
972	 6.82116585411603E-02 
973	 6.82954694394681E-02 
974	 6.83289402182331E-02 
975	 0.068212969570802 
976	 0.068250043012937 
977	 6.82960800742729E-02 
978	 6.82876393291146E-02 
979	 6.82376036633237E-02 
980	 6.81186755508481E-02 
981	 6.81348406499731E-02 
982	 6.81896429805624E-02 
983	 6.80790390898797E-02 
984	 6.81260159354015E-02 
985	 6.81902860784532E-02 
986	 6.81750411498847E-02 
987	 0.068093692427809 
988	 6.82626812553939E-02 
989	 6.83224158765847E-02 
990	 6.82423534550238E-02 
991	 6.81991508686603E-02 
992	 6.83465748328496E-02 
993	 6.83706144925481E-02 
994	 6.83075890738269E-02 
995	 6.83185259519354E-02 
996	 6.82947255392434E-02 
997	 6.83808661945823E-02 
998	 6.84057310548282E-02 
999	 6.82442545934036E-02 
1000	 6.83706842051054E-02 
1001	 6.76718663699417E-02 
1002	 6.76460594578722E-02 
1003	 6.75982712710795E-02 
1004	 6.75639863893077E-02 
1005	 6.75263411396339E-02 
1006	 6.75132791374573E-02 
1007	 6.75057374247198E-02 
1008	 6.75069725072962E-02 
1009	 6.75572900711057E-02 
1010	 6.76869172608975E-02 
1011	 6.76873675478014E-02 
1012	 6.76508979469788E-02 
1013	 6.76528083706362E-02 
1014	 6.76266567037159E-02 
1015	 6.76234235581314E-02 
1016	 6.75952862949678E-02 
1017	 0.067576895767172 
1018	 6.75475175521165E-02 
1019	 6.74988102838573E-02 
1020	 6.74617961975398E-02 
1021	 0.067502416589331 
1022	 6.74909303165065E-02 
1023	 6.74654861047951E-02 
1024	 6.74791799180547E-02 
1025	 6.74547703995636E-02 
1026	 6.73852762990054E-02 
1027	 6.73141840505062E-02 
1028	 6.72634555943931E-02 
1029	 6.72326907654154E-02 
1030	 6.72863106261516E-02 
1031	 6.73008554691392E-02 
1032	 6.73369052983284E-02 
1033	 6.73079541766986E-02 
1034	 6.72886204374033E-02 
1035	 6.72536360806396E-02 
1036	 6.72435638363473E-02 
1037	 6.72508952396099E-02 
1038	 6.72400116126632E-02 
1039	 6.72135928232854E-02 
1040	 0.067150522976979 
1041	 6.70984538008323E-02 
1042	 6.70857428592487E-02 
1043	 6.70774611247057E-02 
1044	 0.067069933303939 
1045	 6.70919164393622E-02 
1046	 6.71028448742361E-02 
1047	 6.70501020532198E-02 
1048	 6.69885719744679E-02 
1049	 6.69528442990969E-02 
1050	 6.69575331211892E-02 
1051	 0.066993710854826 
1052	 6.70261591272797E-02 
1053	 6.70268272432779E-02 
1054	 6.70058515360725E-02 
1055	 6.70139986827746E-02 
1056	 6.70279464857079E-02 
1057	 6.70299872211398E-02 
1058	 0.067029455990326 
1059	 6.70460905625473E-02 
1060	 0.067054959315887 
1061	 6.70701487970203E-02 
1062	 6.71225314437176E-02 
1063	 6.72219435783941E-02 
1064	 6.72493439852051E-02 
1065	 6.72387439829304E-02 
1066	 6.72607131318968E-02 
1067	 6.72579716834786E-02 
1068	 6.72610929023659E-02 
1069	 6.72968180663972E-02 
1070	 6.72983167246125E-02 
1071	 6.72411666898842E-02 
1072	 0.067246224668803 
1073	 6.72835916522364E-02 
1074	 6.73112726012357E-02 
1075	 6.73743060516246E-02 
1076	 6.74046176121017E-02 
1077	 6.74111582610239E-02 
1078	 6.73887504210716E-02 
1079	 0.067379983077561 
1080	 6.73960648974313E-02 
1081	 6.73914528305278E-02 
1082	 6.73939810157296E-02 
1083	 6.73951671229016E-02 
1084	 6.73701870965195E-02 
1085	 6.73887021557103E-02 
1086	 6.74522624258469E-02 
1087	 6.74680984706169E-02 
1088	 6.74776447738185E-02 
1089	 6.74906551775109E-02 
1090	 6.74871870796504E-02 
1091	 6.74682424097377E-02 
1092	 6.74553288188625E-02 
1093	 6.74787832493301E-02 
1094	 6.74890787386493E-02 
1095	 6.74843471446876E-02 
1096	 0.067503592658144 
1097	 6.74939122452292E-02 
1098	 6.74806318056531E-02 
1099	 6.74437406568233E-02 
1100	 6.74332415357717E-02 
1101	 6.74351432989567E-02 
1102	 6.74254783781381E-02 
1103	 6.74202337529063E-02 
1104	 6.74111542863444E-02 
1105	 6.73905671848495E-02 
1106	 6.73639077745885E-02 
1107	 6.73517468314744E-02 
1108	 0.067337749936195 
1109	 0.0673199228828 
1110	 6.73084121259077E-02 
1111	 6.72941425187489E-02 
1112	 6.72842145837718E-02 
1113	 6.72617390984635E-02 
1114	 6.72276177659116E-02 
1115	 6.72055365562129E-02 
1116	 6.71676841769935E-02 
1117	 6.71540851042216E-02 
1118	 6.71707976587403E-02 
1119	 6.71743027878871E-02 
1120	 6.71357919878995E-02 
1121	 6.71314408872485E-02 
1122	 6.71310359468206E-02 
1123	 6.71010885872851E-02 
1124	 6.70791206937198E-02 
1125	 6.70800234741913E-02 
1126	 6.70537354724052E-02 
1127	 6.69838416929223E-02 
1128	 6.69663549694298E-02 
1129	 6.69798400370349E-02 
1130	 6.69732374810401E-02 
1131	 6.69760270315904E-02 
1132	 6.69755088928082E-02 
1133	 6.69723951434532E-02 
1134	 0.066956094661793 
1135	 6.69271422791543E-02 
1136	 6.69235708292866E-02 
1137	 6.69005997201739E-02 
1138	 6.68459409099944E-02 
1139	 6.68200991177558E-02 
1140	 6.67999536538044E-02 
1141	 6.67866050896329E-02 
1142	 6.67894524145075E-02 
1143	 6.67864394884299E-02 
1144	 6.67914413780822E-02 
1145	 6.67868314767391E-02 
1146	 6.67792102367596E-02 
1147	 6.67595386190179E-02 
1148	 6.67172509773083E-02 
1149	 6.66974773445152E-02 
1150	 6.66767915850811E-02 
1151	 6.66678550977054E-02 
1152	 6.66742920999474E-02 
1153	 6.66943285945875E-02 
1154	 6.66953132120669E-02 
1155	 6.66932948019691E-02 
1156	 6.66845419402784E-02 
1157	 6.66608788384457E-02 
1158	 6.66478135384011E-02 
1159	 6.66354914132088E-02 
1160	 6.66225979738268E-02 
1161	 6.66076978262403E-02 
1162	 0.066603622519082 
1163	 6.66140023668316E-02 
1164	 6.66069726334727E-02 
1165	 6.65972221932086E-02 
1166	 6.65869852185661E-02 
1167	 6.65662566217829E-02 
1168	 6.65568065359513E-02 
1169	 6.65544482032476E-02 
1170	 6.65749698609501E-02 
1171	 6.65698243287963E-02 
1172	 6.65545323138592E-02 
1173	 6.65427535946007E-02 
1174	 6.65211553396228E-02 
1175	 0.06650735808043 
1176	 6.64951213287959E-02 
1177	 0.066492295584331 
1178	 6.64966942409486E-02 
1179	 6.64966844888252E-02 
1180	 6.65049962658196E-02 
1181	 6.65081878618375E-02 
1182	 0.066503958855083 
1183	 0.066502686662845 
1184	 6.64989312739184E-02 
1185	 0.06649720943393 
1186	 6.64894478586193E-02 
1187	 6.64678426182489E-02 
1188	 6.64700224723306E-02 
1189	 6.64827317608442E-02 
1190	 6.64914483572993E-02 
1191	 6.65138097265273E-02 
1192	 6.65286685756506E-02 
1193	 6.65330048365022E-02 
1194	 6.65444673629996E-02 
1195	 6.65673189778424E-02 
1196	 6.65797048040695E-02 
1197	 6.65892843870984E-02 
1198	 6.65966514980178E-02 
1199	 6.66001491089653E-02 
1200	 0.066593779452137 
1201	 6.65978600427564E-02 
1202	 6.65985004205009E-02 
1203	 6.66144170580863E-02 
1204	 6.66454686844609E-02 
1205	 6.66637074964939E-02 
1206	 6.66860634801604E-02 
1207	 6.67051479691681E-02 
1208	 6.67220648784019E-02 
1209	 6.67294733514171E-02 
1210	 6.67242599955485E-02 
1211	 6.67349833248194E-02 
1212	 0.06674617030729 
1213	 6.67555284360532E-02 
1214	 6.67830402925993E-02 
1215	 0.066799859537662 
1216	 6.68101095017282E-02 
1217	 6.68061466541918E-02 
1218	 6.68104245447501E-02 
1219	 6.68158944615579E-02 
1220	 0.066818477524677 
1221	 6.68138439617965E-02 
1222	 0.066822176900899 
1223	 6.68427983183883E-02 
1224	 6.68477391266298E-02 
1225	 6.68535394585174E-02 
1226	 6.68554661965294E-02 
1227	 6.68379255481198E-02 
1228	 0.066834497603407 
1229	 6.68349678668679E-02 
1230	 0.066843307660803 
1231	 6.68686096887483E-02 
1232	 6.68817674798179E-02 
1233	 6.68928876078222E-02 
1234	 6.69102611148799E-02 
1235	 6.69132652618654E-02 
1236	 6.68963992119101E-02 
1237	 6.69004017543917E-02 
1238	 6.69087958756108E-02 
1239	 6.69169255558124E-02 
1240	 6.69388252733901E-02 
1241	 6.69466303716829E-02 
1242	 0.066945345231277 
1243	 6.69473637079465E-02 
1244	 6.69356322435647E-02 
1245	 6.69417561704302E-02 
1246	 6.69689655902005E-02 
1247	 6.69792051998445E-02 
1248	 6.69851938389295E-02 
1249	 6.69992955526762E-02 
1250	 6.70099968385959E-02 
1251	 6.70092685499324E-02 
1252	 6.70121482900152E-02 
1253	 6.70243049421826E-02 
1254	 6.70285558999248E-02 
1255	 6.70196451967803E-02 
1256	 6.70202604134127E-02 
1257	 0.067031452427037 
1258	 6.70309801098039E-02 
1259	 6.70196627138483E-02 
1260	 6.70207173675874E-02 
1261	 6.70268475973354E-02 
1262	 6.70262906059685E-02 
1263	 6.70318623901033E-02 
1264	 6.70310772531559E-02 
1265	 6.70143317693948E-02 
1266	 6.70084604600704E-02 
1267	 6.70038871657967E-02 
1268	 6.70126121829246E-02 
1269	 6.70100166020229E-02 
1270	 0.067005644223767 
1271	 6.70081764164351E-02 
1272	 6.70090013299771E-02 
1273	 6.70123857427139E-02 
1274	 6.70208461627995E-02 
1275	 6.70332668097424E-02 
1276	 0.067040824264881 
1277	 6.70606775033912E-02 
1278	 6.71010076118568E-02 
1279	 0.067127829657598 
1280	 6.71500652350087E-02 
1281	 6.71755673701432E-02 
1282	 0.067195905181521 
1283	 6.72212158020281E-02 
1284	 6.72417875756785E-02 
1285	 6.72856617250822E-02 
1286	 6.73305698659074E-02 
1287	 6.73625121390654E-02 
1288	 6.74046682059305E-02 
1289	 6.74512069248698E-02 
1290	 6.75004366216793E-02 
1291	 6.75553235916652E-02 
1292	 6.76072216209424E-02 
1293	 6.76611714869223E-02 
1294	 6.77139247739215E-02 
1295	 6.77648759436654E-02 
1296	 6.78136983604461E-02 
1297	 6.78645459684896E-02 
1298	 6.79144515519482E-02 
1299	 6.79688094900267E-02 
1300	 6.80094665558794E-02 
1301	 6.80321809439977E-02 
1302	 6.80694395764758E-02 
1303	 6.81044593398468E-02 
1304	 6.81400881298137E-02 
1305	 6.81958536996488E-02 
1306	 6.82597473027806E-02 
1307	 6.82758817768939E-02 
1308	 6.82873959043297E-02 
1309	 6.83185776448203E-02 
1310	 0.068337299191462 
1311	 6.83657749179069E-02 
1312	 6.84356164852774E-02 
1313	 6.84571919013742E-02 
1314	 6.84465272647721E-02 
1315	 6.84526251529471E-02 
1316	 6.84451032738581E-02 
1317	 6.84427394365477E-02 
1318	 6.84468085032737E-02 
1319	 6.84495359915934E-02 
1320	 6.84531758295729E-02 
1321	 6.84569591017828E-02 
1322	 6.84668553397564E-02 
1323	 6.84623230751412E-02 
1324	 6.84763116867083E-02 
1325	 6.84677336400382E-02 
1326	 6.84579870316567E-02 
1327	 6.84607161900145E-02 
1328	 6.84484994125332E-02 
1329	 6.84353066108558E-02 
1330	 6.84233858538084E-02 
1331	 6.84135783981778E-02 
1332	 6.84031852025339E-02 
1333	 6.83964630135835E-02 
1334	 6.83776395874823E-02 
1335	 6.83426613776277E-02 
1336	 0.068327491417844 
1337	 6.83200918303246E-02 
1338	 6.83047559554231E-02 
1339	 6.82993623443702E-02 
1340	 6.82910318198385E-02 
1341	 6.82716875611028E-02 
1342	 6.82535489723098E-02 
1343	 6.82380375977808E-02 
1344	 6.82294854285286E-02 
1345	 6.82124402943098E-02 
1346	 6.81799546092128E-02 
1347	 6.81508179500137E-02 
1348	 6.81202561439053E-02 
1349	 0.068080845895577 
1350	 6.80446443823621E-02 
1351	 6.80052208696647E-02 
1352	 6.79628125171072E-02 
1353	 6.79214831741313E-02 
1354	 6.78731968775047E-02 
1355	 6.78375423839768E-02 
1356	 6.78077150605896E-02 
1357	 6.77804677428588E-02 
1358	 0.067765904306261 
1359	 6.77433565615936E-02 
1360	 6.77116218314727E-02 
1361	 6.76896881668931E-02 
1362	 6.76692152307201E-02 
1363	 6.76538533025526E-02 
1364	 6.76365013524549E-02 
1365	 6.76398435915364E-02 
1366	 6.76593484752653E-02 
1367	 6.76757141601801E-02 
1368	 6.77097123634404E-02 
1369	 6.77409773958835E-02 
1370	 6.77564318171501E-02 
1371	 6.77650020602354E-02 
1372	 6.77536620920142E-02 
1373	 6.77466725919469E-02 
1374	 0.067732111307073 
1375	 6.77089191004339E-02 
1376	 6.76782350506623E-02 
1377	 6.76416884357901E-02 
1378	 6.76050148612957E-02 
1379	 6.75545397853759E-02 
1380	 0.067519507144199 
1381	 6.74833866393674E-02 
1382	 6.74613771270943E-02 
1383	 6.74541884547043E-02 
1384	 6.74434587394525E-02 
1385	 6.74414750449704E-02 
1386	 6.74422682056049E-02 
1387	 6.74466449788707E-02 
1388	 6.74472083217969E-02 
1389	 6.74607000158041E-02 
1390	 0.067452529795536 
1391	 0.067426699362714 
1392	 6.74087323910585E-02 
1393	 0.067394647591538 
1394	 6.73720929543154E-02 
1395	 6.73618165600511E-02 
1396	 6.73522097373549E-02 
1397	 6.73445557917731E-02 
1398	 6.73331007364833E-02 
1399	 6.73314450649066E-02 
1400	 6.73431837540276E-02 
1401	 6.73430954848119E-02 
1402	 6.73404524100674E-02 
1403	 6.73387577483142E-02 
1404	 6.73291889062124E-02 
1405	 6.73274446770349E-02 
1406	 0.067333152114579 
1407	 6.73325334482448E-02 
1408	 0.067325158226555 
1409	 6.73309511203386E-02 
1410	 6.73391569317767E-02 
1411	 6.73533774968312E-02 
1412	 6.73841584533718E-02 
1413	 6.74052851612553E-02 
1414	 6.74234017161888E-02 
1415	 6.74435807782192E-02 
1416	 6.74606093879013E-02 
1417	 6.75021921039102E-02 
1418	 6.75428333343745E-02 
1419	 0.067560271596531 
1420	 6.75805292612408E-02 
1421	 0.067587084894513 
1422	 0.067590398963443 
1423	 6.76081033783533E-02 
1424	 0.06762198722955 
1425	 0.067637681201424 
1426	 6.76493847072739E-02 
1427	 6.76555187558179E-02 
1428	 6.76775384122284E-02 
1429	 0.067704048899977 
1430	 6.77316253498958E-02 
1431	 6.77778713375941E-02 
1432	 6.78028919119106E-02 
1433	 0.067813060077912 
1434	 6.78344945428095E-02 
1435	 6.78439542025967E-02 
1436	 6.78706157180463E-02 
1437	 6.79263365329579E-02 
1438	 6.79546332861039E-02 
1439	 6.79741062232338E-02 
1440	 6.80004593580213E-02 
1441	 6.80093506194256E-02 
1442	 6.79976107110628E-02 
1443	 6.80021919595397E-02 
1444	 6.80238516085637E-02 
1445	 6.80527163892659E-02 
1446	 6.80926055477309E-02 
1447	 6.81261865049825E-02 
1448	 6.81443699984234E-02 
1449	 0.068150294988699 
1450	 6.81524910154374E-02 
1451	 6.81617159669155E-02 
1452	 6.81715533809938E-02 
1453	 6.81897410937955E-02 
1454	 6.82154395953171E-02 
1455	 6.82320637151617E-02 
1456	 6.82510444856874E-02 
1457	 6.82672244678054E-02 
1458	 0.068279173684006 
1459	 6.82936916578741E-02 
1460	 6.83059429974488E-02 
1461	 6.83221390697329E-02 
1462	 6.83391256773243E-02 
1463	 6.83556399476843E-02 
1464	 6.83845610382467E-02 
1465	 6.84001607288033E-02 
1466	 6.83994669242671E-02 
1467	 6.84101701901081E-02 
1468	 6.84180193261538E-02 
1469	 6.84273828679952E-02 
1470	 6.84431230047059E-02 
1471	 6.84644986458537E-02 
1472	 6.84771880771446E-02 
1473	 6.85014779626627E-02 
1474	 6.85241876861046E-02 
1475	 6.85384637326488E-02 
1476	 6.85449753220583E-02 
1477	 6.85645365977276E-02 
1478	 6.85953613095652E-02 
1479	 6.86254244292793E-02 
1480	 6.86544386376055E-02 
1481	 6.86667009297134E-02 
1482	 6.86769390734951E-02 
1483	 0.068672024050202 
1484	 6.86741764155988E-02 
1485	 6.86741306700689E-02 
1486	 0.068682484887314 
1487	 6.86911971527581E-02 
1488	 6.87035691257023E-02 
1489	 6.87282521169475E-02 
1490	 6.87435578860724E-02 
1491	 6.87550871364419E-02 
1492	 6.87629103119583E-02 
1493	 6.87634942403644E-02 
1494	 6.87730625742822E-02 
1495	 6.87848686439906E-02 
1496	 6.87951664163248E-02 
1497	 0.068814864325809 
1498	 6.88233008795846E-02 
1499	 6.88192470792103E-02 
1500	 6.88244871388789E-02 
1501	 6.88262783808171E-02 
1502	 0.068835432372008 
1503	 6.88575585162968E-02 
1504	 6.88667908267672E-02 
1505	 6.88808750734498E-02 
1506	 6.88964751977683E-02 
1507	 6.88997959036544E-02 
1508	 6.89190202479093E-02 
1509	 6.89429403217163E-02 
1510	 6.89574624743114E-02 
1511	 6.89638741515638E-02 
1512	 6.89731094037944E-02 
1513	 6.89762964494056E-02 
1514	 6.89658087656992E-02 
1515	 6.89683470094324E-02 
1516	 6.89825509370998E-02 
1517	 0.068994983783214 
1518	 6.90142555584707E-02 
1519	 6.90247724167443E-02 
1520	 6.90330819401365E-02 
1521	 6.90410543337147E-02 
1522	 6.90392799336953E-02 
1523	 6.90566066299667E-02 
1524	 6.90904319223694E-02 
1525	 6.91051733854426E-02 
1526	 0.069122233651702 
1527	 6.91304094246584E-02 
1528	 6.91175482322885E-02 
1529	 6.91219319268686E-02 
1530	 6.91378213825219E-02 
1531	 6.91438161168966E-02 
1532	 6.91478663513356E-02 
1533	 6.91540710821543E-02 
1534	 6.91574972774279E-02 
1535	 6.91603278568126E-02 
1536	 6.91667722168273E-02 
1537	 6.91697166452503E-02 
1538	 6.91632000350457E-02 
1539	 0.069164694382464 
1540	 6.91717628874634E-02 
1541	 6.91793547338011E-02 
1542	 6.91961471699194E-02 
1543	 6.92014027789676E-02 
1544	 6.91922255116332E-02 
1545	 6.91960682688218E-02 
1546	 6.92001351733816E-02 
1547	 6.92100891092678E-02 
1548	 6.92266128513503E-02 
1549	 6.92380296873219E-02 
1550	 6.92319032255147E-02 
1551	 6.92349840093006E-02 
1552	 6.92554911025337E-02 
1553	 6.92671510635404E-02 
1554	 6.92859033638826E-02 
1555	 6.92958375674539E-02 
1556	 6.92733908336101E-02 
1557	 6.92725411332348E-02 
1558	 6.92823121974602E-02 
1559	 6.92803155836683E-02 
1560	 6.92815529696923E-02 
1561	 6.92915000243407E-02 
1562	 6.92895007413562E-02 
1563	 6.92742157869425E-02 
1564	 6.92753980646337E-02 
1565	 6.92798658550774E-02 
1566	 6.92925469173097E-02 
1567	 6.93204852402459E-02 
1568	 6.93277586538637E-02 
1569	 6.93303120565843E-02 
1570	 0.069336100015931 
1571	 0.069328132935891 
1572	 6.93352480060804E-02 
1573	 6.93594953181467E-02 
1574	 6.93672290271307E-02 
1575	 6.93744364499051E-02 
1576	 6.93732761441985E-02 
1577	 6.93539642876301E-02 
1578	 6.93536483722334E-02 
1579	 6.93580190188791E-02 
1580	 6.93598153522974E-02 
1581	 6.93769565246837E-02 
1582	 6.93788137073558E-02 
1583	 6.93617966988833E-02 
1584	 6.93596452736131E-02 
1585	 6.93578850395108E-02 
1586	 6.93628802709884E-02 
1587	 6.93877821771422E-02 
1588	 6.93936811015155E-02 
1589	 6.93896071022853E-02 
1590	 6.93897619688561E-02 
1591	 6.93808550341314E-02 
1592	 6.93771621529727E-02 
1593	 6.93866565795746E-02 
1594	 6.93825633243875E-02 
1595	 6.93601420129891E-02 
1596	 6.93539509720036E-02 
1597	 6.93565604379099E-02 
1598	 6.93508090522321E-02 
1599	 6.93477269197679E-02 
1600	 6.93468040632619E-02 
1601	 0.069330025978822 
1602	 6.93309630956587E-02 
1603	 6.93604049184485E-02 
1604	 6.93722183906667E-02 
1605	 6.93780197658813E-02 
1606	 6.93861586402691E-02 
1607	 0.069385265539347 
1608	 6.93866987920458E-02 
1609	 6.93902243377712E-02 
1610	 6.94041578340988E-02 
1611	 6.94081797339648E-02 
1612	 6.93944546302896E-02 
1613	 6.94035281081255E-02 
1614	 6.94184658218028E-02 
1615	 6.94280838255269E-02 
1616	 0.0694423517841 
1617	 6.94287515651813E-02 
1618	 6.94098728139242E-02 
1619	 6.94103582320695E-02 
1620	 6.94037415153933E-02 
1621	 6.93986546930223E-02 
1622	 6.94003707434052E-02 
1623	 6.93986562965297E-02 
1624	 6.93858331644818E-02 
1625	 0.069395905494181 
1626	 6.94214522950651E-02 
1627	 6.94337815493375E-02 
1628	 6.94616902115768E-02 
1629	 6.94504170358904E-02 
1630	 6.94102181362761E-02 
1631	 6.93939965163148E-02 
1632	 6.93639752424431E-02 
1633	 6.93512654714681E-02 
1634	 6.93576642401545E-02 
1635	 6.93584503067821E-02 
1636	 6.93591681770282E-02 
1637	 6.93586659921691E-02 
1638	 6.93648329376218E-02 
1639	 6.93643916223033E-02 
1640	 6.93544538144647E-02 
1641	 6.93549124755401E-02 
1642	 6.93690138732112E-02 
1643	 6.93574598997308E-02 
1644	 6.93307336511622E-02 
1645	 6.93213601725492E-02 
1646	 6.93020383446543E-02 
1647	 6.92934996677721E-02 
1648	 6.93045842975664E-02 
1649	 6.93064204997025E-02 
1650	 6.92974939490234E-02 
1651	 6.93033032428759E-02 
1652	 6.93271094794982E-02 
1653	 6.93311646459365E-02 
1654	 6.93285771037733E-02 
1655	 6.93299337483323E-02 
1656	 0.069324740045316 
1657	 6.93202057280693E-02 
1658	 6.93221588260456E-02 
1659	 6.93164272005506E-02 
1660	 6.92968167130597E-02 
1661	 6.92920574510688E-02 
1662	 6.92920832390516E-02 
1663	 6.92952902011817E-02 
1664	 6.93138398128139E-02 
1665	 6.93127668205441E-02 
1666	 6.93024207782598E-02 
1667	 6.92968424161709E-02 
1668	 6.92790411825251E-02 
1669	 6.92741066002393E-02 
1670	 0.069282825414272 
1671	 6.92816456718754E-02 
1672	 6.92817218220006E-02 
1673	 6.92746032758747E-02 
1674	 6.92526767228259E-02 
1675	 6.92504031789168E-02 
1676	 6.92610644816383E-02 
1677	 6.92559553196701E-02 
1678	 6.92494933713204E-02 
1679	 6.92513792651516E-02 
1680	 6.92477075219363E-02 
1681	 6.92418503102542E-02 
1682	 6.92460098682707E-02 
1683	 6.92479909742168E-02 
1684	 6.92412026091851E-02 
1685	 6.92332255951481E-02 
1686	 6.92326620753821E-02 
1687	 6.92273145764978E-02 
1688	 6.92002504139696E-02 
1689	 6.92019549176856E-02 
1690	 6.92312923400338E-02 
1691	 6.92348369554673E-02 
1692	 6.92454280453415E-02 
1693	 6.92369003416602E-02 
1694	 6.91912824698292E-02 
1695	 6.91807213694062E-02 
1696	 6.91797297035753E-02 
1697	 0.069182020846215 
1698	 6.92120676017577E-02 
1699	 6.92132522681984E-02 
1700	 6.91940028106921E-02 
1701	 0.069190847235252 
1702	 6.91800789767089E-02 
1703	 6.91820758762197E-02 
1704	 6.92115032516815E-02 
1705	 6.92087871013547E-02 
1706	 6.91823360067422E-02 
1707	 6.91820572140651E-02 
1708	 6.91788452035704E-02 
1709	 6.91817520382876E-02 
1710	 6.92116920312731E-02 
1711	 6.92183821410203E-02 
1712	 6.92089990408418E-02 
1713	 6.92058693174708E-02 
1714	 6.91997707802097E-02 
1715	 0.069198346972419 
1716	 6.91952086883446E-02 
1717	 6.91975946233919E-02 
1718	 6.92124579581271E-02 
1719	 6.92108162901123E-02 
1720	 6.91980415102623E-02 
1721	 6.91968916254094E-02 
1722	 6.91943063576567E-02 
1723	 6.91901288053676E-02 
1724	 6.92043308331572E-02 
1725	 0.069190733550759 
1726	 6.91505321912052E-02 
1727	 6.91306781058154E-02 
1728	 6.91049717029982E-02 
1729	 6.90876695108362E-02 
1730	 6.90802747397846E-02 
1731	 6.90797091987311E-02 
1732	 6.90859602163495E-02 
1733	 6.90886352589038E-02 
1734	 6.91086821585418E-02 
1735	 6.90978203943479E-02 
1736	 6.90604944021296E-02 
1737	 6.90412719639059E-02 
1738	 6.90232000580769E-02 
1739	 6.90008208356648E-02 
1740	 6.89774891515503E-02 
1741	 6.89643267007377E-02 
1742	 6.89391879331906E-02 
1743	 6.89359471173169E-02 
1744	 6.89646954093343E-02 
1745	 6.89695315325428E-02 
1746	 6.89705329405302E-02 
1747	 6.89885266194057E-02 
1748	 6.89836483545075E-02 
1749	 0.068984223242733 
1750	 6.89636346668584E-02 
1751	 6.89330093375576E-02 
1752	 6.89051213956646E-02 
1753	 6.88821318067271E-02 
1754	 6.88704068727529E-02 
1755	 6.88525792741273E-02 
1756	 6.88491343217071E-02 
1757	 6.88570648936158E-02 
1758	 6.88493079592615E-02 
1759	 0.06883515991656 
1760	 6.88222286272334E-02 
1761	 6.88084393313986E-02 
1762	 6.88060556788514E-02 
1763	 6.88279851144887E-02 
1764	 6.88429014831117E-02 
1765	 0.068814827436719 
1766	 6.88003578220048E-02 
1767	 6.88005276444225E-02 
1768	 6.87732422321382E-02 
1769	 6.87755373298859E-02 
1770	 6.87775281532041E-02 
1771	 0.068740893837946 
1772	 6.87098112016165E-02 
1773	 0.068688004285152 
1774	 6.86698606393207E-02 
1775	 0.068662513923134 
1776	 6.86671964316665E-02 
1777	 6.86605755597874E-02 
1778	 6.86603480432101E-02 
1779	 6.86687270114261E-02 
1780	 6.86542887200847E-02 
1781	 6.86555230865567E-02 
1782	 6.86534330277935E-02 
1783	 6.86345210653043E-02 
1784	 6.86218532615224E-02 
1785	 6.85920325900318E-02 
1786	 6.85848531569084E-02 
1787	 6.85900376543619E-02 
1788	 6.85989492592298E-02 
1789	 6.86492913687179E-02 
1790	 6.86429358071995E-02 
1791	 6.85907902061412E-02 
1792	 6.85703957705997E-02 
1793	 0.068535411975803 
1794	 0.068515218991674 
1795	 6.85264693244254E-02 
1796	 6.85276935332981E-02 
1797	 6.85034759490359E-02 
1798	 6.85043714520012E-02 
1799	 6.85486505252734E-02 
1800	 6.85462437430683E-02 
1801	 6.58431594279715E-02 
1802	 6.58959996788875E-02 
1803	 6.59516917801615E-02 
1804	 6.60546092994097E-02 
1805	 6.61446860410002E-02 
1806	 6.61966790845519E-02 
1807	 6.62818824528834E-02 
1808	 6.63486307750332E-02 
1809	 0.066381292942553 
1810	 6.64221897029307E-02 
1811	 6.64745198909944E-02 
1812	 6.65292543391563E-02 
1813	 6.65552606909891E-02 
1814	 6.65589807952487E-02 
1815	 6.65524141783668E-02 
1816	 6.65338245721954E-02 
1817	 6.65277859587269E-02 
1818	 6.65099233968059E-02 
1819	 6.65133393852044E-02 
1820	 6.65350115186405E-02 
1821	 0.066553083421373 
1822	 6.65601107598873E-02 
1823	 6.65814055894953E-02 
1824	 6.66128017846882E-02 
1825	 0.066618759259883 
1826	 6.66182153892201E-02 
1827	 6.66406724537409E-02 
1828	 6.66485547293115E-02 
1829	 6.66431009900327E-02 
1830	 6.66338413539739E-02 
1831	 6.66268659390563E-02 
1832	 6.66068337734228E-02 
1833	 6.65815148335805E-02 
1834	 6.65835199459753E-02 
1835	 6.65826067321643E-02 
1836	 6.65652420412111E-02 
1837	 6.65538230849922E-02 
1838	 0.066554826660717 
1839	 6.65678854647016E-02 
1840	 0.066602292337308 
1841	 6.66401610906603E-02 
1842	 6.66730875603216E-02 
1843	 0.066700465526159 
1844	 0.066691633297513 
1845	 6.66977613832198E-02 
1846	 6.67419579299564E-02 
1847	 0.066769080834204 
1848	 6.68149960229338E-02 
1849	 6.68644345222174E-02 
1850	 6.68953951327455E-02 
1851	 6.68952883721068E-02 
1852	 6.69039802596658E-02 
1853	 6.69372187418209E-02 
1854	 6.69760363212324E-02 
1855	 6.69948302875674E-02 
1856	 6.70111908548304E-02 
1857	 6.70154265493739E-02 
1858	 6.70117759224031E-02 
1859	 6.70455710309799E-02 
1860	 6.70688408925304E-02 
1861	 0.067104560665892 
1862	 6.71261784747164E-02 
1863	 6.71321297017362E-02 
1864	 6.70904612197601E-02 
1865	 6.70398390646978E-02 
1866	 6.69891010594872E-02 
1867	 6.69343051154085E-02 
1868	 0.06690519746222 
1869	 6.68865340558322E-02 
1870	 6.68689509909163E-02 
1871	 6.68655410370912E-02 
1872	 6.68721197084949E-02 
1873	 6.68977236810059E-02 
1874	 6.69349164461205E-02 
1875	 6.69705835112763E-02 
1876	 6.69926596314847E-02 
1877	 6.70167328372669E-02 
1878	 0.067046608425486 
1879	 6.70915686831346E-02 
1880	 6.71276237739183E-02 
1881	 6.71949059545294E-02 
1882	 6.72052434794545E-02 
1883	 6.71823228992352E-02 
1884	 0.067154007246856 
1885	 6.71203893989404E-02 
1886	 6.70921797637789E-02 
1887	 6.70799774159725E-02 
1888	 0.067047677063708 
1889	 6.69946547766025E-02 
1890	 6.69582247424561E-02 
1891	 6.69271756301369E-02 
1892	 6.69185743454244E-02 
1893	 6.68834258565037E-02 
1894	 0.066861487184802 
1895	 6.67834599394998E-02 
1896	 0.066679901565294 
1897	 0.066585707861927 
1898	 6.64847760710418E-02 
1899	 6.64125277002075E-02 
1900	 6.63528176280886E-02 
1901	 6.62713937025788E-02 
1902	 6.62207212464913E-02 
1903	 6.61943799107425E-02 
1904	 6.61619125133267E-02 
1905	 6.61452324091775E-02 
1906	 0.066125510842789 
1907	 6.61036937602756E-02 
1908	 6.60787903402714E-02 
1909	 6.60500908804453E-02 
1910	 0.066019531412571 
1911	 6.59909391605184E-02 
1912	 6.59419226038764E-02 
1913	 6.59086785170511E-02 
1914	 6.58985223967896E-02 
1915	 6.58755244365989E-02 
1916	 0.065846546023449 
1917	 0.065820644884421 
1918	 6.57974137755605E-02 
1919	 6.57447333212854E-02 
1920	 6.57192298468374E-02 
1921	 6.56994015080918E-02 
1922	 6.56895685515254E-02 
1923	 0.065705805125711 
1924	 6.57127348258352E-02 
1925	 6.57364731085301E-02 
1926	 6.57439325214504E-02 
1927	 6.57375863591416E-02 
1928	 6.57352541513041E-02 
1929	 6.57575028982092E-02 
1930	 6.57542443742997E-02 
1931	 6.57771530301111E-02 
1932	 0.065796157203469 
1933	 6.57967996773839E-02 
1934	 6.58067756669344E-02 
1935	 6.58127651580389E-02 
1936	 0.065821533963636 
1937	 6.58238243816941E-02 
1938	 6.58053856131924E-02 
1939	 6.58137436756938E-02 
1940	 6.58355741003298E-02 
1941	 6.58535087738001E-02 
1942	 6.58745812564857E-02 
1943	 6.59069433587634E-02 
1944	 0.065917917683085 
1945	 6.59170216450841E-02 
1946	 6.59189857425935E-02 
1947	 6.59182229118229E-02 
1948	 0.065919141197755 
1949	 0.065904764253854 
1950	 6.59145718477801E-02 
1951	 6.59451969337449E-02 
1952	 6.59650262085458E-02 
1953	 6.59873621765873E-02 
1954	 0.066018312911411 
1955	 6.60191878720962E-02 
1956	 6.60242482784861E-02 
1957	 6.60300290129513E-02 
1958	 6.60299477304243E-02 
1959	 6.60396036925324E-02 
1960	 6.60479504851817E-02 
1961	 6.60684437753314E-02 
1962	 0.066095549792584 
1963	 6.61311947481951E-02 
1964	 6.61819806146281E-02 
1965	 6.62334214431725E-02 
1966	 6.62765097744009E-02 
1967	 6.63325771099201E-02 
1968	 6.63652263009549E-02 
1969	 6.63733288294155E-02 
1970	 0.066402808089892 
1971	 6.64281902471003E-02 
1972	 0.066455460418932 
1973	 6.64984440312921E-02 
1974	 6.65323958543947E-02 
1975	 0.066558113197174 
1976	 6.65895710212617E-02 
1977	 6.66211276416434E-02 
1978	 6.66434273752196E-02 
1979	 6.66612322934929E-02 
1980	 6.66937008238863E-02 
1981	 6.67151881148586E-02 
1982	 0.066726903157253 
1983	 6.67493088904888E-02 
1984	 0.066771095897944 
1985	 6.67999768748607E-02 
1986	 6.68437270560567E-02 
1987	 6.68817155580428E-02 
1988	 6.69307246914063E-02 
1989	 6.69531744866583E-02 
1990	 6.69814192809268E-02 
1991	 6.70116703429364E-02 
1992	 6.70349508028613E-02 
1993	 6.70450621031078E-02 
1994	 6.70755353632855E-02 
1995	 6.71158670911416E-02 
1996	 6.71470652027832E-02 
1997	 6.71913024820348E-02 
1998	 6.72244414558912E-02 
1999	 6.72326912136724E-02 
2000	 6.72586738760927E-02 
2001	 6.72897645693364E-02 
2002	 6.73263417912181E-02 
2003	 0.067377168466163 
2004	 6.74316951348627E-02 
2005	 6.74756023731931E-02 
2006	 0.067522114427103 
2007	 0.06755836134384 
2008	 6.75748881268319E-02 
2009	 6.76133643504967E-02 
2010	 6.76644236004661E-02 
2011	 6.77043857939477E-02 
2012	 6.77561842724628E-02 
2013	 6.77899934178744E-02 
2014	 0.067799892800292 
2015	 6.78206094953167E-02 
2016	 6.78446899772735E-02 
2017	 6.78628565904847E-02 
2018	 6.78906281632884E-02 
2019	 6.79291720452954E-02 
2020	 6.79599894920138E-02 
2021	 6.79925474691255E-02 
2022	 0.06802089207089 
2023	 6.80353305208731E-02 
2024	 6.80726690838989E-02 
2025	 6.81190214097718E-02 
2026	 6.81661268730698E-02 
2027	 6.82403279946839E-02 
2028	 6.82905024045202E-02 
2029	 6.83421635478082E-02 
2030	 6.83944317054389E-02 
2031	 6.84297902908531E-02 
2032	 6.84510282515352E-02 
2033	 6.84798749807666E-02 
2034	 6.84952102438962E-02 
2035	 6.85186475527158E-02 
2036	 6.85565718657518E-02 
2037	 6.85834458327626E-02 
2038	 6.86044914260371E-02 
2039	 6.86220167648518E-02 
2040	 6.86359959946376E-02 
2041	 6.86433092011846E-02 
2042	 6.86548329578416E-02 
2043	 6.86727189144566E-02 
2044	 6.86843340418688E-02 
2045	 6.86906027951826E-02 
2046	 0.068713167093936 
2047	 6.87372160883957E-02 
2048	 6.87661905287906E-02 
2049	 6.88262331680351E-02 
2050	 6.88539252865567E-02 
2051	 6.88558099338818E-02 
2052	 6.88750464911714E-02 
2053	 6.88892169675645E-02 
2054	 6.89027416560136E-02 
2055	 0.068917854522546 
2056	 6.89488712988864E-02 
2057	 6.89724434408272E-02 
2058	 6.89905871119251E-02 
2059	 6.90112708125875E-02 
2060	 6.90417690392197E-02 
2061	 0.069059221384425 
2062	 6.90545510181866E-02 
2063	 6.90784103998178E-02 
2064	 6.91220851543623E-02 
2065	 6.91476194059498E-02 
2066	 6.91898563023515E-02 
2067	 6.92110340799966E-02 
2068	 6.91985627149874E-02 
2069	 6.92000826618589E-02 
2070	 6.92074105899599E-02 
2071	 6.92156800109745E-02 
2072	 6.92239630459486E-02 
2073	 6.92352707908595E-02 
2074	 6.92532479018945E-02 
2075	 6.92582367989894E-02 
2076	 6.92978655790514E-02 
2077	 6.93835667045161E-02 
2078	 6.94269124285929E-02 
2079	 0.069473091841115 
2080	 6.95080148768847E-02 
2081	 6.94999116981842E-02 
2082	 6.95173244677987E-02 
2083	 6.95476078016607E-02 
2084	 6.95850010620477E-02 
2085	 6.96103255826444E-02 
2086	 6.96427112666675E-02 
2087	 6.96539484446811E-02 
2088	 6.96373500496697E-02 
2089	 6.96521447000106E-02 
2090	 6.96729614589413E-02 
2091	 6.96928254602139E-02 
2092	 6.97361086097289E-02 
2093	 6.97604183042274E-02 
2094	 6.97630069403878E-02 
2095	 6.97786033868915E-02 
2096	 0.069799832079099 
2097	 6.98175388470029E-02 
2098	 6.98318958848706E-02 
2099	 6.98584344266982E-02 
2100	 6.98772396495235E-02 
2101	 6.98877302678279E-02 
2102	 6.99136475020782E-02 
2103	 0.069941736251615 
2104	 6.99808267178543E-02 
2105	 7.00390458025138E-02 
2106	 7.00818259431886E-02 
2107	 7.01397627191278E-02 
2108	 7.01689024149674E-02 
2109	 7.01619666537852E-02 
2110	 7.01814901013049E-02 
2111	 0.070191369449522 
2112	 7.02148403999626E-02 
2113	 7.02561753784916E-02 
2114	 7.03147136769209E-02 
2115	 7.03431687252608E-02 
2116	 7.03671494148718E-02 
2117	 7.03756166875007E-02 
2118	 7.03501971438086E-02 
2119	 7.03651301544107E-02 
2120	 7.03935533925668E-02 
2121	 7.04146741291865E-02 
2122	 7.04537188517166E-02 
2123	 7.04819480003485E-02 
2124	 7.05027239205801E-02 
2125	 7.05150718266351E-02 
2126	 7.05310439246479E-02 
2127	 7.05375284915677E-02 
2128	 7.05135491509508E-02 
2129	 7.05094527463113E-02 
2130	 7.05018989578853E-02 
2131	 7.05190699160993E-02 
2132	 7.05330425592221E-02 
2133	 7.05580509654182E-02 
2134	 7.05827413001137E-02 
2135	 7.06258469085356E-02 
2136	 7.06323400809706E-02 
2137	 7.06321491804171E-02 
2138	 7.06182368113603E-02 
2139	 7.05799158605969E-02 
2140	 7.05351868509552E-02 
2141	 7.04610358545402E-02 
2142	 7.04195802247955E-02 
2143	 7.03810348530916E-02 
2144	 7.03434083429985E-02 
2145	 0.070330955032575 
2146	 7.03151129306443E-02 
2147	 7.02982895855417E-02 
2148	 7.02585009267584E-02 
2149	 7.02553244008448E-02 
2150	 7.02856967413976E-02 
2151	 7.02776001512936E-02 
2152	 7.02725682682371E-02 
2153	 7.02517849514842E-02 
2154	 7.02042256711817E-02 
2155	 0.070160757284469 
2156	 7.01175508997604E-02 
2157	 7.00674600808386E-02 
2158	 7.00006618839277E-02 
2159	 6.99438616857532E-02 
2160	 6.98917935530622E-02 
2161	 6.98334185686231E-02 
2162	 0.06978556928267 
2163	 6.97200394189969E-02 
2164	 6.96291835347703E-02 
2165	 6.95563865966031E-02 
2166	 6.94764253732825E-02 
2167	 6.93749517311118E-02 
2168	 6.93130942523301E-02 
2169	 6.92820817971018E-02 
2170	 6.92214249848173E-02 
2171	 0.069152619237419 
2172	 0.069114056815946 
2173	 6.90775319692746E-02 
2174	 6.90391034682607E-02 
2175	 6.90396790780078E-02 
2176	 6.90101558063358E-02 
2177	 6.89429290795251E-02 
2178	 6.88991737410747E-02 
2179	 6.88745588744412E-02 
2180	 6.88323759190365E-02 
2181	 6.87818121066567E-02 
2182	 6.87352549919254E-02 
2183	 6.86822982308166E-02 
2184	 0.068630119684042 
2185	 6.85699747086173E-02 
2186	 6.85071049090145E-02 
2187	 0.068454054507093 
2188	 6.83891926015149E-02 
2189	 6.83451104269917E-02 
2190	 6.83256382443073E-02 
2191	 6.82924388749575E-02 
2192	 6.82671351259802E-02 
2193	 6.82254907389917E-02 
2194	 6.81527164415763E-02 
2195	 6.81232562737333E-02 
2196	 6.81107252128638E-02 
2197	 6.80940013877396E-02 
2198	 6.81068486445849E-02 
2199	 6.81102719663056E-02 
2200	 6.81065734164675E-02 
2201	 6.80947538995325E-02 
2202	 6.80822103001187E-02 
2203	 6.80711757140369E-02 
2204	 6.80574371826669E-02 
2205	 6.80297868940572E-02 
2206	 6.80144270927766E-02 
2207	 0.068006135854286 
2208	 6.80012731317408E-02 
2209	 6.80029770773034E-02 
2210	 6.79927267292972E-02 
2211	 6.79740819669976E-02 
2212	 6.79749083242643E-02 
2213	 6.79862447562737E-02 
2214	 6.79791437412482E-02 
2215	 6.79798969691871E-02 
2216	 6.79762644468467E-02 
2217	 6.79428526720449E-02 
2218	 6.79291164710712E-02 
2219	 6.79377825973587E-02 
2220	 6.79375741231546E-02 
2221	 6.79409774946274E-02 
2222	 6.79322987091587E-02 
2223	 6.79194686992425E-02 
2224	 6.79188207511358E-02 
2225	 6.79204938556054E-02 
2226	 6.79211542104248E-02 
2227	 6.79313123275744E-02 
2228	 6.79527509586548E-02 
2229	 6.79695483183507E-02 
2230	 6.79857060890808E-02 
2231	 6.80128522959095E-02 
2232	 6.80546755616144E-02 
2233	 6.80748033819052E-02 
2234	 6.80986432224699E-02 
2235	 6.81064967971392E-02 
2236	 6.80803313572403E-02 
2237	 6.80804017388836E-02 
2238	 6.80909301337346E-02 
2239	 6.80960069318628E-02 
2240	 6.81094284274778E-02 
2241	 6.81193113269498E-02 
2242	 6.81238854177724E-02 
2243	 6.81295269903686E-02 
2244	 6.81303761767075E-02 
2245	 6.81428366022996E-02 
2246	 6.81715105246248E-02 
2247	 6.81538366213202E-02 
2248	 6.81635717586093E-02 
2249	 6.81795358181365E-02 
2250	 6.81980310274328E-02 
2251	 6.82280615688507E-02 
2252	 6.82404456397153E-02 
2253	 6.82374753358606E-02 
2254	 6.82585126652357E-02 
2255	 6.82869906518476E-02 
2256	 6.82994423853653E-02 
2257	 6.83264812512128E-02 
2258	 6.83422826090588E-02 
2259	 6.83346204081547E-02 
2260	 6.83369147037292E-02 
2261	 6.83404186064777E-02 
2262	 6.83489907972836E-02 
2263	 6.83498024196748E-02 
2264	 6.83625679671652E-02 
2265	 6.84013694333432E-02 
2266	 6.84276601813587E-02 
2267	 6.84407922829773E-02 
2268	 6.84680345657588E-02 
2269	 6.85092063402644E-02 
2270	 6.85319093430178E-02 
2271	 6.85714233017498E-02 
2272	 0.068592298666427 
2273	 6.85827027413985E-02 
2274	 0.0685912273446 
2275	 6.86163875698532E-02 
2276	 6.86612784592707E-02 
2277	 6.86811124425852E-02 
2278	 6.87071549088457E-02 
2279	 6.87289555468378E-02 
2280	 6.87263293941344E-02 
2281	 0.068733395245556 
2282	 6.87713776600993E-02 
2283	 6.87626229334301E-02 
2284	 6.87080846314395E-02 
2285	 6.86960227716757E-02 
2286	 6.86737661214653E-02 
2287	 6.86728059658068E-02 
2288	 6.87040056571885E-02 
2289	 6.87277036108211E-02 
2290	 6.87698976230516E-02 
2291	 6.87884561583908E-02 
2292	 6.87877240666426E-02 
2293	 6.88139228236268E-02 
2294	 6.88493330686776E-02 
2295	 6.88645003813892E-02 
2296	 6.88984433939754E-02 
2297	 6.89015046271825E-02 
2298	 6.88943211805801E-02 
2299	 6.89039469925308E-02 
2300	 6.89378978818976E-02 
2301	 6.89898395534431E-02 
2302	 0.069000530140398 
2303	 6.89644580459835E-02 
2304	 6.89703938969336E-02 
2305	 6.90151072901438E-02 
2306	 6.90347955815054E-02 
2307	 6.90921497400933E-02 
2308	 6.91095633731907E-02 
2309	 6.90721220392146E-02 
2310	 0.069071724368985 
2311	 6.90957865169949E-02 
2312	 6.91034988682907E-02 
2313	 6.91080472379279E-02 
2314	 0.069113090261951 
2315	 6.90968629998033E-02 
2316	 6.91131500868578E-02 
2317	 6.91507482726524E-02 
2318	 6.91837338276343E-02 
2319	 6.92433382496555E-02 
2320	 6.92783707726483E-02 
2321	 6.92921448461038E-02 
2322	 6.93234641153327E-02 
2323	 6.93626923405164E-02 
2324	 6.93852908658757E-02 
2325	 6.94050792185976E-02 
2326	 6.94268246692113E-02 
2327	 6.94340083378676E-02 
2328	 6.94415644716778E-02 
2329	 6.95079592490934E-02 
2330	 6.95513345167535E-02 
2331	 6.95668513640423E-02 
2332	 6.96166010725277E-02 
2333	 6.96292001164058E-02 
2334	 6.96329302300892E-02 
2335	 6.96579738065384E-02 
2336	 6.96829624540914E-02 
2337	 6.97022575862588E-02 
2338	 6.97456059166653E-02 
2339	 6.98086129599366E-02 
2340	 6.98559227669653E-02 
2341	 6.98898476849344E-02 
2342	 6.99034221670083E-02 
2343	 6.98961285787932E-02 
2344	 6.98518165189119E-02 
2345	 6.98163560174152E-02 
2346	 6.97607730512485E-02 
2347	 6.97412280250769E-02 
2348	 6.97176409759699E-02 
2349	 6.97416644798965E-02 
2350	 6.98472181498757E-02 
2351	 6.98468918119348E-02 
2352	 6.98144306279125E-02 
2353	 0.069788755392306 
2354	 6.96830886218329E-02 
2355	 0.069633926833776 
2356	 6.96377215019064E-02 
2357	 6.96338441018011E-02 
2358	 6.96418239400461E-02 
2359	 6.96405406938669E-02 
2360	 6.96167347768502E-02 
2361	 0.069630806939626 
2362	 6.96820971756082E-02 
2363	 6.96918835835155E-02 
2364	 6.97316844656306E-02 
2365	 6.97363024067284E-02 
2366	 6.96618132046662E-02 
2367	 6.96300866602391E-02 
2368	 6.95981123567349E-02 
2369	 6.95987053068404E-02 
2370	 0.069633349899531 
2371	 6.96619467843702E-02 
2372	 6.96827527659613E-02 
2373	 6.96848014422522E-02 
2374	 6.96999370566188E-02 
2375	 6.96496732798953E-02 
2376	 6.95919428875622E-02 
2377	 6.96215163849322E-02 
2378	 6.96671024148196E-02 
2379	 6.97085736253134E-02 
2380	 6.97299408320232E-02 
2381	 0.069681131506326 
2382	 6.95651095294111E-02 
2383	 6.95201921619586E-02 
2384	 6.96536039577152E-02 
2385	 6.98432189362161E-02 
2386	 6.99593774645811E-02 
2387	 7.00224128449903E-02 
2388	 7.00123542881031E-02 
2389	 6.99586185163371E-02 
2390	 6.99753197325536E-02 
2391	 6.99570683438409E-02 
2392	 6.98139230170912E-02 
2393	 6.97604064742521E-02 
2394	 6.97337563755064E-02 
2395	 6.96738970828999E-02 
2396	 6.97317849183083E-02 
2397	 6.97621818135031E-02 
2398	 6.97129591811609E-02 
2399	 6.97257551580475E-02 
2400	 6.97910059371876E-02 
2401	 6.97754448112227E-02 
2402	 0.069843378739893 
2403	 6.99703195077359E-02 
2404	 6.99838270922491E-02 
2405	 7.00858672333251E-02 
2406	 7.00985574667166E-02 
2407	 6.99955232292064E-02 
2408	 0.06999701916193 
2409	 6.99460698271423E-02 
2410	 6.98929190613474E-02 
2411	 6.99024753277044E-02 
2412	 6.98717458093829E-02 
2413	 6.98116394986123E-02 
2414	 6.97558194567079E-02 
2415	 6.97326202899391E-02 
2416	 6.97093154682798E-02 
2417	 6.96587704402607E-02 
2418	 6.96798835586561E-02 
2419	 6.98205862458445E-02 
2420	 6.98156978892789E-02 
2421	 6.97537118516848E-02 
2422	 0.069777802647594 
2423	 6.97090694107701E-02 
2424	 6.96732254187895E-02 
2425	 6.98002553170089E-02 
2426	 6.97731266377351E-02 
2427	 6.96496159211003E-02 
2428	 6.95513310121007E-02 
2429	 6.93889673336786E-02 
2430	 6.93124200861601E-02 
2431	 6.92269980139288E-02 
2432	 6.92368513337375E-02 
2433	 6.93410643991559E-02 
2434	 6.93909059881415E-02 
2435	 6.95262130195328E-02 
2436	 6.95018839274524E-02 
2437	 0.06932988087505 
2438	 6.93495480839054E-02 
2439	 0.069379378613226 
2440	 6.94337247546598E-02 
2441	 6.96846477494352E-02 
2442	 6.97454617137697E-02 
2443	 6.96252803944214E-02 
2444	 0.06956488158393 
2445	 6.94852269364518E-02 
2446	 6.94284581199373E-02 
2447	 6.94840090316662E-02 
2448	 6.94548762895461E-02 
2449	 6.92829189292648E-02 
2450	 6.92966281085711E-02 
2451	 6.93024299824372E-02 
2452	 6.93097096218706E-02 
2453	 6.95175319117533E-02 
2454	 6.95588705594187E-02 
2455	 6.95710525631402E-02 
2456	 6.94643908787116E-02 
2457	 6.91813194249689E-02 
2458	 6.90607649620527E-02 
2459	 6.88436570446249E-02 
2460	 0.068754326411707 
2461	 6.88756433479214E-02 
2462	 6.89330804992315E-02 
2463	 6.90081215684663E-02 
2464	 6.90643288126354E-02 
2465	 6.91345941056732E-02 
2466	 6.91750820662904E-02 
2467	 6.91788180753501E-02 
2468	 6.91472800691779E-02 
2469	 0.069062035094896 
2470	 6.88760074706157E-02 
2471	 0.068918511374412 
2472	 6.88977811347335E-02 
2473	 6.88211943804308E-02 
2474	 6.89504374556816E-02 
2475	 6.90431731320059E-02 
2476	 6.91235872188616E-02 
2477	 6.92372580270193E-02 
2478	 0.069138846825835 
2479	 6.89971246629399E-02 
2480	 6.88368336108594E-02 
2481	 6.87029740894152E-02 
2482	 6.87484034541565E-02 
2483	 6.86993417341831E-02 
2484	 6.85463112308832E-02 
2485	 6.84340376921008E-02 
2486	 6.83608372664199E-02 
2487	 6.84339552138463E-02 
2488	 6.86558377101993E-02 
2489	 6.88062220925766E-02 
2490	 6.87602829731597E-02 
2491	 6.86924377618225E-02 
2492	 6.86983990448661E-02 
2493	 6.86329964789903E-02 
2494	 6.87291423873364E-02 
2495	 6.88036554665337E-02 
2496	 6.86256189242368E-02 
2497	 6.87128105948283E-02 
2498	 6.87451230799833E-02 
2499	 6.85840272656733E-02 
2500	 0.068597499772412 
