Wavelength	LMW_2400006.asd
350	 6.04902699225263E-02 
351	 5.75804381750843E-02 
352	 5.31878727650595E-02 
353	 4.90675205456813E-02 
354	 4.75647278926856E-02 
355	 0.04747013367947 
356	 0.048874555025186 
357	 5.16222371569629E-02 
358	 0.054463077203962 
359	 4.99461832556891E-02 
360	 4.24998559710821E-02 
361	 4.30212406357674E-02 
362	 4.31596486599144E-02 
363	 4.51447646330291E-02 
364	 4.86623150169584E-02 
365	 4.74198254594202E-02 
366	 4.79677622218699E-02 
367	 4.95114633569373E-02 
368	 4.99891589621525E-02 
369	 5.11529501336845E-02 
370	 4.91030802496708E-02 
371	 4.63450892087607E-02 
372	 4.89650254837559E-02 
373	 4.96349873069952E-02 
374	 4.79391194470034E-02 
375	 4.56851940176706E-02 
376	 0.046956374993954 
377	 4.57756088646085E-02 
378	 4.48775063069837E-02 
379	 4.76475484261525E-02 
380	 4.90743618512735E-02 
381	 4.78596048106741E-02 
382	 4.67708027276845E-02 
383	 5.06115014348532E-02 
384	 5.07262711853404E-02 
385	 4.82169371429801E-02 
386	 0.046351653599689 
387	 5.01084347255342E-02 
388	 5.05309613066477E-02 
389	 4.91005230525077E-02 
390	 4.98433172380721E-02 
391	 0.051497267700521 
392	 5.21280769422378E-02 
393	 5.13966940563931E-02 
394	 5.04559372041539E-02 
395	 5.19173704892998E-02 
396	 5.26173195416131E-02 
397	 5.13570751766323E-02 
398	 5.33377920759824E-02 
399	 5.45534857334838E-02 
400	 5.51491133572306E-02 
401	 5.62319691105548E-02 
402	 5.53485909498693E-02 
403	 5.47264222000546E-02 
404	 5.49037385584141E-02 
405	 5.45174864407338E-02 
406	 5.65945142096403E-02 
407	 5.80762398171659E-02 
408	 5.67815772148009E-02 
409	 5.53809703287738E-02 
410	 5.53005100780899E-02 
411	 5.60617317300109E-02 
412	 5.63951435931877E-02 
413	 5.71359689358417E-02 
414	 5.70882434036861E-02 
415	 5.63835593499723E-02 
416	 5.70194271638436E-02 
417	 5.68158236958042E-02 
418	 5.68188143673126E-02 
419	 5.78577112948137E-02 
420	 5.74107794568466E-02 
421	 5.64650027782518E-02 
422	 0.05613629039435 
423	 5.72853326827582E-02 
424	 5.77027587976047E-02 
425	 5.74640802390484E-02 
426	 5.69834515099496E-02 
427	 5.66410948018629E-02 
428	 5.63411651945137E-02 
429	 0.056218517212698 
430	 5.63955681291399E-02 
431	 5.67603653231982E-02 
432	 5.64092203306722E-02 
433	 5.57037615679649E-02 
434	 0.056144098035987 
435	 5.65017490221743E-02 
436	 5.66907325140657E-02 
437	 5.67416684983316E-02 
438	 5.62923222869083E-02 
439	 0.05632263006938 
440	 5.65566473226125E-02 
441	 5.62527246588833E-02 
442	 5.64838388966431E-02 
443	 5.69897938125394E-02 
444	 0.057354232557321 
445	 0.057113256815516 
446	 5.71878997685555E-02 
447	 0.057427194822078 
448	 5.74959114722464E-02 
449	 0.05773832399296 
450	 5.78682804288223E-02 
451	 5.78676232598343E-02 
452	 5.79417123876087E-02 
453	 5.77732512366831E-02 
454	 5.76124973002616E-02 
455	 0.057723179780256 
456	 5.82534770436192E-02 
457	 5.82972285286528E-02 
458	 5.79676436380993E-02 
459	 5.78480447715306E-02 
460	 5.80103714461562E-02 
461	 5.82431329868516E-02 
462	 5.83684213449514E-02 
463	 5.82937318649384E-02 
464	 5.84235782196616E-02 
465	 5.85506937922248E-02 
466	 5.84863096589067E-02 
467	 5.89119973312355E-02 
468	 0.058848366816366 
469	 5.85078674527355E-02 
470	 5.89838740202347E-02 
471	 5.89274659783353E-02 
472	 0.058769580632478 
473	 0.058909278000481 
474	 5.89657992100762E-02 
475	 5.89570637892366E-02 
476	 5.89111283288958E-02 
477	 5.89016869634404E-02 
478	 0.059197324430754 
479	 5.94604977099732E-02 
480	 5.94889094144208E-02 
481	 5.93322947969926E-02 
482	 5.92507891273084E-02 
483	 5.94383045867605E-02 
484	 5.98451122021521E-02 
485	 5.95825468266683E-02 
486	 5.95377823592322E-02 
487	 5.97664280942366E-02 
488	 5.96417050603079E-02 
489	 0.059794225372244 
490	 0.059895342412755 
491	 5.97272672913945E-02 
492	 5.97615056720787E-02 
493	 5.95996296974647E-02 
494	 5.94840539106288E-02 
495	 5.98402407374362E-02 
496	 6.00867343416397E-02 
497	 6.00839089827762E-02 
498	 5.99369629320035E-02 
499	 6.00322023518582E-02 
500	 6.01875548643964E-02 
501	 6.01658391426163E-02 
502	 5.99027091639149E-02 
503	 6.01919340914437E-02 
504	 6.02345941775587E-02 
505	 5.99873059406854E-02 
506	 6.01116952903464E-02 
507	 6.02395937406067E-02 
508	 6.03213330234547E-02 
509	 6.03747921388708E-02 
510	 6.04459348436745E-02 
511	 6.04617206215254E-02 
512	 6.04415319380129E-02 
513	 6.04631523145983E-02 
514	 6.06641122081118E-02 
515	 6.07249890927166E-02 
516	 6.05845462769632E-02 
517	 6.07081375976493E-02 
518	 6.07275065480541E-02 
519	 6.06718673962622E-02 
520	 6.06794888986698E-02 
521	 6.07616683508121E-02 
522	 6.07671610169427E-02 
523	 6.06915297728141E-02 
524	 6.06897908537565E-02 
525	 6.07454460674242E-02 
526	 6.08279269246259E-02 
527	 6.08933648117693E-02 
528	 6.08707261433531E-02 
529	 6.08658280307426E-02 
530	 6.09345522895167E-02 
531	 6.10790959804236E-02 
532	 6.11018194263328E-02 
533	 6.11237475632527E-02 
534	 6.12155239312644E-02 
535	 0.061241451076707 
536	 6.12840700966583E-02 
537	 0.061369672594473 
538	 6.14888275324278E-02 
539	 6.15567420478768E-02 
540	 6.15411924002898E-02 
541	 6.15200153908069E-02 
542	 6.17096342300113E-02 
543	 6.18266327251099E-02 
544	 0.061861559485226 
545	 6.18932893227563E-02 
546	 6.20326100227392E-02 
547	 6.20903535635619E-02 
548	 6.21074538114761E-02 
549	 6.23063479483297E-02 
550	 6.23666835554124E-02 
551	 6.24285250158039E-02 
552	 6.26146715865181E-02 
553	 6.27907906281037E-02 
554	 6.28969655891052E-02 
555	 6.30106979971767E-02 
556	 6.32518466660389E-02 
557	 6.33760953848815E-02 
558	 6.34624552687862E-02 
559	 6.35957946792593E-02 
560	 6.38137732503304E-02 
561	 6.39530326474826E-02 
562	 6.41189147589156E-02 
563	 0.064455286276954 
564	 0.064768061337459 
565	 6.50564971437752E-02 
566	 6.53370812416324E-02 
567	 6.56323851464789E-02 
568	 6.59883181394796E-02 
569	 6.62960237819476E-02 
570	 0.066479659673368 
571	 6.66794597462121E-02 
572	 6.70074685161153E-02 
573	 6.74000587960047E-02 
574	 0.067682787678242 
575	 0.068004886546704 
576	 6.84157579868737E-02 
577	 6.89065841424998E-02 
578	 6.93751189800535E-02 
579	 6.99039547060645E-02 
580	 7.04662470458006E-02 
581	 7.09936565897418E-02 
582	 7.14798607182573E-02 
583	 7.19455600893735E-02 
584	 7.24022589555906E-02 
585	 7.28410072689555E-02 
586	 7.34330843542367E-02 
587	 0.074076590495436 
588	 7.46351270833448E-02 
589	 7.52286630198583E-02 
590	 7.57751975637274E-02 
591	 7.62292940354485E-02 
592	 7.65917857579809E-02 
593	 7.69256479650647E-02 
594	 7.72321876218633E-02 
595	 7.75584894077981E-02 
596	 7.81147673697622E-02 
597	 7.87607870779485E-02 
598	 0.079416667969235 
599	 8.00490169008121E-02 
600	 8.07486960271758E-02 
601	 8.13515824832948E-02 
602	 8.17884736263018E-02 
603	 8.22063754564346E-02 
604	 8.26196991258225E-02 
605	 8.30539403829539E-02 
606	 8.35125870940042E-02 
607	 8.39010243069701E-02 
608	 8.42598733567814E-02 
609	 8.46102904913184E-02 
610	 8.49432262054186E-02 
611	 8.53221179184012E-02 
612	 8.57156579099494E-02 
613	 8.60718324892811E-02 
614	 8.63633634275519E-02 
615	 8.66043915590864E-02 
616	 0.086842346723344 
617	 8.71341668076234E-02 
618	 8.73741288469146E-02 
619	 8.75892957105942E-02 
620	 8.78058180340392E-02 
621	 8.80012317464431E-02 
622	 0.088193383720904 
623	 8.83842847658658E-02 
624	 8.85677172669515E-02 
625	 8.87292782576803E-02 
626	 8.88690167815128E-02 
627	 0.089000508891251 
628	 8.91520788820361E-02 
629	 8.93154720427341E-02 
630	 8.94811594813264E-02 
631	 8.96417326990447E-02 
632	 8.98099015380448E-02 
633	 8.99105929587802E-02 
634	 8.99839654316629E-02 
635	 9.01550289983225E-02 
636	 0.090300381837377 
637	 9.04316229520306E-02 
638	 9.05606170154588E-02 
639	 9.06322510834578E-02 
640	 9.07656936210965E-02 
641	 9.09407301307572E-02 
642	 9.10772215436387E-02 
643	 9.11985567710171E-02 
644	 9.13215904991363E-02 
645	 9.14568940683867E-02 
646	 9.16070739257869E-02 
647	 9.17132832186134E-02 
648	 0.091835323822406 
649	 9.20323238720321E-02 
650	 9.22127250850557E-02 
651	 9.23361205753319E-02 
652	 9.24419269160633E-02 
653	 9.26302058020075E-02 
654	 9.28172682709713E-02 
655	 9.29964039666754E-02 
656	 9.31742416117629E-02 
657	 9.33531994518654E-02 
658	 9.35443975509829E-02 
659	 9.37379881132688E-02 
660	 9.39188383433468E-02 
661	 9.41172463276021E-02 
662	 9.43337294329204E-02 
663	 9.45495753207423E-02 
664	 9.47210600252225E-02 
665	 9.49532530152633E-02 
666	 9.51792336200503E-02 
667	 9.53373779242604E-02 
668	 9.56030047305837E-02 
669	 9.58875316803054E-02 
670	 9.61404284282608E-02 
671	 9.63541354788407E-02 
672	 9.65916188671377E-02 
673	 9.68592303430711E-02 
674	 9.71399438312278E-02 
675	 9.73907605085106E-02 
676	 9.76220493258011E-02 
677	 0.09785985595221 
678	 9.81381026395776E-02 
679	 9.84795536941486E-02 
680	 9.88198980150779E-02 
681	 0.099117159641291 
682	 9.93686717164795E-02 
683	 9.96420358620187E-02 
684	 0.099949142412004 
685	 0.100276687354126 
686	 0.10058813738556 
687	 0.100893071527949 
688	 0.101208285783004 
689	 0.101549956635419 
690	 0.101869459488656 
691	 0.102194618276569 
692	 0.102545975086599 
693	 0.10291050892488 
694	 0.103256957117171 
695	 0.10358989345181 
696	 0.103930381936615 
697	 0.104301527872207 
698	 0.104657840502745 
699	 0.105003833464455 
700	 0.105398006793764 
701	 0.105771132055862 
702	 0.106127095778951 
703	 0.10648681571385 
704	 0.106874078335057 
705	 0.107248521063356 
706	 0.107606408669268 
707	 0.107964599910091 
708	 0.108336803162236 
709	 0.108706759115525 
710	 0.109077973983756 
711	 0.109490895169699 
712	 0.109847965113535 
713	 0.110179832357139 
714	 0.110537188651272 
715	 0.110893409618323 
716	 0.111242397904368 
717	 0.111588269984111 
718	 0.111939136989295 
719	 0.112265842857054 
720	 0.112569071890902 
721	 0.112858034867444 
722	 0.113145733793913 
723	 0.113463028495196 
724	 0.113800396730936 
725	 0.114126178849778 
726	 0.1143874687511 
727	 0.114630731227951 
728	 0.114872661882058 
729	 0.115097207504423 
730	 0.11530706568012 
731	 0.115529597530878 
732	 0.115759531679734 
733	 0.115898197839395 
734	 0.116054033400286 
735	 0.116236098527216 
736	 0.116408474731516 
737	 0.116540068018267 
738	 0.116654344911309 
739	 0.116762830958649 
740	 0.116858774580681 
741	 0.116938967171673 
742	 0.116993934457066 
743	 0.117022450908981 
744	 0.117044685482339 
745	 0.117075696797429 
746	 0.117112799470881 
747	 0.117135196827568 
748	 0.117074274836551 
749	 0.11700112603811 
750	 0.116951392925003 
751	 0.116901788102725 
752	 0.11685396766334 
753	 0.116808563085695 
754	 0.116754028560114 
755	 0.116643212771532 
756	 0.116503913933452 
757	 0.116379112453869 
758	 0.116299218393524 
759	 0.116148468602681 
760	 0.115970378850783 
761	 0.115807177721575 
762	 0.115677403621311 
763	 0.115494131448176 
764	 0.115295754687888 
765	 0.115128301350563 
766	 0.114972769484309 
767	 0.114757773035717 
768	 0.114537498359505 
769	 0.114403951748704 
770	 0.114223244423972 
771	 0.114003130776729 
772	 0.113775532326277 
773	 0.113582409271075 
774	 0.113347760830485 
775	 0.113106544724099 
776	 0.112890475496247 
777	 0.112651459519914 
778	 0.112421624365148 
779	 0.112206551634115 
780	 0.111996135508794 
781	 0.111763336783974 
782	 0.111559245449744 
783	 0.111371667730951 
784	 0.111120569629927 
785	 0.110865396402541 
786	 0.110620613651025 
787	 0.110393448264897 
788	 0.110201471734537 
789	 0.109970572752904 
790	 0.10972793833941 
791	 0.109516953458849 
792	 0.109238287728009 
793	 0.108986612727145 
794	 0.108784849539943 
795	 0.108584924614875 
796	 0.108367710036205 
797	 0.10814841666208 
798	 0.107937564841342 
799	 0.107724630262066 
800	 0.107515801837925 
801	 0.10730166461628 
802	 0.107080614182125 
803	 0.106900862561844 
804	 0.106706086045382 
805	 0.106492056561947 
806	 0.106292684118956 
807	 0.106147815461029 
808	 0.105977196544986 
809	 0.10576318192028 
810	 0.105584319219663 
811	 0.105406051526264 
812	 0.105219433016847 
813	 0.10502944626321 
814	 0.104862924742076 
815	 0.104717910988386 
816	 0.104575150549427 
817	 0.104415754199535 
818	 0.104268641763208 
819	 0.104118478398974 
820	 0.103949610738429 
821	 0.103756467229104 
822	 0.103625374026989 
823	 0.103499032919653 
824	 0.103349087108677 
825	 0.103231771853729 
826	 0.103112427166984 
827	 0.102990759428626 
828	 0.102873448450819 
829	 0.10275876247638 
830	 0.102646801375863 
831	 0.102532406271984 
832	 0.102420259800389 
833	 0.102394482596985 
834	 0.102334287512954 
835	 0.10219654071657 
836	 0.102034884663728 
837	 0.101962110768619 
838	 0.101940083111537 
839	 0.101906113869672 
840	 0.10180600355157 
841	 0.101718283708647 
842	 0.101655252184095 
843	 0.101604508488552 
844	 0.101538892963666 
845	 0.101507002505878 
846	 0.101455454355705 
847	 0.1013225011682 
848	 0.101277933397229 
849	 0.101253397256265 
850	 0.101222731989112 
851	 0.101206070806501 
852	 0.101180354921832 
853	 0.101144714453854 
854	 0.101102834944067 
855	 0.101060063439827 
856	 0.101065695183803 
857	 0.101088974241724 
858	 0.101097327769865 
859	 0.101108426328479 
860	 0.101102056165751 
861	 0.101101519760476 
862	 0.10112386630347 
863	 0.101082363747981 
864	 0.101110287098056 
865	 0.101181365726393 
866	 0.101181591783342 
867	 0.101164853152849 
868	 0.101149220984111 
869	 0.101158070754795 
870	 0.101217323660218 
871	 0.101302656923387 
872	 0.101396408542101 
873	 0.101472151700346 
874	 0.101489885521866 
875	 0.101523159628071 
876	 0.101538213831486 
877	 0.101527611980496 
878	 0.101624209521879 
879	 0.101749116992053 
880	 0.101838391941298 
881	 0.101873118337607 
882	 0.10199147895334 
883	 0.102096367606044 
884	 0.102168947578917 
885	 0.102239372287569 
886	 0.102317639180352 
887	 0.102419392904194 
888	 0.10254306651177 
889	 0.10267116297781 
890	 0.102782411045161 
891	 0.102917257711414 
892	 0.103050503951251 
893	 0.103078353459336 
894	 0.103164511697107 
895	 0.103306125757858 
896	 0.103472165331611 
897	 0.103646632565977 
898	 0.103768362671884 
899	 0.103918084129405 
900	 0.104128827953711 
901	 0.104193826970775 
902	 0.104357808179696 
903	 0.104575364086837 
904	 0.104732539244051 
905	 0.104870598297536 
906	 0.104987528566543 
907	 0.105126430647491 
908	 0.10533542521677 
909	 0.105591743422685 
910	 0.10576415792206 
911	 0.105923933276855 
912	 0.106228481564627 
913	 0.106422909741981 
914	 0.106624058802913 
915	 0.106864083967911 
916	 0.107075570593157 
917	 0.107266239244764 
918	 0.10748270740445 
919	 0.107733110979099 
920	 0.107974001224811 
921	 0.108171180888538 
922	 0.108380113455459 
923	 0.108630852265097 
924	 0.108892757251911 
925	 0.109162942168218 
926	 0.109437863659245 
927	 0.109705622076465 
928	 0.10993859448751 
929	 0.110171747480328 
930	 0.11049339673334 
931	 0.110900740578787 
932	 0.11116425362506 
933	 0.111480534536395 
934	 0.111745197317384 
935	 0.111906655062662 
936	 0.112320787429529 
937	 0.112668961769649 
938	 0.112960504686665 
939	 0.113296779169919 
940	 0.113691041713864 
941	 0.114017491816511 
942	 0.114289928143614 
943	 0.114584443996755 
944	 0.114961851754422 
945	 0.115288564140582 
946	 0.115624677709843 
947	 0.116050826025442 
948	 0.116314781836411 
949	 0.116595779924613 
950	 0.116967996783274 
951	 0.11739864675459 
952	 0.117682645773175 
953	 0.118071830260321 
954	 0.11855168897982 
955	 0.118952751690948 
956	 0.119232219449289 
957	 0.119676752066568 
958	 0.120157499986778 
959	 0.120386311526629 
960	 0.120779400565412 
961	 0.121175489326042 
962	 0.121586788545317 
963	 0.122095650188262 
964	 0.122382128193763 
965	 0.122725762856002 
966	 0.123190883107572 
967	 0.123661576334506 
968	 0.124087810400131 
969	 0.124532016303415 
970	 0.124933638511016 
971	 0.125212718573093 
972	 0.12572401442005 
973	 0.126159701818696 
974	 0.126478320781045 
975	 0.126853283258564 
976	 0.127350875042756 
977	 0.127835937149182 
978	 0.128231657372818 
979	 0.128543152430442 
980	 0.128898152420398 
981	 0.12925941652158 
982	 0.129691125453649 
983	 0.130255201519958 
984	 0.130654917384691 
985	 0.131024833081902 
986	 0.131400423974189 
987	 0.131785488756799 
988	 0.132408369091826 
989	 0.132904671228611 
990	 0.133172801449512 
991	 0.133365306188246 
992	 0.133943107628773 
993	 0.13438280952228 
994	 0.134738038439189 
995	 0.135215026793955 
996	 0.135386804841376 
997	 0.135776827135684 
998	 0.136281359213446 
999	 0.136667428607695 
1000	 0.137247540149875 
1001	 0.134807809972714 
1002	 0.135182344637737 
1003	 0.135486489274684 
1004	 0.13578590771345 
1005	 0.136126516932211 
1006	 0.136447615642294 
1007	 0.136714984771683 
1008	 0.137011636753847 
1009	 0.137342044590809 
1010	 0.13759805531995 
1011	 0.137867604050446 
1012	 0.138103815510831 
1013	 0.138310149173407 
1014	 0.138640799207427 
1015	 0.138965785924595 
1016	 0.139235442975785 
1017	 0.13949955593897 
1018	 0.139768935005251 
1019	 0.139966246197612 
1020	 0.140184517055132 
1021	 0.140378679481603 
1022	 0.140536722681392 
1023	 0.140756116672504 
1024	 0.140943879271013 
1025	 0.14114730271919 
1026	 0.141396861449769 
1027	 0.141625762333545 
1028	 0.141822223900734 
1029	 0.142033339092194 
1030	 0.142298847486494 
1031	 0.142511296337493 
1032	 0.142696465499136 
1033	 0.142872451925587 
1034	 0.143091384703216 
1035	 0.143233287261926 
1036	 0.14340032106259 
1037	 0.143635017580931 
1038	 0.143797598810664 
1039	 0.143983605019726 
1040	 0.144193125713709 
1041	 0.14439167034663 
1042	 0.144619563132952 
1043	 0.144798759551034 
1044	 0.144985656414084 
1045	 0.145165198742121 
1046	 0.145346354603696 
1047	 0.145546869372443 
1048	 0.145779027397139 
1049	 0.145971620548581 
1050	 0.146167017796634 
1051	 0.146293472618026 
1052	 0.146377409352668 
1053	 0.146531036697992 
1054	 0.146697446156149 
1055	 0.146863828627897 
1056	 0.147054842278601 
1057	 0.14723333151552 
1058	 0.147384672007967 
1059	 0.147558105849428 
1060	 0.147755265391032 
1061	 0.14792729200622 
1062	 0.148076322604094 
1063	 0.148245163747005 
1064	 0.148363806398381 
1065	 0.148481395000273 
1066	 0.148629594991966 
1067	 0.14874841689934 
1068	 0.148799107566316 
1069	 0.148821598449899 
1070	 0.148894421823908 
1071	 0.148951265546093 
1072	 0.149036804456162 
1073	 0.149218666500888 
1074	 0.149319317544639 
1075	 0.149388767408143 
1076	 0.149415175357421 
1077	 0.149472441541366 
1078	 0.149531768918486 
1079	 0.149596410185326 
1080	 0.149689184560489 
1081	 0.149733585759465 
1082	 0.149759967516595 
1083	 0.149818682344664 
1084	 0.149905862419058 
1085	 0.149963106272917 
1086	 0.150000981193907 
1087	 0.150065790779666 
1088	 0.150133524043783 
1089	 0.150199185158059 
1090	 0.150270802041678 
1091	 0.150362699039714 
1092	 0.150406790506579 
1093	 0.150434694722523 
1094	 0.150509498654025 
1095	 0.150600788065797 
1096	 0.150692801875617 
1097	 0.150775104831999 
1098	 0.150840280895883 
1099	 0.150857761367813 
1100	 0.150924398335305 
1101	 0.150998967401193 
1102	 0.151090654261036 
1103	 0.151212025012144 
1104	 0.151337290999863 
1105	 0.151422959799092 
1106	 0.151501898735458 
1107	 0.151589111504728 
1108	 0.151665979868294 
1109	 0.151773692006232 
1110	 0.151893937713095 
1111	 0.151998437914816 
1112	 0.152093303803769 
1113	 0.152199903419688 
1114	 0.152283947983482 
1115	 0.152411924566079 
1116	 0.152572629544743 
1117	 0.152725309344033 
1118	 0.152901507515305 
1119	 0.153080626393153 
1120	 0.153198155553339 
1121	 0.153309601955839 
1122	 0.153452090192772 
1123	 0.153608852185939 
1124	 0.153759334046234 
1125	 0.153948292367754 
1126	 0.154096879053119 
1127	 0.154207763830419 
1128	 0.154338281778625 
1129	 0.154471077978941 
1130	 0.154608567673998 
1131	 0.154740517423018 
1132	 0.154888152211241 
1133	 0.155055634384499 
1134	 0.155214107525412 
1135	 0.155386463892516 
1136	 0.155541765123906 
1137	 0.155669497849503 
1138	 0.155781904750776 
1139	 0.155908086664091 
1140	 0.156024821402556 
1141	 0.156144087189577 
1142	 0.156275139226099 
1143	 0.156399016486175 
1144	 0.15651787477309 
1145	 0.15662676984632 
1146	 0.156735351871998 
1147	 0.156836581429246 
1148	 0.156925794414047 
1149	 0.157012227889448 
1150	 0.15709127946039 
1151	 0.157171944687745 
1152	 0.157274848470081 
1153	 0.157364589417253 
1154	 0.157455913588998 
1155	 0.157561896671321 
1156	 0.157654234795245 
1157	 0.15773591493305 
1158	 0.157815580495508 
1159	 0.157895782469498 
1160	 0.157970859278723 
1161	 0.158037297642606 
1162	 0.15809971669702 
1163	 0.158147732163261 
1164	 0.158217781605092 
1165	 0.158304089122254 
1166	 0.158373870566892 
1167	 0.158456233944624 
1168	 0.158518377584874 
1169	 0.158577203060997 
1170	 0.15861711296049 
1171	 0.158663378451346 
1172	 0.158709937281001 
1173	 0.15875655098887 
1174	 0.158789142121116 
1175	 0.158836487475835 
1176	 0.158907135330484 
1177	 0.158953633571596 
1178	 0.158994734428816 
1179	 0.159030812407922 
1180	 0.159038224738363 
1181	 0.159067315683372 
1182	 0.15909787540688 
1183	 0.159147039531196 
1184	 0.159200405097387 
1185	 0.159273473724085 
1186	 0.159326402105122 
1187	 0.159375326542855 
1188	 0.159431019457468 
1189	 0.159487820712144 
1190	 0.159534583429035 
1191	 0.159588597278072 
1192	 0.159628586559487 
1193	 0.159641180225649 
1194	 0.159673898063855 
1195	 0.159719715832935 
1196	 0.159753774502577 
1197	 0.159778813190424 
1198	 0.159817566398985 
1199	 0.159859755671304 
1200	 0.159901693956928 
1201	 0.159937172761044 
1202	 0.159979385042941 
1203	 0.160022700954237 
1204	 0.160055684003545 
1205	 0.160093978662302 
1206	 0.160146805234774 
1207	 0.160189987559907 
1208	 0.160222044488996 
1209	 0.160259113755016 
1210	 0.160307384331421 
1211	 0.16034139397107 
1212	 0.160360628323404 
1213	 0.160388836217316 
1214	 0.16041786117215 
1215	 0.160442654731626 
1216	 0.160467329123762 
1217	 0.160496272936547 
1218	 0.160522657215612 
1219	 0.16053569341731 
1220	 0.160572421340017 
1221	 0.160629392232554 
1222	 0.160667858707555 
1223	 0.160708846015888 
1224	 0.160747682399816 
1225	 0.160778947958871 
1226	 0.160807700643725 
1227	 0.160834574324502 
1228	 0.160866005931579 
1229	 0.160887998511844 
1230	 0.160918941626985 
1231	 0.160966145672006 
1232	 0.161006344609091 
1233	 0.161045060770237 
1234	 0.161084366837934 
1235	 0.161118452454933 
1236	 0.161153592332524 
1237	 0.161175591991041 
1238	 0.161181262457869 
1239	 0.161202297047664 
1240	 0.161224530471288 
1241	 0.161242758568163 
1242	 0.161272847745688 
1243	 0.161291066445785 
1244	 0.161286229592348 
1245	 0.161299632370577 
1246	 0.161317778758473 
1247	 0.161341154606287 
1248	 0.161373252356415 
1249	 0.161415309681238 
1250	 0.161444871454446 
1251	 0.16146118378777 
1252	 0.161483183320763 
1253	 0.161493119674089 
1254	 0.161520864280523 
1255	 0.161566413137921 
1256	 0.161590042998267 
1257	 0.161606866882698 
1258	 0.161630389891867 
1259	 0.161643920473701 
1260	 0.161663530189643 
1261	 0.16170195344828 
1262	 0.161722493589244 
1263	 0.161721619337715 
1264	 0.161736336734996 
1265	 0.161757210940135 
1266	 0.161772269719625 
1267	 0.161778722661078 
1268	 0.161810419103188 
1269	 0.161834870026979 
1270	 0.161848163189095 
1271	 0.161885056454745 
1272	 0.161938726345277 
1273	 0.161990248019022 
1274	 0.162058219177979 
1275	 0.162110955270641 
1276	 0.162155593749757 
1277	 0.162208948505583 
1278	 0.16225781642614 
1279	 0.162311947155281 
1280	 0.162378815673729 
1281	 0.162439057097201 
1282	 0.162494396231779 
1283	 0.162552703024583 
1284	 0.162615581966798 
1285	 0.16267178545073 
1286	 0.162726798110917 
1287	 0.162783625187051 
1288	 0.16282755663151 
1289	 0.16286250842363 
1290	 0.162896776092315 
1291	 0.162929230970368 
1292	 0.162947029579465 
1293	 0.162960448135271 
1294	 0.162962658062498 
1295	 0.162944542496571 
1296	 0.162932088499337 
1297	 0.162917447618427 
1298	 0.162899337147366 
1299	 0.16289076510569 
1300	 0.162854853905645 
1301	 0.162789352599803 
1302	 0.162740542074889 
1303	 0.162687355394183 
1304	 0.162629714815077 
1305	 0.162567694411651 
1306	 0.162525790729192 
1307	 0.162461766444607 
1308	 0.162372708803792 
1309	 0.162291726314634 
1310	 0.162207748799864 
1311	 0.162128391654301 
1312	 0.162039116734114 
1313	 0.161972363173335 
1314	 0.161922759400782 
1315	 0.161868379132688 
1316	 0.161820089498064 
1317	 0.161770166887395 
1318	 0.161721150369241 
1319	 0.161675922343135 
1320	 0.161625911853239 
1321	 0.161590464828908 
1322	 0.161566153468785 
1323	 0.16153757956317 
1324	 0.161518808432142 
1325	 0.161529739790791 
1326	 0.161544310998982 
1327	 0.161562303422094 
1328	 0.161577479155963 
1329	 0.161591702199846 
1330	 0.161624261490004 
1331	 0.161659512082544 
1332	 0.161707117313906 
1333	 0.161784334860273 
1334	 0.161838711442552 
1335	 0.161875339156356 
1336	 0.161936531085626 
1337	 0.161995889720712 
1338	 0.162073148375264 
1339	 0.162182132660282 
1340	 0.162274307039819 
1341	 0.162369652372015 
1342	 0.162459412631882 
1343	 0.162534833673857 
1344	 0.162630484294949 
1345	 0.162721447862038 
1346	 0.162783858361341 
1347	 0.16285390819349 
1348	 0.162896400250282 
1349	 0.162920142270093 
1350	 0.162955775837763 
1351	 0.162991880561126 
1352	 0.163022275405514 
1353	 0.163061614444018 
1354	 0.163117828604099 
1355	 0.163145396089098 
1356	 0.163150821314783 
1357	 0.163181078885633 
1358	 0.163188076456409 
1359	 0.163246433487975 
1360	 0.163353856456295 
1361	 0.16344202217884 
1362	 0.163547240088116 
1363	 0.163648483374976 
1364	 0.163723324202379 
1365	 0.163834663878539 
1366	 0.163966651184689 
1367	 0.164113821513319 
1368	 0.164275223638607 
1369	 0.164425733887292 
1370	 0.164548877234409 
1371	 0.16465678943547 
1372	 0.164741468641739 
1373	 0.164817094109758 
1374	 0.164877623752645 
1375	 0.164935957383451 
1376	 0.164944397878766 
1377	 0.164923238485192 
1378	 0.164892716618857 
1379	 0.164799545079972 
1380	 0.1647609751428 
1381	 0.164719654902346 
1382	 0.164717383718332 
1383	 0.164761188124337 
1384	 0.164789183456903 
1385	 0.164858294020894 
1386	 0.16488423858255 
1387	 0.164882871387089 
1388	 0.164879600978686 
1389	 0.164864834428856 
1390	 0.16483498157874 
1391	 0.164797679339849 
1392	 0.164756979843752 
1393	 0.164675855887148 
1394	 0.164580749170652 
1395	 0.164473142833423 
1396	 0.164360455292281 
1397	 0.164286015960611 
1398	 0.164243201994484 
1399	 0.164170239320054 
1400	 0.164117006755375 
1401	 0.164036522570526 
1402	 0.163919715669015 
1403	 0.163827031253453 
1404	 0.163721930756854 
1405	 0.163650050601089 
1406	 0.163610812030402 
1407	 0.163545928510202 
1408	 0.163496846585465 
1409	 0.163439546377448 
1410	 0.163344364110394 
1411	 0.163281572681683 
1412	 0.163243801252822 
1413	 0.163192354851758 
1414	 0.163158283537981 
1415	 0.163145007382901 
1416	 0.163107717591285 
1417	 0.16307807827069 
1418	 0.163038470576891 
1419	 0.16299592153322 
1420	 0.162988993046881 
1421	 0.162978117442031 
1422	 0.162973991574861 
1423	 0.162969202159106 
1424	 0.162943964389633 
1425	 0.162893145909183 
1426	 0.162866266946118 
1427	 0.162828358307005 
1428	 0.162820246348166 
1429	 0.162841801834977 
1430	 0.162844321287905 
1431	 0.162860734892808 
1432	 0.16285467047454 
1433	 0.162821641358539 
1434	 0.16281283635669 
1435	 0.162798534656299 
1436	 0.162804178135401 
1437	 0.162842184080802 
1438	 0.162857695231052 
1439	 0.162877378081651 
1440	 0.162884001006412 
1441	 0.162872438746712 
1442	 0.162856225888966 
1443	 0.162836282038991 
1444	 0.162826652369171 
1445	 0.162850954388552 
1446	 0.162875501466909 
1447	 0.162886150271346 
1448	 0.162912012852278 
1449	 0.162914632921677 
1450	 0.162900819153695 
1451	 0.162902949205018 
1452	 0.162905935718856 
1453	 0.162926472043918 
1454	 0.162964202622187 
1455	 0.162990925434448 
1456	 0.163034440024842 
1457	 0.163055542085666 
1458	 0.16305212997018 
1459	 0.163069069068064 
1460	 0.163076659604025 
1461	 0.163108822111072 
1462	 0.16317224306389 
1463	 0.163208665203337 
1464	 0.163256575637722 
1465	 0.163284184848671 
1466	 0.163276674818404 
1467	 0.163290868017662 
1468	 0.163301427631431 
1469	 0.163324205235053 
1470	 0.163368560181477 
1471	 0.163397919434029 
1472	 0.163434811800677 
1473	 0.163476297991517 
1474	 0.163482896469885 
1475	 0.163502189176093 
1476	 0.163509141258726 
1477	 0.163507183446245 
1478	 0.163557324852304 
1479	 0.163602285683118 
1480	 0.163657140778765 
1481	 0.163734845873973 
1482	 0.163783555889684 
1483	 0.163814303169685 
1484	 0.163860437011167 
1485	 0.163897408583084 
1486	 0.163945345457374 
1487	 0.164007854078183 
1488	 0.164064612776178 
1489	 0.164128347419731 
1490	 0.16417339102986 
1491	 0.164214049167094 
1492	 0.164246819801021 
1493	 0.164252482283675 
1494	 0.164283545855853 
1495	 0.164324400895805 
1496	 0.16436219408651 
1497	 0.164413042800493 
1498	 0.164454356419937 
1499	 0.164494983692292 
1500	 0.164525132402618 
1501	 0.164545184331095 
1502	 0.16456916641818 
1503	 0.164583009561145 
1504	 0.164600059011629 
1505	 0.164642699672803 
1506	 0.164678691645225 
1507	 0.164717453444454 
1508	 0.164756572295344 
1509	 0.164776190195617 
1510	 0.164792335720016 
1511	 0.164799896610362 
1512	 0.164802333707151 
1513	 0.164803824477253 
1514	 0.164806528171999 
1515	 0.164827043039213 
1516	 0.164858404009417 
1517	 0.164893000004685 
1518	 0.164945071519219 
1519	 0.164984536459405 
1520	 0.165023039061225 
1521	 0.16505638829203 
1522	 0.165088365622422 
1523	 0.165112888585378 
1524	 0.165127027322242 
1525	 0.165148281930547 
1526	 0.165170861653027 
1527	 0.165188054044415 
1528	 0.16520108143328 
1529	 0.165222686333869 
1530	 0.165246066106912 
1531	 0.165263554372114 
1532	 0.165285371051346 
1533	 0.165306651727924 
1534	 0.165321714806017 
1535	 0.165336405325289 
1536	 0.165352870489301 
1537	 0.16537427775838 
1538	 0.165385282040887 
1539	 0.165409549709082 
1540	 0.165454505384363 
1541	 0.165486129940454 
1542	 0.165519454696485 
1543	 0.165550335364184 
1544	 0.165573302478229 
1545	 0.165597839277866 
1546	 0.165626613507037 
1547	 0.165645385279942 
1548	 0.165663516954119 
1549	 0.165671081410457 
1550	 0.165673008170381 
1551	 0.165691543337306 
1552	 0.165715043076604 
1553	 0.165736657638261 
1554	 0.165762092563132 
1555	 0.165776984804538 
1556	 0.165770225093781 
1557	 0.165768169267266 
1558	 0.165765306882628 
1559	 0.165744597078525 
1560	 0.165741598972746 
1561	 0.165746241335983 
1562	 0.165751551773886 
1563	 0.165767070717008 
1564	 0.165771904886169 
1565	 0.165769637152194 
1566	 0.165776118963804 
1567	 0.16577867416958 
1568	 0.165794589678173 
1569	 0.165831264863099 
1570	 0.165844988665705 
1571	 0.165852741817458 
1572	 0.165857214921718 
1573	 0.165852631736104 
1574	 0.165844827509638 
1575	 0.165831199771741 
1576	 0.165824974878588 
1577	 0.165809470480842 
1578	 0.165807059792804 
1579	 0.165818187249187 
1580	 0.165829855491198 
1581	 0.165851989109024 
1582	 0.16585960800041 
1583	 0.165859510129634 
1584	 0.165867524580715 
1585	 0.165871981007205 
1586	 0.165877532085591 
1587	 0.165892103305181 
1588	 0.165903482189922 
1589	 0.165902480051608 
1590	 0.16591257588214 
1591	 0.16594801062171 
1592	 0.165954612232194 
1593	 0.16594919589935 
1594	 0.165940743667239 
1595	 0.165899382918169 
1596	 0.165882529148401 
1597	 0.165887971686487 
1598	 0.165880330581758 
1599	 0.165873364027158 
1600	 0.165868150664265 
1601	 0.165835503265542 
1602	 0.165839381840983 
1603	 0.16588952600995 
1604	 0.165909273409342 
1605	 0.165932537939509 
1606	 0.165952368026644 
1607	 0.165957060539582 
1608	 0.165946027501247 
1609	 0.165963365140358 
1610	 0.1659677751974 
1611	 0.165951971498385 
1612	 0.165946860603331 
1613	 0.165940139445122 
1614	 0.165927299327996 
1615	 0.165909757043534 
1616	 0.165908712704585 
1617	 0.165924806763231 
1618	 0.165950519108327 
1619	 0.165987760063214 
1620	 0.166001697755134 
1621	 0.166016618658282 
1622	 0.166012577062078 
1623	 0.166022114845953 
1624	 0.166045188549953 
1625	 0.166040733070786 
1626	 0.166021122500401 
1627	 0.166014971346994 
1628	 0.165995302243523 
1629	 0.165994207532004 
1630	 0.166012296304398 
1631	 0.166012942838637 
1632	 0.166010903122444 
1633	 0.166008881754698 
1634	 0.165999562725142 
1635	 0.166001352052125 
1636	 0.166013372688261 
1637	 0.166007299355595 
1638	 0.166000747288422 
1639	 0.165985871749855 
1640	 0.165947255019341 
1641	 0.165936233726788 
1642	 0.165939535539778 
1643	 0.165931379837222 
1644	 0.165930892998778 
1645	 0.165922067301913 
1646	 0.16589891029463 
1647	 0.165889088119446 
1648	 0.165888492059185 
1649	 0.165878997322909 
1650	 0.165863297240939 
1651	 0.16586164471469 
1652	 0.165868405320049 
1653	 0.165861566162261 
1654	 0.165856068741155 
1655	 0.165854167670608 
1656	 0.165838866959131 
1657	 0.165836047555662 
1658	 0.165856492661302 
1659	 0.165852384545751 
1660	 0.165837829560658 
1661	 0.165820209689931 
1662	 0.165781979552466 
1663	 0.16577049268421 
1664	 0.165771168309608 
1665	 0.165764096750206 
1666	 0.16577298045376 
1667	 0.165765309155862 
1668	 0.165731910791417 
1669	 0.165727461092181 
1670	 0.165738059546372 
1671	 0.165739698152245 
1672	 0.165749469415826 
1673	 0.165758083691027 
1674	 0.165760355807478 
1675	 0.165765615431814 
1676	 0.16578055529703 
1677	 0.16578667015478 
1678	 0.16578525818934 
1679	 0.16578544724022 
1680	 0.165779812049603 
1681	 0.165786674651799 
1682	 0.165803724012865 
1683	 0.165807417009435 
1684	 0.165811978919273 
1685	 0.165816140222453 
1686	 0.165798497709043 
1687	 0.165811709539309 
1688	 0.165854123303197 
1689	 0.165875226014483 
1690	 0.165903051733198 
1691	 0.165918408102731 
1692	 0.165925285721118 
1693	 0.165916382684328 
1694	 0.165898931889184 
1695	 0.1658745834439 
1696	 0.165811383840089 
1697	 0.165794295569462 
1698	 0.165808323635541 
1699	 0.165798410259078 
1700	 0.165789552483218 
1701	 0.165794874275903 
1702	 0.165787101401239 
1703	 0.165798281047908 
1704	 0.165853050210285 
1705	 0.165868629921916 
1706	 0.165853935969286 
1707	 0.165867502348742 
1708	 0.165887022170432 
1709	 0.165901798772681 
1710	 0.165946022403024 
1711	 0.165944865700709 
1712	 0.165904705051621 
1713	 0.16588327946402 
1714	 0.165844045164158 
1715	 0.165826974715371 
1716	 0.165819688977584 
1717	 0.165825672707731 
1718	 0.16585536874354 
1719	 0.165858899065121 
1720	 0.165863215724966 
1721	 0.165865589259135 
1722	 0.165855965839136 
1723	 0.165840116643285 
1724	 0.165831347155285 
1725	 0.165804148975848 
1726	 0.165744649087172 
1727	 0.165716111025168 
1728	 0.165693124431526 
1729	 0.165677263333162 
1730	 0.165676606126064 
1731	 0.165674342556169 
1732	 0.165673899166683 
1733	 0.165680609136609 
1734	 0.1657097207826 
1735	 0.165692351734515 
1736	 0.165662322028878 
1737	 0.165615543650202 
1738	 0.16552687107762 
1739	 0.165470738261496 
1740	 0.165414256140948 
1741	 0.16537691212158 
1742	 0.165353306703128 
1743	 0.165337421184597 
1744	 0.165342850768153 
1745	 0.165325501192978 
1746	 0.165298436092888 
1747	 0.165285890558006 
1748	 0.165283435492354 
1749	 0.165258682302839 
1750	 0.165234498818547 
1751	 0.165211155780287 
1752	 0.165179147805392 
1753	 0.165164089969783 
1754	 0.165170051675261 
1755	 0.165145535961081 
1756	 0.165091719401144 
1757	 0.165064346699874 
1758	 0.165033779134758 
1759	 0.165016413617369 
1760	 0.165017056610803 
1761	 0.164989331816307 
1762	 0.164989115547437 
1763	 0.165006101761344 
1764	 0.165014847712746 
1765	 0.165028926566922 
1766	 0.165011970395499 
1767	 0.164975892220621 
1768	 0.164939405975597 
1769	 0.16492101493039 
1770	 0.164917544886508 
1771	 0.164916422329462 
1772	 0.16493076110078 
1773	 0.164935883410417 
1774	 0.164937248522634 
1775	 0.164941402121051 
1776	 0.16493558852001 
1777	 0.164944579781713 
1778	 0.164948713162236 
1779	 0.164906444196204 
1780	 0.164872828138184 
1781	 0.164868866856531 
1782	 0.164857604210159 
1783	 0.164880504242345 
1784	 0.164887384716883 
1785	 0.164856354450218 
1786	 0.164848215552152 
1787	 0.164864880479301 
1788	 0.164866945181801 
1789	 0.164867710536214 
1790	 0.164859838209426 
1791	 0.164841175579098 
1792	 0.164834556448348 
1793	 0.16483427086175 
1794	 0.164815795419656 
1795	 0.164780493222607 
1796	 0.164772495660112 
1797	 0.164760186181187 
1798	 0.164769312528869 
1799	 0.1648187723479 
1800	 0.164844921627963 
1801	 0.162940872622739 
1802	 0.163166845624189 
1803	 0.163384865168346 
1804	 0.163630310983087 
1805	 0.163854282190138 
1806	 0.164068175529774 
1807	 0.164303131414451 
1808	 0.164471115213343 
1809	 0.164594025750608 
1810	 0.164706633082801 
1811	 0.164783420259259 
1812	 0.164850831260139 
1813	 0.164903552399019 
1814	 0.164942771330761 
1815	 0.164975705433385 
1816	 0.164981048208099 
1817	 0.164987561446408 
1818	 0.164973624515213 
1819	 0.164978353369427 
1820	 0.164990322808817 
1821	 0.16499046071985 
1822	 0.164983312085145 
1823	 0.16501408726625 
1824	 0.165019258906363 
1825	 0.165006258428702 
1826	 0.16502099054057 
1827	 0.165005490088135 
1828	 0.164970701710171 
1829	 0.164908676492392 
1830	 0.164866500952298 
1831	 0.16480257028935 
1832	 0.164760307367479 
1833	 0.164753404640458 
1834	 0.16473930405442 
1835	 0.164727447214939 
1836	 0.164726825647578 
1837	 0.164737012284414 
1838	 0.164763974832022 
1839	 0.164800888889191 
1840	 0.164865837727577 
1841	 0.164914986437974 
1842	 0.164941420192471 
1843	 0.165003121200729 
1844	 0.165062280371087 
1845	 0.165094304860758 
1846	 0.165165740481001 
1847	 0.16523826872066 
1848	 0.165278439356608 
1849	 0.165329487910584 
1850	 0.165387535974758 
1851	 0.165455446818711 
1852	 0.165493238380278 
1853	 0.165522621725903 
1854	 0.165560715061871 
1855	 0.165556475272379 
1856	 0.165544661573851 
1857	 0.165556319657108 
1858	 0.165563355269014 
1859	 0.165594891992413 
1860	 0.165589063896701 
1861	 0.165576769590816 
1862	 0.165518161950365 
1863	 0.16543594115372 
1864	 0.16531339775214 
1865	 0.165170504193976 
1866	 0.16500444341412 
1867	 0.164858079569338 
1868	 0.164719581911194 
1869	 0.164596142486768 
1870	 0.16452767428588 
1871	 0.164472463513942 
1872	 0.164439375087386 
1873	 0.164419985647622 
1874	 0.164439209676627 
1875	 0.164504455059661 
1876	 0.164553859698723 
1877	 0.164609379322745 
1878	 0.164639103454692 
1879	 0.164594740644265 
1880	 0.164514222060926 
1881	 0.164384391122727 
1882	 0.164228595106349 
1883	 0.164034346196266 
1884	 0.163803731083071 
1885	 0.163548655512064 
1886	 0.163302764877649 
1887	 0.163022412728229 
1888	 0.162738803121089 
1889	 0.162435457447455 
1890	 0.162097204462639 
1891	 0.161754195648251 
1892	 0.161392382175706 
1893	 0.161012626992719 
1894	 0.160615418960367 
1895	 0.160220823643563 
1896	 0.159798217481979 
1897	 0.159332181506643 
1898	 0.158870010487318 
1899	 0.158418587744683 
1900	 0.157999500021014 
1901	 0.157620596402421 
1902	 0.157258639479123 
1903	 0.156942587979166 
1904	 0.15663362759536 
1905	 0.156340866531531 
1906	 0.156051750841791 
1907	 0.155796939057642 
1908	 0.15553872683703 
1909	 0.155277087118504 
1910	 0.155029929033284 
1911	 0.154793532011698 
1912	 0.154554043703019 
1913	 0.154329358714787 
1914	 0.154110940691351 
1915	 0.153911840676025 
1916	 0.153727667136946 
1917	 0.153550926358301 
1918	 0.153379881683634 
1919	 0.153238030399679 
1920	 0.153127636718322 
1921	 0.153028873256156 
1922	 0.152955080369088 
1923	 0.152911810952371 
1924	 0.152876854902218 
1925	 0.152858389192805 
1926	 0.152845317089451 
1927	 0.152858304566454 
1928	 0.152860030648914 
1929	 0.152837845183359 
1930	 0.152837223766991 
1931	 0.152846894875109 
1932	 0.152837719423059 
1933	 0.152846278582423 
1934	 0.152865932471221 
1935	 0.152890826541187 
1936	 0.152918542377666 
1937	 0.152954683506768 
1938	 0.152997677300721 
1939	 0.153048465615247 
1940	 0.153106118408269 
1941	 0.153171812894108 
1942	 0.153221733870572 
1943	 0.153299079625968 
1944	 0.153368777907458 
1945	 0.153425809263535 
1946	 0.153513928114327 
1947	 0.15364426203618 
1948	 0.153735894164155 
1949	 0.153822639737649 
1950	 0.153914654716233 
1951	 0.153999357134533 
1952	 0.154069833502456 
1953	 0.154153040310676 
1954	 0.154243319399028 
1955	 0.15431983420013 
1956	 0.154409057986847 
1957	 0.154509895697479 
1958	 0.154618397724223 
1959	 0.15473908536204 
1960	 0.154876115622258 
1961	 0.155012040494413 
1962	 0.155161697553131 
1963	 0.155316647754405 
1964	 0.155484639489456 
1965	 0.155638044778926 
1966	 0.15579495644374 
1967	 0.155921657418537 
1968	 0.156060155910971 
1969	 0.15618670159966 
1970	 0.156317537989745 
1971	 0.156463341011963 
1972	 0.156591495175981 
1973	 0.1566986698733 
1974	 0.156821065545692 
1975	 0.156950550180319 
1976	 0.157060946911823 
1977	 0.157204790295944 
1978	 0.157331223823313 
1979	 0.15742489943931 
1980	 0.157557473739915 
1981	 0.157688381929795 
1982	 0.157805314696235 
1983	 0.157946715704093 
1984	 0.158125958309676 
1985	 0.158280410120701 
1986	 0.158443661564791 
1987	 0.158592465643371 
1988	 0.158729257720396 
1989	 0.15885610181576 
1990	 0.158999475667015 
1991	 0.159109444838766 
1992	 0.159231954381101 
1993	 0.159363427198726 
1994	 0.159477980183253 
1995	 0.159579197032386 
1996	 0.159687642380111 
1997	 0.159796058306623 
1998	 0.159897017028937 
1999	 0.159977472884117 
2000	 0.160084585931376 
2001	 0.160200495723205 
2002	 0.160318296311812 
2003	 0.160443454922132 
2004	 0.160587343961297 
2005	 0.160724614037685 
2006	 0.160853358153431 
2007	 0.160988061575662 
2008	 0.161138390287115 
2009	 0.161278581372473 
2010	 0.161408871328833 
2011	 0.161548345376544 
2012	 0.161686549968164 
2013	 0.161829445634987 
2014	 0.161975424834282 
2015	 0.16213526678208 
2016	 0.162278929225029 
2017	 0.162413967166897 
2018	 0.162542543693553 
2019	 0.16266091517043 
2020	 0.162765659762012 
2021	 0.16285038643065 
2022	 0.162954488565894 
2023	 0.16305245268401 
2024	 0.163156945003451 
2025	 0.163282914273392 
2026	 0.163395427653805 
2027	 0.163512269445367 
2028	 0.163599038670613 
2029	 0.16369325722997 
2030	 0.163785512751834 
2031	 0.16388044544808 
2032	 0.163966001756338 
2033	 0.164058961939507 
2034	 0.164147610674826 
2035	 0.164255858901298 
2036	 0.164382754669102 
2037	 0.164495788658947 
2038	 0.16463463507371 
2039	 0.164741488052031 
2040	 0.164801345609831 
2041	 0.164894327377796 
2042	 0.164998966970965 
2043	 0.165079494379965 
2044	 0.16516862143772 
2045	 0.165277835147067 
2046	 0.165355732430776 
2047	 0.165401813483733 
2048	 0.165475980906041 
2049	 0.1655481329632 
2050	 0.165629897663145 
2051	 0.165731927653564 
2052	 0.16582330467254 
2053	 0.165915308612964 
2054	 0.166003026818992 
2055	 0.166085295150299 
2056	 0.16617594756188 
2057	 0.166250270287022 
2058	 0.166307582181619 
2059	 0.16638913219311 
2060	 0.166478236610896 
2061	 0.166554143780909 
2062	 0.166643803288068 
2063	 0.166717603950839 
2064	 0.166771386042252 
2065	 0.166826895352961 
2066	 0.166869212545599 
2067	 0.166929478320434 
2068	 0.166975862764973 
2069	 0.167061740975814 
2070	 0.167132279119705 
2071	 0.167220365029743 
2072	 0.167292002003012 
2073	 0.167355637415052 
2074	 0.167416134343507 
2075	 0.167464912422254 
2076	 0.167534779277769 
2077	 0.167614778329733 
2078	 0.167681816467838 
2079	 0.167769794728951 
2080	 0.167833287867091 
2081	 0.167854442866109 
2082	 0.16790390721236 
2083	 0.167953566837541 
2084	 0.168018476772889 
2085	 0.168083135130501 
2086	 0.168162508379765 
2087	 0.16823710193596 
2088	 0.168321116309222 
2089	 0.168378546523965 
2090	 0.168434481269766 
2091	 0.168477039160502 
2092	 0.168464612735744 
2093	 0.168513084794922 
2094	 0.168597779314873 
2095	 0.168664082454887 
2096	 0.168751424035955 
2097	 0.168834816326422 
2098	 0.168895914216049 
2099	 0.168978501465477 
2100	 0.169050000799004 
2101	 0.169132897996406 
2102	 0.169205724356068 
2103	 0.169256824122673 
2104	 0.169334230996101 
2105	 0.16942902368137 
2106	 0.169515963136152 
2107	 0.169612660740689 
2108	 0.16970114012268 
2109	 0.169784711261722 
2110	 0.169866402436572 
2111	 0.169930113093609 
2112	 0.170020110875733 
2113	 0.170120848808028 
2114	 0.170227602232846 
2115	 0.170335086983718 
2116	 0.170470833470469 
2117	 0.170565103117442 
2118	 0.170640792072407 
2119	 0.170715651045655 
2120	 0.170769855091171 
2121	 0.170837376567538 
2122	 0.170910888588716 
2123	 0.170973315243581 
2124	 0.171037458545492 
2125	 0.171090388506942 
2126	 0.171124509603191 
2127	 0.17116635501192 
2128	 0.171207208712975 
2129	 0.17124784608799 
2130	 0.1712788595305 
2131	 0.171332162781119 
2132	 0.171377721495503 
2133	 0.171435725602544 
2134	 0.171456428872519 
2135	 0.171466261337486 
2136	 0.171468632376352 
2137	 0.171430005993888 
2138	 0.171423313363185 
2139	 0.171448206315963 
2140	 0.171435107834343 
2141	 0.171416388947254 
2142	 0.171382238035323 
2143	 0.171307748340507 
2144	 0.171252786363125 
2145	 0.171204037885432 
2146	 0.171148953144436 
2147	 0.171105155519906 
2148	 0.171044329775993 
2149	 0.170974864575866 
2150	 0.170884948310171 
2151	 0.170820459307989 
2152	 0.170758418753105 
2153	 0.170693499044549 
2154	 0.170665009389722 
2155	 0.17057579178897 
2156	 0.170447979503249 
2157	 0.170327110556685 
2158	 0.170173117177277 
2159	 0.17003184195796 
2160	 0.169891817308349 
2161	 0.169757517173567 
2162	 0.169607854023309 
2163	 0.169482287698685 
2164	 0.169381163945867 
2165	 0.169283763479979 
2166	 0.169174838522283 
2167	 0.169086427866842 
2168	 0.168956250106736 
2169	 0.168784214972999 
2170	 0.168654831751359 
2171	 0.168515009903284 
2172	 0.168402435868261 
2173	 0.168334171005818 
2174	 0.168237324633648 
2175	 0.168135669808526 
2176	 0.168036990770034 
2177	 0.167941635758455 
2178	 0.167830966901617 
2179	 0.167714526655103 
2180	 0.167595130619311 
2181	 0.167448187747004 
2182	 0.167322678412553 
2183	 0.167206524606641 
2184	 0.167100113868573 
2185	 0.166992716303196 
2186	 0.166894640708039 
2187	 0.166794496876918 
2188	 0.166697792598427 
2189	 0.16659259179639 
2190	 0.1664812214217 
2191	 0.166385121572885 
2192	 0.166270908830121 
2193	 0.166195217474584 
2194	 0.166163095071401 
2195	 0.166108167533382 
2196	 0.16605614495324 
2197	 0.166016472011066 
2198	 0.165978167328576 
2199	 0.165935169921225 
2200	 0.165908868372648 
2201	 0.165875644646269 
2202	 0.165824240257418 
2203	 0.16578140791963 
2204	 0.165747357859695 
2205	 0.165722113778894 
2206	 0.165689277883579 
2207	 0.165653383066962 
2208	 0.165637331587489 
2209	 0.16563149292471 
2210	 0.165618130235101 
2211	 0.165602634325721 
2212	 0.165611429888859 
2213	 0.165637721334997 
2214	 0.165644198185894 
2215	 0.165676017038762 
2216	 0.165683747792138 
2217	 0.165641751393709 
2218	 0.165631814089442 
2219	 0.165643369281574 
2220	 0.165642482747179 
2221	 0.165641245891871 
2222	 0.165642667187915 
2223	 0.16565000526531 
2224	 0.165657824939501 
2225	 0.165661401335947 
2226	 0.165679361095944 
2227	 0.16567438640064 
2228	 0.165635801005874 
2229	 0.16564315351648 
2230	 0.165667561535809 
2231	 0.165682829206677 
2232	 0.165724985305683 
2233	 0.165745364834059 
2234	 0.16574152347947 
2235	 0.165754582738369 
2236	 0.165788779951929 
2237	 0.165793490122922 
2238	 0.165795998039982 
2239	 0.165773971017312 
2240	 0.165691762112774 
2241	 0.165659027540145 
2242	 0.165638145585102 
2243	 0.165627567891585 
2244	 0.16565977212094 
2245	 0.165680398588263 
2246	 0.165673229969553 
2247	 0.165637830704166 
2248	 0.165617337089088 
2249	 0.165577519360891 
2250	 0.165568980269636 
2251	 0.165578548424651 
2252	 0.165580481760189 
2253	 0.165585271011841 
2254	 0.165594601294264 
2255	 0.165610227056493 
2256	 0.165624613681399 
2257	 0.165658421880539 
2258	 0.165665149333669 
2259	 0.165638638850078 
2260	 0.165640070243067 
2261	 0.165641894729122 
2262	 0.165647237793099 
2263	 0.165655632696975 
2264	 0.165695538645365 
2265	 0.165764471094529 
2266	 0.165810880790268 
2267	 0.165889279800569 
2268	 0.165938836120893 
2269	 0.165954405033365 
2270	 0.165956504623288 
2271	 0.165986661897546 
2272	 0.165995802813222 
2273	 0.166031317413571 
2274	 0.166077122337461 
2275	 0.166131476454998 
2276	 0.16621583039065 
2277	 0.166256729287912 
2278	 0.166298697023694 
2279	 0.166305534926151 
2280	 0.16625213443789 
2281	 0.166247029915539 
2282	 0.166240341035223 
2283	 0.166256177236005 
2284	 0.166310152043993 
2285	 0.166339431733762 
2286	 0.166360607633839 
2287	 0.166388414751263 
2288	 0.166405214633539 
2289	 0.166444800165785 
2290	 0.166515558386787 
2291	 0.166565775162367 
2292	 0.166613793130002 
2293	 0.166661184301494 
2294	 0.16669856296867 
2295	 0.166732046475462 
2296	 0.166765222945798 
2297	 0.166802238840598 
2298	 0.166828352754809 
2299	 0.166853202367864 
2300	 0.166879787471012 
2301	 0.166911822944219 
2302	 0.166936832154817 
2303	 0.166966625772617 
2304	 0.16701307857489 
2305	 0.167029208315294 
2306	 0.16702961936362 
2307	 0.167000515386385 
2308	 0.167004811023283 
2309	 0.166990109482263 
2310	 0.167018227140538 
2311	 0.167110960997461 
2312	 0.167147210480839 
2313	 0.167177487156458 
2314	 0.167188722855831 
2315	 0.167152945362257 
2316	 0.167149504136606 
2317	 0.167149813683329 
2318	 0.167155551171398 
2319	 0.167188765051216 
2320	 0.167198461788987 
2321	 0.167184293828126 
2322	 0.167201978045772 
2323	 0.167214540449455 
2324	 0.167229886737731 
2325	 0.167262823471955 
2326	 0.167316176829597 
2327	 0.167346116979795 
2328	 0.167460408039998 
2329	 0.16763025865792 
2330	 0.1677538053738 
2331	 0.167812029610323 
2332	 0.167873109565241 
2333	 0.167925658382164 
2334	 0.167919705306128 
2335	 0.167975576464269 
2336	 0.168046704783777 
2337	 0.168052499481849 
2338	 0.168065526832525 
2339	 0.168086334325788 
2340	 0.168091939766282 
2341	 0.168109097575381 
2342	 0.168181916417192 
2343	 0.168257430194645 
2344	 0.168301792234009 
2345	 0.168311672536023 
2346	 0.16826225906555 
2347	 0.168272213523315 
2348	 0.168286263853827 
2349	 0.168298223734627 
2350	 0.16837698384274 
2351	 0.168371989465126 
2352	 0.168272539706338 
2353	 0.168247226664585 
2354	 0.168214868456213 
2355	 0.168209916077184 
2356	 0.168279879499249 
2357	 0.168288048735628 
2358	 0.168289032089451 
2359	 0.168270845343891 
2360	 0.16819469765191 
2361	 0.168162898768081 
2362	 0.168123064873724 
2363	 0.168093303612668 
2364	 0.168136976587854 
2365	 0.168102693348427 
2366	 0.167995539253757 
2367	 0.167967633328177 
2368	 0.167942755027105 
2369	 0.167909029170436 
2370	 0.167921252853189 
2371	 0.167920742555658 
2372	 0.167879804540543 
2373	 0.167818576024301 
2374	 0.167745979595259 
2375	 0.167721713046903 
2376	 0.16769794280766 
2377	 0.16759249947521 
2378	 0.167543903057018 
2379	 0.167551841424952 
2380	 0.167509207221334 
2381	 0.167469512008297 
2382	 0.167403400577461 
2383	 0.167316790800934 
2384	 0.167198523217929 
2385	 0.167110021526393 
2386	 0.167093279470771 
2387	 0.16697171464892 
2388	 0.16688013786339 
2389	 0.16690069753307 
2390	 0.16699310165078 
2391	 0.167102296044124 
2392	 0.167103544375524 
2393	 0.167108150242812 
2394	 0.166988239595378 
2395	 0.166802977644556 
2396	 0.166727365956386 
2397	 0.166655912477657 
2398	 0.166582667420861 
2399	 0.166503338338883 
2400	 0.166514761370456 
2401	 0.166507627257105 
2402	 0.166469500731187 
2403	 0.166490058253187 
2404	 0.166407794141401 
2405	 0.166303871242622 
2406	 0.166184931652478 
2407	 0.166030654433738 
2408	 0.165984711828784 
2409	 0.165910008446013 
2410	 0.165836401434189 
2411	 0.16586082924954 
2412	 0.165816463867375 
2413	 0.165773988088315 
2414	 0.16575905898584 
2415	 0.165661474200629 
2416	 0.16551819734669 
2417	 0.165266575804254 
2418	 0.165163114885719 
2419	 0.165044561559371 
2420	 0.164970396614087 
2421	 0.165041507023764 
2422	 0.164967633301957 
2423	 0.164829315048822 
2424	 0.164773766993876 
2425	 0.164678007562874 
2426	 0.164644800586854 
2427	 0.164718353240238 
2428	 0.164735006608345 
2429	 0.16474378867123 
2430	 0.164781404723497 
2431	 0.164813391560032 
2432	 0.164771461733817 
2433	 0.164747171668983 
2434	 0.16467067825818 
2435	 0.16449913662366 
2436	 0.164394144184852 
2437	 0.164306136835125 
2438	 0.164137367839138 
2439	 0.163929636210135 
2440	 0.16378486233189 
2441	 0.163570249228567 
2442	 0.163541401393757 
2443	 0.163692990748512 
2444	 0.163672015764461 
2445	 0.163680031596693 
2446	 0.163669462111579 
2447	 0.163578527888008 
2448	 0.163478765503008 
2449	 0.163362023153946 
2450	 0.163242670268126 
2451	 0.163063060259457 
2452	 0.162973037065039 
2453	 0.163013424492312 
2454	 0.162937130948903 
2455	 0.162753655577249 
2456	 0.162630134212315 
2457	 0.162520632049657 
2458	 0.16240151563327 
2459	 0.162278717792583 
2460	 0.162216115321328 
2461	 0.162213600466886 
2462	 0.162103135680843 
2463	 0.162037309053652 
2464	 0.161939530872749 
2465	 0.161632121721449 
2466	 0.161482131399632 
2467	 0.161448076575123 
2468	 0.161362849614983 
2469	 0.161300393827381 
2470	 0.161298738998922 
2471	 0.161232779511886 
2472	 0.161202707160235 
2473	 0.161255398954643 
2474	 0.161260630260837 
2475	 0.161350161952368 
2476	 0.161232051354381 
2477	 0.161010552270888 
2478	 0.160885103537491 
2479	 0.160632709215942 
2480	 0.160589047494337 
2481	 0.160703957900261 
2482	 0.160709242551475 
2483	 0.160707606111563 
2484	 0.160775378984681 
2485	 0.16082961070646 
2486	 0.160662229477694 
2487	 0.16046464517426 
2488	 0.160323113766036 
2489	 0.160083152312672 
2490	 0.159948248913032 
2491	 0.159898333569287 
2492	 0.159869382523022 
2493	 0.159813593343463 
2494	 0.159632435193298 
2495	 0.159626015919707 
2496	 0.159659947933076 
2497	 0.159610374968682 
2498	 0.159724093286073 
2499	 0.159833986062329 
2500	 0.159700496416534 
