Wavelength	LMW_1800001.asd
350	 0.057119816407475 
351	 6.03009183659901E-02 
352	 4.97741182172192E-02 
353	 3.79800592835368E-02 
354	 4.62556122123602E-02 
355	 5.07179511353392E-02 
356	 4.94573041753068E-02 
357	 4.75927018200818E-02 
358	 5.37766171366725E-02 
359	 5.23322156560587E-02 
360	 4.80331761009231E-02 
361	 5.63339451226554E-02 
362	 5.36825745595198E-02 
363	 4.78077763119018E-02 
364	 4.59098437778476E-02 
365	 4.83207707908196E-02 
366	 4.70516760436375E-02 
367	 4.68494438253277E-02 
368	 5.22965977559155E-02 
369	 5.34469094016117E-02 
370	 4.98675812557283E-02 
371	 4.68102250353718E-02 
372	 5.17941909073262E-02 
373	 5.22377641246662E-02 
374	 5.14382544549651E-02 
375	 5.20295896989144E-02 
376	 0.051877205599969 
377	 4.95873762159498E-02 
378	 0.049073346236438 
379	 5.33658906252052E-02 
380	 5.54602898455305E-02 
381	 5.43709989437932E-02 
382	 5.25759717780192E-02 
383	 5.44593112989162E-02 
384	 5.57317507687424E-02 
385	 0.054871819538058 
386	 5.28770511860282E-02 
387	 5.46798395376509E-02 
388	 5.67493501302452E-02 
389	 5.72709588158347E-02 
390	 5.57659518262175E-02 
391	 5.49351076541753E-02 
392	 0.055671309861415 
393	 5.74291230385349E-02 
394	 5.86008561333557E-02 
395	 5.89159467345291E-02 
396	 5.84376316552761E-02 
397	 5.78089426785644E-02 
398	 5.87102301240069E-02 
399	 5.98779194844172E-02 
400	 6.10927514290612E-02 
401	 6.21914560383872E-02 
402	 6.12047208284567E-02 
403	 6.04003365295629E-02 
404	 6.05138162043367E-02 
405	 6.05049976916848E-02 
406	 6.16497858671527E-02 
407	 6.23186081411082E-02 
408	 6.14271143854042E-02 
409	 6.04008066500431E-02 
410	 6.03998214729349E-02 
411	 6.08944324997654E-02 
412	 6.08014415994086E-02 
413	 6.17722172952677E-02 
414	 6.19373158978742E-02 
415	 6.10154973659347E-02 
416	 6.10671732624027E-02 
417	 6.11233262828107E-02 
418	 6.15069025461497E-02 
419	 6.24279669830905E-02 
420	 6.28992125293701E-02 
421	 6.24098769658012E-02 
422	 6.18535171697396E-02 
423	 6.27135400150143E-02 
424	 6.25481717057946E-02 
425	 0.062211611419619 
426	 0.062305010812875 
427	 6.21411165748861E-02 
428	 6.25867522687113E-02 
429	 6.29278662658412E-02 
430	 6.24115075436422E-02 
431	 6.27581153061749E-02 
432	 6.28073179916675E-02 
433	 6.24921296073692E-02 
434	 6.28624447582102E-02 
435	 6.29271914624399E-02 
436	 6.29403307854986E-02 
437	 6.31728564527244E-02 
438	 6.33300503655064E-02 
439	 0.063232757375217 
440	 6.31957874858941E-02 
441	 0.063632024669294 
442	 0.063519323704569 
443	 6.35829702083637E-02 
444	 6.39426302078806E-02 
445	 6.35374430665292E-02 
446	 6.34881420213338E-02 
447	 0.063795899751285 
448	 6.41070242896521E-02 
449	 6.40216782192346E-02 
450	 6.42225611581543E-02 
451	 6.47162129921296E-02 
452	 0.064928492402493 
453	 6.50220546858221E-02 
454	 6.49827316000732E-02 
455	 6.48888134621023E-02 
456	 6.51118956887199E-02 
457	 6.53119814579496E-02 
458	 6.53251253513539E-02 
459	 6.51544333131786E-02 
460	 6.53930221871893E-02 
461	 6.54454974122316E-02 
462	 6.52331335785282E-02 
463	 6.55429566663278E-02 
464	 6.57754201046588E-02 
465	 6.59744740017666E-02 
466	 6.62379850415162E-02 
467	 6.61614403261118E-02 
468	 6.59997799335536E-02 
469	 6.59544394228991E-02 
470	 6.61551405269832E-02 
471	 6.65997217981604E-02 
472	 6.69110212276729E-02 
473	 6.68791904628396E-02 
474	 6.67788048226387E-02 
475	 6.68127424352392E-02 
476	 6.69244704524177E-02 
477	 6.69598274035565E-02 
478	 0.067090454491172 
479	 6.71824965234043E-02 
480	 6.72534343895049E-02 
481	 6.75683114877503E-02 
482	 6.76847065676334E-02 
483	 6.78183764585896E-02 
484	 6.81699909511593E-02 
485	 6.80995202019715E-02 
486	 6.80558714502071E-02 
487	 6.81418813360947E-02 
488	 6.81671127105016E-02 
489	 6.84525256570831E-02 
490	 6.86746345178924E-02 
491	 6.86070743790031E-02 
492	 6.84892265614563E-02 
493	 6.85929154728318E-02 
494	 6.87702452346808E-02 
495	 6.87264678954996E-02 
496	 6.88054747140896E-02 
497	 6.89427705481695E-02 
498	 0.069074680842956 
499	 0.069199188782048 
500	 0.069342712376763 
501	 6.93921900465974E-02 
502	 6.92854279960095E-02 
503	 6.93401326768236E-02 
504	 6.94580246209892E-02 
505	 6.95947011121356E-02 
506	 6.97625440310416E-02 
507	 6.97727483652163E-02 
508	 6.98142471637759E-02 
509	 6.99833853420059E-02 
510	 6.99268976302261E-02 
511	 6.98285544156731E-02 
512	 0.069828795689517 
513	 0.07000188205346 
514	 7.00297581417055E-02 
515	 7.00928028385011E-02 
516	 7.02534551633246E-02 
517	 7.02725106063466E-02 
518	 7.03338290620115E-02 
519	 0.070376926183397 
520	 7.03333255805955E-02 
521	 7.05203518939492E-02 
522	 7.06560047125545E-02 
523	 7.06388147879562E-02 
524	 7.05912277741106E-02 
525	 7.06594036585561E-02 
526	 0.070740727414464 
527	 7.07432801883411E-02 
528	 7.08085447590583E-02 
529	 7.08709748890052E-02 
530	 7.09157708038896E-02 
531	 7.09637357762681E-02 
532	 7.10329138146197E-02 
533	 7.11165306510505E-02 
534	 0.071205966395652 
535	 7.13045575873408E-02 
536	 7.13496709813232E-02 
537	 7.13589584295096E-02 
538	 0.07138689882343 
539	 7.14877224405885E-02 
540	 7.15471362192599E-02 
541	 7.15528545082988E-02 
542	 7.16442413834023E-02 
543	 7.16877672352709E-02 
544	 7.17592578009769E-02 
545	 7.19237488482282E-02 
546	 7.19778496146493E-02 
547	 7.19896665676073E-02 
548	 7.20359981928937E-02 
549	 7.21830898829889E-02 
550	 7.22670091692999E-02 
551	 7.23380052028938E-02 
552	 7.24537348812268E-02 
553	 7.25957226928186E-02 
554	 0.072640233264974 
555	 7.26614225604381E-02 
556	 7.28116240172953E-02 
557	 7.28976614554566E-02 
558	 7.29732013216393E-02 
559	 7.30744193998648E-02 
560	 7.31547604048801E-02 
561	 7.32755648183603E-02 
562	 7.34025506135143E-02 
563	 7.34967035745819E-02 
564	 7.36905976520772E-02 
565	 7.38493127286524E-02 
566	 7.39776631752203E-02 
567	 7.42488749295291E-02 
568	 7.45020761730306E-02 
569	 7.47234329735233E-02 
570	 7.49026679790463E-02 
571	 7.48959406156215E-02 
572	 0.074978083567038 
573	 7.51944314772146E-02 
574	 7.54158159515387E-02 
575	 7.55657152881441E-02 
576	 7.57163665926383E-02 
577	 7.59024155233887E-02 
578	 7.59981389671921E-02 
579	 7.62180899514671E-02 
580	 7.65709987732471E-02 
581	 7.69672394349059E-02 
582	 7.73523198185645E-02 
583	 7.76619397815669E-02 
584	 0.077854250730514 
585	 7.79104260780625E-02 
586	 7.80475511190519E-02 
587	 7.82137986287929E-02 
588	 7.83107484121967E-02 
589	 7.84237048737191E-02 
590	 7.85814993401664E-02 
591	 7.87534671969434E-02 
592	 7.88617337935243E-02 
593	 7.89471751050936E-02 
594	 7.90763222360201E-02 
595	 7.92917718598285E-02 
596	 7.95669448541698E-02 
597	 7.98784902550149E-02 
598	 8.02004778558052E-02 
599	 8.05097412212849E-02 
600	 8.08083066830578E-02 
601	 8.10687960047581E-02 
602	 8.12635935122212E-02 
603	 8.13650195552931E-02 
604	 0.081453124525743 
605	 8.15723838822915E-02 
606	 8.17391928046399E-02 
607	 0.081902824989409 
608	 0.082080577408678 
609	 8.22576991507998E-02 
610	 8.23807684714614E-02 
611	 8.24944593302297E-02 
612	 8.26587466674917E-02 
613	 8.28743537737539E-02 
614	 8.29314916633208E-02 
615	 8.30228240914609E-02 
616	 8.31641076134464E-02 
617	 8.32526304905806E-02 
618	 8.33906210876879E-02 
619	 8.34809486198911E-02 
620	 8.34846017994374E-02 
621	 8.35408545771041E-02 
622	 8.36547658612113E-02 
623	 0.083769637144211 
624	 0.083817514180681 
625	 8.38817075955988E-02 
626	 8.39514330471465E-02 
627	 8.40261205749598E-02 
628	 8.41289272563538E-02 
629	 0.084196616196708 
630	 8.42585721480791E-02 
631	 8.43492663037768E-02 
632	 0.084413978519407 
633	 8.44886936959752E-02 
634	 8.45635830452301E-02 
635	 8.45948823431448E-02 
636	 8.46350429536182E-02 
637	 8.46920869089479E-02 
638	 8.47629550073078E-02 
639	 8.48429633104964E-02 
640	 8.48964810376388E-02 
641	 8.49454835106882E-02 
642	 8.50338079745691E-02 
643	 8.51434289900369E-02 
644	 8.52194910100613E-02 
645	 8.52532322504391E-02 
646	 8.53063380350362E-02 
647	 0.085351117110845 
648	 8.53927495340207E-02 
649	 8.54535078147895E-02 
650	 8.56001605242895E-02 
651	 8.56823006362235E-02 
652	 8.57031485283637E-02 
653	 8.57974765641136E-02 
654	 8.58747310359938E-02 
655	 0.085948354303696 
656	 0.086034144315053 
657	 8.61081345866868E-02 
658	 8.61791051305645E-02 
659	 8.62614572617953E-02 
660	 8.63640616080624E-02 
661	 8.64319863156285E-02 
662	 8.64932926975233E-02 
663	 8.65660980155988E-02 
664	 8.66417067774082E-02 
665	 8.67317946135787E-02 
666	 8.68071386132675E-02 
667	 8.68527955366344E-02 
668	 8.69577797019696E-02 
669	 8.70836258610113E-02 
670	 8.71964868016087E-02 
671	 0.087271689815954 
672	 8.73114664871246E-02 
673	 8.74066538666283E-02 
674	 8.75808496994517E-02 
675	 8.76696360644512E-02 
676	 8.77201580349359E-02 
677	 8.77943876015578E-02 
678	 8.79403671502429E-02 
679	 8.80306646402758E-02 
680	 8.81144330731979E-02 
681	 8.82184646363536E-02 
682	 8.83204108237677E-02 
683	 8.84046100593539E-02 
684	 8.85139956850031E-02 
685	 8.86673537462512E-02 
686	 8.87380043325456E-02 
687	 8.88217763163932E-02 
688	 8.89384510466014E-02 
689	 8.90511567799625E-02 
690	 8.91664648620483E-02 
691	 0.089262133786001 
692	 8.93397884613109E-02 
693	 8.94572935076955E-02 
694	 8.95580731820272E-02 
695	 8.96471234553224E-02 
696	 8.97484886953085E-02 
697	 8.98589510486787E-02 
698	 8.99687007490876E-02 
699	 9.00823245686388E-02 
700	 9.02179441284684E-02 
701	 9.03056292404164E-02 
702	 9.03895185163954E-02 
703	 9.05076306719007E-02 
704	 0.090612426459965 
705	 9.06904754445501E-02 
706	 0.090751249497996 
707	 9.08225610489145E-02 
708	 9.09624980646289E-02 
709	 9.10738276221619E-02 
710	 9.11411728714352E-02 
711	 9.12922236172698E-02 
712	 9.13840242489396E-02 
713	 9.14641287765819E-02 
714	 9.15952449350732E-02 
715	 9.16871453562091E-02 
716	 9.17602592528163E-02 
717	 9.18301260352959E-02 
718	 0.091905461422393 
719	 9.19717976138611E-02 
720	 9.20384302018372E-02 
721	 0.092108014638921 
722	 9.21621732464522E-02 
723	 9.22327941002042E-02 
724	 9.23199067394147E-02 
725	 9.24076516854094E-02 
726	 9.24656266954976E-02 
727	 9.25185805016413E-02 
728	 9.25754387481399E-02 
729	 9.26278585056261E-02 
730	 9.26827601698664E-02 
731	 9.27299626578191E-02 
732	 9.27674068222714E-02 
733	 9.28195982122099E-02 
734	 9.28765721752628E-02 
735	 9.29047963116475E-02 
736	 9.28804527051939E-02 
737	 9.28970982613735E-02 
738	 9.29263755814027E-02 
739	 9.29574199523657E-02 
740	 9.30066637582333E-02 
741	 9.30016641728867E-02 
742	 9.29880303019308E-02 
743	 9.30089860850487E-02 
744	 9.30324273540593E-02 
745	 9.30258481887084E-02 
746	 9.30260156578808E-02 
747	 9.30769490410154E-02 
748	 9.30135279652547E-02 
749	 9.29641424070263E-02 
750	 9.29799896672118E-02 
751	 9.29875787799007E-02 
752	 9.29846871625343E-02 
753	 9.29743414366247E-02 
754	 9.29575060046609E-02 
755	 9.29169561901896E-02 
756	 9.28830102395381E-02 
757	 9.28512498111503E-02 
758	 9.28082487256366E-02 
759	 9.28236349226449E-02 
760	 9.28031293234831E-02 
761	 9.27332302304838E-02 
762	 9.27177119895228E-02 
763	 0.092678336029818 
764	 9.26199420587847E-02 
765	 9.25701009441981E-02 
766	 9.25670233122491E-02 
767	 9.25595774882896E-02 
768	 9.25239127032192E-02 
769	 9.24595813284389E-02 
770	 9.24118123049805E-02 
771	 9.23788752755147E-02 
772	 9.23478528442344E-02 
773	 9.22988963621523E-02 
774	 9.22184371208908E-02 
775	 9.21466231658074E-02 
776	 9.21135921959381E-02 
777	 9.20945038834169E-02 
778	 9.20385139591853E-02 
779	 9.19667265084192E-02 
780	 9.19255705774216E-02 
781	 9.18781558743686E-02 
782	 9.18284968109263E-02 
783	 9.17781613608289E-02 
784	 9.17235736662844E-02 
785	 9.16703140006698E-02 
786	 9.16111372030218E-02 
787	 9.15477820707505E-02 
788	 9.15092521362279E-02 
789	 9.14816588984258E-02 
790	 9.14336985662945E-02 
791	 9.13408798705906E-02 
792	 0.091243878135984 
793	 9.11882521448681E-02 
794	 9.11674777407128E-02 
795	 9.11314150306924E-02 
796	 9.10879151942821E-02 
797	 0.091023874144307 
798	 9.09533975882641E-02 
799	 0.090946034778081 
800	 9.08916564688252E-02 
801	 9.08119926368751E-02 
802	 9.07599312012944E-02 
803	 9.07375908233643E-02 
804	 9.07107137456825E-02 
805	 9.06612327758999E-02 
806	 9.05916509951554E-02 
807	 9.05655792722257E-02 
808	 9.05401067118567E-02 
809	 9.04775946688507E-02 
810	 9.03665630076867E-02 
811	 9.03310093986937E-02 
812	 0.090306837828486 
813	 9.02357320922661E-02 
814	 9.01993445699753E-02 
815	 9.01653154566223E-02 
816	 9.01271765149935E-02 
817	 9.00905332742842E-02 
818	 0.09007083300721 
819	 0.090049483888504 
820	 9.00133009470448E-02 
821	 8.99592925184097E-02 
822	 8.99215916281605E-02 
823	 8.98799547834716E-02 
824	 8.98310253925997E-02 
825	 8.98129058726181E-02 
826	 8.97874292932985E-02 
827	 8.97355406820829E-02 
828	 8.96715614593285E-02 
829	 8.97015039894345E-02 
830	 0.089675406974582 
831	 8.96162540509079E-02 
832	 8.96148323349604E-02 
833	 8.96009984215398E-02 
834	 8.95519184953855E-02 
835	 8.94947536079846E-02 
836	 8.94944694657812E-02 
837	 8.95182174620552E-02 
838	 8.95120946459904E-02 
839	 8.94649179228396E-02 
840	 8.94427266212928E-02 
841	 8.94151371899595E-02 
842	 8.93954720046595E-02 
843	 8.93962979310472E-02 
844	 8.93947095320047E-02 
845	 8.93925898617949E-02 
846	 8.93703484635767E-02 
847	 0.089314889756125 
848	 0.089300426824252 
849	 8.92734243336519E-02 
850	 8.92442575504944E-02 
851	 0.089272417106211 
852	 8.92644992673387E-02 
853	 8.92540001471267E-02 
854	 0.089250649220487 
855	 8.92054168019519E-02 
856	 8.92423521810117E-02 
857	 8.92793771744309E-02 
858	 8.92423629791825E-02 
859	 8.92028029555073E-02 
860	 8.91849229547704E-02 
861	 8.91972818091701E-02 
862	 8.92249015952581E-02 
863	 8.91988978605185E-02 
864	 8.91869493297098E-02 
865	 8.92053803798818E-02 
866	 8.92299340342192E-02 
867	 8.92217793008502E-02 
868	 8.92061483217449E-02 
869	 8.92063755069453E-02 
870	 8.92321346097782E-02 
871	 8.92273762070492E-02 
872	 8.92767725570701E-02 
873	 8.93844014874029E-02 
874	 8.93940712276248E-02 
875	 8.93564758835024E-02 
876	 0.089315062962035 
877	 8.93051226225935E-02 
878	 8.93414635028266E-02 
879	 8.93790060746289E-02 
880	 8.93929871461767E-02 
881	 8.93888000390807E-02 
882	 8.94528801211664E-02 
883	 8.95018447149084E-02 
884	 8.95235884718074E-02 
885	 8.95470956818337E-02 
886	 8.95624982944584E-02 
887	 8.96035661726494E-02 
888	 8.96494846751641E-02 
889	 8.96439523558136E-02 
890	 8.96710221760637E-02 
891	 8.97433399887601E-02 
892	 8.98169952240289E-02 
893	 8.98016192613575E-02 
894	 8.98105306199313E-02 
895	 8.98593729331402E-02 
896	 8.99320048321703E-02 
897	 8.99943094713929E-02 
898	 0.090019418272188 
899	 9.00458172197426E-02 
900	 9.01044006420914E-02 
901	 9.01553064965831E-02 
902	 9.02156504375627E-02 
903	 9.02637231290565E-02 
904	 9.02797322506418E-02 
905	 9.02935680747349E-02 
906	 9.03435788357482E-02 
907	 9.04148594315787E-02 
908	 0.090470587339191 
909	 9.05157046374422E-02 
910	 9.05563816981013E-02 
911	 0.090619421192733 
912	 9.07230030438204E-02 
913	 9.07439216651827E-02 
914	 9.07727116366781E-02 
915	 9.08395793919022E-02 
916	 9.09050465644424E-02 
917	 9.09799393026089E-02 
918	 9.10440581764551E-02 
919	 9.10968257554352E-02 
920	 9.11597802461909E-02 
921	 9.11778569238285E-02 
922	 9.12250912550398E-02 
923	 9.13239264646924E-02 
924	 9.13925427123332E-02 
925	 9.14181656754416E-02 
926	 9.14782553915688E-02 
927	 9.15884632841034E-02 
928	 0.091618359604656 
929	 9.16472371661203E-02 
930	 9.17603356389018E-02 
931	 9.19469376851363E-02 
932	 9.19828199560544E-02 
933	 9.20555042653777E-02 
934	 9.21247736397127E-02 
935	 0.0921375440868 
936	 9.21931235593148E-02 
937	 9.23147854618811E-02 
938	 9.24330380772429E-02 
939	 9.24924537807512E-02 
940	 9.26105409672088E-02 
941	 9.26754043955118E-02 
942	 9.27423809630505E-02 
943	 0.092881689164886 
944	 9.29516563928117E-02 
945	 9.29684265497394E-02 
946	 9.30418796454298E-02 
947	 9.32253582266104E-02 
948	 9.31359525299181E-02 
949	 9.32173522164984E-02 
950	 9.33843408773113E-02 
951	 9.33648636180191E-02 
952	 9.34963193578322E-02 
953	 9.36064228215646E-02 
954	 9.36753253473578E-02 
955	 9.37780582842002E-02 
956	 9.39323343534079E-02 
957	 9.40281908433178E-02 
958	 9.40530842421521E-02 
959	 0.094079105220486 
960	 9.42292881995885E-02 
961	 9.44163681647742E-02 
962	 9.45454819302932E-02 
963	 9.45590714528263E-02 
964	 9.45430362940554E-02 
965	 9.46195902606008E-02 
966	 0.094749812656912 
967	 9.48200467690808E-02 
968	 9.50067578388807E-02 
969	 9.50175464244531E-02 
970	 9.49032736086621E-02 
971	 9.49482058810541E-02 
972	 9.51864574365469E-02 
973	 9.53523420923021E-02 
974	 9.54047877124627E-02 
975	 0.095472724713627 
976	 9.55655790606401E-02 
977	 9.57161047817418E-02 
978	 9.58527200886723E-02 
979	 9.58746373577134E-02 
980	 9.59075915754445E-02 
981	 9.59430386845329E-02 
982	 0.095953358868679 
983	 9.59416290516592E-02 
984	 0.096098294348562 
985	 9.62926555586423E-02 
986	 9.64229556571208E-02 
987	 9.64752370416997E-02 
988	 9.66958395860713E-02 
989	 9.67204491912129E-02 
990	 9.67030983629206E-02 
991	 9.69369161518188E-02 
992	 9.70034871339473E-02 
993	 9.68852341591589E-02 
994	 9.68268640717387E-02 
995	 9.70319608173418E-02 
996	 9.70687040674137E-02 
997	 9.71875408374815E-02 
998	 9.73814465638879E-02 
999	 9.75422068263471E-02 
1000	 9.76204841821744E-02 
1001	 9.69706707428318E-02 
1002	 9.70428408966636E-02 
1003	 9.70024826466111E-02 
1004	 9.70038063467542E-02 
1005	 9.69814715627028E-02 
1006	 9.70199812587774E-02 
1007	 9.71069370337013E-02 
1008	 9.71655237974659E-02 
1009	 9.71700431204793E-02 
1010	 9.72047863646271E-02 
1011	 0.097190699185384 
1012	 9.71985237097585E-02 
1013	 9.72680604678145E-02 
1014	 9.73883022589262E-02 
1015	 0.097559383435526 
1016	 0.097611523410158 
1017	 9.76295215915901E-02 
1018	 9.75911903655993E-02 
1019	 0.097598752435153 
1020	 9.75942451441275E-02 
1021	 9.75934044779952E-02 
1022	 0.09762403775877 
1023	 9.76299818285627E-02 
1024	 9.76262663750963E-02 
1025	 9.76778591008894E-02 
1026	 9.77753962617056E-02 
1027	 9.78601954041517E-02 
1028	 9.78758123665397E-02 
1029	 9.78748761979376E-02 
1030	 9.78750378721404E-02 
1031	 9.78827225275399E-02 
1032	 0.097889576313329 
1033	 9.79188318520086E-02 
1034	 9.79179623577538E-02 
1035	 9.79098327613393E-02 
1036	 9.78688193068907E-02 
1037	 9.78069758816544E-02 
1038	 9.77891549641041E-02 
1039	 9.77743987607575E-02 
1040	 9.77864364612523E-02 
1041	 0.097826807094758 
1042	 9.78652944122721E-02 
1043	 9.79094861372929E-02 
1044	 9.79445491857213E-02 
1045	 9.79790832714957E-02 
1046	 9.80180604854375E-02 
1047	 9.80265376499285E-02 
1048	 9.80084892085047E-02 
1049	 0.098023485547523 
1050	 9.80367431649563E-02 
1051	 9.80452859630275E-02 
1052	 9.80361666761295E-02 
1053	 0.098014983792563 
1054	 0.098054307533038 
1055	 9.80849056469485E-02 
1056	 9.81521050892678E-02 
1057	 9.82344647380578E-02 
1058	 9.83445595966274E-02 
1059	 0.098411194173365 
1060	 9.84746181197974E-02 
1061	 9.85487539942232E-02 
1062	 9.86088758979015E-02 
1063	 9.86799749024079E-02 
1064	 9.87303135948235E-02 
1065	 9.87870063545428E-02 
1066	 9.88270389216373E-02 
1067	 9.88554657674282E-02 
1068	 9.89294686949592E-02 
1069	 9.90139912149883E-02 
1070	 9.90740509417461E-02 
1071	 9.91356065988956E-02 
1072	 9.91870829047204E-02 
1073	 9.91787611306147E-02 
1074	 9.92349508186736E-02 
1075	 0.09932936959383 
1076	 9.94321314277827E-02 
1077	 0.099471772518914 
1078	 9.95606302359067E-02 
1079	 9.96805458246646E-02 
1080	 9.97013068849389E-02 
1081	 9.97270229492077E-02 
1082	 9.97812862460218E-02 
1083	 9.98266458441043E-02 
1084	 9.98149239204817E-02 
1085	 9.98682462292159E-02 
1086	 0.100010051361626 
1087	 0.100059538125843 
1088	 0.10007421907306 
1089	 0.100082229431402 
1090	 0.100076047240395 
1091	 0.100060170054421 
1092	 0.100095278131084 
1093	 0.100154680141168 
1094	 0.100212826317855 
1095	 0.100245253675509 
1096	 0.100298455460206 
1097	 0.100379972140897 
1098	 0.100417629234564 
1099	 0.100457479972374 
1100	 0.100468432386406 
1101	 0.100426101810868 
1102	 0.100408508350273 
1103	 0.100381417307033 
1104	 0.100373483154618 
1105	 0.10037528653 
1106	 0.100366743096592 
1107	 0.100383369678112 
1108	 0.100395959193137 
1109	 0.100404574207606 
1110	 0.100419579088931 
1111	 0.100424716948033 
1112	 0.100416281508711 
1113	 0.100409784762754 
1114	 0.100409553448134 
1115	 0.100401677271378 
1116	 0.100376556267252 
1117	 0.100361307506462 
1118	 0.100361878220915 
1119	 0.100335924941004 
1120	 0.100301371964719 
1121	 0.10028829325999 
1122	 0.10026298631185 
1123	 0.100243917419024 
1124	 0.100236561842797 
1125	 0.100239457073588 
1126	 0.100244047977523 
1127	 0.100264854714113 
1128	 0.100263328329776 
1129	 0.100256840576125 
1130	 0.100249591617124 
1131	 0.100229903622012 
1132	 0.100216585011069 
1133	 0.100197167517505 
1134	 0.100191224836858 
1135	 0.100199631388099 
1136	 0.100198657244834 
1137	 0.100194772370931 
1138	 0.100180297631045 
1139	 0.100164698663751 
1140	 0.100119616704296 
1141	 0.10011715980984 
1142	 0.10015513313844 
1143	 0.100150125589287 
1144	 0.100134529908952 
1145	 0.100125039239548 
1146	 0.100081659887201 
1147	 0.100070236582636 
1148	 0.100098776151093 
1149	 0.100105986106934 
1150	 0.100123409425495 
1151	 0.100111513034614 
1152	 0.10009281558155 
1153	 0.100081147012571 
1154	 0.100067570976298 
1155	 0.100044235172368 
1156	 0.100044593544857 
1157	 0.100058545707054 
1158	 0.100062605537642 
1159	 0.100088027313795 
1160	 0.100086843386146 
1161	 0.100046314216269 
1162	 0.100043806753246 
1163	 0.100062120926035 
1164	 0.100061136790991 
1165	 0.100059910532408 
1166	 0.100076749777619 
1167	 0.100072351379824 
1168	 0.100067184070558 
1169	 0.100070888865081 
1170	 0.100091410044616 
1171	 0.100099276366805 
1172	 0.100098757191037 
1173	 0.100105904663081 
1174	 0.100116439337911 
1175	 0.100126523661834 
1176	 0.100138934405314 
1177	 0.10014960300918 
1178	 0.100159793354803 
1179	 0.10017137804592 
1180	 0.100180509233295 
1181	 0.100193740421164 
1182	 0.100213427940177 
1183	 0.10022567356848 
1184	 0.100243473086579 
1185	 0.100266863150378 
1186	 0.100284392432881 
1187	 0.100297527668045 
1188	 0.100317758240745 
1189	 0.10033968055745 
1190	 0.100360561144688 
1191	 0.10038780779068 
1192	 0.100408607778228 
1193	 0.100415796462159 
1194	 0.100439739135694 
1195	 0.100474801348307 
1196	 0.100503856163398 
1197	 0.100546218164058 
1198	 0.10057691582642 
1199	 0.100600828682222 
1200	 0.100612952046985 
1201	 0.100630089695879 
1202	 0.100636524259596 
1203	 0.100664342248561 
1204	 0.10070929492212 
1205	 0.100733672242715 
1206	 0.100756392465106 
1207	 0.100784961299047 
1208	 0.100802714675884 
1209	 0.100825448808818 
1210	 0.100858257951238 
1211	 0.100892209261155 
1212	 0.100925569235815 
1213	 0.100954584806136 
1214	 0.100993933520085 
1215	 0.101024035476323 
1216	 0.101047426919993 
1217	 0.10105577201802 
1218	 0.101076115837215 
1219	 0.101100040911575 
1220	 0.10111723810772 
1221	 0.101127033659668 
1222	 0.101152035513457 
1223	 0.101182711559067 
1224	 0.101208219163387 
1225	 0.101250482840351 
1226	 0.101274181226707 
1227	 0.101277598538444 
1228	 0.101290872825277 
1229	 0.10129570027414 
1230	 0.101312699769315 
1231	 0.101344477451406 
1232	 0.101368054805898 
1233	 0.10139166839459 
1234	 0.101418969600663 
1235	 0.101447627407744 
1236	 0.10147133880266 
1237	 0.101501804268895 
1238	 0.101545203055067 
1239	 0.10157316446622 
1240	 0.101606007114452 
1241	 0.101614551630339 
1242	 0.101586078446466 
1243	 0.101595641740947 
1244	 0.101615175146644 
1245	 0.101625078179091 
1246	 0.101649828907931 
1247	 0.10167432362307 
1248	 0.101688173394295 
1249	 0.101696098013308 
1250	 0.101728283668637 
1251	 0.101780620341893 
1252	 0.101801767004361 
1253	 0.101808352677175 
1254	 0.101825713324994 
1255	 0.101836905187539 
1256	 0.101844632493428 
1257	 0.101861165780259 
1258	 0.101863986198371 
1259	 0.10184677370191 
1260	 0.101841577914901 
1261	 0.101841033229766 
1262	 0.101835705689324 
1263	 0.101823759290617 
1264	 0.101823007292465 
1265	 0.101829777974195 
1266	 0.101830803692573 
1267	 0.101843560495115 
1268	 0.101840559004349 
1269	 0.101841129721211 
1270	 0.101825656225277 
1271	 0.101839064227651 
1272	 0.101868002395591 
1273	 0.101888246974328 
1274	 0.101919990908914 
1275	 0.101945895361037 
1276	 0.10195842490436 
1277	 0.101988590911525 
1278	 0.102028182051226 
1279	 0.102070175156602 
1280	 0.10212226221901 
1281	 0.102173143917892 
1282	 0.102223130537789 
1283	 0.102280844905248 
1284	 0.102346826282661 
1285	 0.102409276268197 
1286	 0.10247221895185 
1287	 0.102529242891914 
1288	 0.102591102002935 
1289	 0.102641250622432 
1290	 0.102713629580586 
1291	 0.102797638666156 
1292	 0.102889340058909 
1293	 0.103006580261052 
1294	 0.10309418703369 
1295	 0.103171897147905 
1296	 0.103256806805124 
1297	 0.103325642653511 
1298	 0.103404171918693 
1299	 0.103495880172872 
1300	 0.103587191536975 
1301	 0.103684447932572 
1302	 0.103769410415756 
1303	 0.103864351517326 
1304	 0.103929958131391 
1305	 0.103991822613843 
1306	 0.104060318873294 
1307	 0.104129984071479 
1308	 0.104203408754114 
1309	 0.104256453792106 
1310	 0.10429447961689 
1311	 0.10434031640804 
1312	 0.104372299041775 
1313	 0.104413609938708 
1314	 0.10447529526718 
1315	 0.104509744542339 
1316	 0.104525134476648 
1317	 0.10455378372063 
1318	 0.104578834999088 
1319	 0.104595937391916 
1320	 0.10461599845481 
1321	 0.104632787791917 
1322	 0.104636221101628 
1323	 0.104646826726054 
1324	 0.104665140948358 
1325	 0.104683242222395 
1326	 0.1046807800569 
1327	 0.104657890502555 
1328	 0.104624602791662 
1329	 0.104598212770832 
1330	 0.104585502266897 
1331	 0.104592103313846 
1332	 0.104576568300129 
1333	 0.104565623890582 
1334	 0.104537088062523 
1335	 0.104478364233082 
1336	 0.104452996872826 
1337	 0.104437792934472 
1338	 0.104420384108837 
1339	 0.104428379329011 
1340	 0.104407203372933 
1341	 0.104363613174844 
1342	 0.104328345716931 
1343	 0.104279991116732 
1344	 0.104246339100716 
1345	 0.104223651775617 
1346	 0.10419215603719 
1347	 0.10415612382401 
1348	 0.104104714389658 
1349	 0.10403204103371 
1350	 0.10396614182474 
1351	 0.103899822948136 
1352	 0.103825550068106 
1353	 0.103763543801553 
1354	 0.103714428537486 
1355	 0.103646737325025 
1356	 0.10357341591905 
1357	 0.103508182438707 
1358	 0.103423760739004 
1359	 0.103368009410388 
1360	 0.103327079690629 
1361	 0.10329719956428 
1362	 0.103295578190659 
1363	 0.103276113451677 
1364	 0.103243190744595 
1365	 0.103239220181697 
1366	 0.103243028226182 
1367	 0.103246696121614 
1368	 0.103283889780402 
1369	 0.10332040099802 
1370	 0.103340681947802 
1371	 0.103366442667641 
1372	 0.103375410033709 
1373	 0.103366031931668 
1374	 0.103349425901859 
1375	 0.10331925035481 
1376	 0.103273757196749 
1377	 0.103217523422944 
1378	 0.103152010203694 
1379	 0.103057001573131 
1380	 0.102982876513681 
1381	 0.102895888215593 
1382	 0.10284257331242 
1383	 0.102807968231759 
1384	 0.102780848069269 
1385	 0.102782470368209 
1386	 0.102777676780929 
1387	 0.102781897184218 
1388	 0.102776915826625 
1389	 0.102773487135124 
1390	 0.10276934853047 
1391	 0.102734851712612 
1392	 0.102693365680878 
1393	 0.102634096178822 
1394	 0.102564221198052 
1395	 0.102512104167945 
1396	 0.102454593207003 
1397	 0.102412744385673 
1398	 0.102388746948217 
1399	 0.102351913127556 
1400	 0.102319277843138 
1401	 0.102282943337312 
1402	 0.102230690683733 
1403	 0.102200092219139 
1404	 0.10217683384193 
1405	 0.102161193780091 
1406	 0.102170574178038 
1407	 0.102155733471211 
1408	 0.102130609585364 
1409	 0.102113831783632 
1410	 0.102078269201704 
1411	 0.102067548963538 
1412	 0.102076025729687 
1413	 0.102084201969116 
1414	 0.102106146297556 
1415	 0.102130186005127 
1416	 0.102136498667929 
1417	 0.102151741144331 
1418	 0.10216559333273 
1419	 0.102169450137031 
1420	 0.102187294708478 
1421	 0.102203836095017 
1422	 0.102219375881368 
1423	 0.102242438436125 
1424	 0.102261010607337 
1425	 0.102282696853204 
1426	 0.102302858639792 
1427	 0.102315207103081 
1428	 0.102338977573633 
1429	 0.102371209899244 
1430	 0.102398642614084 
1431	 0.102434267309528 
1432	 0.102455736838393 
1433	 0.102466956172887 
1434	 0.102483088457388 
1435	 0.102484724829911 
1436	 0.102507178336145 
1437	 0.102552491083627 
1438	 0.102579476328429 
1439	 0.102607939470387 
1440	 0.1026327993228 
1441	 0.102636559955886 
1442	 0.102655351104736 
1443	 0.102688122149139 
1444	 0.102707050794773 
1445	 0.10274947481569 
1446	 0.10278555180475 
1447	 0.102805697339956 
1448	 0.102843756476784 
1449	 0.102857565406993 
1450	 0.102854165455189 
1451	 0.102871770240803 
1452	 0.102889989599348 
1453	 0.10291687151944 
1454	 0.102965939500569 
1455	 0.10299336913403 
1456	 0.103020195210998 
1457	 0.103032507819634 
1458	 0.103022309182257 
1459	 0.103029428726472 
1460	 0.103029493718569 
1461	 0.103044788002219 
1462	 0.10308277007863 
1463	 0.103104092022575 
1464	 0.103124226961696 
1465	 0.103140261575441 
1466	 0.103144989719843 
1467	 0.10315760301898 
1468	 0.103172320758855 
1469	 0.103190415985612 
1470	 0.103214314998944 
1471	 0.103231923251108 
1472	 0.103255530553458 
1473	 0.103273548062723 
1474	 0.103284729552205 
1475	 0.103307257899978 
1476	 0.103331633398484 
1477	 0.103359622909854 
1478	 0.103387821631317 
1479	 0.103413902830439 
1480	 0.103450975208982 
1481	 0.103476942365668 
1482	 0.103497298298878 
1483	 0.103516295830307 
1484	 0.103538279924327 
1485	 0.103549463114291 
1486	 0.103570671136389 
1487	 0.103595465402091 
1488	 0.10362832161643 
1489	 0.10367006027547 
1490	 0.103701798750874 
1491	 0.103746756411101 
1492	 0.103776128624273 
1493	 0.103778367981127 
1494	 0.103804978407257 
1495	 0.103844163146256 
1496	 0.103871271746441 
1497	 0.103901636164064 
1498	 0.103931159045828 
1499	 0.103959868022929 
1500	 0.103978220243537 
1501	 0.10399289210325 
1502	 0.104010306341906 
1503	 0.10401874500264 
1504	 0.104022595123317 
1505	 0.104046902671766 
1506	 0.104051419028782 
1507	 0.104061352359513 
1508	 0.104075704873251 
1509	 0.104089971073435 
1510	 0.104117782112771 
1511	 0.104133528450493 
1512	 0.104151522187213 
1513	 0.10416226090301 
1514	 0.10417572494557 
1515	 0.10421332535793 
1516	 0.104239617342678 
1517	 0.104257485405764 
1518	 0.104276930467203 
1519	 0.104292003510003 
1520	 0.104283236191429 
1521	 0.10430622281744 
1522	 0.104352303504134 
1523	 0.104378922128516 
1524	 0.104414203336713 
1525	 0.104434981019625 
1526	 0.104439513156587 
1527	 0.104445347711838 
1528	 0.104440432082839 
1529	 0.104450881382168 
1530	 0.104463203896578 
1531	 0.104479707647001 
1532	 0.104512699920838 
1533	 0.104533314868182 
1534	 0.104549186742197 
1535	 0.104562484525507 
1536	 0.104572010537742 
1537	 0.104585075190716 
1538	 0.104592489210543 
1539	 0.104606131508972 
1540	 0.104623544344218 
1541	 0.104639363592497 
1542	 0.10466048305023 
1543	 0.104676617090317 
1544	 0.104691998233319 
1545	 0.104707451354632 
1546	 0.104714535714322 
1547	 0.104730364869465 
1548	 0.104759711252401 
1549	 0.104783436470631 
1550	 0.104799269312151 
1551	 0.104814940936331 
1552	 0.104827279473792 
1553	 0.104835929670483 
1554	 0.104851381604625 
1555	 0.104868968094858 
1556	 0.104875382075887 
1557	 0.104881194768026 
1558	 0.104897335720748 
1559	 0.104902473698448 
1560	 0.104899992889992 
1561	 0.104887353623302 
1562	 0.104883950265689 
1563	 0.104875548266091 
1564	 0.104872570467378 
1565	 0.10487649090925 
1566	 0.104884638047676 
1567	 0.104888582693601 
1568	 0.104906170639878 
1569	 0.104945169610368 
1570	 0.104960401841174 
1571	 0.104971515627206 
1572	 0.104977459339126 
1573	 0.104965735849701 
1574	 0.104971588402101 
1575	 0.104982937411849 
1576	 0.104992311186586 
1577	 0.105009605046151 
1578	 0.105019981796826 
1579	 0.105035613163043 
1580	 0.105035389245026 
1581	 0.10501919898597 
1582	 0.105012292234216 
1583	 0.104990545392435 
1584	 0.104985300456332 
1585	 0.105000779880285 
1586	 0.105006092884487 
1587	 0.105009462754434 
1588	 0.105016956162323 
1589	 0.105023742877797 
1590	 0.105029992445456 
1591	 0.105042653501498 
1592	 0.105049458154045 
1593	 0.105054394443652 
1594	 0.105055598007898 
1595	 0.105055818827358 
1596	 0.105048754075869 
1597	 0.105027082288248 
1598	 0.105015911749321 
1599	 0.10500213557348 
1600	 0.104994647133547 
1601	 0.105008032237735 
1602	 0.105005101572113 
1603	 0.104985951026052 
1604	 0.104979779276698 
1605	 0.104973436993955 
1606	 0.104965723391528 
1607	 0.104957147470856 
1608	 0.104968671195461 
1609	 0.104977043339686 
1610	 0.104978829549368 
1611	 0.104983301234628 
1612	 0.104992460329182 
1613	 0.104999641817865 
1614	 0.104987938042313 
1615	 0.104983551724963 
1616	 0.104993720874321 
1617	 0.104991935436685 
1618	 0.104992572887755 
1619	 0.104993603631503 
1620	 0.104987270014815 
1621	 0.104992844655459 
1622	 0.105000729173492 
1623	 0.105009461193972 
1624	 0.105030740373098 
1625	 0.105032444570537 
1626	 0.10502609858925 
1627	 0.105014171413576 
1628	 0.104988134370133 
1629	 0.104979908617213 
1630	 0.104972651427924 
1631	 0.104969646278548 
1632	 0.104974020663925 
1633	 0.104982740771269 
1634	 0.104997667205229 
1635	 0.105002419977765 
1636	 0.105018188020755 
1637	 0.105008164750222 
1638	 0.104967002875021 
1639	 0.104961665154804 
1640	 0.104961464913152 
1641	 0.104963349147656 
1642	 0.104987499770202 
1643	 0.104993039015744 
1644	 0.104988074967428 
1645	 0.104984681709309 
1646	 0.104979613152355 
1647	 0.10497557164888 
1648	 0.104961544922469 
1649	 0.104964995568549 
1650	 0.104988535594966 
1651	 0.104986037495491 
1652	 0.104973990831035 
1653	 0.104974277506027 
1654	 0.104968012775684 
1655	 0.104959431170258 
1656	 0.104963118190211 
1657	 0.104958887961513 
1658	 0.104931319616771 
1659	 0.104929332178576 
1660	 0.104954871893626 
1661	 0.104952388367941 
1662	 0.104940225960927 
1663	 0.104935992881503 
1664	 0.104919390578569 
1665	 0.104913535221676 
1666	 0.104931163786956 
1667	 0.104920170406416 
1668	 0.104883439117299 
1669	 0.104874076899504 
1670	 0.1048704172194 
1671	 0.104858623743466 
1672	 0.104857871197441 
1673	 0.104854520696459 
1674	 0.104841686607583 
1675	 0.104826541451407 
1676	 0.104825020078171 
1677	 0.104804085583031 
1678	 0.104754320412906 
1679	 0.10472764705657 
1680	 0.104702393259628 
1681	 0.104688176211082 
1682	 0.104689750286683 
1683	 0.104684743888047 
1684	 0.104684484252082 
1685	 0.104681486799433 
1686	 0.10467651383669 
1687	 0.104671756647008 
1688	 0.104662702721996 
1689	 0.104664661067228 
1690	 0.10467443152128 
1691	 0.104677296142299 
1692	 0.104688966497378 
1693	 0.10468725120732 
1694	 0.104672177471021 
1695	 0.104661311355652 
1696	 0.104641536761785 
1697	 0.104638558334904 
1698	 0.104647990786909 
1699	 0.104645410990916 
1700	 0.104649382074785 
1701	 0.104645321237497 
1702	 0.104628851284346 
1703	 0.104614885685905 
1704	 0.104598266144778 
1705	 0.104586552298758 
1706	 0.104571193279632 
1707	 0.104566340702271 
1708	 0.104578941266635 
1709	 0.104572677127949 
1710	 0.104552919220386 
1711	 0.10455016105305 
1712	 0.104546972471657 
1713	 0.104549299077963 
1714	 0.104573824708493 
1715	 0.104573385257907 
1716	 0.104560196041547 
1717	 0.104548530029822 
1718	 0.104522167044079 
1719	 0.104513330968746 
1720	 0.104523232535842 
1721	 0.104499492144771 
1722	 0.104460930790129 
1723	 0.104440932930571 
1724	 0.104400442126748 
1725	 0.104385481331324 
1726	 0.10440844733063 
1727	 0.104400077434085 
1728	 0.104373665559791 
1729	 0.104364673995081 
1730	 0.104360635577863 
1731	 0.10435117826061 
1732	 0.104357158720209 
1733	 0.104332714023789 
1734	 0.10428417935045 
1735	 0.104246695007691 
1736	 0.104198395072306 
1737	 0.104160689672708 
1738	 0.10412907299419 
1739	 0.104092153217206 
1740	 0.104051800537154 
1741	 0.104025177629858 
1742	 0.104005474651574 
1743	 0.103983784182187 
1744	 0.103969234923367 
1745	 0.103951708897684 
1746	 0.103935730708046 
1747	 0.103916811551114 
1748	 0.103878072275789 
1749	 0.103830805126767 
1750	 0.103791742860785 
1751	 0.103765852400928 
1752	 0.103751089985327 
1753	 0.10373929568063 
1754	 0.103716269062791 
1755	 0.103691307647156 
1756	 0.103678620670842 
1757	 0.103675105190875 
1758	 0.103674831306179 
1759	 0.103655380488492 
1760	 0.103637838692081 
1761	 0.10362447366219 
1762	 0.103600388358366 
1763	 0.103590209663755 
1764	 0.103580156866535 
1765	 0.103561488763199 
1766	 0.103540052640351 
1767	 0.10353114237187 
1768	 0.103526380898418 
1769	 0.103514490190979 
1770	 0.103518341597043 
1771	 0.103517661801283 
1772	 0.103511034990935 
1773	 0.103519685826567 
1774	 0.103497834819894 
1775	 0.103453498381851 
1776	 0.103425133866485 
1777	 0.103383805087001 
1778	 0.103361007292351 
1779	 0.10337772018689 
1780	 0.103364783807352 
1781	 0.103317947810891 
1782	 0.103306815062507 
1783	 0.103264502100767 
1784	 0.103235692020735 
1785	 0.103239335724654 
1786	 0.103220784777354 
1787	 0.103191477559376 
1788	 0.103177758556017 
1789	 0.103160160540976 
1790	 0.103142252548308 
1791	 0.103131543452552 
1792	 0.103120461727591 
1793	 0.103115253365222 
1794	 0.103106259311819 
1795	 0.103084080183384 
1796	 0.103084458788413 
1797	 0.103097615382308 
1798	 0.103101579090511 
1799	 0.103124317561778 
1800	 0.103116943192894 
1801	 9.95787508359206E-02 
1802	 9.97322811645929E-02 
1803	 9.98386613072228E-02 
1804	 9.99553701615187E-02 
1805	 0.100090350414643 
1806	 0.10016678698182 
1807	 0.100261049615953 
1808	 0.100337982193521 
1809	 0.100400656259261 
1810	 0.100449548824969 
1811	 0.100483815764178 
1812	 0.100525523708413 
1813	 0.100540516543275 
1814	 0.100577060128206 
1815	 0.100601541466127 
1816	 0.100606147732801 
1817	 0.100630510563683 
1818	 0.100670847035298 
1819	 0.100675575962237 
1820	 0.100668763252454 
1821	 0.100676321782019 
1822	 0.10065407896912 
1823	 0.100653550046212 
1824	 0.100673751652082 
1825	 0.100685963867774 
1826	 0.10069206457621 
1827	 0.100679811280133 
1828	 0.100671515669093 
1829	 0.100665480500319 
1830	 0.100648274734888 
1831	 0.100612623638867 
1832	 0.100606264038197 
1833	 0.100593073527703 
1834	 0.100566435211365 
1835	 0.10055643823789 
1836	 0.100560259460233 
1837	 0.100600019445701 
1838	 0.100647385835573 
1839	 0.100686282746735 
1840	 0.100743984956358 
1841	 0.100785671648538 
1842	 0.100797433709835 
1843	 0.100812984748225 
1844	 0.100831565247948 
1845	 0.100867594390971 
1846	 0.100904892947123 
1847	 0.100930748165421 
1848	 0.10096874235514 
1849	 0.101009464151102 
1850	 0.101036011974709 
1851	 0.101054954002102 
1852	 0.101064353694732 
1853	 0.101080914912865 
1854	 0.101088796128956 
1855	 0.1010867546643 
1856	 0.101120289767871 
1857	 0.101165689772159 
1858	 0.10119700265967 
1859	 0.101240885918375 
1860	 0.101257449959344 
1861	 0.101267830040212 
1862	 0.10123905245952 
1863	 0.1011852578735 
1864	 0.101114766209275 
1865	 0.101066036469475 
1866	 0.100996999117819 
1867	 0.100927620098795 
1868	 0.100865661200164 
1869	 0.100794057980395 
1870	 0.100742655320789 
1871	 0.100714910639971 
1872	 0.10070872666835 
1873	 0.10074567529474 
1874	 0.100767502446487 
1875	 0.100798171797479 
1876	 0.100856974197822 
1877	 0.100872948414811 
1878	 0.10087365622224 
1879	 0.100866906751375 
1880	 0.100831109634171 
1881	 0.100752563173649 
1882	 0.1006819712468 
1883	 0.100608225872604 
1884	 0.100506865055418 
1885	 0.100391125591991 
1886	 0.100267346907942 
1887	 0.10012416746391 
1888	 9.99755134730457E-02 
1889	 9.98163740361573E-02 
1890	 9.96222370369457E-02 
1891	 9.94292918156079E-02 
1892	 9.92138934380711E-02 
1893	 9.90084417925248E-02 
1894	 9.88024730906561E-02 
1895	 0.098599044387531 
1896	 9.83793401129085E-02 
1897	 9.81503121476091E-02 
1898	 9.78999773041948E-02 
1899	 0.097650466665657 
1900	 9.74245693195868E-02 
1901	 9.72023521825806E-02 
1902	 9.69988847729953E-02 
1903	 9.68221848133565E-02 
1904	 9.66454491487644E-02 
1905	 9.64722853329203E-02 
1906	 9.63193546514082E-02 
1907	 9.61836394847125E-02 
1908	 9.60497431494706E-02 
1909	 9.59334611526655E-02 
1910	 9.58161531498015E-02 
1911	 0.095675750517733 
1912	 9.55382725714349E-02 
1913	 9.54069195090643E-02 
1914	 9.52636517647823E-02 
1915	 0.095138490784857 
1916	 9.50185196314073E-02 
1917	 9.49234422201313E-02 
1918	 9.48399146991162E-02 
1919	 9.47605629378665E-02 
1920	 9.46915441603941E-02 
1921	 9.46367440104577E-02 
1922	 9.45876475758277E-02 
1923	 9.45630725043449E-02 
1924	 9.45342402395344E-02 
1925	 9.45047531040761E-02 
1926	 9.44951005933913E-02 
1927	 9.44966611706064E-02 
1928	 9.45022186266052E-02 
1929	 9.45195352898569E-02 
1930	 9.45582155249146E-02 
1931	 9.45639275963088E-02 
1932	 9.45617835967865E-02 
1933	 9.45614288861241E-02 
1934	 9.45467548556435E-02 
1935	 9.45558039229895E-02 
1936	 9.45798424394562E-02 
1937	 9.45959505734411E-02 
1938	 9.46295858171086E-02 
1939	 9.46513140301693E-02 
1940	 9.46531469463718E-02 
1941	 0.094671241481383 
1942	 9.47044839527898E-02 
1943	 9.47341485033473E-02 
1944	 9.47836670904548E-02 
1945	 9.48377156480071E-02 
1946	 9.48943909512428E-02 
1947	 9.49673539860633E-02 
1948	 9.50224180979996E-02 
1949	 9.50692575173187E-02 
1950	 0.095113708154877 
1951	 9.51473433316348E-02 
1952	 9.51773011984439E-02 
1953	 9.52169615490991E-02 
1954	 0.095291770764242 
1955	 0.095354751956532 
1956	 9.54164779778369E-02 
1957	 9.54806538648924E-02 
1958	 0.095539173383182 
1959	 9.56082468372285E-02 
1960	 9.56865063757215E-02 
1961	 9.57597168340353E-02 
1962	 0.095842370182063 
1963	 9.59160418118994E-02 
1964	 9.59795861801455E-02 
1965	 0.096047954630208 
1966	 9.61280725986164E-02 
1967	 9.61983444408225E-02 
1968	 9.62837099539374E-02 
1969	 9.63908598132439E-02 
1970	 9.64766482388002E-02 
1971	 9.65607774497862E-02 
1972	 9.66409814552741E-02 
1973	 9.67166949794779E-02 
1974	 9.67842514430898E-02 
1975	 9.68453770443578E-02 
1976	 0.096901120386375 
1977	 9.69631347423707E-02 
1978	 9.70177443978613E-02 
1979	 9.70885829519542E-02 
1980	 0.097180701396682 
1981	 9.72712102300787E-02 
1982	 9.73764145753809E-02 
1983	 9.74642882787528E-02 
1984	 9.75542751546293E-02 
1985	 9.76341791287066E-02 
1986	 9.76949598708446E-02 
1987	 0.097765487932694 
1988	 9.78368328726732E-02 
1989	 9.79078959886119E-02 
1990	 9.79924064671084E-02 
1991	 9.80803536601589E-02 
1992	 9.81486534031933E-02 
1993	 9.82087984093911E-02 
1994	 9.82778087768184E-02 
1995	 9.83370443465083E-02 
1996	 0.098394518323697 
1997	 9.84605294975363E-02 
1998	 9.85263734644608E-02 
1999	 9.85768611720973E-02 
2000	 9.86363507731168E-02 
2001	 9.87101141730423E-02 
2002	 9.87799443062303E-02 
2003	 9.88333717714486E-02 
2004	 9.89014489091956E-02 
2005	 9.89737810585616E-02 
2006	 9.90472525397432E-02 
2007	 9.91263127844953E-02 
2008	 9.92247957834097E-02 
2009	 9.93074035571936E-02 
2010	 9.93929844120234E-02 
2011	 9.94643990045562E-02 
2012	 9.95091432065741E-02 
2013	 9.95725658148256E-02 
2014	 9.96326725449959E-02 
2015	 9.97041444015853E-02 
2016	 9.97831154567399E-02 
2017	 9.98683390174364E-02 
2018	 9.99499180747888E-02 
2019	 0.100037238105547 
2020	 0.100104431781082 
2021	 0.100171096603713 
2022	 0.100224062716663 
2023	 0.1002384476132 
2024	 0.100284322578149 
2025	 0.100328952812304 
2026	 0.100394305930345 
2027	 0.100480226275739 
2028	 0.100580206467765 
2029	 0.100668857486198 
2030	 0.100773170177578 
2031	 0.100848485216925 
2032	 0.100904760666336 
2033	 0.100971014776181 
2034	 0.101027029465827 
2035	 0.101088628057165 
2036	 0.101154468355225 
2037	 0.10122165171125 
2038	 0.101293725537561 
2039	 0.101356937442944 
2040	 0.101416260562111 
2041	 0.101479433795941 
2042	 0.101543785666809 
2043	 0.101594866904505 
2044	 0.101633855956641 
2045	 0.101659142926988 
2046	 0.101702356841186 
2047	 0.101730434128135 
2048	 0.10177773639445 
2049	 0.101860122626567 
2050	 0.10191537619923 
2051	 0.101957837570005 
2052	 0.102003947469008 
2053	 0.102036381118543 
2054	 0.102081811928692 
2055	 0.102129982176978 
2056	 0.102191749386282 
2057	 0.102246933944749 
2058	 0.102309414817812 
2059	 0.102367721742294 
2060	 0.102422947069931 
2061	 0.102478780087332 
2062	 0.102538870936997 
2063	 0.102590789941439 
2064	 0.102635262295786 
2065	 0.102682346506847 
2066	 0.102740814556476 
2067	 0.102777720568985 
2068	 0.102799958583516 
2069	 0.102816516362566 
2070	 0.102855833800703 
2071	 0.102886110487853 
2072	 0.102935971564458 
2073	 0.103023907038227 
2074	 0.103078447254639 
2075	 0.103119930336567 
2076	 0.103161803915512 
2077	 0.103189834423765 
2078	 0.10323220501293 
2079	 0.103282389860986 
2080	 0.103327132533978 
2081	 0.103378657376839 
2082	 0.103425108180685 
2083	 0.103476168289384 
2084	 0.103499572579487 
2085	 0.103540714977784 
2086	 0.103592801768489 
2087	 0.103620931293931 
2088	 0.103629744524845 
2089	 0.103665390400938 
2090	 0.103695573649538 
2091	 0.103736016203028 
2092	 0.103805003368268 
2093	 0.10385858534884 
2094	 0.103895590880837 
2095	 0.103948921698474 
2096	 0.10402032675302 
2097	 0.104078311695474 
2098	 0.104144914875564 
2099	 0.104195596653977 
2100	 0.104238850188001 
2101	 0.10426058336872 
2102	 0.104304744443432 
2103	 0.104350118631203 
2104	 0.104399479349931 
2105	 0.104463868950401 
2106	 0.104514756707253 
2107	 0.104560422678081 
2108	 0.10460557246054 
2109	 0.104640336383793 
2110	 0.104687172550191 
2111	 0.104738185587422 
2112	 0.104791142905703 
2113	 0.104855987968376 
2114	 0.104917092437771 
2115	 0.104966265449453 
2116	 0.105008479734069 
2117	 0.105050441410577 
2118	 0.105081132254623 
2119	 0.105121046482724 
2120	 0.105165645598832 
2121	 0.105207796887647 
2122	 0.105251349237156 
2123	 0.105291999557657 
2124	 0.105341249333673 
2125	 0.105371506139089 
2126	 0.105391958326599 
2127	 0.105406218721059 
2128	 0.10540191217042 
2129	 0.105401551005736 
2130	 0.105377048840902 
2131	 0.105389639741414 
2132	 0.105404971285181 
2133	 0.105428831180666 
2134	 0.105451953838181 
2135	 0.105501839875753 
2136	 0.105518619777104 
2137	 0.105522688404358 
2138	 0.105521002254013 
2139	 0.10550454303333 
2140	 0.105486449644498 
2141	 0.105463909931034 
2142	 0.105433287198862 
2143	 0.105388697461805 
2144	 0.105350888297481 
2145	 0.10531612711879 
2146	 0.105270907408597 
2147	 0.105220108575127 
2148	 0.105174715604776 
2149	 0.105116036208187 
2150	 0.105036622222058 
2151	 0.104981279873693 
2152	 0.10492728666271 
2153	 0.104884047681617 
2154	 0.104859869828941 
2155	 0.10482333189074 
2156	 0.104794369099579 
2157	 0.104752123746653 
2158	 0.104720651800641 
2159	 0.104650332216479 
2160	 0.104537244849304 
2161	 0.104446607040456 
2162	 0.104330213182438 
2163	 0.104232433608718 
2164	 0.104167966536564 
2165	 0.10409052509283 
2166	 0.104009801966972 
2167	 0.103931590056858 
2168	 0.103833755658797 
2169	 0.103707987310547 
2170	 0.103627441245634 
2171	 0.103553743229534 
2172	 0.103482797823429 
2173	 0.103453311949536 
2174	 0.103390353081657 
2175	 0.103300134569861 
2176	 0.103224969606934 
2177	 0.103156878529048 
2178	 0.103078565521858 
2179	 0.102991905520665 
2180	 0.102912437781619 
2181	 0.102820213356507 
2182	 0.102744589576485 
2183	 0.102691823975783 
2184	 0.102628640397205 
2185	 0.10256995351545 
2186	 0.102520710913814 
2187	 0.102461987568656 
2188	 0.102400233207581 
2189	 0.102334631201396 
2190	 0.102263846957395 
2191	 0.102194616470831 
2192	 0.102117268049028 
2193	 0.102049913256271 
2194	 0.101986552301564 
2195	 0.101925458799679 
2196	 0.10187326325397 
2197	 0.10181701762003 
2198	 0.10175628560284 
2199	 0.101703573444877 
2200	 0.101643092461597 
2201	 0.101600100160802 
2202	 0.10157384234144 
2203	 0.1015508334292 
2204	 0.101529936479396 
2205	 0.101522939264303 
2206	 0.101507493688164 
2207	 0.10148256414861 
2208	 0.10147634901052 
2209	 0.101489672055887 
2210	 0.101477920342678 
2211	 0.101465607651559 
2212	 0.101448491622637 
2213	 0.101404245096368 
2214	 0.101384117030213 
2215	 0.10137038991655 
2216	 0.101369393213294 
2217	 0.101383291511727 
2218	 0.101396993380233 
2219	 0.10143417131099 
2220	 0.101451449524268 
2221	 0.101463314617636 
2222	 0.101461686259813 
2223	 0.101466835972708 
2224	 0.10146890268279 
2225	 0.101489061288167 
2226	 0.101521189770615 
2227	 0.101562212854316 
2228	 0.101630867275403 
2229	 0.101652451471126 
2230	 0.101667334313497 
2231	 0.101677580823451 
2232	 0.101654982395184 
2233	 0.101642808147788 
2234	 0.101625352586536 
2235	 0.101626734810964 
2236	 0.101618347868949 
2237	 0.101636764333731 
2238	 0.101704142708199 
2239	 0.101740599843079 
2240	 0.101778733897581 
2241	 0.101802701071152 
2242	 0.10180031366345 
2243	 0.101813780902757 
2244	 0.101853104219502 
2245	 0.101842077578816 
2246	 0.101822325436392 
2247	 0.101816108086077 
2248	 0.101826658982213 
2249	 0.101827971824511 
2250	 0.101850100886673 
2251	 0.101911674227938 
2252	 0.101943291531987 
2253	 0.101969371066277 
2254	 0.101980173452783 
2255	 0.101976782928859 
2256	 0.101985518481827 
2257	 0.101977872298947 
2258	 0.101984260763327 
2259	 0.102014095697997 
2260	 0.102029407233287 
2261	 0.10202721765848 
2262	 0.102046055244021 
2263	 0.102072743456051 
2264	 0.102102913775074 
2265	 0.10216623301506 
2266	 0.102194923212349 
2267	 0.10219761078008 
2268	 0.102215003366693 
2269	 0.102233100128839 
2270	 0.102223321337162 
2271	 0.102245062634877 
2272	 0.102259638788966 
2273	 0.102277162135201 
2274	 0.102316647514714 
2275	 0.102340202401574 
2276	 0.102379546235696 
2277	 0.102395870709483 
2278	 0.102377362313366 
2279	 0.102398108865444 
2280	 0.102432263817122 
2281	 0.102460093812698 
2282	 0.102521372002548 
2283	 0.10254220531718 
2284	 0.102539483592269 
2285	 0.102527578524633 
2286	 0.102466692193503 
2287	 0.10245804303498 
2288	 0.102460680017635 
2289	 0.102483036942816 
2290	 0.102561484459817 
2291	 0.102607294308261 
2292	 0.102649523897221 
2293	 0.102683886464823 
2294	 0.102714963822938 
2295	 0.102725636605026 
2296	 0.102707715461829 
2297	 0.102698214995099 
2298	 0.102721915697803 
2299	 0.102732006514607 
2300	 0.102780308432553 
2301	 0.102833232972298 
2302	 0.102852841194634 
2303	 0.102881824682512 
2304	 0.102910451332986 
2305	 0.102943676402434 
2306	 0.10296780747024 
2307	 0.10299247473744 
2308	 0.102989684241113 
2309	 0.102959861705161 
2310	 0.102964307118228 
2311	 0.102972347640797 
2312	 0.102973663285637 
2313	 0.102995878128813 
2314	 0.103001663481612 
2315	 0.102971946493692 
2316	 0.102969017325213 
2317	 0.102992546818471 
2318	 0.103001448361322 
2319	 0.102994868265308 
2320	 0.103017215058437 
2321	 0.103070785835915 
2322	 0.103084531921173 
2323	 0.103077951007953 
2324	 0.103099563912611 
2325	 0.103103732072429 
2326	 0.103121857476736 
2327	 0.10315286648127 
2328	 0.103233874332883 
2329	 0.103301123224232 
2330	 0.103374797269324 
2331	 0.103460458112249 
2332	 0.103488622731769 
2333	 0.103424892029038 
2334	 0.10337006285182 
2335	 0.103389586207439 
2336	 0.103429648077357 
2337	 0.103488967038487 
2338	 0.103569571934119 
2339	 0.103589702143736 
2340	 0.103549237902846 
2341	 0.103549841072076 
2342	 0.103551988324688 
2343	 0.103515147943038 
2344	 0.103547182762633 
2345	 0.103585473421131 
2346	 0.103656291598862 
2347	 0.103673426907405 
2348	 0.103706651743026 
2349	 0.103704650138482 
2350	 0.10361770908538 
2351	 0.103630651298148 
2352	 0.103704299423917 
2353	 0.103714051698717 
2354	 0.103756108445171 
2355	 0.103756556375876 
2356	 0.103679358077414 
2357	 0.103641648692913 
2358	 0.103611309272708 
2359	 0.103569882800717 
2360	 0.103520893483552 
2361	 0.103504267225739 
2362	 0.10352512255449 
2363	 0.103505770402951 
2364	 0.103462126316078 
2365	 0.103456768890135 
2366	 0.103435743704791 
2367	 0.103423506945406 
2368	 0.103477525308287 
2369	 0.103478014925853 
2370	 0.103423347823367 
2371	 0.10340974032621 
2372	 0.103397638877316 
2373	 0.103418619292551 
2374	 0.10344606138494 
2375	 0.103410121209175 
2376	 0.103396190483867 
2377	 0.10336367249846 
2378	 0.103367288027184 
2379	 0.103412930353759 
2380	 0.103412366352796 
2381	 0.103375261570695 
2382	 0.103309287953825 
2383	 0.1032471804054 
2384	 0.10313055089675 
2385	 0.103042374456321 
2386	 0.102998988801125 
2387	 0.102945981935292 
2388	 0.1029812948974 
2389	 0.10301474670683 
2390	 0.103000032795551 
2391	 0.102966975233906 
2392	 0.102933977973455 
2393	 0.102972624512775 
2394	 0.102965140587423 
2395	 0.102928301716059 
2396	 0.102919331941081 
2397	 0.102829918503687 
2398	 0.102747470367084 
2399	 0.102719766374913 
2400	 0.10267888203813 
2401	 0.102638248914214 
2402	 0.10264833183353 
2403	 0.10264562387039 
2404	 0.102592635403371 
2405	 0.10253281355923 
2406	 0.102426464527775 
2407	 0.102367488192239 
2408	 0.102352036808509 
2409	 0.102243891128294 
2410	 0.102147548383498 
2411	 0.102105596963451 
2412	 0.102022809125174 
2413	 0.102027904341891 
2414	 0.102158790854396 
2415	 0.102160742799347 
2416	 0.102124369414267 
2417	 0.102051760615248 
2418	 0.101989384245309 
2419	 0.10183509085376 
2420	 0.101829829172414 
2421	 0.101945102822963 
2422	 0.101938555268231 
2423	 0.101929269695944 
2424	 0.101872590392027 
2425	 0.101714071337295 
2426	 0.101638473374876 
2427	 0.101642545436981 
2428	 0.101536296448624 
2429	 0.101361087876312 
2430	 0.101264543583623 
2431	 0.101110089656559 
2432	 0.101021035392184 
2433	 0.101009871397746 
2434	 0.101008519314468 
2435	 0.101063247076754 
2436	 0.101080890017518 
2437	 0.101160634691526 
2438	 0.101112627773967 
2439	 0.10092548486951 
2440	 0.100827474734811 
2441	 0.10071115546864 
2442	 0.10065046820504 
2443	 0.100686724766528 
2444	 0.100655299606723 
2445	 0.100591763717232 
2446	 0.100520580197769 
2447	 0.100372854019847 
2448	 0.100290417408985 
2449	 0.100270332866863 
2450	 0.100204710682032 
2451	 0.100176883320636 
2452	 0.100133647054116 
2453	 0.100040581845241 
2454	 0.100019258499435 
2455	 0.100037380015071 
2456	 0.100021660821146 
2457	 0.100025837653926 
2458	 9.98869921275631E-02 
2459	 9.96273317201239E-02 
2460	 9.95097267621249E-02 
2461	 9.93893847549081E-02 
2462	 9.92823950380553E-02 
2463	 9.92482592222586E-02 
2464	 0.099368319641928 
2465	 9.95351603023657E-02 
2466	 0.099607278118679 
2467	 9.98457116860871E-02 
2468	 0.09983765722268 
2469	 0.099552283511269 
2470	 9.96711974953163E-02 
2471	 9.96910252568548E-02 
2472	 9.96647688796465E-02 
2473	 9.95904427747208E-02 
2474	 9.93802160017076E-02 
2475	 9.92212837901743E-02 
2476	 9.91109981719979E-02 
2477	 9.90247767456161E-02 
2478	 9.91136611978942E-02 
2479	 9.90214398936359E-02 
2480	 9.87889048400718E-02 
2481	 9.88499096202603E-02 
2482	 9.87619832463231E-02 
2483	 9.86903593711916E-02 
2484	 9.88098110349382E-02 
2485	 9.86711393851413E-02 
2486	 9.86045871984163E-02 
2487	 9.84226089287558E-02 
2488	 9.81921218427819E-02 
2489	 9.81540382767092E-02 
2490	 9.80884277167099E-02 
2491	 9.82288721771818E-02 
2492	 9.83463340535779E-02 
2493	 9.83413950047113E-02 
2494	 9.82061991635644E-02 
2495	 9.78739516110556E-02 
2496	 9.77630417414357E-02 
2497	 9.76984805266743E-02 
2498	 9.75444561776577E-02 
2499	 9.75860395635586E-02 
2500	 9.76746481495279E-02 
