Wavelength	LMW_2400008.asd
350	 4.73464046794534E-02 
351	 4.86943507368426E-02 
352	 0.043244384472716 
353	 3.18756741079222E-02 
354	 3.76290495395264E-02 
355	 4.52611362677082E-02 
356	 0.047259963495056 
357	 4.27363491322122E-02 
358	 4.72253828656496E-02 
359	 4.69673937427144E-02 
360	 0.042298267633818 
361	 4.23888965751203E-02 
362	 4.13283501069824E-02 
363	 4.29808848199687E-02 
364	 4.63827823236915E-02 
365	 4.10138124329796E-02 
366	 4.04110160637193E-02 
367	 4.41293965127984E-02 
368	 0.04726964705458 
369	 4.43088719441158E-02 
370	 4.15050363998916E-02 
371	 4.19043798160612E-02 
372	 4.54805623509657E-02 
373	 4.58027509468748E-02 
374	 4.51532401100355E-02 
375	 4.57733842788469E-02 
376	 4.79192634528265E-02 
377	 4.73289126447124E-02 
378	 4.70552316628699E-02 
379	 5.00143436802925E-02 
380	 4.89421210842866E-02 
381	 4.59674252876629E-02 
382	 4.46606096470464E-02 
383	 4.84409506152586E-02 
384	 4.80046545343955E-02 
385	 4.69934614672134E-02 
386	 4.81531866617636E-02 
387	 4.89696086633716E-02 
388	 4.93209097800974E-02 
389	 4.90932497948804E-02 
390	 4.85403152808427E-02 
391	 4.89928478495177E-02 
392	 0.050358948001518 
393	 5.21595119740079E-02 
394	 5.36265567855337E-02 
395	 5.29339540233911E-02 
396	 5.21347870557334E-02 
397	 5.27644266320913E-02 
398	 5.40292872512453E-02 
399	 5.46658973184229E-02 
400	 5.46835663641989E-02 
401	 5.46038345997644E-02 
402	 5.45032406886073E-02 
403	 5.45015843187702E-02 
404	 5.48629784354851E-02 
405	 5.59450590884777E-02 
406	 5.59123310500193E-02 
407	 0.056155567984826 
408	 5.72270389747174E-02 
409	 5.57088257954998E-02 
410	 5.48732339229508E-02 
411	 5.54685803599025E-02 
412	 5.67884425831121E-02 
413	 5.73657285019411E-02 
414	 5.74779902904737E-02 
415	 5.74868182208812E-02 
416	 5.76062038066033E-02 
417	 5.76684364476693E-02 
418	 0.057648322635721 
419	 5.76465450228651E-02 
420	 5.82552141558594E-02 
421	 5.74536243908525E-02 
422	 5.61943515617767E-02 
423	 0.05702042001045 
424	 5.75251135027232E-02 
425	 5.76193063007399E-02 
426	 5.74754300218564E-02 
427	 5.70817964272622E-02 
428	 5.70628927797847E-02 
429	 5.71188631349496E-02 
430	 5.68538990988437E-02 
431	 5.70838870351774E-02 
432	 5.71703550182879E-02 
433	 5.70066484535784E-02 
434	 5.70432630571016E-02 
435	 5.70988979502553E-02 
436	 5.73053664802338E-02 
437	 5.75832991820654E-02 
438	 5.70917762653832E-02 
439	 5.69112606027782E-02 
440	 0.057138336683291 
441	 5.73415312914494E-02 
442	 5.72227837624416E-02 
443	 5.71757823347147E-02 
444	 5.74096130502575E-02 
445	 5.77723046239261E-02 
446	 5.78556663078386E-02 
447	 5.78765027225875E-02 
448	 5.81246735286595E-02 
449	 5.82999934500461E-02 
450	 5.87636754629226E-02 
451	 0.059161320412101 
452	 5.86286914973762E-02 
453	 5.85416515534661E-02 
454	 5.87169394682387E-02 
455	 5.87784161636365E-02 
456	 5.85374107284673E-02 
457	 5.87440026340846E-02 
458	 5.90895223883683E-02 
459	 0.058912856603086 
460	 5.89296060394788E-02 
461	 5.90259846577083E-02 
462	 5.90550615709329E-02 
463	 5.89206874612489E-02 
464	 5.91204071547409E-02 
465	 5.94935456594017E-02 
466	 5.97080063368982E-02 
467	 5.95656991530446E-02 
468	 5.94691379078229E-02 
469	 5.94940308324188E-02 
470	 5.94555041310509E-02 
471	 0.059644138367833 
472	 5.99485796667137E-02 
473	 6.01300865714606E-02 
474	 0.059746423957095 
475	 5.96543149065765E-02 
476	 0.059862402724931 
477	 5.99831110238154E-02 
478	 5.97757555685727E-02 
479	 0.059890720213768 
480	 6.03274385495731E-02 
481	 6.00839181145024E-02 
482	 0.060166983336191 
483	 6.03908397461369E-02 
484	 6.03895060528281E-02 
485	 6.04796139624415E-02 
486	 6.04983369156992E-02 
487	 6.03970016284893E-02 
488	 6.02458163691226E-02 
489	 6.03209681945755E-02 
490	 6.04284986217503E-02 
491	 0.060440224081878 
492	 6.06417618105312E-02 
493	 6.05458507928342E-02 
494	 6.04413787744287E-02 
495	 6.08334609274306E-02 
496	 6.08463988697785E-02 
497	 6.07357177337162E-02 
498	 6.07180609893627E-02 
499	 6.07890894020058E-02 
500	 6.07904084023932E-02 
501	 6.07630631966426E-02 
502	 6.08058289556075E-02 
503	 6.09959262420938E-02 
504	 6.10877097526684E-02 
505	 6.10118114079911E-02 
506	 0.06087911774934 
507	 6.09293224853498E-02 
508	 6.11558179388267E-02 
509	 6.14148992173949E-02 
510	 6.13495996536546E-02 
511	 0.061274283697992 
512	 6.12931785539879E-02 
513	 6.13793594569965E-02 
514	 6.14170435038539E-02 
515	 0.061432806839834 
516	 6.14569620554749E-02 
517	 6.14960236080047E-02 
518	 6.15261428210728E-02 
519	 6.15533141637258E-02 
520	 6.15936671170083E-02 
521	 6.16693194070334E-02 
522	 0.061679637828209 
523	 6.16330342860527E-02 
524	 6.16546215687317E-02 
525	 6.16475868047099E-02 
526	 0.061635531357995 
527	 0.061661233348106 
528	 6.17506824611999E-02 
529	 0.061817679325715 
530	 6.18633508548511E-02 
531	 6.19435735783853E-02 
532	 0.062026703257078 
533	 6.20808553076775E-02 
534	 6.21044837482808E-02 
535	 6.21563991054796E-02 
536	 6.22172703568788E-02 
537	 6.22735338695126E-02 
538	 6.23227915625593E-02 
539	 6.24445848065599E-02 
540	 6.24763451166486E-02 
541	 6.24249417816317E-02 
542	 6.25428591358509E-02 
543	 6.26337404058201E-02 
544	 6.27231215090652E-02 
545	 6.28529239878659E-02 
546	 6.28831916759987E-02 
547	 6.29250661691247E-02 
548	 6.30206215759117E-02 
549	 6.31443355203582E-02 
550	 6.32495453356003E-02 
551	 6.33433196873037E-02 
552	 6.34532915527958E-02 
553	 6.36357093447253E-02 
554	 6.38051907418207E-02 
555	 6.39446607101491E-02 
556	 6.40795292555214E-02 
557	 0.064263631941902 
558	 6.44271480369291E-02 
559	 6.45432016744342E-02 
560	 6.46793234890141E-02 
561	 6.48651324175471E-02 
562	 6.50701336659201E-02 
563	 0.065276519846136 
564	 6.56880459858587E-02 
565	 6.60286137582387E-02 
566	 6.62518578301019E-02 
567	 6.65941256974305E-02 
568	 6.69198594511278E-02 
569	 6.71805416217715E-02 
570	 6.73809331783639E-02 
571	 6.76305095589345E-02 
572	 0.06789038436854 
573	 6.81719212057626E-02 
574	 6.85179293839781E-02 
575	 6.89013151849797E-02 
576	 6.93283568737588E-02 
577	 0.069798994695792 
578	 7.02926917702656E-02 
579	 7.07788748433012E-02 
580	 7.12928654948676E-02 
581	 7.18780538626063E-02 
582	 7.24254951951784E-02 
583	 7.28429780415868E-02 
584	 7.31787552350911E-02 
585	 7.36708495127487E-02 
586	 7.42859268112921E-02 
587	 7.49539434793716E-02 
588	 7.55854800797637E-02 
589	 7.61101594319075E-02 
590	 0.076591507033751 
591	 7.70407379917646E-02 
592	 7.74203903956311E-02 
593	 7.77223417644933E-02 
594	 7.80560582438748E-02 
595	 7.85032589687868E-02 
596	 0.079015474554512 
597	 7.96162175214195E-02 
598	 8.02596773676738E-02 
599	 8.08781275850879E-02 
600	 8.15665856830776E-02 
601	 8.22025487677133E-02 
602	 8.27012822571995E-02 
603	 8.30847214378083E-02 
604	 8.34251242999923E-02 
605	 8.38263810213011E-02 
606	 8.43451497816357E-02 
607	 8.47513469315229E-02 
608	 8.51041808001691E-02 
609	 8.54624340324413E-02 
610	 8.58627128925826E-02 
611	 8.62041785281081E-02 
612	 8.65369227396298E-02 
613	 8.69053276195448E-02 
614	 8.72108293714008E-02 
615	 8.74893271380996E-02 
616	 8.77480647011859E-02 
617	 8.79775777261364E-02 
618	 8.82461194739036E-02 
619	 8.84705349270823E-02 
620	 8.86300931904578E-02 
621	 8.88940516747142E-02 
622	 8.91143530867943E-02 
623	 0.089284742287872 
624	 8.94528515736956E-02 
625	 0.089620044228066 
626	 8.97787783365033E-02 
627	 8.99328602083029E-02 
628	 9.01026167850418E-02 
629	 9.02240393781082E-02 
630	 9.03518759566692E-02 
631	 0.09053498950082 
632	 9.06657431181894E-02 
633	 9.07890818532265E-02 
634	 9.09191587082004E-02 
635	 9.10451023775162E-02 
636	 9.12123379665398E-02 
637	 9.13546983914937E-02 
638	 9.14346318254258E-02 
639	 9.15257117190688E-02 
640	 9.16479856408194E-02 
641	 9.18045853151253E-02 
642	 9.19800460743584E-02 
643	 9.21251085197781E-02 
644	 9.22455506085706E-02 
645	 9.23613337328214E-02 
646	 9.25037658281313E-02 
647	 0.092630392212204 
648	 9.27671526951544E-02 
649	 9.29395151115563E-02 
650	 9.30839149995598E-02 
651	 9.32381421163126E-02 
652	 9.33995713727562E-02 
653	 9.35329871416076E-02 
654	 9.37034988774436E-02 
655	 9.38871982634495E-02 
656	 9.40644938157075E-02 
657	 0.094272098168618 
658	 9.44617301280679E-02 
659	 9.46495510553217E-02 
660	 9.48721704611615E-02 
661	 9.50682018719773E-02 
662	 9.52699629373293E-02 
663	 9.54784718113066E-02 
664	 0.095634107484818 
665	 9.58604944502688E-02 
666	 9.61030571428517E-02 
667	 9.62945252805592E-02 
668	 9.65450533153485E-02 
669	 9.68007387917746E-02 
670	 9.70317443201186E-02 
671	 9.72367821628534E-02 
672	 0.097484142218646 
673	 9.77780459571026E-02 
674	 9.80904698840329E-02 
675	 9.83528340291857E-02 
676	 9.85683850361923E-02 
677	 9.87828495529725E-02 
678	 9.90552426652539E-02 
679	 9.93691405240025E-02 
680	 9.96982857426849E-02 
681	 0.100012653607123 
682	 0.100279844777981 
683	 0.100561114716213 
684	 0.100876503208273 
685	 0.101216681904401 
686	 0.101512846455037 
687	 0.101823991891514 
688	 0.102161347875477 
689	 0.102496618197295 
690	 0.102775270390753 
691	 0.103092468966365 
692	 0.103490182692115 
693	 0.103869184181461 
694	 0.104191904846229 
695	 0.104498550683943 
696	 0.104850016783179 
697	 0.105220495249987 
698	 0.10557840443806 
699	 0.105937913314862 
700	 0.106357346266294 
701	 0.106702918297342 
702	 0.107068066070484 
703	 0.10751061105002 
704	 0.107847403048899 
705	 0.108177256178682 
706	 0.108535870763811 
707	 0.108916595001583 
708	 0.109254910530048 
709	 0.109593918621588 
710	 0.109968814882861 
711	 0.110390095179657 
712	 0.110760463731427 
713	 0.111089738272156 
714	 0.111421285083624 
715	 0.111786243526461 
716	 0.112170589870835 
717	 0.112532659611073 
718	 0.112822348812538 
719	 0.113131404844482 
720	 0.11345628547138 
721	 0.113781581122871 
722	 0.11409819010258 
723	 0.114421338602904 
724	 0.114747980925456 
725	 0.115063628070311 
726	 0.115338023295365 
727	 0.115560360523466 
728	 0.115754649220288 
729	 0.11597298517698 
730	 0.116209431619598 
731	 0.116436890784013 
732	 0.116634363123097 
733	 0.11680288923155 
734	 0.116974480353474 
735	 0.117138521398064 
736	 0.117274722200199 
737	 0.117431211008473 
738	 0.117539898964605 
739	 0.117611243944856 
740	 0.117745256482266 
741	 0.117845363554998 
742	 0.117893771673782 
743	 0.117908997236391 
744	 0.117960038353156 
745	 0.117982001322409 
746	 0.117996527840035 
747	 0.118046569159047 
748	 0.118022497920993 
749	 0.117944115062105 
750	 0.117863717060896 
751	 0.117853951438754 
752	 0.117786224053099 
753	 0.117696446018538 
754	 0.117628959967331 
755	 0.117535481032555 
756	 0.117416973637616 
757	 0.117293346240736 
758	 0.117184557362067 
759	 0.117028583826945 
760	 0.116853092073407 
761	 0.11669490864981 
762	 0.116588467185943 
763	 0.116429810788473 
764	 0.116223465009449 
765	 0.116011064202839 
766	 0.115861133599991 
767	 0.115672994782701 
768	 0.115468899329125 
769	 0.115317165330455 
770	 0.115130678464738 
771	 0.114931518335913 
772	 0.114730037713671 
773	 0.114510830210996 
774	 0.11425778470179 
775	 0.114008010253948 
776	 0.113787014877418 
777	 0.113555419896387 
778	 0.113339108827285 
779	 0.113125685370819 
780	 0.112893753564038 
781	 0.112682594368072 
782	 0.112474271119601 
783	 0.112252191681445 
784	 0.112008906456335 
785	 0.111795400758015 
786	 0.11157338156784 
787	 0.111321645105458 
788	 0.1111012524762 
789	 0.110893044970206 
790	 0.110686914537133 
791	 0.110465618059638 
792	 0.110161716359841 
793	 0.109915095984051 
794	 0.109742476808417 
795	 0.109545818824279 
796	 0.10930965201508 
797	 0.109075229988784 
798	 0.10886384579624 
799	 0.108640925139179 
800	 0.108409780788602 
801	 0.108193201206065 
802	 0.108007207268683 
803	 0.107820062361588 
804	 0.107613813146468 
805	 0.107406490764749 
806	 0.107231821303288 
807	 0.107045911383987 
808	 0.106867049104894 
809	 0.106686779838096 
810	 0.106456013372767 
811	 0.1063095060429 
812	 0.106168812000033 
813	 0.105967504091859 
814	 0.105810278489012 
815	 0.105632783717382 
816	 0.105465351084795 
817	 0.105354835732705 
818	 0.105226892992555 
819	 0.105048536436568 
820	 0.104851259702315 
821	 0.104711293399847 
822	 0.104566867904989 
823	 0.104444922386735 
824	 0.104338540744999 
825	 0.104165815386694 
826	 0.104033717932675 
827	 0.103916335178269 
828	 0.10378147745573 
829	 0.103702591121717 
830	 0.103602649119524 
831	 0.103483030119829 
832	 0.103384008141266 
833	 0.103321893676333 
834	 0.103247010997633 
835	 0.103121410149454 
836	 0.102939365808597 
837	 0.102884520820256 
838	 0.102876249975401 
839	 0.102829344740321 
840	 0.102732834780881 
841	 0.102605553889517 
842	 0.102522473948525 
843	 0.102516985308234 
844	 0.102450454972012 
845	 0.102394755745551 
846	 0.102337693949855 
847	 0.102250795935938 
848	 0.102245807058457 
849	 0.102203464564602 
850	 0.102123144774145 
851	 0.102107389787475 
852	 0.102094764185263 
853	 0.102064602313409 
854	 0.102019839451815 
855	 0.101989188319787 
856	 0.102015094555898 
857	 0.102051597302176 
858	 0.102051818215908 
859	 0.102022619167635 
860	 0.101999821596636 
861	 0.102003521423201 
862	 0.102033582263465 
863	 0.102041978579464 
864	 0.102052403367228 
865	 0.102069337275214 
866	 0.10208156566354 
867	 0.102062012957111 
868	 0.102079129822314 
869	 0.1021250877973 
870	 0.102117378321031 
871	 0.102161334785406 
872	 0.102265340949568 
873	 0.102382498117043 
874	 0.10241043315877 
875	 0.102417961104842 
876	 0.102423901328562 
877	 0.102451299722215 
878	 0.102566164713079 
879	 0.102719178773638 
880	 0.102801694814166 
881	 0.10276360752761 
882	 0.102859517078823 
883	 0.102983643344748 
884	 0.103073560033198 
885	 0.103120016760491 
886	 0.103243078419007 
887	 0.103363305072007 
888	 0.103459512861905 
889	 0.103568758502623 
890	 0.103650217975713 
891	 0.103751448650525 
892	 0.103879715400507 
893	 0.103982476787615 
894	 0.104122955689459 
895	 0.10425908757988 
896	 0.104378810786358 
897	 0.104559621957865 
898	 0.104693015876245 
899	 0.104819317623115 
900	 0.104979135403746 
901	 0.105100915133149 
902	 0.105254551018556 
903	 0.105431324260266 
904	 0.105602436298855 
905	 0.105779962409215 
906	 0.105911084117061 
907	 0.106072903784938 
908	 0.106347597991815 
909	 0.106520378337337 
910	 0.106652455507147 
911	 0.10681101588924 
912	 0.107043999569357 
913	 0.107314628039481 
914	 0.107575200187532 
915	 0.107795892923891 
916	 0.107974860507999 
917	 0.10816910761453 
918	 0.108415519841183 
919	 0.108665286943099 
920	 0.108800317806902 
921	 0.109067965996571 
922	 0.109319378954406 
923	 0.109503589024408 
924	 0.109803681609182 
925	 0.110109650805581 
926	 0.11036653613253 
927	 0.110578267431156 
928	 0.110830720005998 
929	 0.111065107959083 
930	 0.111355609267608 
931	 0.111720502011557 
932	 0.111979395039389 
933	 0.112318227370593 
934	 0.112645229194547 
935	 0.11287654244802 
936	 0.113189980705301 
937	 0.113503936442352 
938	 0.11385615036498 
939	 0.114264176087167 
940	 0.114556635295401 
941	 0.114807270954173 
942	 0.11513366604061 
943	 0.115575863745347 
944	 0.115819181681572 
945	 0.116096592633651 
946	 0.11649705760212 
947	 0.116968251295502 
948	 0.117215851344613 
949	 0.117493258987798 
950	 0.117842814818378 
951	 0.118193955995176 
952	 0.118570416551162 
953	 0.118959824352729 
954	 0.119354242578393 
955	 0.119746672519412 
956	 0.120123936123455 
957	 0.120470709129824 
958	 0.120853664186486 
959	 0.12133654243694 
960	 0.121696954724771 
961	 0.122057165851718 
962	 0.12246199091547 
963	 0.12287529766443 
964	 0.123204943837396 
965	 0.12360894811022 
966	 0.124043657664228 
967	 0.124377897515858 
968	 0.124889730417836 
969	 0.125363815024629 
970	 0.125738409358157 
971	 0.126085174232772 
972	 0.126414618072644 
973	 0.126841706704789 
974	 0.127310061243724 
975	 0.12768317192783 
976	 0.128094830948484 
977	 0.128547288875561 
978	 0.128984475192124 
979	 0.12934190554878 
980	 0.12968680303231 
981	 0.130158968348026 
982	 0.130639725811503 
983	 0.13093611389089 
984	 0.13136065311 
985	 0.131789159582818 
986	 0.132186001347128 
987	 0.132595165188956 
988	 0.133123538389539 
989	 0.133481485156106 
990	 0.133790781963488 
991	 0.134303753882126 
992	 0.134799938063084 
993	 0.135055291506999 
994	 0.135302888426653 
995	 0.135837098222286 
996	 0.136308939440777 
997	 0.1366243734977 
998	 0.136971713916248 
999	 0.137523319791105 
1000	 0.13797780462739 
1001	 0.135788260562511 
1002	 0.136156972817634 
1003	 0.136459406852432 
1004	 0.136772140224568 
1005	 0.137104769542293 
1006	 0.13738401303946 
1007	 0.137628303330834 
1008	 0.137847906458579 
1009	 0.138122661365793 
1010	 0.138372521506117 
1011	 0.138618399637338 
1012	 0.138949487078584 
1013	 0.139188168900603 
1014	 0.139426351850088 
1015	 0.139758314630431 
1016	 0.139966808741969 
1017	 0.140233394604039 
1018	 0.14052972116838 
1019	 0.140840304188389 
1020	 0.141046988482757 
1021	 0.141330694267262 
1022	 0.141586155448348 
1023	 0.14174111195602 
1024	 0.141908753056189 
1025	 0.142139971633671 
1026	 0.142349318812033 
1027	 0.14253102534153 
1028	 0.142769746700492 
1029	 0.142963680276888 
1030	 0.143145384143673 
1031	 0.143316590688093 
1032	 0.14348794280128 
1033	 0.143596886358179 
1034	 0.14377335120607 
1035	 0.143981191019014 
1036	 0.144200568547378 
1037	 0.144504024862806 
1038	 0.144745098601051 
1039	 0.144919294320751 
1040	 0.145131997296636 
1041	 0.14530396335183 
1042	 0.145464431592598 
1043	 0.145683754550204 
1044	 0.14586269142461 
1045	 0.146011972669448 
1046	 0.146158541434056 
1047	 0.146346032199703 
1048	 0.146503238904882 
1049	 0.146705473544267 
1050	 0.146925416324723 
1051	 0.147094092163258 
1052	 0.147285069060151 
1053	 0.147452065012697 
1054	 0.147595851672734 
1055	 0.14781996489012 
1056	 0.148010341188785 
1057	 0.148165014685935 
1058	 0.148285172241976 
1059	 0.148444199336054 
1060	 0.148581564913203 
1061	 0.148745184615943 
1062	 0.148904704474867 
1063	 0.149062911019418 
1064	 0.149193288312261 
1065	 0.149251688415386 
1066	 0.149337205163118 
1067	 0.149463466873018 
1068	 0.149581932470961 
1069	 0.149707212544227 
1070	 0.149818268432667 
1071	 0.149925306126942 
1072	 0.150018694776407 
1073	 0.150113860435962 
1074	 0.150189304711972 
1075	 0.15024137396389 
1076	 0.150325389895145 
1077	 0.150381451267315 
1078	 0.15037269629363 
1079	 0.150422287667775 
1080	 0.150515688041027 
1081	 0.150605170221392 
1082	 0.150690717397553 
1083	 0.150772584780995 
1084	 0.150858608963482 
1085	 0.150919830493218 
1086	 0.150970841396484 
1087	 0.151014901846386 
1088	 0.151053214246722 
1089	 0.151057347834939 
1090	 0.151064101478438 
1091	 0.151116393084769 
1092	 0.151147919574305 
1093	 0.151207385538232 
1094	 0.1513090120062 
1095	 0.151374948331774 
1096	 0.151492194873795 
1097	 0.151607845675321 
1098	 0.151700969369614 
1099	 0.151789587522519 
1100	 0.151884979907082 
1101	 0.1519664852923 
1102	 0.152036347907437 
1103	 0.152109027051305 
1104	 0.152163296450936 
1105	 0.152200384872047 
1106	 0.152271288998641 
1107	 0.152399639199481 
1108	 0.152531050908796 
1109	 0.152624245608493 
1110	 0.152728570275452 
1111	 0.152852161811846 
1112	 0.152952870983926 
1113	 0.153085167263797 
1114	 0.153281964852462 
1115	 0.153429328418064 
1116	 0.153549268070817 
1117	 0.15368206137034 
1118	 0.153804470715164 
1119	 0.153930781188291 
1120	 0.154091646065711 
1121	 0.154255038909998 
1122	 0.154416561497004 
1123	 0.154582253208585 
1124	 0.154733139981236 
1125	 0.154874205336762 
1126	 0.155016637243435 
1127	 0.155147927000067 
1128	 0.155288398628235 
1129	 0.155429466417055 
1130	 0.155565098288282 
1131	 0.155690344288891 
1132	 0.155843793691473 
1133	 0.156023778692149 
1134	 0.156178397810547 
1135	 0.156345067964553 
1136	 0.156496237737491 
1137	 0.156619758828293 
1138	 0.156727521216982 
1139	 0.156848052998035 
1140	 0.156968874147412 
1141	 0.157097684932139 
1142	 0.157235029734036 
1143	 0.157353920487189 
1144	 0.157471861341587 
1145	 0.157589151942349 
1146	 0.157703138263485 
1147	 0.157804546470857 
1148	 0.157894556694887 
1149	 0.157989865334116 
1150	 0.158065697498721 
1151	 0.158163388416539 
1152	 0.158266723127526 
1153	 0.158360803238843 
1154	 0.158451541032273 
1155	 0.158535839724038 
1156	 0.158614886848498 
1157	 0.158687008068301 
1158	 0.158767269004688 
1159	 0.158847019348027 
1160	 0.158921260146845 
1161	 0.159000991712388 
1162	 0.159075115656212 
1163	 0.159140351377856 
1164	 0.159204070839343 
1165	 0.159271626549937 
1166	 0.15933076446592 
1167	 0.159369950184589 
1168	 0.159428568033983 
1169	 0.159490553818377 
1170	 0.159556089593789 
1171	 0.159621671550455 
1172	 0.159711929664122 
1173	 0.159760133963286 
1174	 0.159774873737676 
1175	 0.159816368217857 
1176	 0.159852352503339 
1177	 0.159888864057013 
1178	 0.159939280984737 
1179	 0.159988166788886 
1180	 0.160030511478426 
1181	 0.160069946102661 
1182	 0.160108168929137 
1183	 0.160157204718461 
1184	 0.160206056145147 
1185	 0.160246185522886 
1186	 0.160299303873172 
1187	 0.160377709233026 
1188	 0.160423312606259 
1189	 0.160451821456043 
1190	 0.160491156181194 
1191	 0.160517031978997 
1192	 0.160554488557622 
1193	 0.160611601246381 
1194	 0.160651699650174 
1195	 0.160676977629811 
1196	 0.160714364637069 
1197	 0.160754881383567 
1198	 0.160791546011738 
1199	 0.160829352091781 
1200	 0.160875211455244 
1201	 0.160914232450254 
1202	 0.160943237768875 
1203	 0.160983394614553 
1204	 0.161036009098112 
1205	 0.161071962782902 
1206	 0.161103639137263 
1207	 0.161133857211822 
1208	 0.161148822529272 
1209	 0.161177229476137 
1210	 0.1612164988911 
1211	 0.161248069115357 
1212	 0.161273946437177 
1213	 0.161309559259539 
1214	 0.1613587674358 
1215	 0.161390291010246 
1216	 0.161416906710214 
1217	 0.161442971826735 
1218	 0.161472524853349 
1219	 0.161489033704043 
1220	 0.161514194644639 
1221	 0.161553166571325 
1222	 0.161583718677194 
1223	 0.161598996159696 
1224	 0.161632671309521 
1225	 0.161678227245696 
1226	 0.161721822543143 
1227	 0.161779465588152 
1228	 0.161822830851466 
1229	 0.161858987271316 
1230	 0.161896365464944 
1231	 0.161924923106219 
1232	 0.161957103612481 
1233	 0.161990564670511 
1234	 0.162027894244628 
1235	 0.162058496909173 
1236	 0.162090679696592 
1237	 0.162113526640409 
1238	 0.162128079806165 
1239	 0.162147275140889 
1240	 0.162161624514062 
1241	 0.162178202332172 
1242	 0.162195148691733 
1243	 0.162215704708901 
1244	 0.162237975747618 
1245	 0.162258843541337 
1246	 0.162283144501134 
1247	 0.162307813477078 
1248	 0.162327271895108 
1249	 0.16235181481611 
1250	 0.162396095148207 
1251	 0.162425860480677 
1252	 0.162446698618293 
1253	 0.16246322991717 
1254	 0.162480882921841 
1255	 0.162480561295237 
1256	 0.16249745596941 
1257	 0.162524810425441 
1258	 0.162551910264675 
1259	 0.162591588675032 
1260	 0.162614808600582 
1261	 0.162627757443988 
1262	 0.162649367023687 
1263	 0.16266555043896 
1264	 0.16268131929563 
1265	 0.162702997186891 
1266	 0.162727739040309 
1267	 0.162745240081615 
1268	 0.162769811731985 
1269	 0.162799842754278 
1270	 0.162838424513481 
1271	 0.162879664079606 
1272	 0.162928451082641 
1273	 0.162966665015203 
1274	 0.163003534509463 
1275	 0.163046059173196 
1276	 0.163078225236011 
1277	 0.163126889478936 
1278	 0.163188536125501 
1279	 0.163253294326212 
1280	 0.163335979636835 
1281	 0.163399794708265 
1282	 0.163459187738851 
1283	 0.163518269066882 
1284	 0.163568099197798 
1285	 0.163614855656204 
1286	 0.16365894990278 
1287	 0.16371040530376 
1288	 0.163757593779233 
1289	 0.16380331244962 
1290	 0.163835079906623 
1291	 0.163866100431653 
1292	 0.163888918601173 
1293	 0.163898719986987 
1294	 0.163899767951442 
1295	 0.163897035985082 
1296	 0.163887275617706 
1297	 0.163860873914812 
1298	 0.163835234338173 
1299	 0.163819368826243 
1300	 0.163781770564209 
1301	 0.163722343570055 
1302	 0.163667378360805 
1303	 0.163605982629992 
1304	 0.163532590524706 
1305	 0.163480194720171 
1306	 0.163422717264034 
1307	 0.163347452330659 
1308	 0.163274839346436 
1309	 0.163199781696132 
1310	 0.163110049915768 
1311	 0.163032533003902 
1312	 0.162964020748921 
1313	 0.16289070955495 
1314	 0.162814082529965 
1315	 0.162745700506384 
1316	 0.162675914345259 
1317	 0.162620021236835 
1318	 0.162564123977545 
1319	 0.16252651528857 
1320	 0.162518860938319 
1321	 0.162493620109879 
1322	 0.16246221453003 
1323	 0.162446434931654 
1324	 0.162438101783268 
1325	 0.162432974781752 
1326	 0.162453360661016 
1327	 0.162469446057565 
1328	 0.162471796403451 
1329	 0.162479047286162 
1330	 0.16250141888768 
1331	 0.162528906382538 
1332	 0.162577985178373 
1333	 0.162647466374093 
1334	 0.162708219377968 
1335	 0.162783020137752 
1336	 0.162848003125071 
1337	 0.162893521917542 
1338	 0.162969689362549 
1339	 0.163065483955823 
1340	 0.163153397334938 
1341	 0.163262590666871 
1342	 0.163357192983378 
1343	 0.163445764861665 
1344	 0.163516939411809 
1345	 0.163608939996754 
1346	 0.163678460180371 
1347	 0.163734334413941 
1348	 0.163780934866132 
1349	 0.16381910743975 
1350	 0.163859534712317 
1351	 0.163897695743577 
1352	 0.163941020540007 
1353	 0.16398101544517 
1354	 0.164015975744 
1355	 0.164047762384969 
1356	 0.164070969503954 
1357	 0.164115823525371 
1358	 0.164155111690164 
1359	 0.16421841732731 
1360	 0.16430825501473 
1361	 0.164394987298232 
1362	 0.164490835654214 
1363	 0.164588524421983 
1364	 0.164683467684052 
1365	 0.164799613501177 
1366	 0.164921411783202 
1367	 0.165065973233981 
1368	 0.165228277932932 
1369	 0.165374359512406 
1370	 0.165497908161043 
1371	 0.165600544341889 
1372	 0.165687122394753 
1373	 0.165761949490395 
1374	 0.165826932794881 
1375	 0.165900787957127 
1376	 0.165923559090865 
1377	 0.165917844438569 
1378	 0.165891384489837 
1379	 0.165811304736615 
1380	 0.165763675497066 
1381	 0.165683425580374 
1382	 0.165668517898098 
1383	 0.165703757197572 
1384	 0.16572151443847 
1385	 0.165782736164063 
1386	 0.165809461466178 
1387	 0.165809538927239 
1388	 0.165811728827629 
1389	 0.165816743909653 
1390	 0.165809829686753 
1391	 0.165768572131763 
1392	 0.165709600466641 
1393	 0.165617279407064 
1394	 0.165510816427305 
1395	 0.16540451135305 
1396	 0.165305050729453 
1397	 0.165217632178808 
1398	 0.16513596337244 
1399	 0.165060205256762 
1400	 0.165006463553763 
1401	 0.164923882481773 
1402	 0.164827922489642 
1403	 0.164742712276821 
1404	 0.164638444457369 
1405	 0.164563873475757 
1406	 0.164518226950876 
1407	 0.164451400302915 
1408	 0.164386542420264 
1409	 0.164322597749552 
1410	 0.164244181801638 
1411	 0.164183764240636 
1412	 0.164141652312155 
1413	 0.164081329244434 
1414	 0.164042149965677 
1415	 0.164017510621349 
1416	 0.163966126038185 
1417	 0.163930746224075 
1418	 0.163892928897674 
1419	 0.163840311917323 
1420	 0.163827557392613 
1421	 0.163827223123639 
1422	 0.163834761456016 
1423	 0.163843024003233 
1424	 0.163828715268132 
1425	 0.163801543047398 
1426	 0.163772707462793 
1427	 0.163714412384505 
1428	 0.163694966439226 
1429	 0.163684733788846 
1430	 0.163688492552525 
1431	 0.163730323504352 
1432	 0.163740217151769 
1433	 0.163741889020386 
1434	 0.163746608351601 
1435	 0.16373534715915 
1436	 0.16373632348757 
1437	 0.163759639082427 
1438	 0.16376077501328 
1439	 0.163754935940836 
1440	 0.163739549243027 
1441	 0.163713639165507 
1442	 0.163694318905148 
1443	 0.163682049110923 
1444	 0.163676813008047 
1445	 0.163708617535563 
1446	 0.163737856391322 
1447	 0.163770438815986 
1448	 0.163808901102242 
1449	 0.163811949732889 
1450	 0.163807342134299 
1451	 0.163809657248962 
1452	 0.163800412736121 
1453	 0.163816884988161 
1454	 0.163847501255356 
1455	 0.163873219481848 
1456	 0.163920205706765 
1457	 0.163939930129863 
1458	 0.163941090531532 
1459	 0.163955272902867 
1460	 0.163948128295217 
1461	 0.163975989093336 
1462	 0.164034655537454 
1463	 0.164079946341589 
1464	 0.164155149957918 
1465	 0.164192424494559 
1466	 0.164197480144127 
1467	 0.164212888682991 
1468	 0.164199693672096 
1469	 0.16421654866941 
1470	 0.164259247328162 
1471	 0.164293835735436 
1472	 0.164329788330836 
1473	 0.164366842636016 
1474	 0.164371260254909 
1475	 0.164388717212841 
1476	 0.164411477782777 
1477	 0.164437904923876 
1478	 0.164487763589482 
1479	 0.164535495819369 
1480	 0.164588686586786 
1481	 0.164639764098603 
1482	 0.164680484845124 
1483	 0.164711976851241 
1484	 0.164750543393506 
1485	 0.164776591764999 
1486	 0.164823345398798 
1487	 0.164887013205651 
1488	 0.164937791866932 
1489	 0.16499985056343 
1490	 0.165050233439201 
1491	 0.165092476092877 
1492	 0.165125499962726 
1493	 0.165140911149523 
1494	 0.165171118809191 
1495	 0.165191279714286 
1496	 0.165231776702287 
1497	 0.16531281554236 
1498	 0.165355497794088 
1499	 0.165389470559858 
1500	 0.165415061894783 
1501	 0.165400185277937 
1502	 0.165413471069414 
1503	 0.165433599723715 
1504	 0.165464980687228 
1505	 0.165519488184103 
1506	 0.165559254778295 
1507	 0.165594143190052 
1508	 0.16563202427521 
1509	 0.165636765925133 
1510	 0.165652539909489 
1511	 0.165679477563518 
1512	 0.165678846881836 
1513	 0.165684602132966 
1514	 0.165705272316728 
1515	 0.165728714013279 
1516	 0.16576552295325 
1517	 0.165804950984459 
1518	 0.165866342577055 
1519	 0.165899936267687 
1520	 0.165921830230771 
1521	 0.165952043537957 
1522	 0.165973730630327 
1523	 0.166003846843894 
1524	 0.166044884683393 
1525	 0.166074151833297 
1526	 0.166099860853147 
1527	 0.166119183594896 
1528	 0.16613445524301 
1529	 0.166147293373172 
1530	 0.166145575325507 
1531	 0.166162962652376 
1532	 0.166187490915336 
1533	 0.166211826613716 
1534	 0.166255024342773 
1535	 0.166276805373193 
1536	 0.16627953315334 
1537	 0.166297345960771 
1538	 0.166309248578594 
1539	 0.166332688229788 
1540	 0.166375392888043 
1541	 0.166407511632634 
1542	 0.166443228029358 
1543	 0.166468117657866 
1544	 0.166487012370231 
1545	 0.166504978093454 
1546	 0.166517139048105 
1547	 0.166515602610622 
1548	 0.166544466274609 
1549	 0.166568941636176 
1550	 0.166583407147365 
1551	 0.166621335762322 
1552	 0.166639493193726 
1553	 0.166639591144025 
1554	 0.16664873765042 
1555	 0.166646919678207 
1556	 0.166649095560265 
1557	 0.166648950178134 
1558	 0.166646589521371 
1559	 0.166661257511741 
1560	 0.166662300813249 
1561	 0.166658820227077 
1562	 0.166652978640726 
1563	 0.166638219755947 
1564	 0.166634846377766 
1565	 0.166628214256615 
1566	 0.166642067873809 
1567	 0.166669525052108 
1568	 0.166699406855395 
1569	 0.166755418133069 
1570	 0.166776001733498 
1571	 0.166788872869404 
1572	 0.166790766509164 
1573	 0.166762182582755 
1574	 0.166752132197093 
1575	 0.166740561891199 
1576	 0.166738167934481 
1577	 0.166746602510586 
1578	 0.166750047898284 
1579	 0.166761409780401 
1580	 0.166763817101375 
1581	 0.166757623199296 
1582	 0.166755919550173 
1583	 0.166745349196976 
1584	 0.166748749713584 
1585	 0.166756980532333 
1586	 0.166772438644159 
1587	 0.166804646180185 
1588	 0.166829986781269 
1589	 0.166864239281976 
1590	 0.166883475989123 
1591	 0.166903263167526 
1592	 0.166904251399341 
1593	 0.166880513173661 
1594	 0.166866926534227 
1595	 0.166840184319349 
1596	 0.166820527424648 
1597	 0.166806016959088 
1598	 0.166796441265235 
1599	 0.166789504234945 
1600	 0.166787391434309 
1601	 0.16678923204567 
1602	 0.166799011488818 
1603	 0.166827891428583 
1604	 0.166837784265187 
1605	 0.166841033379043 
1606	 0.166849227334546 
1607	 0.166857196975754 
1608	 0.166842662658946 
1609	 0.166845082069461 
1610	 0.166843202185205 
1611	 0.166834456811317 
1612	 0.166828454638767 
1613	 0.166834183959544 
1614	 0.166849581355147 
1615	 0.166861490951757 
1616	 0.166875496750975 
1617	 0.166879892605735 
1618	 0.166878463711181 
1619	 0.166875555997913 
1620	 0.166878213385103 
1621	 0.166887870093534 
1622	 0.166908537725943 
1623	 0.166915246512164 
1624	 0.166924386689644 
1625	 0.16692057449874 
1626	 0.166900480354886 
1627	 0.166899327173526 
1628	 0.166900973860331 
1629	 0.166900359920066 
1630	 0.166907883201667 
1631	 0.166909100800324 
1632	 0.166901054711984 
1633	 0.166903613552559 
1634	 0.166916091306099 
1635	 0.166915246009785 
1636	 0.166915680296297 
1637	 0.166904391194523 
1638	 0.166875867479343 
1639	 0.166864665493309 
1640	 0.166849707035209 
1641	 0.166848649145866 
1642	 0.166870475235831 
1643	 0.166866127283715 
1644	 0.166858139723795 
1645	 0.166843796876743 
1646	 0.166806833403506 
1647	 0.166793140864831 
1648	 0.166790108486901 
1649	 0.166781618671674 
1650	 0.166780881663781 
1651	 0.166773067768048 
1652	 0.166752147780636 
1653	 0.166751403724142 
1654	 0.16676373406922 
1655	 0.166765587970434 
1656	 0.166773192976823 
1657	 0.166777388743417 
1658	 0.166776949338286 
1659	 0.166770269209866 
1660	 0.166765170128432 
1661	 0.166753993440596 
1662	 0.166725596470957 
1663	 0.166711834755288 
1664	 0.166703696989307 
1665	 0.166697641958526 
1666	 0.16669558623521 
1667	 0.166695390575349 
1668	 0.166706652415706 
1669	 0.166699956076843 
1670	 0.16667678420339 
1671	 0.166676374726314 
1672	 0.166674925983571 
1673	 0.16668031768653 
1674	 0.166710753046047 
1675	 0.166724020664358 
1676	 0.166728716196695 
1677	 0.166732220321888 
1678	 0.166739807422072 
1679	 0.166732040152957 
1680	 0.166701887609776 
1681	 0.166694753085613 
1682	 0.166693239224653 
1683	 0.166685753023592 
1684	 0.166686629092344 
1685	 0.166687613215629 
1686	 0.166680667615591 
1687	 0.166677021052822 
1688	 0.166676387096694 
1689	 0.166688259354014 
1690	 0.166698431223486 
1691	 0.166720419098765 
1692	 0.166778816593605 
1693	 0.16679582748762 
1694	 0.166795919935803 
1695	 0.166794345124417 
1696	 0.166769329006161 
1697	 0.166755160578925 
1698	 0.166744682807353 
1699	 0.166731619108161 
1700	 0.166702754406148 
1701	 0.166704417596573 
1702	 0.16672583959566 
1703	 0.166743838139017 
1704	 0.166787056521491 
1705	 0.166803321753217 
1706	 0.166800290134691 
1707	 0.166806100392044 
1708	 0.166819191643789 
1709	 0.166807834743881 
1710	 0.166774985923845 
1711	 0.166765799423177 
1712	 0.166753438134319 
1713	 0.166737172734344 
1714	 0.166727451784592 
1715	 0.166737669236319 
1716	 0.166737644581201 
1717	 0.166755802101742 
1718	 0.166832098960066 
1719	 0.166847747731921 
1720	 0.166836911159768 
1721	 0.166816882639245 
1722	 0.166762411200906 
1723	 0.166728823934125 
1724	 0.16669459329633 
1725	 0.166664890352176 
1726	 0.16663290833342 
1727	 0.166618059757679 
1728	 0.166619645177609 
1729	 0.166604583255724 
1730	 0.166592458804693 
1731	 0.166588242394993 
1732	 0.166575017877708 
1733	 0.166563808537188 
1734	 0.166573461687522 
1735	 0.166560569626007 
1736	 0.166527449731471 
1737	 0.166501495952875 
1738	 0.16647134506505 
1739	 0.166448841605097 
1740	 0.166431918384898 
1741	 0.16640033366336 
1742	 0.166373001528722 
1743	 0.16633277068864 
1744	 0.166269458837885 
1745	 0.166236678839114 
1746	 0.1662068129747 
1747	 0.166195805026295 
1748	 0.166181336212609 
1749	 0.166133786748829 
1750	 0.166101487637123 
1751	 0.166096092333359 
1752	 0.166071853349778 
1753	 0.166046952812479 
1754	 0.166058430754914 
1755	 0.166045409336439 
1756	 0.166030897314276 
1757	 0.16602465241952 
1758	 0.165997882086307 
1759	 0.165976217931069 
1760	 0.165960421924266 
1761	 0.165955187879036 
1762	 0.165952434216339 
1763	 0.165955836644213 
1764	 0.165951265552579 
1765	 0.165908824127411 
1766	 0.165889431568786 
1767	 0.165904955627061 
1768	 0.165878524383436 
1769	 0.165867818989224 
1770	 0.165880732137195 
1771	 0.165830253058974 
1772	 0.165795665942632 
1773	 0.165801219420299 
1774	 0.165794631374521 
1775	 0.165789940730179 
1776	 0.165792392436163 
1777	 0.165807903368265 
1778	 0.165821691719393 
1779	 0.165827380057287 
1780	 0.165832213568014 
1781	 0.165824093309878 
1782	 0.16581097912102 
1783	 0.165848741593279 
1784	 0.165848772632853 
1785	 0.165823250662175 
1786	 0.165807466563745 
1787	 0.16575832280993 
1788	 0.16573449880039 
1789	 0.165747961643964 
1790	 0.165746125021915 
1791	 0.165748985943581 
1792	 0.165743613073047 
1793	 0.165721257143538 
1794	 0.165694196145255 
1795	 0.165662655652706 
1796	 0.165648539206748 
1797	 0.165624288680881 
1798	 0.165643422131243 
1799	 0.165696326543649 
1800	 0.165713361192434 
1801	 0.163987788948419 
1802	 0.164157491416063 
1803	 0.164347734410748 
1804	 0.164605807079265 
1805	 0.16485095029254 
1806	 0.165074961927596 
1807	 0.165310238088215 
1808	 0.1654821161082 
1809	 0.165608632390498 
1810	 0.165716199196753 
1811	 0.165795338589915 
1812	 0.165837296912943 
1813	 0.165865733019937 
1814	 0.16590037225011 
1815	 0.165927356266391 
1816	 0.165950668408113 
1817	 0.165969495231386 
1818	 0.165976455007492 
1819	 0.165988027866117 
1820	 0.166007642913268 
1821	 0.166003725715427 
1822	 0.165997837496373 
1823	 0.166015726275571 
1824	 0.166019912108879 
1825	 0.166019747668504 
1826	 0.165990790046807 
1827	 0.165949108083897 
1828	 0.165922611891403 
1829	 0.165886300257345 
1830	 0.16586090122518 
1831	 0.165853819659676 
1832	 0.165846361620343 
1833	 0.165800998565721 
1834	 0.165751274445557 
1835	 0.165744634593312 
1836	 0.165729827022352 
1837	 0.165748559912089 
1838	 0.165810250156419 
1839	 0.165864720101225 
1840	 0.165926048051055 
1841	 0.165986294164147 
1842	 0.166037675964616 
1843	 0.166089860305876 
1844	 0.166116177373185 
1845	 0.166156864236893 
1846	 0.166220921035015 
1847	 0.166286752747475 
1848	 0.166349211752382 
1849	 0.166375840972822 
1850	 0.166415770834291 
1851	 0.166450410319005 
1852	 0.166493822867601 
1853	 0.166526177421513 
1854	 0.166569501868861 
1855	 0.166614252534339 
1856	 0.166627602372298 
1857	 0.166646236587752 
1858	 0.166661290030154 
1859	 0.166665948756232 
1860	 0.166655054329803 
1861	 0.166634282645335 
1862	 0.166583605615182 
1863	 0.166511776743656 
1864	 0.166393275758179 
1865	 0.16624641582814 
1866	 0.166058891931069 
1867	 0.165887895383134 
1868	 0.165742817111391 
1869	 0.165606940760013 
1870	 0.165513061336332 
1871	 0.165454265361806 
1872	 0.165425788297232 
1873	 0.165441038534888 
1874	 0.165465527708014 
1875	 0.16553142722279 
1876	 0.165596772584301 
1877	 0.165624216466059 
1878	 0.165632778740287 
1879	 0.165585814374511 
1880	 0.165492108543712 
1881	 0.165320597935803 
1882	 0.165158347388391 
1883	 0.164980180539864 
1884	 0.164759537135907 
1885	 0.164504203043859 
1886	 0.16424510848861 
1887	 0.163926663161377 
1888	 0.163610040883416 
1889	 0.163305166252962 
1890	 0.162976967331892 
1891	 0.16263501998112 
1892	 0.162290297385931 
1893	 0.161909333542922 
1894	 0.161498714981341 
1895	 0.161077192171682 
1896	 0.160639335408018 
1897	 0.160174540600349 
1898	 0.159716041206702 
1899	 0.15927525135265 
1900	 0.158845521599423 
1901	 0.158430341707097 
1902	 0.15805114994822 
1903	 0.157708297625074 
1904	 0.1573793496716 
1905	 0.1570684244541 
1906	 0.156797738005617 
1907	 0.156553292667839 
1908	 0.156303555460555 
1909	 0.156047571848932 
1910	 0.155793950234429 
1911	 0.155541957827953 
1912	 0.155286050165876 
1913	 0.155052982340988 
1914	 0.154839860599773 
1915	 0.154641695062045 
1916	 0.154452265836668 
1917	 0.154279738904304 
1918	 0.154135224479844 
1919	 0.15401780464158 
1920	 0.153918792576461 
1921	 0.153821977237452 
1922	 0.153744693225502 
1923	 0.153692685803691 
1924	 0.153655457589161 
1925	 0.153657403007398 
1926	 0.153642629955341 
1927	 0.153642992322282 
1928	 0.153619330327527 
1929	 0.153600517126239 
1930	 0.15358784616745 
1931	 0.15358334983032 
1932	 0.153609240198508 
1933	 0.153648919770867 
1934	 0.15367610279785 
1935	 0.153704437516746 
1936	 0.15373371695914 
1937	 0.153770403899914 
1938	 0.153794682660501 
1939	 0.15384349782121 
1940	 0.15391461681765 
1941	 0.153983349284566 
1942	 0.154052922821482 
1943	 0.154136797689791 
1944	 0.154240339294442 
1945	 0.154343722275631 
1946	 0.1544257127439 
1947	 0.154507357714206 
1948	 0.154581211951274 
1949	 0.154609114698257 
1950	 0.154683206259368 
1951	 0.154782449745479 
1952	 0.154885381447361 
1953	 0.154985575382704 
1954	 0.155089500482438 
1955	 0.155188910311342 
1956	 0.155281544315879 
1957	 0.155393316969703 
1958	 0.155524564174574 
1959	 0.155653495631905 
1960	 0.155792648956246 
1961	 0.15592432919199 
1962	 0.156041703944855 
1963	 0.156183654524664 
1964	 0.156338724368809 
1965	 0.156491871468486 
1966	 0.156665417634204 
1967	 0.156843478888923 
1968	 0.156985010163572 
1969	 0.157091945428693 
1970	 0.157222592821953 
1971	 0.157339563993611 
1972	 0.157469518543906 
1973	 0.157629664822345 
1974	 0.157758952762968 
1975	 0.157881655785926 
1976	 0.157985982669389 
1977	 0.158071016436033 
1978	 0.158167613802363 
1979	 0.158269994068278 
1980	 0.158358170061468 
1981	 0.158474256460099 
1982	 0.158597991099118 
1983	 0.158736554803123 
1984	 0.158907445704008 
1985	 0.159065047410667 
1986	 0.159236933262868 
1987	 0.159392624378242 
1988	 0.159544239024751 
1989	 0.159678181049242 
1990	 0.159822930111426 
1991	 0.159942550328456 
1992	 0.160064115853686 
1993	 0.160180643861008 
1994	 0.160296082002794 
1995	 0.160396107330081 
1996	 0.160515961423833 
1997	 0.160643569379975 
1998	 0.160771622743826 
1999	 0.160922948303839 
2000	 0.161049043846369 
2001	 0.16116300355028 
2002	 0.161267762622561 
2003	 0.161382283702021 
2004	 0.161498853617462 
2005	 0.161621626361727 
2006	 0.161753795647591 
2007	 0.161896180762516 
2008	 0.162040734066497 
2009	 0.162191970979468 
2010	 0.162373644505201 
2011	 0.162533668158014 
2012	 0.16268824325595 
2013	 0.162832851996452 
2014	 0.162970094077011 
2015	 0.163095215614277 
2016	 0.163207778938527 
2017	 0.163338412178752 
2018	 0.163458844400048 
2019	 0.163576601751634 
2020	 0.163689525725602 
2021	 0.163800290549812 
2022	 0.163907551519258 
2023	 0.164004869713098 
2024	 0.164109941385401 
2025	 0.164215224485969 
2026	 0.164323208610747 
2027	 0.164438756486426 
2028	 0.164547958928912 
2029	 0.164659070907265 
2030	 0.164771269222185 
2031	 0.164885649753671 
2032	 0.165004539828225 
2033	 0.16511001400329 
2034	 0.165214253681798 
2035	 0.165313471291046 
2036	 0.165391545125786 
2037	 0.165490021764131 
2038	 0.165607317355297 
2039	 0.165704995175911 
2040	 0.165791977599612 
2041	 0.165897699899605 
2042	 0.165971541031584 
2043	 0.166042726080036 
2044	 0.166126445194173 
2045	 0.166211182659181 
2046	 0.166301174162437 
2047	 0.166414402580637 
2048	 0.166497108833985 
2049	 0.166558312529579 
2050	 0.166635929202007 
2051	 0.166695298617489 
2052	 0.166777598884288 
2053	 0.166895324613858 
2054	 0.166993681871412 
2055	 0.167109110096649 
2056	 0.167192322462993 
2057	 0.167257521016053 
2058	 0.167292200679649 
2059	 0.167349123535645 
2060	 0.167392339315044 
2061	 0.167442649237362 
2062	 0.167504434630701 
2063	 0.167563684110035 
2064	 0.167611804290966 
2065	 0.167671863268949 
2066	 0.167740058770225 
2067	 0.167815851956972 
2068	 0.167910312079523 
2069	 0.167984793162062 
2070	 0.168061122257989 
2071	 0.16814513328359 
2072	 0.168215601576671 
2073	 0.168260059116054 
2074	 0.168341282511384 
2075	 0.168443260334153 
2076	 0.168526767497813 
2077	 0.168631781527488 
2078	 0.168707734048544 
2079	 0.168750072536572 
2080	 0.168809895884702 
2081	 0.168860011810146 
2082	 0.168920610876893 
2083	 0.169002477854842 
2084	 0.16906837133408 
2085	 0.169127621591258 
2086	 0.169183665179345 
2087	 0.169245979968233 
2088	 0.16930470062314 
2089	 0.169354535927413 
2090	 0.169396501456592 
2091	 0.169456297472247 
2092	 0.169503659551622 
2093	 0.169572713779516 
2094	 0.169684968807119 
2095	 0.169769027649767 
2096	 0.169850257149884 
2097	 0.169921208116573 
2098	 0.169964409913103 
2099	 0.170022895859957 
2100	 0.170099120103779 
2101	 0.170188294513207 
2102	 0.170259243775236 
2103	 0.170338558347701 
2104	 0.170417881380304 
2105	 0.170475623524642 
2106	 0.170554223436651 
2107	 0.170654862740963 
2108	 0.170750472696236 
2109	 0.170848110454548 
2110	 0.170942072860483 
2111	 0.171047662945855 
2112	 0.171140600080885 
2113	 0.171211812909141 
2114	 0.171299985529538 
2115	 0.171385449128998 
2116	 0.171467821821252 
2117	 0.171555674598866 
2118	 0.171655610061198 
2119	 0.171737401468998 
2120	 0.171820884548153 
2121	 0.171884291850118 
2122	 0.17193012305824 
2123	 0.171975325790296 
2124	 0.171991218085546 
2125	 0.172036992290791 
2126	 0.172097978060302 
2127	 0.172152986652979 
2128	 0.172228334759157 
2129	 0.172289192601373 
2130	 0.172341238688432 
2131	 0.172388454964514 
2132	 0.172421664638432 
2133	 0.172445955589879 
2134	 0.172465654698674 
2135	 0.172467860155912 
2136	 0.172478597447572 
2137	 0.172488650135777 
2138	 0.172500204035401 
2139	 0.172526599547492 
2140	 0.172522244678792 
2141	 0.17251134246332 
2142	 0.172483323116799 
2143	 0.172426498768747 
2144	 0.172367665285163 
2145	 0.172300705031217 
2146	 0.172225989755728 
2147	 0.172120569412663 
2148	 0.172032996184969 
2149	 0.171972656089943 
2150	 0.171927481262765 
2151	 0.171878834448952 
2152	 0.17187638906044 
2153	 0.171812840597141 
2154	 0.171716670622737 
2155	 0.171622229073516 
2156	 0.171505303874907 
2157	 0.171388257433256 
2158	 0.171265461613606 
2159	 0.171137540659779 
2160	 0.170995676421849 
2161	 0.170861363865183 
2162	 0.170719218732229 
2163	 0.170590495142433 
2164	 0.170490762224499 
2165	 0.170352450545709 
2166	 0.170230982402348 
2167	 0.17012525902772 
2168	 0.169993270850272 
2169	 0.169834941100029 
2170	 0.169707874978832 
2171	 0.169580203711289 
2172	 0.169461536517541 
2173	 0.16937079201169 
2174	 0.16926148175283 
2175	 0.169144876439278 
2176	 0.169027101743003 
2177	 0.168905825106882 
2178	 0.168785257164705 
2179	 0.168643714492413 
2180	 0.168532604307297 
2181	 0.168454995551105 
2182	 0.16835401041209 
2183	 0.168256843816263 
2184	 0.168166689308431 
2185	 0.168053562616178 
2186	 0.167902654688955 
2187	 0.167790285950205 
2188	 0.167691257193774 
2189	 0.167583678198152 
2190	 0.167475909643929 
2191	 0.167386522493135 
2192	 0.167295617067304 
2193	 0.167222131636436 
2194	 0.167175311041624 
2195	 0.167124484912276 
2196	 0.1670844746836 
2197	 0.167034992155149 
2198	 0.166976489174163 
2199	 0.166936901322024 
2200	 0.166902758825054 
2201	 0.166869287112819 
2202	 0.166859060927239 
2203	 0.166840532487863 
2204	 0.166805792160207 
2205	 0.166750119424601 
2206	 0.166715285426987 
2207	 0.16666807958042 
2208	 0.166653244552395 
2209	 0.166674157371926 
2210	 0.166668304332382 
2211	 0.166668037755049 
2212	 0.166661038075722 
2213	 0.166628582996336 
2214	 0.16661968918849 
2215	 0.166620883901034 
2216	 0.166628679865849 
2217	 0.166652242934132 
2218	 0.166669526097698 
2219	 0.166701208880707 
2220	 0.16671548759896 
2221	 0.166710767133994 
2222	 0.166719945029914 
2223	 0.166730498390914 
2224	 0.166716211810092 
2225	 0.166694989561528 
2226	 0.166657513342281 
2227	 0.166645887357035 
2228	 0.166624951208557 
2229	 0.166624192180566 
2230	 0.16666007845968 
2231	 0.166672221007509 
2232	 0.166672412790254 
2233	 0.166680193454376 
2234	 0.16668147634555 
2235	 0.16670080095376 
2236	 0.166742783939584 
2237	 0.166762009036998 
2238	 0.166797645930671 
2239	 0.166799024424324 
2240	 0.166754431162723 
2241	 0.166732194405011 
2242	 0.16668864535473 
2243	 0.166674843548168 
2244	 0.166691887911891 
2245	 0.166711297247445 
2246	 0.16669698174406 
2247	 0.166684237056807 
2248	 0.166666361979473 
2249	 0.166619956083997 
2250	 0.166591654486338 
2251	 0.166569720103912 
2252	 0.166558699030936 
2253	 0.166544306752761 
2254	 0.16654818279122 
2255	 0.166581291010557 
2256	 0.166605124620512 
2257	 0.166638855431422 
2258	 0.16664777027883 
2259	 0.166640169281131 
2260	 0.166644112155451 
2261	 0.166637138212373 
2262	 0.166639327892718 
2263	 0.166639876870772 
2264	 0.166668935913394 
2265	 0.166721640778108 
2266	 0.166760847238755 
2267	 0.16682589152671 
2268	 0.166878814956959 
2269	 0.166930710174243 
2270	 0.16694013364607 
2271	 0.166978732549745 
2272	 0.16698247247503 
2273	 0.166976410479947 
2274	 0.166973497022312 
2275	 0.166997289081685 
2276	 0.167044060643246 
2277	 0.167073580946719 
2278	 0.16713131469503 
2279	 0.167144821517327 
2280	 0.167103531771437 
2281	 0.167115982880106 
2282	 0.167133878385575 
2283	 0.167154923520587 
2284	 0.167209304855705 
2285	 0.167252409521772 
2286	 0.167280135364424 
2287	 0.167325537507827 
2288	 0.167397258437461 
2289	 0.167445099856777 
2290	 0.167485588120996 
2291	 0.16752112136674 
2292	 0.167538060810149 
2293	 0.167563311307572 
2294	 0.167603197257352 
2295	 0.167627958699365 
2296	 0.167629049830398 
2297	 0.167651668921368 
2298	 0.167703348607862 
2299	 0.167762635022264 
2300	 0.167836367005387 
2301	 0.167883274996531 
2302	 0.167900054393316 
2303	 0.167843230886235 
2304	 0.167792857336941 
2305	 0.167825403501519 
2306	 0.167831891370789 
2307	 0.167848402700663 
2308	 0.16787137076961 
2309	 0.167891220575037 
2310	 0.167922045150158 
2311	 0.167988518072764 
2312	 0.168009036027045 
2313	 0.168006368727355 
2314	 0.168026558598443 
2315	 0.168029808655826 
2316	 0.168045205265831 
2317	 0.168075399488945 
2318	 0.168106744100512 
2319	 0.168157704115041 
2320	 0.168170397234989 
2321	 0.16816703629345 
2322	 0.168188013882639 
2323	 0.168158325458269 
2324	 0.168179655287326 
2325	 0.168256495313432 
2326	 0.168332447811263 
2327	 0.16843189235084 
2328	 0.168531343261496 
2329	 0.168619438564481 
2330	 0.168701065493508 
2331	 0.168763844144003 
2332	 0.168808016232021 
2333	 0.168857738453053 
2334	 0.168907908481596 
2335	 0.168932845404592 
2336	 0.168946493758883 
2337	 0.169011562631719 
2338	 0.169048373876433 
2339	 0.169027176561864 
2340	 0.169089602825849 
2341	 0.169151511228231 
2342	 0.169137979273725 
2343	 0.169178065691765 
2344	 0.169233542237468 
2345	 0.169250363387292 
2346	 0.169235297220871 
2347	 0.169229110731598 
2348	 0.169189525152008 
2349	 0.169188244935696 
2350	 0.169217926677972 
2351	 0.169203680714668 
2352	 0.169182551167276 
2353	 0.169177674023594 
2354	 0.16912500451237 
2355	 0.169114941085093 
2356	 0.169188346722981 
2357	 0.169192758308608 
2358	 0.169172737290478 
2359	 0.169150968617329 
2360	 0.169073726156953 
2361	 0.169044468847732 
2362	 0.169059240265603 
2363	 0.169027872079709 
2364	 0.168984954333404 
2365	 0.16894796257355 
2366	 0.168860522269069 
2367	 0.168829886442114 
2368	 0.168859649930394 
2369	 0.168860033411923 
2370	 0.168881864208347 
2371	 0.168878168924402 
2372	 0.168820579326484 
2373	 0.168749910050388 
2374	 0.168687102072036 
2375	 0.168596546829063 
2376	 0.16856793378155 
2377	 0.168601666214267 
2378	 0.168549086294374 
2379	 0.168541389247896 
2380	 0.168514247977307 
2381	 0.168417449394404 
2382	 0.168361475483872 
2383	 0.168262380082132 
2384	 0.168159169890295 
2385	 0.168067940157314 
2386	 0.168039110273055 
2387	 0.168024173123566 
2388	 0.167956091004218 
2389	 0.167976437328841 
2390	 0.168030149445731 
2391	 0.168062570828677 
2392	 0.168089693813863 
2393	 0.168029762576002 
2394	 0.167880613086231 
2395	 0.167747588825659 
2396	 0.167695908497864 
2397	 0.16768913373088 
2398	 0.167692605213113 
2399	 0.167698770761642 
2400	 0.167664385336624 
2401	 0.167583822332339 
2402	 0.167582941556618 
2403	 0.167555138974102 
2404	 0.167436031538694 
2405	 0.167411632220734 
2406	 0.167317496916631 
2407	 0.167213838812368 
2408	 0.167161901642573 
2409	 0.167044341569459 
2410	 0.166980113791081 
2411	 0.166814678650106 
2412	 0.166731480259884 
2413	 0.166761431313288 
2414	 0.166622828279113 
2415	 0.166568612701861 
2416	 0.166461482717447 
2417	 0.166216943030906 
2418	 0.166123583362247 
2419	 0.166107582430133 
2420	 0.1660688318421 
2421	 0.166095954326879 
2422	 0.166105279943041 
2423	 0.166152890204265 
2424	 0.166100438044943 
2425	 0.165997701757671 
2426	 0.165941894089459 
2427	 0.165784860065433 
2428	 0.165723990596892 
2429	 0.165814475635744 
2430	 0.16577220919405 
2431	 0.165693417166363 
2432	 0.165611748854479 
2433	 0.165461969414644 
2434	 0.165317804868207 
2435	 0.165118312983362 
2436	 0.165004141223967 
2437	 0.164927487438531 
2438	 0.164885908877324 
2439	 0.164979247077853 
2440	 0.164955488379433 
2441	 0.16484983781628 
2442	 0.164766639901514 
2443	 0.164693633934479 
2444	 0.16453614156932 
2445	 0.16432396866956 
2446	 0.16420085937571 
2447	 0.164010123402909 
2448	 0.163930411422287 
2449	 0.163997626504245 
2450	 0.163920561085695 
2451	 0.163813458535168 
2452	 0.163668080710398 
2453	 0.16342574033484 
2454	 0.163348315467614 
2455	 0.163348604700919 
2456	 0.163309853152053 
2457	 0.163405694229045 
2458	 0.163277392413832 
2459	 0.162918897865152 
2460	 0.162770454243884 
2461	 0.162607442762667 
2462	 0.162512140151553 
2463	 0.16261470095417 
2464	 0.162565227861297 
2465	 0.162451483417593 
2466	 0.162388840807516 
2467	 0.162293270771751 
2468	 0.16223838171806 
2469	 0.162187445579513 
2470	 0.16206058216598 
2471	 0.161989724739623 
2472	 0.162052196381796 
2473	 0.162097599069139 
2474	 0.161998884458898 
2475	 0.161952578294871 
2476	 0.16164059415684 
2477	 0.161349177156221 
2478	 0.161419710656372 
2479	 0.161438486937938 
2480	 0.161423379920227 
2481	 0.161494629575037 
2482	 0.161501522730871 
2483	 0.161385973320388 
2484	 0.161348017991263 
2485	 0.161333554442944 
2486	 0.161123090001665 
2487	 0.160945570648649 
2488	 0.16081202669768 
2489	 0.160758404623334 
2490	 0.160833778977134 
2491	 0.160844838074885 
2492	 0.1606621718944 
2493	 0.160348496441962 
2494	 0.160130125036256 
2495	 0.15999785004067 
2496	 0.160107267920361 
2497	 0.160406198208744 
2498	 0.160510162655324 
2499	 0.160473177938089 
2500	 0.160421394153866 
