Wavelength	LMW_1900003.asd
350	 4.75839682138781E-02 
351	 5.36361288478293E-02 
352	 5.25551885872543E-02 
353	 4.54166088043009E-02 
354	 0.048416017291096 
355	 4.97881402334107E-02 
356	 4.84411795485756E-02 
357	 0.046397538111498 
358	 4.60483170774686E-02 
359	 4.71134387679553E-02 
360	 4.86791333475886E-02 
361	 4.95209180001758E-02 
362	 4.92918693219164E-02 
363	 4.94386015591792E-02 
364	 5.01552391801541E-02 
365	 4.93361991951151E-02 
366	 4.92978655613769E-02 
367	 0.04867969325251 
368	 4.63698546190851E-02 
369	 4.58080624478694E-02 
370	 4.71488052805452E-02 
371	 4.96377120930004E-02 
372	 5.19027518639604E-02 
373	 5.20448369344824E-02 
374	 5.28335645178153E-02 
375	 5.50159969538332E-02 
376	 5.50654667612848E-02 
377	 5.03187515565021E-02 
378	 4.80250885506901E-02 
379	 5.38528585802954E-02 
380	 5.44464642607022E-02 
381	 5.38136236420215E-02 
382	 5.51981534664544E-02 
383	 0.05987689653167 
384	 5.75034918823807E-02 
385	 5.51963157807173E-02 
386	 5.70478989800446E-02 
387	 5.64594592458492E-02 
388	 5.74356261054858E-02 
389	 5.92392100383165E-02 
390	 5.99199683559216E-02 
391	 5.90261738062262E-02 
392	 5.93137813932976E-02 
393	 6.08005181884285E-02 
394	 6.12742246282552E-02 
395	 6.33804426062484E-02 
396	 6.44393073072164E-02 
397	 6.33422822437577E-02 
398	 6.41588660278302E-02 
399	 6.38915262330586E-02 
400	 6.39379533301891E-02 
401	 6.60752028409628E-02 
402	 6.49318042368098E-02 
403	 6.46683728147294E-02 
404	 6.57989433373495E-02 
405	 6.47929988280376E-02 
406	 6.56641550018226E-02 
407	 6.73011017569416E-02 
408	 6.81574866244011E-02 
409	 6.82548275230622E-02 
410	 6.77109706926438E-02 
411	 6.74797724899709E-02 
412	 6.84951370314282E-02 
413	 6.87619752840507E-02 
414	 6.88902099231623E-02 
415	 6.91291151358058E-02 
416	 0.068944380794065 
417	 6.90548327817655E-02 
418	 6.96419821412446E-02 
419	 7.04860772005353E-02 
420	 7.05984935885158E-02 
421	 7.05340894962568E-02 
422	 7.07988298208658E-02 
423	 7.16599332301596E-02 
424	 7.13458298140943E-02 
425	 7.10200199300919E-02 
426	 7.14929194374121E-02 
427	 7.23830378972135E-02 
428	 7.25062771662174E-02 
429	 7.21189246132105E-02 
430	 7.19830531037954E-02 
431	 7.26143917379609E-02 
432	 7.31894413668808E-02 
433	 7.34475132918839E-02 
434	 7.37208493304783E-02 
435	 7.37115753180561E-02 
436	 7.37050267498136E-02 
437	 7.38675376805994E-02 
438	 7.37110942219235E-02 
439	 7.39794587214122E-02 
440	 7.45506797978263E-02 
441	 7.48982779778676E-02 
442	 7.50950930023747E-02 
443	 7.52776828782815E-02 
444	 0.075460426286797 
445	 7.54503929963462E-02 
446	 7.55768116264263E-02 
447	 7.59050786879268E-02 
448	 7.63340395764389E-02 
449	 7.64225267171827E-02 
450	 7.67859246814235E-02 
451	 7.72714745043624E-02 
452	 7.71218109985448E-02 
453	 7.72172902226366E-02 
454	 7.74919146570478E-02 
455	 7.77589567510666E-02 
456	 7.79940440635005E-02 
457	 0.077985826479578 
458	 7.79291637641204E-02 
459	 7.81512321747611E-02 
460	 7.84198885544058E-02 
461	 7.85668668079024E-02 
462	 7.85880136428028E-02 
463	 7.86821297041436E-02 
464	 7.91849478334329E-02 
465	 7.96464010679546E-02 
466	 7.96467953994365E-02 
467	 7.98344900074063E-02 
468	 8.00580581464766E-02 
469	 8.02201607879781E-02 
470	 8.02890708317981E-02 
471	 8.03062607497013E-02 
472	 0.080502641067527 
473	 8.09075820123897E-02 
474	 8.10170700193233E-02 
475	 8.11149284045179E-02 
476	 8.12448769915245E-02 
477	 8.13546716126608E-02 
478	 8.14303920486128E-02 
479	 8.16444395203041E-02 
480	 8.19749173839192E-02 
481	 8.21173795900211E-02 
482	 0.082255702552821 
483	 8.24371481135097E-02 
484	 8.26536732966204E-02 
485	 8.28306438496303E-02 
486	 8.29803117620572E-02 
487	 8.30927394953397E-02 
488	 8.31487938383875E-02 
489	 8.33291055470634E-02 
490	 8.34809417071282E-02 
491	 8.35066213296863E-02 
492	 8.35780525040965E-02 
493	 8.37019398297009E-02 
494	 8.38752469415864E-02 
495	 8.40777710176674E-02 
496	 0.084262704755885 
497	 8.43954154552525E-02 
498	 8.44802132469795E-02 
499	 0.084569693470962 
500	 8.47224626428761E-02 
501	 8.48209810744523E-02 
502	 8.47846433507995E-02 
503	 8.49331947076103E-02 
504	 8.50927359782211E-02 
505	 8.52084668878488E-02 
506	 8.53482526310021E-02 
507	 0.085492676044196 
508	 8.56348736083018E-02 
509	 8.57475813814817E-02 
510	 8.57358058985514E-02 
511	 8.57150881509397E-02 
512	 8.57658966769093E-02 
513	 0.085922285032662 
514	 8.59912962514612E-02 
515	 8.61355785188424E-02 
516	 0.086370900339901 
517	 8.63974044718333E-02 
518	 8.63507604181983E-02 
519	 8.63640621799465E-02 
520	 0.086528789761686 
521	 8.67210591093065E-02 
522	 8.68358133570572E-02 
523	 8.68777344989368E-02 
524	 8.69607751556825E-02 
525	 8.70135520093043E-02 
526	 8.70878960326122E-02 
527	 8.72094444889746E-02 
528	 0.08724612843288 
529	 8.72209158721784E-02 
530	 8.72325160950976E-02 
531	 8.73985388654507E-02 
532	 0.087429416756133 
533	 8.74662967123795E-02 
534	 8.76045537588005E-02 
535	 8.77227201007446E-02 
536	 8.77886532711083E-02 
537	 0.087876888991604 
538	 0.088059128364418 
539	 8.80470180082382E-02 
540	 8.80746069128151E-02 
541	 8.82154913484446E-02 
542	 8.82790998788959E-02 
543	 8.83208962150314E-02 
544	 8.84074492746119E-02 
545	 8.85583986573031E-02 
546	 8.85873213737175E-02 
547	 8.86001289165779E-02 
548	 8.86387430505372E-02 
549	 8.86836968928628E-02 
550	 8.87416314131545E-02 
551	 8.88425246038758E-02 
552	 8.89885891288332E-02 
553	 8.91126286550845E-02 
554	 8.91496198638551E-02 
555	 8.91625554136065E-02 
556	 8.92683564253038E-02 
557	 8.93704207611363E-02 
558	 8.94942313445473E-02 
559	 8.96328353802511E-02 
560	 0.08969814304299 
561	 8.97395082189102E-02 
562	 8.98206136753859E-02 
563	 8.99676806084572E-02 
564	 8.99763320867666E-02 
565	 8.99672176881265E-02 
566	 9.00033446989745E-02 
567	 9.00610310872884E-02 
568	 9.01951016721468E-02 
569	 9.03456193289946E-02 
570	 9.04587673904482E-02 
571	 9.06051579162745E-02 
572	 9.07019206221503E-02 
573	 9.07574745434113E-02 
574	 9.08431773277766E-02 
575	 9.09287244600862E-02 
576	 9.10515881764507E-02 
577	 9.11904289336699E-02 
578	 9.11719259558667E-02 
579	 9.10864491535247E-02 
580	 9.10248970200642E-02 
581	 9.10589130609424E-02 
582	 9.10946426579571E-02 
583	 9.10890891796951E-02 
584	 9.10674863094573E-02 
585	 9.11408429403003E-02 
586	 9.13258631037915E-02 
587	 9.14998059124317E-02 
588	 9.15527228691551E-02 
589	 0.091631366394634 
590	 9.17173703019667E-02 
591	 9.18050025510972E-02 
592	 9.19034088330858E-02 
593	 0.091979583273573 
594	 0.092102952337792 
595	 9.22859633926295E-02 
596	 9.23425597345491E-02 
597	 9.23336871077676E-02 
598	 0.092313605595347 
599	 0.09232950677027 
600	 9.23675897788534E-02 
601	 9.23781921261718E-02 
602	 9.23505257128069E-02 
603	 9.23466073259803E-02 
604	 9.23805441052088E-02 
605	 0.092440818178197 
606	 9.24978395655589E-02 
607	 9.24903749099111E-02 
608	 9.25483710187913E-02 
609	 9.26912155298708E-02 
610	 9.28008066326198E-02 
611	 9.28095955985227E-02 
612	 9.27995846332625E-02 
613	 9.28530503228839E-02 
614	 9.29146864017734E-02 
615	 9.29491326130556E-02 
616	 9.29659732291004E-02 
617	 9.30057729681186E-02 
618	 9.30754656560489E-02 
619	 9.30849751821024E-02 
620	 9.30306886277001E-02 
621	 9.31349973108266E-02 
622	 9.31980377337134E-02 
623	 9.32099009036497E-02 
624	 9.32361441210313E-02 
625	 9.33095326639111E-02 
626	 9.33462909994692E-02 
627	 9.33382334556735E-02 
628	 9.33883664194874E-02 
629	 9.34124883860111E-02 
630	 9.34517883184789E-02 
631	 9.35336631202007E-02 
632	 9.34904658150962E-02 
633	 9.35023901817783E-02 
634	 9.35909260948477E-02 
635	 9.36430009499641E-02 
636	 9.36648762463893E-02 
637	 9.36878680344232E-02 
638	 0.093731773906939 
639	 9.37750474097327E-02 
640	 9.38042333421925E-02 
641	 9.38478226308904E-02 
642	 9.39361796177369E-02 
643	 9.39516687424783E-02 
644	 9.39532340534008E-02 
645	 9.39856840968539E-02 
646	 9.40496899106505E-02 
647	 9.40733459556736E-02 
648	 9.40877496655604E-02 
649	 0.094140198774047 
650	 9.42078819628668E-02 
651	 9.42448788732548E-02 
652	 9.42627530903258E-02 
653	 9.43210694628664E-02 
654	 9.44084517926783E-02 
655	 9.44440334371277E-02 
656	 9.44123915968786E-02 
657	 9.44933930430188E-02 
658	 9.45741955843197E-02 
659	 9.46228924004728E-02 
660	 9.46490310716487E-02 
661	 9.46787180412527E-02 
662	 9.47219079780652E-02 
663	 0.094775283714799 
664	 0.09481926965631 
665	 9.48862867409379E-02 
666	 9.49372609313148E-02 
667	 9.49427695523852E-02 
668	 9.50044103700166E-02 
669	 9.50141147234153E-02 
670	 9.49979193778774E-02 
671	 9.50861288779407E-02 
672	 9.51515444151048E-02 
673	 9.52105573538309E-02 
674	 9.52797309550871E-02 
675	 9.53185563752485E-02 
676	 9.53225888599732E-02 
677	 9.53237713364063E-02 
678	 0.09536376687817 
679	 9.54236180689278E-02 
680	 9.54445311526812E-02 
681	 9.54357702853646E-02 
682	 9.54975469715774E-02 
683	 9.55692964023213E-02 
684	 9.56166100612387E-02 
685	 9.56276947905699E-02 
686	 9.56408609019263E-02 
687	 9.56912861656664E-02 
688	 9.57636202091073E-02 
689	 9.58043866838048E-02 
690	 9.57661512689151E-02 
691	 9.57584413589021E-02 
692	 9.58301519482682E-02 
693	 9.58662964901512E-02 
694	 9.58971454467199E-02 
695	 9.59257291504309E-02 
696	 9.59489660766637E-02 
697	 9.59642454896973E-02 
698	 9.60034475356116E-02 
699	 9.60599353644365E-02 
700	 9.60867437657631E-02 
701	 9.61147120687373E-02 
702	 9.61259015725481E-02 
703	 9.61172600451756E-02 
704	 9.61587460358116E-02 
705	 9.61692640580517E-02 
706	 9.61649184417368E-02 
707	 0.096201386857841 
708	 9.62038918156326E-02 
709	 9.62075052934396E-02 
710	 0.096232739315453 
711	 9.62624572860425E-02 
712	 0.096317133854483 
713	 9.63350464187565E-02 
714	 9.62847476559234E-02 
715	 9.63341519165396E-02 
716	 9.63762614004311E-02 
717	 0.096386117507591 
718	 9.64006822622044E-02 
719	 9.63875405044716E-02 
720	 9.63906761343657E-02 
721	 9.64228533186991E-02 
722	 9.64151410208265E-02 
723	 9.64276724443277E-02 
724	 0.096463508528112 
725	 9.64949920057069E-02 
726	 9.64397525097131E-02 
727	 9.64503509965413E-02 
728	 9.65205559615978E-02 
729	 9.64963390852031E-02 
730	 9.65045635870345E-02 
731	 9.65086482598288E-02 
732	 9.64801578088015E-02 
733	 9.64806525273887E-02 
734	 9.64715616000586E-02 
735	 9.64579907296898E-02 
736	 9.64543167593202E-02 
737	 9.64153821205632E-02 
738	 9.64021023056055E-02 
739	 9.64195657050107E-02 
740	 9.64058323017709E-02 
741	 9.63997218866917E-02 
742	 9.63919811991071E-02 
743	 9.63690207345788E-02 
744	 9.63258846759471E-02 
745	 9.63225543313713E-02 
746	 9.63474723025872E-02 
747	 9.63527160847551E-02 
748	 9.63140634884564E-02 
749	 0.096279817290941 
750	 9.62736016113888E-02 
751	 9.62799390877309E-02 
752	 9.62509650093257E-02 
753	 9.62110532151841E-02 
754	 9.61876626932895E-02 
755	 9.61589360939957E-02 
756	 9.61581191743082E-02 
757	 9.61659319104673E-02 
758	 9.61457991039496E-02 
759	 9.61576610087072E-02 
760	 9.61316978832062E-02 
761	 0.096068621761684 
762	 0.096068856124417 
763	 9.60655949935645E-02 
764	 9.60585304809468E-02 
765	 9.60515494417044E-02 
766	 9.60106204359483E-02 
767	 9.60037418720384E-02 
768	 9.60235876611656E-02 
769	 9.60231145969444E-02 
770	 9.59786660989344E-02 
771	 9.59611175337254E-02 
772	 9.59720321348957E-02 
773	 9.59236003992765E-02 
774	 9.59314031953249E-02 
775	 9.59227308348613E-02 
776	 9.58507891891621E-02 
777	 0.095859004791097 
778	 0.095843163170568 
779	 9.58176258896339E-02 
780	 9.58326414693601E-02 
781	 9.57989249704187E-02 
782	 9.57856661306915E-02 
783	 9.57853098578308E-02 
784	 9.57052667958906E-02 
785	 9.56887683037861E-02 
786	 9.57051241867459E-02 
787	 9.57075581389562E-02 
788	 9.56993977880565E-02 
789	 9.56610689579085E-02 
790	 9.56196718906382E-02 
791	 9.56068099315933E-02 
792	 9.55716975942584E-02 
793	 9.55622990879258E-02 
794	 9.55655587000962E-02 
795	 9.55191658043684E-02 
796	 9.54872268056855E-02 
797	 9.54776806180923E-02 
798	 9.54782779963876E-02 
799	 0.09545758462785 
800	 9.54356171118349E-02 
801	 9.54210999512961E-02 
802	 9.54089792504805E-02 
803	 9.53507603618564E-02 
804	 9.53277801875173E-02 
805	 9.53325489875211E-02 
806	 9.53071748863903E-02 
807	 9.53019514033854E-02 
808	 9.52984880829461E-02 
809	 9.52777289470002E-02 
810	 0.095231154146275 
811	 9.52494879314431E-02 
812	 9.52595977846755E-02 
813	 9.52098691031501E-02 
814	 9.52159245450706E-02 
815	 9.51783272912787E-02 
816	 9.51245418468137E-02 
817	 9.51180289640738E-02 
818	 9.51119470582247E-02 
819	 9.51078355557767E-02 
820	 9.50857229359748E-02 
821	 9.50176986803298E-02 
822	 9.50210185620148E-02 
823	 9.50326909374279E-02 
824	 9.50158683253301E-02 
825	 9.50231016513465E-02 
826	 9.50275124236925E-02 
827	 9.50098719692123E-02 
828	 9.49705731122888E-02 
829	 9.49646117562596E-02 
830	 9.49546617714745E-02 
831	 9.49346495902305E-02 
832	 0.094913619184025 
833	 9.48859282894107E-02 
834	 9.48900898571443E-02 
835	 9.49003739396812E-02 
836	 9.48408535738566E-02 
837	 9.48307274700171E-02 
838	 9.48522166061524E-02 
839	 9.48590520046828E-02 
840	 9.47970713666298E-02 
841	 0.094777593472849 
842	 9.47864406744504E-02 
843	 9.47813443508469E-02 
844	 9.47460236161592E-02 
845	 9.47767572016393E-02 
846	 9.48222974450328E-02 
847	 9.47887968770882E-02 
848	 9.47807276868841E-02 
849	 9.47405115856092E-02 
850	 9.46876190573625E-02 
851	 9.47001139689192E-02 
852	 9.46665566623024E-02 
853	 9.46546573870403E-02 
854	 9.46773992105391E-02 
855	 0.094635874165546 
856	 9.46401311158829E-02 
857	 9.46701729809981E-02 
858	 9.46787205876862E-02 
859	 9.46236856826846E-02 
860	 9.46281283384858E-02 
861	 9.46519198255569E-02 
862	 9.46184213338044E-02 
863	 9.45707234653954E-02 
864	 9.45775582888803E-02 
865	 0.094616979348719 
866	 9.46179882303394E-02 
867	 9.46105958553005E-02 
868	 9.45969088582145E-02 
869	 9.45803086809758E-02 
870	 9.45684829964943E-02 
871	 0.094596031315843 
872	 0.094590003492056 
873	 9.45396870135004E-02 
874	 9.45588354188473E-02 
875	 9.45731474465355E-02 
876	 9.45471703904749E-02 
877	 0.094487139734899 
878	 0.094478665104151 
879	 9.44844009372106E-02 
880	 9.45056471503869E-02 
881	 0.094541904605744 
882	 9.45406790354624E-02 
883	 9.45169610723847E-02 
884	 0.094494154527674 
885	 9.44953050051024E-02 
886	 0.09452072524808 
887	 9.45129891848915E-02 
888	 9.44667812936209E-02 
889	 9.44301653036553E-02 
890	 9.44751087801761E-02 
891	 9.44771101446192E-02 
892	 9.44289944196755E-02 
893	 9.44882941062177E-02 
894	 9.44764648285585E-02 
895	 9.44525347375711E-02 
896	 9.44836089455124E-02 
897	 9.45659828413163E-02 
898	 9.46110023746019E-02 
899	 9.45973912977463E-02 
900	 0.094551927666478 
901	 9.45705085934895E-02 
902	 9.45347352086837E-02 
903	 9.44949631026056E-02 
904	 9.45178731235747E-02 
905	 9.45017294466238E-02 
906	 9.44896986128981E-02 
907	 9.44908425506783E-02 
908	 9.45012005283728E-02 
909	 9.45488769215775E-02 
910	 9.45518795587391E-02 
911	 9.45338830577476E-02 
912	 9.45670647476599E-02 
913	 9.45121611075988E-02 
914	 9.44991061859882E-02 
915	 9.45401996868878E-02 
916	 9.45352185131948E-02 
917	 9.45627938840233E-02 
918	 9.45693453522961E-02 
919	 9.45312981654923E-02 
920	 0.094483994404263 
921	 9.45263359620512E-02 
922	 9.45910288719988E-02 
923	 9.46210238831457E-02 
924	 9.46228321353805E-02 
925	 9.45992336996554E-02 
926	 9.45956633981503E-02 
927	 9.46207240478667E-02 
928	 9.46028234013006E-02 
929	 9.46079214484474E-02 
930	 9.46351397875846E-02 
931	 9.46595504505928E-02 
932	 9.46399824158743E-02 
933	 9.47089056111624E-02 
934	 9.47507026172124E-02 
935	 9.46828191465739E-02 
936	 9.47412212613017E-02 
937	 9.47112457755599E-02 
938	 9.46438404485479E-02 
939	 9.46470904055872E-02 
940	 9.46997832141532E-02 
941	 9.47275998736747E-02 
942	 9.47607249825654E-02 
943	 9.48219309268745E-02 
944	 9.47203585995643E-02 
945	 9.46834528208313E-02 
946	 9.47321218423435E-02 
947	 9.47739837549942E-02 
948	 9.47111920131397E-02 
949	 9.47226264134075E-02 
950	 9.47810739837732E-02 
951	 9.47823565769354E-02 
952	 9.48540425071806E-02 
953	 9.48449126624717E-02 
954	 9.47913674675441E-02 
955	 9.48200215325097E-02 
956	 9.48925558258362E-02 
957	 9.48751927316267E-02 
958	 9.48055685742658E-02 
959	 9.48121090388452E-02 
960	 9.48585562083289E-02 
961	 9.49021033504116E-02 
962	 9.49428076846502E-02 
963	 9.49797343512532E-02 
964	 9.48036669697271E-02 
965	 9.48146812018179E-02 
966	 9.49587569808806E-02 
967	 9.49225263474124E-02 
968	 9.50028364028985E-02 
969	 9.50247912307277E-02 
970	 9.49728512160496E-02 
971	 9.49430383998429E-02 
972	 9.48480949823264E-02 
973	 9.48782030608941E-02 
974	 9.49491624222204E-02 
975	 9.48473432712723E-02 
976	 9.48118177917298E-02 
977	 9.48601209745202E-02 
978	 9.49500274965129E-02 
979	 9.50267520831469E-02 
980	 9.51697204923396E-02 
981	 9.52142724744527E-02 
982	 9.51440799296205E-02 
983	 9.50615360941633E-02 
984	 9.50737264681015E-02 
985	 9.51472123606836E-02 
986	 9.51644449354212E-02 
987	 9.50355600817771E-02 
988	 0.094981673482889 
989	 9.50290038730252E-02 
990	 0.095031718280516 
991	 9.48785567202872E-02 
992	 9.49978524969306E-02 
993	 9.50016835374773E-02 
994	 9.49697492899603E-02 
995	 9.51063934854631E-02 
996	 9.51493709381896E-02 
997	 9.51161195462614E-02 
998	 9.49941172848563E-02 
999	 9.48866919145404E-02 
1000	 9.53121271522424E-02 
1001	 9.44746836656425E-02 
1002	 0.09450594374523 
1003	 9.44225169100291E-02 
1004	 9.44007444412802E-02 
1005	 9.43746025616253E-02 
1006	 9.43545495532435E-02 
1007	 9.43408947493955E-02 
1008	 9.43739330651588E-02 
1009	 9.43914208333599E-02 
1010	 9.44475218099053E-02 
1011	 9.45018252489537E-02 
1012	 9.45223469573196E-02 
1013	 9.45347021158642E-02 
1014	 9.45344771927559E-02 
1015	 9.45235225707092E-02 
1016	 0.094521645666777 
1017	 9.45126251946483E-02 
1018	 9.45106860298573E-02 
1019	 9.44706768439724E-02 
1020	 9.44193966944902E-02 
1021	 9.43807275201278E-02 
1022	 9.43644680325805E-02 
1023	 9.43893548089529E-02 
1024	 9.44543692656561E-02 
1025	 9.44963792787375E-02 
1026	 9.45167430245858E-02 
1027	 9.45375427924387E-02 
1028	 9.44965841226248E-02 
1029	 9.44895859367265E-02 
1030	 9.45392160023982E-02 
1031	 9.45291023162354E-02 
1032	 9.44793994819176E-02 
1033	 9.44351011364029E-02 
1034	 9.44396737784758E-02 
1035	 9.43747274849253E-02 
1036	 0.094338735740621 
1037	 9.44028392844341E-02 
1038	 9.43963148615704E-02 
1039	 9.44147901587161E-02 
1040	 9.44695554741876E-02 
1041	 9.44560944458854E-02 
1042	 9.44930935247218E-02 
1043	 0.094528863848072 
1044	 9.45341269193407E-02 
1045	 9.45243218993686E-02 
1046	 9.45382406588655E-02 
1047	 9.44961895134454E-02 
1048	 9.44547544488147E-02 
1049	 9.44614236310652E-02 
1050	 9.44740522290038E-02 
1051	 9.45031513910501E-02 
1052	 9.45330908146035E-02 
1053	 9.45409571167768E-02 
1054	 9.45239339845658E-02 
1055	 9.45106733076562E-02 
1056	 9.45414002231594E-02 
1057	 9.45541041669472E-02 
1058	 9.45583696725295E-02 
1059	 9.45856357607806E-02 
1060	 9.46296604285217E-02 
1061	 9.46502850804721E-02 
1062	 9.46946416997408E-02 
1063	 0.094733211773944 
1064	 9.47335627754037E-02 
1065	 9.47352600874062E-02 
1066	 9.47468192706797E-02 
1067	 9.47549419198525E-02 
1068	 9.47186494819121E-02 
1069	 9.47322605917115E-02 
1070	 9.47432943844313E-02 
1071	 9.47266700650046E-02 
1072	 9.47409915920246E-02 
1073	 9.47983017965947E-02 
1074	 9.48158657266241E-02 
1075	 9.48103647006602E-02 
1076	 9.48427798526422E-02 
1077	 9.48628332285593E-02 
1078	 9.48747263857275E-02 
1079	 9.48581863503384E-02 
1080	 9.48517187787735E-02 
1081	 9.48315479855308E-02 
1082	 9.48278028192575E-02 
1083	 9.48172614411455E-02 
1084	 9.48080846853861E-02 
1085	 9.47988649728169E-02 
1086	 9.47714410468628E-02 
1087	 9.47587237109848E-02 
1088	 9.47521978081318E-02 
1089	 9.47722816309117E-02 
1090	 9.47689763750738E-02 
1091	 0.094800730317919 
1092	 9.48467124037232E-02 
1093	 9.48273797726458E-02 
1094	 9.47947475663936E-02 
1095	 9.48128449819192E-02 
1096	 9.47975962285398E-02 
1097	 9.47635647211713E-02 
1098	 9.47530327688002E-02 
1099	 9.47440046945865E-02 
1100	 9.47348451576376E-02 
1101	 9.47494363062717E-02 
1102	 9.47623104101246E-02 
1103	 9.47715092730858E-02 
1104	 9.47843782635668E-02 
1105	 9.48201020921728E-02 
1106	 9.48153682565603E-02 
1107	 9.48207227688039E-02 
1108	 9.48192017860116E-02 
1109	 9.48206274157173E-02 
1110	 9.48130854431857E-02 
1111	 9.48078751866977E-02 
1112	 9.47969761124569E-02 
1113	 9.48225780555273E-02 
1114	 9.48584240982425E-02 
1115	 9.48934021363753E-02 
1116	 9.49503443858858E-02 
1117	 0.095001834295409 
1118	 9.50565444562709E-02 
1119	 9.51033881882953E-02 
1120	 9.51383348631793E-02 
1121	 9.51587806295461E-02 
1122	 9.51469435110946E-02 
1123	 9.51456305113389E-02 
1124	 9.51687067818057E-02 
1125	 9.52122532052296E-02 
1126	 9.52544057636872E-02 
1127	 9.53199859036477E-02 
1128	 9.53558670015464E-02 
1129	 9.53845075408537E-02 
1130	 9.54065879974419E-02 
1131	 9.54013370942629E-02 
1132	 9.54213217826809E-02 
1133	 9.54563367514655E-02 
1134	 9.54807157189367E-02 
1135	 9.55060566436482E-02 
1136	 9.55426420220376E-02 
1137	 9.55532184551921E-02 
1138	 9.55509192919689E-02 
1139	 9.55809147190944E-02 
1140	 9.56270931128866E-02 
1141	 9.56587253763295E-02 
1142	 9.57151889033028E-02 
1143	 9.57390433794599E-02 
1144	 9.57303092434731E-02 
1145	 9.57428494866289E-02 
1146	 0.095758746751635 
1147	 9.57662209399594E-02 
1148	 9.57689598051691E-02 
1149	 9.57787066502354E-02 
1150	 9.57740861897468E-02 
1151	 0.095790575394341 
1152	 9.58303980729026E-02 
1153	 9.58735316719389E-02 
1154	 0.095885880261378 
1155	 9.58796940044319E-02 
1156	 9.58935385364683E-02 
1157	 9.58929528878726E-02 
1158	 9.59019524502584E-02 
1159	 9.59420485842182E-02 
1160	 9.59536553732386E-02 
1161	 9.59372248213003E-02 
1162	 9.59424818356871E-02 
1163	 9.59499584341959E-02 
1164	 9.59591760875249E-02 
1165	 9.59839502616328E-02 
1166	 9.59950579648483E-02 
1167	 9.59966267906936E-02 
1168	 9.60116395805725E-02 
1169	 9.60319039031754E-02 
1170	 9.60603585569035E-02 
1171	 9.60830917659565E-02 
1172	 9.61084633091792E-02 
1173	 9.61327773143185E-02 
1174	 9.61570750964801E-02 
1175	 0.096175193526958 
1176	 9.61978787489983E-02 
1177	 9.62141015672624E-02 
1178	 9.62045794730519E-02 
1179	 9.62199513394854E-02 
1180	 9.62513352790191E-02 
1181	 9.62777540793633E-02 
1182	 0.096304940523047 
1183	 9.63530426465301E-02 
1184	 9.63891582817232E-02 
1185	 9.64228094900177E-02 
1186	 9.64465709387347E-02 
1187	 9.64783647083232E-02 
1188	 9.64846539700922E-02 
1189	 9.64503211679397E-02 
1190	 9.64614679967791E-02 
1191	 9.64795265438294E-02 
1192	 0.096502765124173 
1193	 9.65545084862584E-02 
1194	 9.65964222154215E-02 
1195	 9.66468358809599E-02 
1196	 9.66752500474011E-02 
1197	 9.66942568653028E-02 
1198	 9.67131040814932E-02 
1199	 9.67239184564951E-02 
1200	 9.67065455478627E-02 
1201	 9.67233115471371E-02 
1202	 9.67561172485392E-02 
1203	 9.67824967424386E-02 
1204	 9.68181835427108E-02 
1205	 9.68462275587101E-02 
1206	 0.096865852686174 
1207	 0.096897427664389 
1208	 9.69353289904619E-02 
1209	 0.096970150078601 
1210	 9.70141088144995E-02 
1211	 9.70493855173757E-02 
1212	 9.70801963713588E-02 
1213	 9.71071070414461E-02 
1214	 0.097124506524338 
1215	 9.71482732271136E-02 
1216	 9.71728944211992E-02 
1217	 9.71947769391573E-02 
1218	 9.72217248347162E-02 
1219	 9.72592890996249E-02 
1220	 9.72821760776409E-02 
1221	 9.72965605259249E-02 
1222	 9.73181176613588E-02 
1223	 9.73357729788467E-02 
1224	 9.73564462540052E-02 
1225	 9.73822947147655E-02 
1226	 9.74077138016172E-02 
1227	 9.74304337278002E-02 
1228	 9.74566224531936E-02 
1229	 9.74905049696224E-02 
1230	 9.75191947066579E-02 
1231	 9.75452405976911E-02 
1232	 9.75716181282414E-02 
1233	 9.75971099588855E-02 
1234	 9.76239405532557E-02 
1235	 9.76401214404094E-02 
1236	 0.097648745568275 
1237	 9.76654987891274E-02 
1238	 9.76747763854134E-02 
1239	 9.76937439527648E-02 
1240	 9.77269943287006E-02 
1241	 9.77508646418005E-02 
1242	 9.77778549277455E-02 
1243	 9.77930773873355E-02 
1244	 9.77918717623913E-02 
1245	 9.78053319510189E-02 
1246	 9.78273079747968E-02 
1247	 9.78363075330789E-02 
1248	 9.78431028154217E-02 
1249	 9.78484116634541E-02 
1250	 9.78685944475564E-02 
1251	 9.78984860903584E-02 
1252	 0.097928920339508 
1253	 9.79880624774715E-02 
1254	 9.80244822675327E-02 
1255	 9.80477195990939E-02 
1256	 9.80703860629277E-02 
1257	 9.80964769254982E-02 
1258	 9.81142806762226E-02 
1259	 9.81121844116886E-02 
1260	 9.81256247718621E-02 
1261	 9.81481643801147E-02 
1262	 9.81639591438602E-02 
1263	 9.81827089000072E-02 
1264	 9.81994120697007E-02 
1265	 9.82121233344665E-02 
1266	 9.82234048211157E-02 
1267	 9.82405318170584E-02 
1268	 9.82417147089757E-02 
1269	 0.098254476848069 
1270	 0.098265266521874 
1271	 0.09828390635771 
1272	 9.83114462244351E-02 
1273	 9.83340679888765E-02 
1274	 9.83546765954297E-02 
1275	 0.098380149701615 
1276	 9.84078424046146E-02 
1277	 9.84346809467237E-02 
1278	 9.84591630549445E-02 
1279	 0.098495663003094 
1280	 9.85373521984205E-02 
1281	 0.098579784927472 
1282	 9.86389018023799E-02 
1283	 9.86860093500441E-02 
1284	 9.87097945127692E-02 
1285	 9.87629664584966E-02 
1286	 9.88367489499596E-02 
1287	 9.88755934158692E-02 
1288	 9.89271095078252E-02 
1289	 9.89877100041594E-02 
1290	 0.099049686295379 
1291	 9.91096015963923E-02 
1292	 0.099163313953453 
1293	 9.92259026807697E-02 
1294	 9.92702495225526E-02 
1295	 9.92936744770616E-02 
1296	 9.93294960827834E-02 
1297	 9.93733352802589E-02 
1298	 9.94008839106025E-02 
1299	 9.94157199192317E-02 
1300	 0.099438540818254 
1301	 9.94638312093898E-02 
1302	 9.94767548026236E-02 
1303	 9.94949732569121E-02 
1304	 9.94911305928858E-02 
1305	 9.94871544791054E-02 
1306	 9.95030187238477E-02 
1307	 9.95121122880123E-02 
1308	 9.95196135763092E-02 
1309	 9.95195487436111E-02 
1310	 9.94964014300771E-02 
1311	 9.94995223768291E-02 
1312	 9.95218473071901E-02 
1313	 9.95221739035327E-02 
1314	 9.95163611972196E-02 
1315	 9.95213453018791E-02 
1316	 9.95168969116082E-02 
1317	 0.099522625753391 
1318	 9.95504612919346E-02 
1319	 9.95606509560818E-02 
1320	 9.95645189266936E-02 
1321	 9.95648007749388E-02 
1322	 9.95550218661466E-02 
1323	 9.95491422112256E-02 
1324	 9.95586908718687E-02 
1325	 0.099564860430836 
1326	 9.95825182907492E-02 
1327	 9.96174598071317E-02 
1328	 9.96408601488661E-02 
1329	 9.96509872156885E-02 
1330	 9.96697208756283E-02 
1331	 9.96877736585935E-02 
1332	 0.09970870913872 
1333	 9.97329645474056E-02 
1334	 0.099758665763367 
1335	 9.97843724773289E-02 
1336	 9.98099318059767E-02 
1337	 9.98379613248866E-02 
1338	 9.98675407688973E-02 
1339	 0.099895443934163 
1340	 9.99305180263537E-02 
1341	 9.99741474982239E-02 
1342	 0.10000904054616 
1343	 0.100045765947922 
1344	 0.100074377661594 
1345	 0.100105224493336 
1346	 0.100138111838584 
1347	 0.100163954836077 
1348	 0.100207094871538 
1349	 0.100260423899556 
1350	 0.100312883270295 
1351	 0.100359695161457 
1352	 0.100418102745943 
1353	 0.100461551702989 
1354	 0.100481411465188 
1355	 0.100521871656291 
1356	 0.10057544743437 
1357	 0.100611657209704 
1358	 0.100644976142078 
1359	 0.100686959476557 
1360	 0.100723670688623 
1361	 0.100762213548876 
1362	 0.100808476340768 
1363	 0.100850726857119 
1364	 0.100889420731005 
1365	 0.100921710311882 
1366	 0.100953176427863 
1367	 0.100988692345644 
1368	 0.101004065474096 
1369	 0.101024056132712 
1370	 0.101046483863768 
1371	 0.101058358027521 
1372	 0.101066147552688 
1373	 0.10108505994939 
1374	 0.101092992807022 
1375	 0.101093145637516 
1376	 0.101099508709661 
1377	 0.101103687957575 
1378	 0.101108925193187 
1379	 0.101119422586204 
1380	 0.101122764093596 
1381	 0.101128779676155 
1382	 0.101122003208616 
1383	 0.101109833291622 
1384	 0.101092536262577 
1385	 0.101063443227391 
1386	 0.101031740486698 
1387	 0.100995468563975 
1388	 0.100954904050286 
1389	 0.10090529835287 
1390	 0.100861531901473 
1391	 0.100814310290868 
1392	 0.10077601739481 
1393	 0.100740879925504 
1394	 0.100685992408057 
1395	 0.100610687878866 
1396	 0.100528282975838 
1397	 0.100446407980549 
1398	 0.100352073586896 
1399	 0.100260825840466 
1400	 0.10017161114195 
1401	 0.100079975500209 
1402	 9.99791681069443E-02 
1403	 9.98872229542965E-02 
1404	 0.09980077666762 
1405	 9.97145559824626E-02 
1406	 9.96308281352813E-02 
1407	 9.95445084247783E-02 
1408	 9.94556550569154E-02 
1409	 9.93768112977305E-02 
1410	 9.92921716665188E-02 
1411	 9.92237319695412E-02 
1412	 9.91690579644931E-02 
1413	 0.099118616162614 
1414	 9.90695017722903E-02 
1415	 0.099043472546795 
1416	 9.90382312826533E-02 
1417	 9.90306554429071E-02 
1418	 9.90335603315404E-02 
1419	 9.90405103476786E-02 
1420	 0.099044345684752 
1421	 9.90498477497922E-02 
1422	 9.90442037451775E-02 
1423	 9.90389312405721E-02 
1424	 0.099036908250681 
1425	 9.90189503746038E-02 
1426	 9.90263570394097E-02 
1427	 9.90572833130233E-02 
1428	 9.90753008786221E-02 
1429	 9.90951774130168E-02 
1430	 9.91170928609516E-02 
1431	 9.91349510418215E-02 
1432	 9.91553413567987E-02 
1433	 9.91786455169049E-02 
1434	 9.92091628814169E-02 
1435	 9.92477488705089E-02 
1436	 9.92759537668487E-02 
1437	 9.92987135629618E-02 
1438	 9.93354751513515E-02 
1439	 9.93701581623823E-02 
1440	 0.099412969950732 
1441	 9.94651163270208E-02 
1442	 0.099502043945583 
1443	 9.95291051477314E-02 
1444	 9.95608592079133E-02 
1445	 9.95940879024802E-02 
1446	 9.96332869758062E-02 
1447	 9.96804059024338E-02 
1448	 9.97169625686528E-02 
1449	 9.97547953100722E-02 
1450	 9.97998131684248E-02 
1451	 9.98345769807178E-02 
1452	 9.98584203654397E-02 
1453	 9.98850486507067E-02 
1454	 9.99103262295932E-02 
1455	 9.99370715765817E-02 
1456	 9.99651645227092E-02 
1457	 9.99900970820918E-02 
1458	 0.10001291716088 
1459	 0.100036666005689 
1460	 0.100050034741224 
1461	 0.100080168316674 
1462	 0.100125508981149 
1463	 0.100162188656892 
1464	 0.100196530216853 
1465	 0.100243193085241 
1466	 0.10029054870557 
1467	 0.100341674434141 
1468	 0.100419356854128 
1469	 0.100473881166022 
1470	 0.100512304025035 
1471	 0.100553908509624 
1472	 0.100595248346489 
1473	 0.100631437377021 
1474	 0.100683615239252 
1475	 0.100740941597336 
1476	 0.100791261966708 
1477	 0.100831812021566 
1478	 0.100873365839622 
1479	 0.100914859355238 
1480	 0.100952046412751 
1481	 0.100989611233704 
1482	 0.101035122361105 
1483	 0.101082062519852 
1484	 0.101134050038953 
1485	 0.101196902121728 
1486	 0.101252564225831 
1487	 0.101310907338754 
1488	 0.101356308701653 
1489	 0.101391499889476 
1490	 0.101436076926113 
1491	 0.101479260257302 
1492	 0.101520857112771 
1493	 0.101568956356075 
1494	 0.101609057723454 
1495	 0.101635336641214 
1496	 0.101670526628093 
1497	 0.101708145199885 
1498	 0.101749997205957 
1499	 0.101798113242905 
1500	 0.101845991973109 
1501	 0.101899679401659 
1502	 0.101945314840636 
1503	 0.101985059429023 
1504	 0.102028099025794 
1505	 0.102078984180537 
1506	 0.102124076280169 
1507	 0.102174876350226 
1508	 0.102225470942281 
1509	 0.102252135322718 
1510	 0.102277046846364 
1511	 0.102312865120094 
1512	 0.102343703875958 
1513	 0.102366900984614 
1514	 0.102406781231219 
1515	 0.102446951969201 
1516	 0.102469835653655 
1517	 0.102509609980014 
1518	 0.10256500557216 
1519	 0.102605032162359 
1520	 0.102644916181586 
1521	 0.102679894991136 
1522	 0.102709345201423 
1523	 0.102732734340692 
1524	 0.102749055527284 
1525	 0.102770934891321 
1526	 0.102790897772426 
1527	 0.102807012976831 
1528	 0.102821456747612 
1529	 0.102838886816286 
1530	 0.102840883564569 
1531	 0.102869874605708 
1532	 0.102929824996968 
1533	 0.102964235438851 
1534	 0.103000207050248 
1535	 0.103032580825694 
1536	 0.103040209883786 
1537	 0.103070486004988 
1538	 0.103122789242534 
1539	 0.103157955471131 
1540	 0.103195695792842 
1541	 0.103223150127409 
1542	 0.103232959006533 
1543	 0.103251673581806 
1544	 0.103269482446066 
1545	 0.103289285728696 
1546	 0.103310324877262 
1547	 0.103337756248925 
1548	 0.103354815077178 
1549	 0.103378604446384 
1550	 0.103406784442461 
1551	 0.103429405930656 
1552	 0.10346965423306 
1553	 0.103501117359991 
1554	 0.103529198231192 
1555	 0.103562340785439 
1556	 0.103588791953646 
1557	 0.1036243785373 
1558	 0.103635436812366 
1559	 0.103635256075607 
1560	 0.10365092491006 
1561	 0.103657949417888 
1562	 0.103675760411303 
1563	 0.103715531430105 
1564	 0.103737425479783 
1565	 0.103751689188854 
1566	 0.103766156612844 
1567	 0.103772272812485 
1568	 0.103789062363509 
1569	 0.103811574431331 
1570	 0.103827538185582 
1571	 0.103848855811159 
1572	 0.103866550420417 
1573	 0.103869681356051 
1574	 0.103887371461703 
1575	 0.103916095600553 
1576	 0.1039395090516 
1577	 0.103967682899378 
1578	 0.103992206709759 
1579	 0.104014518488092 
1580	 0.104032569247358 
1581	 0.10404442665113 
1582	 0.104065609485171 
1583	 0.104094150789105 
1584	 0.104109936812687 
1585	 0.104126042673651 
1586	 0.104137361473557 
1587	 0.104123086134872 
1588	 0.104135464565349 
1589	 0.104173395221261 
1590	 0.104191769045 
1591	 0.104209159946521 
1592	 0.104229026846099 
1593	 0.104232945735586 
1594	 0.104250744837171 
1595	 0.104292495066001 
1596	 0.104314451117096 
1597	 0.104325304862557 
1598	 0.104342193532578 
1599	 0.104351975307047 
1600	 0.10436408018885 
1601	 0.10438570690651 
1602	 0.104398532063655 
1603	 0.104407867793592 
1604	 0.104412865696777 
1605	 0.104406736509317 
1606	 0.104408736671952 
1607	 0.104410331363475 
1608	 0.104410720677475 
1609	 0.104435187971457 
1610	 0.104447347648085 
1611	 0.104453878920447 
1612	 0.104465500850361 
1613	 0.104446108016573 
1614	 0.104450360103414 
1615	 0.104483122731497 
1616	 0.104502759774442 
1617	 0.104524852319387 
1618	 0.104538346350679 
1619	 0.104556209535267 
1620	 0.104569645740671 
1621	 0.104580458224634 
1622	 0.104607978952949 
1623	 0.104614111827559 
1624	 0.104593873321475 
1625	 0.104598025928903 
1626	 0.104610075818069 
1627	 0.104620503359624 
1628	 0.104639526139977 
1629	 0.104643488941444 
1630	 0.104637234458987 
1631	 0.104647460156863 
1632	 0.104656339185912 
1633	 0.104671772403305 
1634	 0.10470559583112 
1635	 0.104721090521936 
1636	 0.104725230342843 
1637	 0.104737193773661 
1638	 0.104749418427066 
1639	 0.104758223318532 
1640	 0.104765042925184 
1641	 0.104780806263581 
1642	 0.104796476737753 
1643	 0.104816677509231 
1644	 0.104850274713824 
1645	 0.104868995406243 
1646	 0.104880001057623 
1647	 0.104894120355434 
1648	 0.104908381461219 
1649	 0.104914976313731 
1650	 0.104920566362142 
1651	 0.104920728982623 
1652	 0.104904436803291 
1653	 0.104907007672089 
1654	 0.104916540242276 
1655	 0.10492543167892 
1656	 0.104945735293821 
1657	 0.104956120716395 
1658	 0.104960230367877 
1659	 0.104967882896043 
1660	 0.104979482593336 
1661	 0.104979882334141 
1662	 0.104964640686221 
1663	 0.104975584914755 
1664	 0.104989552292797 
1665	 0.10501096777404 
1666	 0.10506953925227 
1667	 0.105086278281769 
1668	 0.105078157208088 
1669	 0.105081511181977 
1670	 0.105070362106745 
1671	 0.105069199894002 
1672	 0.105077136466166 
1673	 0.105083738539184 
1674	 0.10508672918487 
1675	 0.105096264146036 
1676	 0.105113884077432 
1677	 0.105128217545636 
1678	 0.105150585580566 
1679	 0.105155249587453 
1680	 0.105146263899565 
1681	 0.105148191462128 
1682	 0.105135670023544 
1683	 0.105145834710647 
1684	 0.105187101906036 
1685	 0.105199137219664 
1686	 0.10519829992253 
1687	 0.10521225497857 
1688	 0.105220457138772 
1689	 0.10523013779496 
1690	 0.105253971313573 
1691	 0.105272647810036 
1692	 0.105284331585769 
1693	 0.105294411878186 
1694	 0.105315799569729 
1695	 0.105317895295861 
1696	 0.10529284232485 
1697	 0.105291052946933 
1698	 0.105296327169564 
1699	 0.105297325062111 
1700	 0.105308276149707 
1701	 0.105312408037755 
1702	 0.105305569181306 
1703	 0.105307036701851 
1704	 0.105313351558245 
1705	 0.105318047930965 
1706	 0.105327045651419 
1707	 0.105327560982375 
1708	 0.105330666892446 
1709	 0.105321536877032 
1710	 0.105289121049925 
1711	 0.105281158020962 
1712	 0.105271477209066 
1713	 0.105282435213454 
1714	 0.105329021768509 
1715	 0.105344445424791 
1716	 0.105355654833533 
1717	 0.105359167689786 
1718	 0.105340259735867 
1719	 0.10534030720286 
1720	 0.105347676255089 
1721	 0.105355845814176 
1722	 0.105382928974884 
1723	 0.105371552715836 
1724	 0.105338223445222 
1725	 0.105318476440594 
1726	 0.105270943061349 
1727	 0.105259913815357 
1728	 0.105279746289789 
1729	 0.105282746258893 
1730	 0.105289929497934 
1731	 0.105299189104078 
1732	 0.105314430513417 
1733	 0.10531178187706 
1734	 0.105297625168206 
1735	 0.105295803601517 
1736	 0.105289190614719 
1737	 0.105279195686805 
1738	 0.105284912998069 
1739	 0.105271973471538 
1740	 0.105236871114793 
1741	 0.105212419664988 
1742	 0.105187023730453 
1743	 0.105170599295008 
1744	 0.105155657156376 
1745	 0.105144556311396 
1746	 0.105144600501609 
1747	 0.105113699589801 
1748	 0.105100722142255 
1749	 0.105093685289838 
1750	 0.105115150953785 
1751	 0.105134793328768 
1752	 0.105127949338312 
1753	 0.105120205453335 
1754	 0.105091447769459 
1755	 0.105060985243052 
1756	 0.105041231307899 
1757	 0.105001560533004 
1758	 0.104964645011481 
1759	 0.104950237265927 
1760	 0.104945263699747 
1761	 0.104956436573435 
1762	 0.104960605888413 
1763	 0.10494544556965 
1764	 0.104947464720956 
1765	 0.104949854890255 
1766	 0.104947883997259 
1767	 0.104960955686695 
1768	 0.104964860906635 
1769	 0.104954443329687 
1770	 0.104943397305253 
1771	 0.104951034690699 
1772	 0.104941861277345 
1773	 0.104900570679801 
1774	 0.104882391022326 
1775	 0.10487475071571 
1776	 0.104855652185199 
1777	 0.104848247980163 
1778	 0.104860978833516 
1779	 0.104852187202632 
1780	 0.104836754705057 
1781	 0.104847928021339 
1782	 0.104853854048935 
1783	 0.104854780997216 
1784	 0.104857385731466 
1785	 0.104885719983488 
1786	 0.104879360308803 
1787	 0.104832949065617 
1788	 0.104822917985217 
1789	 0.104809903129562 
1790	 0.104805790141915 
1791	 0.104827275011961 
1792	 0.104847538876717 
1793	 0.104876841248289 
1794	 0.104883178005643 
1795	 0.104881996020008 
1796	 0.104887826108135 
1797	 0.104868499385745 
1798	 0.104879318228301 
1799	 0.104937928839589 
1800	 0.104938167472648 
1801	 0.101746049694773 
1802	 0.101760975425957 
1803	 0.101777792047281 
1804	 0.101781519031932 
1805	 0.101803000389073 
1806	 0.101828750812617 
1807	 0.101822179784624 
1808	 0.101853246340149 
1809	 0.1019293226593 
1810	 0.101975306863795 
1811	 0.102016311827454 
1812	 0.102072136300594 
1813	 0.102092238034613 
1814	 0.102093319645471 
1815	 0.10209965079844 
1816	 0.102106218655883 
1817	 0.102119951626495 
1818	 0.102150576431861 
1819	 0.102157782308996 
1820	 0.102162744511911 
1821	 0.102147353581614 
1822	 0.102120782018018 
1823	 0.102134684564039 
1824	 0.102161094464279 
1825	 0.102210138906283 
1826	 0.102257373021602 
1827	 0.102276303154614 
1828	 0.102277575306932 
1829	 0.102238582467642 
1830	 0.102217377989448 
1831	 0.102185391132194 
1832	 0.102156543698476 
1833	 0.102169386576614 
1834	 0.102194851692183 
1835	 0.102228277020611 
1836	 0.102278487314789 
1837	 0.102276418222923 
1838	 0.102266553120919 
1839	 0.102275166976676 
1840	 0.102292247292269 
1841	 0.102284609321905 
1842	 0.102285969678344 
1843	 0.102301183267933 
1844	 0.102297210311802 
1845	 0.102290608910913 
1846	 0.102300031563364 
1847	 0.102311735182229 
1848	 0.102306857431713 
1849	 0.102284146803834 
1850	 0.102269416943146 
1851	 0.102248189359905 
1852	 0.102244719792137 
1853	 0.102234010695133 
1854	 0.102227621086803 
1855	 0.102228081009289 
1856	 0.10218464042195 
1857	 0.102154781284249 
1858	 0.102144272608646 
1859	 0.102130243556529 
1860	 0.102117417282764 
1861	 0.102120930667305 
1862	 0.102098787247431 
1863	 0.102063489212476 
1864	 0.102010619458862 
1865	 0.101938537680119 
1866	 0.101873319340172 
1867	 0.101809281345071 
1868	 0.101755187146388 
1869	 0.101684179806141 
1870	 0.101605998590388 
1871	 0.101523226636709 
1872	 0.101438329650525 
1873	 0.101319977241925 
1874	 0.101200280900949 
1875	 0.101073508318429 
1876	 0.100910965296318 
1877	 0.100749928042855 
1878	 0.100582320255422 
1879	 0.1003816510714 
1880	 0.100175287660136 
1881	 0.099952018441121 
1882	 0.099722440443172 
1883	 9.94823364615549E-02 
1884	 9.92359095370354E-02 
1885	 9.89710087338607E-02 
1886	 9.86834957366145E-02 
1887	 9.83684057993012E-02 
1888	 9.80594060661775E-02 
1889	 9.77623857220144E-02 
1890	 9.74363478582659E-02 
1891	 9.70924104167052E-02 
1892	 9.67320815691891E-02 
1893	 9.63641175737669E-02 
1894	 9.59668369792318E-02 
1895	 9.55727679721611E-02 
1896	 9.51903911557196E-02 
1897	 9.48185835027187E-02 
1898	 9.44328425448797E-02 
1899	 9.40512910681585E-02 
1900	 9.36819705613895E-02 
1901	 9.33259202003871E-02 
1902	 9.29875894721683E-02 
1903	 9.26805883574438E-02 
1904	 9.23659109427629E-02 
1905	 9.20627700912255E-02 
1906	 0.091753165010565 
1907	 9.14483172506971E-02 
1908	 9.11787049656407E-02 
1909	 0.090942290391301 
1910	 9.07079558933697E-02 
1911	 9.05043541755024E-02 
1912	 9.03115838720754E-02 
1913	 9.01237591010065E-02 
1914	 8.99387604894565E-02 
1915	 0.089785129138524 
1916	 0.089655091436892 
1917	 8.95178201647229E-02 
1918	 8.94034541639918E-02 
1919	 8.93006249404407E-02 
1920	 8.91956015772696E-02 
1921	 8.91115018364278E-02 
1922	 8.90381117785241E-02 
1923	 0.088962423300152 
1924	 8.89082914389219E-02 
1925	 8.88740237719761E-02 
1926	 8.88363352527324E-02 
1927	 8.88019164603817E-02 
1928	 0.088788411250165 
1929	 8.87916340576858E-02 
1930	 0.088788633735857 
1931	 8.88041032870723E-02 
1932	 8.88359675434451E-02 
1933	 8.88410341813515E-02 
1934	 8.88553584509497E-02 
1935	 8.88877427135839E-02 
1936	 8.89376610202228E-02 
1937	 8.89802679109306E-02 
1938	 8.90367908741854E-02 
1939	 8.90850553963032E-02 
1940	 8.91246883513459E-02 
1941	 8.91700240393974E-02 
1942	 8.92135563600331E-02 
1943	 8.92758379429397E-02 
1944	 8.93313846402059E-02 
1945	 8.93803417158489E-02 
1946	 8.94442449754754E-02 
1947	 8.95136655604849E-02 
1948	 8.95859060397913E-02 
1949	 8.96778054761603E-02 
1950	 8.97561200456789E-02 
1951	 0.089821138541952 
1952	 8.99009630323938E-02 
1953	 0.089995289443484 
1954	 9.00865008963479E-02 
1955	 9.01844463220471E-02 
1956	 9.02812752877356E-02 
1957	 9.03807377498603E-02 
1958	 9.04681849660807E-02 
1959	 9.05732044910564E-02 
1960	 9.06955785334429E-02 
1961	 9.08124324225767E-02 
1962	 9.09311632051827E-02 
1963	 9.10486722951299E-02 
1964	 9.11640376692804E-02 
1965	 9.12871821111442E-02 
1966	 9.14041066487062E-02 
1967	 9.15404135383453E-02 
1968	 9.16641401361015E-02 
1969	 9.17872440396378E-02 
1970	 9.19058977546947E-02 
1971	 9.20196148191198E-02 
1972	 9.21317697362399E-02 
1973	 9.22358885806681E-02 
1974	 9.23502507707524E-02 
1975	 9.24648612476567E-02 
1976	 9.25871677067582E-02 
1977	 9.27065739459218E-02 
1978	 9.28384861927993E-02 
1979	 9.29658865252282E-02 
1980	 9.30757840834018E-02 
1981	 9.31999012016189E-02 
1982	 9.33276751390364E-02 
1983	 9.34527643917571E-02 
1984	 9.35881096031175E-02 
1985	 9.37148759891442E-02 
1986	 0.093845630196441 
1987	 9.39578302165955E-02 
1988	 9.40502825233249E-02 
1989	 9.41470707573761E-02 
1990	 9.42424713544336E-02 
1991	 9.43559080386333E-02 
1992	 9.44837357823754E-02 
1993	 9.46467618750626E-02 
1994	 9.47781995562068E-02 
1995	 9.49091061311317E-02 
1996	 9.50302875760258E-02 
1997	 9.51299441296196E-02 
1998	 9.52495971536404E-02 
1999	 9.53838858577941E-02 
2000	 9.55014098871941E-02 
2001	 9.56226768598998E-02 
2002	 9.57331258434099E-02 
2003	 9.58223598461644E-02 
2004	 9.59227236825553E-02 
2005	 9.60303522757942E-02 
2006	 9.61489023812822E-02 
2007	 9.62602212382361E-02 
2008	 9.63691068368914E-02 
2009	 9.64870806213456E-02 
2010	 9.66102493961243E-02 
2011	 9.67262426765642E-02 
2012	 9.68524716927157E-02 
2013	 9.69699275096331E-02 
2014	 9.70743704930703E-02 
2015	 9.71852326461944E-02 
2016	 9.72901573780466E-02 
2017	 9.73871519670055E-02 
2018	 9.74833501919542E-02 
2019	 9.75608741709992E-02 
2020	 9.76681070095321E-02 
2021	 9.77927981171919E-02 
2022	 9.79049875056786E-02 
2023	 9.80282057391576E-02 
2024	 9.81461882169169E-02 
2025	 9.82505092962349E-02 
2026	 0.098362325813659 
2027	 9.84853100409744E-02 
2028	 9.86070663220966E-02 
2029	 0.098711536469555 
2030	 9.88062469108942E-02 
2031	 9.89038782178523E-02 
2032	 9.89911691944103E-02 
2033	 9.90774683159873E-02 
2034	 9.91637477460469E-02 
2035	 9.92506653225672E-02 
2036	 9.93318484756731E-02 
2037	 9.94162321881925E-02 
2038	 9.95024778851566E-02 
2039	 9.95904161204696E-02 
2040	 9.96847993368959E-02 
2041	 9.97678730069597E-02 
2042	 9.98511135484121E-02 
2043	 9.99257596305288E-02 
2044	 9.99920453946633E-02 
2045	 0.1000351601859 
2046	 0.100102037583646 
2047	 0.100173110220388 
2048	 0.100246031765848 
2049	 0.100336835697096 
2050	 0.100408761655917 
2051	 0.100473399181514 
2052	 0.100534342855172 
2053	 0.100579135910243 
2054	 0.100633988632372 
2055	 0.100678953125267 
2056	 0.100748800688447 
2057	 0.10081401983606 
2058	 0.100888388739997 
2059	 0.100955047129412 
2060	 0.10101801923124 
2061	 0.101090578586197 
2062	 0.101166533307636 
2063	 0.101242242048118 
2064	 0.101335882214576 
2065	 0.101407168698623 
2066	 0.101449166051427 
2067	 0.101517103275253 
2068	 0.101594424799844 
2069	 0.101669894322996 
2070	 0.101732622588457 
2071	 0.101806762613245 
2072	 0.101866206051212 
2073	 0.101897405259579 
2074	 0.101949460533259 
2075	 0.102016862778058 
2076	 0.102073390297554 
2077	 0.102122972406243 
2078	 0.102177649022514 
2079	 0.102236018920886 
2080	 0.102287354358397 
2081	 0.102320886436639 
2082	 0.102381594644712 
2083	 0.102461665424145 
2084	 0.10253448051455 
2085	 0.102597360801397 
2086	 0.1026797352188 
2087	 0.10272919530212 
2088	 0.102735633336213 
2089	 0.102782715456735 
2090	 0.102835856698105 
2091	 0.102897398945646 
2092	 0.102981073782487 
2093	 0.103052380202806 
2094	 0.103126085524599 
2095	 0.103194364499778 
2096	 0.103264988226982 
2097	 0.103322172600094 
2098	 0.103351167932705 
2099	 0.103414294833272 
2100	 0.103462016569433 
2101	 0.103498104461765 
2102	 0.103549090720845 
2103	 0.103608290817977 
2104	 0.103666466754123 
2105	 0.103739008915346 
2106	 0.10378864364934 
2107	 0.103813703218774 
2108	 0.103868784486491 
2109	 0.103917578843377 
2110	 0.103984319927597 
2111	 0.104089392457815 
2112	 0.10418115105235 
2113	 0.104276480784698 
2114	 0.10436426246037 
2115	 0.104444561610808 
2116	 0.104523339967537 
2117	 0.104594490388695 
2118	 0.104649619020767 
2119	 0.104715343070168 
2120	 0.104786219978006 
2121	 0.104846485126461 
2122	 0.104901771642033 
2123	 0.104960419203522 
2124	 0.105013106187007 
2125	 0.10506832403624 
2126	 0.105145602963196 
2127	 0.10519114929391 
2128	 0.105203801252853 
2129	 0.105235803515421 
2130	 0.105275484799068 
2131	 0.105285564531327 
2132	 0.10530886444151 
2133	 0.105362184615507 
2134	 0.105359963678757 
2135	 0.105313196227136 
2136	 0.105301132252703 
2137	 0.105266544244199 
2138	 0.105264862653097 
2139	 0.105309107301325 
2140	 0.105318313991556 
2141	 0.105326764751768 
2142	 0.105324658713016 
2143	 0.105304880337027 
2144	 0.105283838544736 
2145	 0.105252316956131 
2146	 0.105225475575144 
2147	 0.105190853247922 
2148	 0.105165879441974 
2149	 0.105137432915549 
2150	 0.105119153113948 
2151	 0.105083145757439 
2152	 0.105038366538127 
2153	 0.104992704892615 
2154	 0.104937705248595 
2155	 0.10488495503509 
2156	 0.104836849529806 
2157	 0.104776197348441 
2158	 0.104702223149722 
2159	 0.104636491371809 
2160	 0.104577901329861 
2161	 0.104501792348216 
2162	 0.10442613042945 
2163	 0.104339329692633 
2164	 0.10422524773596 
2165	 0.104111180619341 
2166	 0.104023467939805 
2167	 0.103938930802185 
2168	 0.103874900436579 
2169	 0.103842642547394 
2170	 0.103790618412769 
2171	 0.103750844109851 
2172	 0.10368924874969 
2173	 0.103618441303798 
2174	 0.103538973919217 
2175	 0.103440604240009 
2176	 0.103348610315248 
2177	 0.103239825242979 
2178	 0.103151376302299 
2179	 0.103082798685466 
2180	 0.103002295271516 
2181	 0.102917505937033 
2182	 0.102846594384066 
2183	 0.102784895550555 
2184	 0.102704021210098 
2185	 0.102641748437082 
2186	 0.102598006917632 
2187	 0.102544240322263 
2188	 0.102493542872377 
2189	 0.102427963808964 
2190	 0.102361877566783 
2191	 0.10228717739707 
2192	 0.102178625897964 
2193	 0.102107753079874 
2194	 0.10204273892633 
2195	 0.101998451636962 
2196	 0.101987762350533 
2197	 0.101970206719814 
2198	 0.101985288673385 
2199	 0.101960708908222 
2200	 0.101900545898966 
2201	 0.101863219193001 
2202	 0.101806902512434 
2203	 0.101762274200342 
2204	 0.101747272108435 
2205	 0.101774392760148 
2206	 0.101766307194023 
2207	 0.101766171514325 
2208	 0.101748100165798 
2209	 0.101698217711069 
2210	 0.101686801135293 
2211	 0.101686182772367 
2212	 0.101685336844206 
2213	 0.101703311103442 
2214	 0.101715507668435 
2215	 0.101720332933267 
2216	 0.101736417660584 
2217	 0.101765129450706 
2218	 0.101791247280691 
2219	 0.101833384407567 
2220	 0.101848316351149 
2221	 0.101854008450242 
2222	 0.101852822628293 
2223	 0.101802669701428 
2224	 0.101774691642881 
2225	 0.10176423023855 
2226	 0.101752311302245 
2227	 0.101768742155947 
2228	 0.101827626797953 
2229	 0.101846203395624 
2230	 0.101856372337666 
2231	 0.101877301631654 
2232	 0.10188641480097 
2233	 0.101908885610913 
2234	 0.101952891444502 
2235	 0.101981426515242 
2236	 0.102003532456084 
2237	 0.102025063721254 
2238	 0.102041555336165 
2239	 0.102063140422701 
2240	 0.102091438309482 
2241	 0.102106792794007 
2242	 0.102121618170387 
2243	 0.102129479894968 
2244	 0.10212589505392 
2245	 0.102108052734666 
2246	 0.102115063684426 
2247	 0.102141245034912 
2248	 0.102166241419825 
2249	 0.102200084190488 
2250	 0.102263533008794 
2251	 0.102358093524547 
2252	 0.1023998133122 
2253	 0.102451273390223 
2254	 0.102475305265813 
2255	 0.102435901881472 
2256	 0.102440464881979 
2257	 0.102486045480889 
2258	 0.102481684368232 
2259	 0.102442543239835 
2260	 0.102431158653717 
2261	 0.102385326404796 
2262	 0.102393266135724 
2263	 0.102466681024533 
2264	 0.102503627975859 
2265	 0.102561542922339 
2266	 0.102588566679619 
2267	 0.102565302406041 
2268	 0.102571304101264 
2269	 0.102573914166005 
2270	 0.102579884631812 
2271	 0.102659823240522 
2272	 0.102724494887764 
2273	 0.102759658138705 
2274	 0.102796658006331 
2275	 0.102804057997496 
2276	 0.102750779508022 
2277	 0.102743943570343 
2278	 0.102741732062106 
2279	 0.102764408760037 
2280	 0.102817161967147 
2281	 0.102842430628518 
2282	 0.102876497990954 
2283	 0.102901928429905 
2284	 0.102893454809059 
2285	 0.102919810920166 
2286	 0.102981399241532 
2287	 0.103009092579571 
2288	 0.103033967454062 
2289	 0.103048447191966 
2290	 0.103017885446825 
2291	 0.103040059587255 
2292	 0.103097019543283 
2293	 0.103137735198265 
2294	 0.103209734944272 
2295	 0.103253557880222 
2296	 0.10327529061732 
2297	 0.103285210661504 
2298	 0.103287330622982 
2299	 0.103316762489604 
2300	 0.103350899074933 
2301	 0.103386174884945 
2302	 0.103440086235951 
2303	 0.103443357973498 
2304	 0.1033884920692 
2305	 0.103356759810518 
2306	 0.10331920916129 
2307	 0.103245434496964 
2308	 0.103228321952269 
2309	 0.103250166816726 
2310	 0.103239682879465 
2311	 0.103237168947097 
2312	 0.10323960573555 
2313	 0.103232901114093 
2314	 0.103226934059062 
2315	 0.103237522813276 
2316	 0.10323775796309 
2317	 0.103216127942304 
2318	 0.103210954045466 
2319	 0.10322823979585 
2320	 0.103215752426155 
2321	 0.103164175586379 
2322	 0.103178468117143 
2323	 0.103228747745932 
2324	 0.10325171474613 
2325	 0.10330525206741 
2326	 0.103335908819759 
2327	 0.103326670869997 
2328	 0.103324517391516 
2329	 0.103364628412165 
2330	 0.103436148617662 
2331	 0.103512138012492 
2332	 0.103565110410032 
2333	 0.103550619766764 
2334	 0.103508707840961 
2335	 0.103461278489673 
2336	 0.103443199991363 
2337	 0.10346978780445 
2338	 0.103511318120736 
2339	 0.103553562220834 
2340	 0.103567516094494 
2341	 0.103590905169333 
2342	 0.103617431220422 
2343	 0.103586077697694 
2344	 0.103526055021849 
2345	 0.103476073747139 
2346	 0.103389316202193 
2347	 0.103329259723111 
2348	 0.103286095372137 
2349	 0.103246622511334 
2350	 0.103209332246246 
2351	 0.103180857280058 
2352	 0.103156553174414 
2353	 0.10317511403906 
2354	 0.103226125844227 
2355	 0.103249501297685 
2356	 0.103310461830884 
2357	 0.103303656690529 
2358	 0.103226009094868 
2359	 0.103189001989784 
2360	 0.103160060063587 
2361	 0.103131966543397 
2362	 0.103117957721586 
2363	 0.103090252647371 
2364	 0.103044952174627 
2365	 0.102993738473132 
2366	 0.102933945706855 
2367	 0.102883231685068 
2368	 0.102807383520187 
2369	 0.10277331308525 
2370	 0.102771080516325 
2371	 0.102784016615049 
2372	 0.102723584580217 
2373	 0.102699032328554 
2374	 0.102713868559432 
2375	 0.102604512893214 
2376	 0.102549643002896 
2377	 0.10259267359698 
2378	 0.102530520243936 
2379	 0.1025284988191 
2380	 0.10261875019404 
2381	 0.102598973804936 
2382	 0.102526088520692 
2383	 0.102465029921697 
2384	 0.102388882170799 
2385	 0.102311307915913 
2386	 0.102275033502625 
2387	 0.102245608481648 
2388	 0.10219443756211 
2389	 0.102146952962476 
2390	 0.102116050754549 
2391	 0.10207155732408 
2392	 0.102027408864876 
2393	 0.101996183642897 
2394	 0.10196426211967 
2395	 0.101999416960511 
2396	 0.101974373970506 
2397	 0.101888011055973 
2398	 0.101782414736273 
2399	 0.101606126353186 
2400	 0.101485296894299 
2401	 0.101406445175414 
2402	 0.101335829967415 
2403	 0.101303053147962 
2404	 0.101282628331062 
2405	 0.101271506640667 
2406	 0.101223792820342 
2407	 0.101127216744517 
2408	 0.101012800093557 
2409	 0.100890806942408 
2410	 0.100881592191018 
2411	 0.100912301483585 
2412	 0.10089792839222 
2413	 0.100932002880979 
2414	 0.100892941797272 
2415	 0.100740200874652 
2416	 0.100663312568539 
2417	 0.100633567557677 
2418	 0.100566472215255 
2419	 0.100519445277652 
2420	 0.100486414099308 
2421	 0.100408308586723 
2422	 0.100319302725746 
2423	 0.100215933328218 
2424	 0.100140960621461 
2425	 0.100131427014873 
2426	 0.100040644605074 
2427	 9.99177697377511E-02 
2428	 9.98209198526945E-02 
2429	 9.96466721607694E-02 
2430	 9.95054480104984E-02 
2431	 0.099427152935803 
2432	 9.93650420292625E-02 
2433	 9.92977476117619E-02 
2434	 9.92559004875121E-02 
2435	 9.92477354861321E-02 
2436	 9.91891230756281E-02 
2437	 9.90962835592897E-02 
2438	 9.90168085511971E-02 
2439	 9.90020210260255E-02 
2440	 9.89735854264342E-02 
2441	 9.89331478839112E-02 
2442	 9.88569924882149E-02 
2443	 9.87039771975535E-02 
2444	 9.85513293598427E-02 
2445	 9.83454592518044E-02 
2446	 9.82727914743237E-02 
2447	 9.83139290592292E-02 
2448	 9.82661832138151E-02 
2449	 9.82552639768061E-02 
2450	 9.82096935361901E-02 
2451	 9.80768581720956E-02 
2452	 9.80193202759281E-02 
2453	 9.80195052215967E-02 
2454	 9.79498061054201E-02 
2455	 9.78633515296468E-02 
2456	 9.77521238620786E-02 
2457	 9.76183843840063E-02 
2458	 9.75210164035812E-02 
2459	 9.73416062932546E-02 
2460	 9.72184264495875E-02 
2461	 9.71810143838747E-02 
2462	 9.71126122018301E-02 
2463	 9.70713441583953E-02 
2464	 9.71162267081022E-02 
2465	 9.71667017563342E-02 
2466	 9.71949596241876E-02 
2467	 9.73382857882284E-02 
2468	 9.72602789588317E-02 
2469	 9.71077831183104E-02 
2470	 9.67117594799986E-02 
2471	 9.63641820959357E-02 
2472	 9.61190617919297E-02 
2473	 9.58897488460402E-02 
2474	 9.59944555193397E-02 
2475	 9.60681834975777E-02 
2476	 9.59618835094606E-02 
2477	 9.59958976721375E-02 
2478	 9.59972441864046E-02 
2479	 9.58812250080414E-02 
2480	 9.59354963017834E-02 
2481	 9.59011242601013E-02 
2482	 9.57355042506736E-02 
2483	 9.56034115705632E-02 
2484	 9.54980551589147E-02 
2485	 0.095439791614653 
2486	 9.53813125150351E-02 
2487	 9.54399873141576E-02 
2488	 9.54604841532147E-02 
2489	 9.54528702651665E-02 
2490	 9.54004380330543E-02 
2491	 9.53324970802795E-02 
2492	 9.53738174826564E-02 
2493	 9.53617384134161E-02 
2494	 9.53670041619161E-02 
2495	 9.53250080336659E-02 
2496	 9.51202977487962E-02 
2497	 9.49746270417477E-02 
2498	 9.48814883927801E-02 
2499	 9.48722060384798E-02 
2500	 9.50037969001179E-02 
