Wavelength	LMW_2400003.asd
350	 4.74147315003718E-02 
351	 5.10169937644326E-02 
352	 4.71559473540237E-02 
353	 3.85155158663462E-02 
354	 4.47000147033017E-02 
355	 4.84578650218734E-02 
356	 4.71413244440601E-02 
357	 4.40320170119332E-02 
358	 4.96232255619265E-02 
359	 4.95815426048515E-02 
360	 4.56151927640042E-02 
361	 4.86660227725583E-02 
362	 4.60993865840574E-02 
363	 4.34359142113511E-02 
364	 4.37281208196123E-02 
365	 4.25739118216079E-02 
366	 4.34483497840156E-02 
367	 4.46574072953031E-02 
368	 4.42918895459222E-02 
369	 0.045044240131004 
370	 0.046919023501442 
371	 4.89603852468837E-02 
372	 4.96785639715976E-02 
373	 5.04435450868428E-02 
374	 4.85583558500582E-02 
375	 4.45115782273934E-02 
376	 4.50425849726776E-02 
377	 0.045825650549793 
378	 4.82030079449031E-02 
379	 0.052444075019735 
380	 4.76159058384808E-02 
381	 4.43192704080483E-02 
382	 4.53429723609449E-02 
383	 4.67647148911015E-02 
384	 4.60827194998444E-02 
385	 4.65503851352802E-02 
386	 4.94805490506235E-02 
387	 5.10747544005265E-02 
388	 5.07673128351724E-02 
389	 5.01821350413823E-02 
390	 0.050847282322428 
391	 4.95947455326363E-02 
392	 4.92211677213223E-02 
393	 5.07826650041549E-02 
394	 5.34070977959737E-02 
395	 5.29393940782878E-02 
396	 5.14156698409666E-02 
397	 0.051263459549857 
398	 5.37525919142767E-02 
399	 5.43560471975824E-02 
400	 5.33588542502453E-02 
401	 5.28499663451137E-02 
402	 5.36642752941696E-02 
403	 0.053528393627759 
404	 5.24714589809355E-02 
405	 5.29185996209088E-02 
406	 5.43211336119268E-02 
407	 5.60109488593053E-02 
408	 5.70474284564116E-02 
409	 5.57330883517117E-02 
410	 5.42271429765148E-02 
411	 5.38630530317889E-02 
412	 5.50974905210879E-02 
413	 5.57186703573635E-02 
414	 5.58959164806586E-02 
415	 5.58617891066966E-02 
416	 0.055589763754853 
417	 5.56143370284211E-02 
418	 5.57456001238473E-02 
419	 5.57413217725636E-02 
420	 5.58897962012511E-02 
421	 5.56829810360805E-02 
422	 5.57205638570346E-02 
423	 5.70277758265061E-02 
424	 5.70960568454876E-02 
425	 5.64779485163052E-02 
426	 5.58910421880816E-02 
427	 5.55245704283033E-02 
428	 5.56989067677785E-02 
429	 5.58221826470422E-02 
430	 5.53507011666138E-02 
431	 5.56118836892301E-02 
432	 5.55863783623667E-02 
433	 5.52317032633328E-02 
434	 5.54949125349892E-02 
435	 5.57218631785429E-02 
436	 5.55554696862372E-02 
437	 0.055067289815771 
438	 5.52698831801375E-02 
439	 5.55444866248361E-02 
440	 5.56583284095083E-02 
441	 5.56283436970701E-02 
442	 5.58036502463913E-02 
443	 5.62376994958259E-02 
444	 0.056595887709706 
445	 5.59762817095001E-02 
446	 0.05609339659183 
447	 5.65414490437541E-02 
448	 5.65624569195905E-02 
449	 5.67306453669264E-02 
450	 0.057037132528808 
451	 5.73596116657811E-02 
452	 5.74952105421197E-02 
453	 5.72561783006477E-02 
454	 5.70581644995793E-02 
455	 5.72172298521247E-02 
456	 5.76266730709108E-02 
457	 5.75960075977206E-02 
458	 5.73754316543516E-02 
459	 5.75596560117647E-02 
460	 5.76366855308581E-02 
461	 5.77315374457678E-02 
462	 5.78300999850531E-02 
463	 5.76406896776166E-02 
464	 5.76649001891409E-02 
465	 5.77551485666377E-02 
466	 5.77220254021302E-02 
467	 5.80142843346614E-02 
468	 5.81460127353664E-02 
469	 5.80877407639688E-02 
470	 5.81815574752595E-02 
471	 5.83079195846617E-02 
472	 5.82140635306725E-02 
473	 5.79001932329914E-02 
474	 5.80105867026936E-02 
475	 5.81638225631201E-02 
476	 5.82173495348535E-02 
477	 5.81619969867838E-02 
478	 5.81737410365324E-02 
479	 5.84107785581281E-02 
480	 5.87021182626299E-02 
481	 5.84258370067212E-02 
482	 5.85630985487148E-02 
483	 5.88267980237625E-02 
484	 5.87720255291433E-02 
485	 5.88507857881454E-02 
486	 5.88621506160192E-02 
487	 5.87771997794632E-02 
488	 0.058729305740175 
489	 0.058925750841455 
490	 5.90702660112702E-02 
491	 5.89995214330764E-02 
492	 5.91245522037866E-02 
493	 5.89739074599795E-02 
494	 5.87353138073197E-02 
495	 5.88456121597517E-02 
496	 0.059081440603931 
497	 5.92072144807838E-02 
498	 5.91866586534498E-02 
499	 5.92702042824694E-02 
500	 5.94218585512304E-02 
501	 5.94643487563226E-02 
502	 5.92972520558503E-02 
503	 5.93470341266218E-02 
504	 5.94223795870664E-02 
505	 5.94794399754491E-02 
506	 5.96198143030222E-02 
507	 5.96859510858684E-02 
508	 5.96513884588418E-02 
509	 5.95545962238089E-02 
510	 0.059518581578154 
511	 5.95237403233243E-02 
512	 5.95556893700705E-02 
513	 5.95980656055208E-02 
514	 5.96078603764016E-02 
515	 5.97141587438757E-02 
516	 5.99084767862352E-02 
517	 5.99242316591934E-02 
518	 5.98326346226527E-02 
519	 5.97871482362449E-02 
520	 5.99039136821916E-02 
521	 5.99290279050335E-02 
522	 5.99979221035991E-02 
523	 6.00993465496213E-02 
524	 6.00526998254862E-02 
525	 6.00355445056083E-02 
526	 6.00893847726934E-02 
527	 6.01828830629717E-02 
528	 6.01607214387122E-02 
529	 6.01396082282486E-02 
530	 6.01878032686392E-02 
531	 6.03184204354035E-02 
532	 6.02946932663453E-02 
533	 6.03450154993719E-02 
534	 6.05529967380801E-02 
535	 6.05679236798089E-02 
536	 6.05000495197476E-02 
537	 6.05059010312292E-02 
538	 6.07027507108307E-02 
539	 6.07649302037176E-02 
540	 6.07695487777653E-02 
541	 6.07879644998391E-02 
542	 6.08361192041332E-02 
543	 6.09495431298139E-02 
544	 6.10568601045629E-02 
545	 6.11040047692875E-02 
546	 6.12358426207314E-02 
547	 6.13423004872302E-02 
548	 6.14168308920041E-02 
549	 6.15389621792364E-02 
550	 6.15676723033855E-02 
551	 6.16153994311309E-02 
552	 6.17837828929213E-02 
553	 0.062053470273662 
554	 6.21806610110116E-02 
555	 6.22439758525067E-02 
556	 6.24653424627289E-02 
557	 6.26415590987243E-02 
558	 6.27658663388074E-02 
559	 6.28837006251499E-02 
560	 6.30983533712872E-02 
561	 6.32386152505889E-02 
562	 6.33985121611288E-02 
563	 6.37129437351812E-02 
564	 6.40082074907643E-02 
565	 6.42803390545801E-02 
566	 6.45771735036359E-02 
567	 6.49891144131735E-02 
568	 6.53353933882011E-02 
569	 6.55787033928213E-02 
570	 6.57514249128169E-02 
571	 6.59653307274503E-02 
572	 6.62708155995849E-02 
573	 6.66349330995688E-02 
574	 0.066971348279709 
575	 6.73577873880764E-02 
576	 6.77607855041535E-02 
577	 6.81775142109459E-02 
578	 6.87153370165363E-02 
579	 0.069280153840487 
580	 6.98289100260275E-02 
581	 7.03444301416793E-02 
582	 7.08401434663088E-02 
583	 7.12944052552685E-02 
584	 7.17326634216373E-02 
585	 7.22503466341777E-02 
586	 0.072862723163614 
587	 7.34879850284751E-02 
588	 7.40462820534347E-02 
589	 7.46296519078226E-02 
590	 7.51314718871292E-02 
591	 7.55635143962397E-02 
592	 7.60417867558836E-02 
593	 0.076346936761812 
594	 7.66138238913533E-02 
595	 7.70010993175646E-02 
596	 7.75449539086404E-02 
597	 7.81817504981017E-02 
598	 7.88463068452854E-02 
599	 0.079482498835548 
600	 8.01173257437401E-02 
601	 8.07069650600861E-02 
602	 8.12088005545991E-02 
603	 8.15870709773942E-02 
604	 8.20146436924278E-02 
605	 8.24800182300892E-02 
606	 8.29071481105736E-02 
607	 8.32788445297441E-02 
608	 8.36469821344228E-02 
609	 8.40208840817531E-02 
610	 8.43583715605945E-02 
611	 8.47152063082901E-02 
612	 8.50562393302011E-02 
613	 8.53439618304691E-02 
614	 8.56077226855897E-02 
615	 8.58923905089857E-02 
616	 8.61947379755599E-02 
617	 8.64737833457681E-02 
618	 0.086712726103656 
619	 8.68736459580334E-02 
620	 8.69855907751807E-02 
621	 8.72319097575735E-02 
622	 8.74522362189429E-02 
623	 8.76159952774674E-02 
624	 8.77502368731328E-02 
625	 0.087893575271092 
626	 8.80731755227726E-02 
627	 8.82670545554431E-02 
628	 8.83917275808941E-02 
629	 8.85154110428408E-02 
630	 8.86586483182348E-02 
631	 8.88110190412194E-02 
632	 8.88860008911482E-02 
633	 8.90179919562262E-02 
634	 8.92036823802608E-02 
635	 0.08932837723937 
636	 8.94459238158979E-02 
637	 8.95597861095165E-02 
638	 8.96678996840254E-02 
639	 8.97705929269925E-02 
640	 8.98951617150238E-02 
641	 9.00582010564625E-02 
642	 9.02548751489446E-02 
643	 9.03838222751023E-02 
644	 0.090478784863936 
645	 0.090585468088562 
646	 9.07479963287442E-02 
647	 9.08449722199485E-02 
648	 9.09412503433609E-02 
649	 9.11134964401422E-02 
650	 9.12373023414278E-02 
651	 9.13895994558283E-02 
652	 9.15768684793753E-02 
653	 9.17432713925699E-02 
654	 9.19308750432636E-02 
655	 9.21049673144361E-02 
656	 9.22499202760211E-02 
657	 9.24278727282084E-02 
658	 9.26288388430968E-02 
659	 9.28283988022765E-02 
660	 9.30019451283722E-02 
661	 0.093196673793371 
662	 9.33981332757008E-02 
663	 0.093597694273275 
664	 9.38041844292996E-02 
665	 9.39998834022822E-02 
666	 9.42009562358388E-02 
667	 9.44299720200301E-02 
668	 9.46957268407196E-02 
669	 9.49559259068586E-02 
670	 9.51897220284615E-02 
671	 9.54001232007544E-02 
672	 9.56531448355129E-02 
673	 9.59295401406779E-02 
674	 9.61963021622286E-02 
675	 0.096425036510509 
676	 9.66503361193823E-02 
677	 9.69029244755642E-02 
678	 9.72038272115607E-02 
679	 9.75241931257972E-02 
680	 9.78156305927809E-02 
681	 9.80870765201164E-02 
682	 9.84230483783346E-02 
683	 9.87026731419815E-02 
684	 9.89739331353616E-02 
685	 9.93015099642077E-02 
686	 0.0996484385943 
687	 9.99547547455779E-02 
688	 0.100250494092723 
689	 0.100617159869837 
690	 0.100928140899631 
691	 0.101229274150034 
692	 0.101567679583289 
693	 0.101948829501644 
694	 0.102286945793116 
695	 0.102617560047178 
696	 0.103003547355073 
697	 0.103385889598434 
698	 0.103740259833391 
699	 0.104078267688228 
700	 0.104446136954132 
701	 0.104838446414772 
702	 0.105232927486387 
703	 0.105606041207402 
704	 0.105938562584415 
705	 0.106276905129125 
706	 0.106649395665957 
707	 0.107058476098809 
708	 0.107401378835029 
709	 0.107745895962524 
710	 0.108127632591323 
711	 0.108511039752797 
712	 0.108898041538799 
713	 0.109265613921272 
714	 0.109601530486468 
715	 0.109948733986795 
716	 0.110310928613095 
717	 0.110669026517133 
718	 0.110992457674332 
719	 0.111330482716659 
720	 0.111644407152945 
721	 0.111925087107011 
722	 0.112245084339778 
723	 0.112556093737477 
724	 0.112871238498625 
725	 0.113203796306012 
726	 0.113466910876383 
727	 0.113704389344857 
728	 0.113943480128059 
729	 0.114186397288021 
730	 0.114383829516404 
731	 0.114583573837523 
732	 0.114810493199426 
733	 0.114991415480087 
734	 0.115167160718288 
735	 0.115335970306636 
736	 0.115479843689453 
737	 0.115589468527564 
738	 0.115692212871156 
739	 0.115801277699052 
740	 0.115910471697894 
741	 0.116004018673845 
742	 0.116057945308684 
743	 0.116068298677183 
744	 0.116082163988255 
745	 0.11610555829754 
746	 0.116140862823927 
747	 0.116178445563465 
748	 0.116162016215451 
749	 0.116102834376581 
750	 0.116029649163111 
751	 0.115982073582874 
752	 0.115919119807381 
753	 0.115853620000042 
754	 0.11579354046364 
755	 0.11569609279867 
756	 0.115587118125554 
757	 0.115468106115199 
758	 0.115332446352776 
759	 0.115212299870128 
760	 0.115062712467997 
761	 0.114879241134694 
762	 0.11471548486443 
763	 0.114555638796598 
764	 0.114385869258574 
765	 0.114201454300617 
766	 0.114027871100089 
767	 0.113823101544008 
768	 0.113608677847966 
769	 0.113428897767068 
770	 0.113242490814661 
771	 0.113043615708163 
772	 0.112833205345277 
773	 0.112616381067077 
774	 0.112382179392495 
775	 0.112165828730884 
776	 0.111977379346661 
777	 0.111730201173687 
778	 0.111493557697459 
779	 0.111278552708846 
780	 0.111066325489961 
781	 0.110834554784353 
782	 0.110601798761224 
783	 0.110381730544596 
784	 0.110176687821772 
785	 0.109925850953226 
786	 0.109673503217144 
787	 0.109453930329266 
788	 0.109226570290539 
789	 0.109000653012883 
790	 0.108775011535617 
791	 0.108539666539668 
792	 0.108250579546948 
793	 0.108012827953143 
794	 0.10783170633599 
795	 0.107623024938949 
796	 0.107398311792294 
797	 0.107178066176559 
798	 0.106972204821719 
799	 0.106766768017593 
800	 0.106560415266457 
801	 0.106348349761654 
802	 0.106132269804821 
803	 0.105942662569846 
804	 0.105732404425565 
805	 0.105509327277159 
806	 0.105315865935424 
807	 0.105161185407328 
808	 0.104976144641621 
809	 0.104753808387028 
810	 0.104576168674088 
811	 0.104419115301526 
812	 0.104238095203096 
813	 0.104024280388459 
814	 0.103876897571338 
815	 0.103748797067468 
816	 0.103617587534094 
817	 0.103472707458638 
818	 0.103319983936576 
819	 0.103138113701867 
820	 0.102950589281654 
821	 0.102811081976937 
822	 0.10264135181964 
823	 0.102493061505536 
824	 0.102389212167147 
825	 0.102275667802695 
826	 0.102145997049897 
827	 0.102009364290168 
828	 0.101884777951831 
829	 0.101806023770362 
830	 0.101686211928664 
831	 0.101556866693885 
832	 0.101491805478793 
833	 0.101431205465202 
834	 0.101364738356951 
835	 0.101260457077988 
836	 0.101080683289886 
837	 0.101006857827627 
838	 0.100988775958425 
839	 0.100951663650914 
840	 0.100850674827761 
841	 0.100770094517275 
842	 0.100703457679586 
843	 0.100633291414592 
844	 0.100596285846653 
845	 0.100551217041721 
846	 0.100478329568602 
847	 0.100385148941363 
848	 0.100356834716701 
849	 0.100327864822265 
850	 0.100278930184263 
851	 0.100237196440508 
852	 0.100188003095849 
853	 0.100142366259032 
854	 0.100121392814014 
855	 0.100153523384112 
856	 0.100182859692035 
857	 0.100197167895545 
858	 0.100189191599142 
859	 0.100125074535268 
860	 0.100123481182972 
861	 0.100156943178912 
862	 0.100160525536225 
863	 0.100170789150729 
864	 0.100157240772085 
865	 0.100167984662405 
866	 0.100264586355129 
867	 0.100247343473634 
868	 0.100220823341152 
869	 0.100247544391511 
870	 0.100313409802998 
871	 0.100390520316251 
872	 0.100465462359141 
873	 0.100532255879577 
874	 0.100591819646592 
875	 0.10059808379963 
876	 0.100611129350067 
877	 0.100676105416171 
878	 0.100726632397659 
879	 0.100801102440571 
880	 0.100890853839922 
881	 0.100970765777703 
882	 0.101015157942302 
883	 0.101105659341404 
884	 0.101216380402098 
885	 0.101281213148175 
886	 0.101401258281361 
887	 0.101517063634699 
888	 0.101616709906573 
889	 0.101734687301226 
890	 0.101840950697244 
891	 0.101958251582498 
892	 0.102087021311203 
893	 0.102193916057066 
894	 0.102296239420409 
895	 0.102424082911155 
896	 0.102582508524342 
897	 0.102729639700367 
898	 0.102848245311268 
899	 0.102979312147664 
900	 0.103141798015994 
901	 0.103246703090765 
902	 0.103400487714094 
903	 0.103602268050675 
904	 0.103800563760978 
905	 0.103907781347862 
906	 0.10408418927031 
907	 0.104294632854348 
908	 0.104442387263415 
909	 0.104654356607325 
910	 0.104869428579683 
911	 0.1050721958122 
912	 0.105286466469446 
913	 0.105538495521195 
914	 0.105788081242507 
915	 0.10600274818016 
916	 0.106174818412333 
917	 0.106381107142282 
918	 0.106616432514015 
919	 0.106848751552794 
920	 0.107037726268615 
921	 0.107264641124055 
922	 0.107529124019214 
923	 0.107807156160171 
924	 0.1080654723 
925	 0.108261388621143 
926	 0.108538888409484 
927	 0.108914179588647 
928	 0.10910745070166 
929	 0.109330506317358 
930	 0.109631077683189 
931	 0.10996682521484 
932	 0.110191076147603 
933	 0.110508615353654 
934	 0.11084400588364 
935	 0.111115384277049 
936	 0.111474652979769 
937	 0.111830473825394 
938	 0.112159739441845 
939	 0.112472990912788 
940	 0.112814946997305 
941	 0.113108071025212 
942	 0.113404047546685 
943	 0.113771965187484 
944	 0.114132895604774 
945	 0.114481863595959 
946	 0.114828683164182 
947	 0.115169504238744 
948	 0.115396629084162 
949	 0.115735109721183 
950	 0.116132231151131 
951	 0.116445191207783 
952	 0.116889306453588 
953	 0.117317942998538 
954	 0.117707128125498 
955	 0.118093579163234 
956	 0.118374635580143 
957	 0.118748374008747 
958	 0.11918642628651 
959	 0.119551276067161 
960	 0.120014102125753 
961	 0.12042058776898 
962	 0.120805002953121 
963	 0.121281485164158 
964	 0.121595335300331 
965	 0.121965599396333 
966	 0.122423507473989 
967	 0.122850680524124 
968	 0.12319763405364 
969	 0.123595949899998 
970	 0.124064374969898 
971	 0.124515245735302 
972	 0.12480313852233 
973	 0.125199371776817 
974	 0.125666947411319 
975	 0.126007009265319 
976	 0.126503234118276 
977	 0.127016313984137 
978	 0.127444181833662 
979	 0.127767415396821 
980	 0.128132930664734 
981	 0.128547583115298 
982	 0.128937888722041 
983	 0.129261303361709 
984	 0.129874275833135 
985	 0.13035433095809 
986	 0.13069606339872 
987	 0.131121026107735 
988	 0.131526773937945 
989	 0.131936245572743 
990	 0.132333462416095 
991	 0.132703798104238 
992	 0.133135450433954 
993	 0.133540634461639 
994	 0.133948355382681 
995	 0.134401258203401 
996	 0.134760121531833 
997	 0.135160110695472 
998	 0.1355056226128 
999	 0.135747835106443 
1000	 0.136318202048626 
1001	 0.133856992753948 
1002	 0.134141628273295 
1003	 0.134401836085136 
1004	 0.13470111552816 
1005	 0.135008558767887 
1006	 0.135301726326836 
1007	 0.135613134143274 
1008	 0.135938232800346 
1009	 0.136211767406058 
1010	 0.13652741315699 
1011	 0.136865546260313 
1012	 0.13712876160171 
1013	 0.137335738140435 
1014	 0.137548830565697 
1015	 0.137762682259312 
1016	 0.138005409165558 
1017	 0.138253805201402 
1018	 0.138541589494484 
1019	 0.138777475105052 
1020	 0.138972561041392 
1021	 0.139200124651732 
1022	 0.139410611299523 
1023	 0.13959875980683 
1024	 0.139861823009859 
1025	 0.140123836603859 
1026	 0.140333902032491 
1027	 0.140568794054733 
1028	 0.140789252772881 
1029	 0.14097592359994 
1030	 0.141177075201931 
1031	 0.141370469184208 
1032	 0.141579140044865 
1033	 0.14177530973023 
1034	 0.141927938883325 
1035	 0.142065634902198 
1036	 0.142232638991702 
1037	 0.14240646117666 
1038	 0.142576204877541 
1039	 0.142740100231991 
1040	 0.142942739265081 
1041	 0.143144366128599 
1042	 0.14330872073835 
1043	 0.143526786103002 
1044	 0.143739142767831 
1045	 0.143942221697017 
1046	 0.14412203237511 
1047	 0.144319829290005 
1048	 0.14448693585471 
1049	 0.14463164145559 
1050	 0.144759690194671 
1051	 0.144967587874578 
1052	 0.145223048490915 
1053	 0.145430108610093 
1054	 0.145635919810432 
1055	 0.145795974408469 
1056	 0.145914372236407 
1057	 0.146048855862875 
1058	 0.146167698740897 
1059	 0.146301192703066 
1060	 0.146434288366524 
1061	 0.146605650719658 
1062	 0.146750024592935 
1063	 0.146904475987939 
1064	 0.14705563543127 
1065	 0.147151780067635 
1066	 0.147290570226433 
1067	 0.147385834925971 
1068	 0.147478475840521 
1069	 0.147597328858572 
1070	 0.147687286368801 
1071	 0.147732683499151 
1072	 0.14783609856578 
1073	 0.148002959140783 
1074	 0.148080296257103 
1075	 0.148141925613719 
1076	 0.148162874753597 
1077	 0.148153705332254 
1078	 0.148145180259645 
1079	 0.148206587383287 
1080	 0.148305725145167 
1081	 0.148398593170994 
1082	 0.148471964046415 
1083	 0.1485388413718 
1084	 0.148596535909195 
1085	 0.148644187544516 
1086	 0.148682489356222 
1087	 0.148712390270722 
1088	 0.148705013496471 
1089	 0.148755229154187 
1090	 0.148816930477991 
1091	 0.148886555791867 
1092	 0.149003431608755 
1093	 0.149083814778121 
1094	 0.149146625499776 
1095	 0.149206619136082 
1096	 0.149262815783201 
1097	 0.149329076368327 
1098	 0.149403482954768 
1099	 0.149504558907907 
1100	 0.149582731502095 
1101	 0.14964322059233 
1102	 0.149722758874761 
1103	 0.149803636091844 
1104	 0.149872928636156 
1105	 0.149976611268981 
1106	 0.150099407496688 
1107	 0.150222371012374 
1108	 0.150334590397684 
1109	 0.150452579382647 
1110	 0.150561073014305 
1111	 0.15065289713988 
1112	 0.150715327983757 
1113	 0.150812044628229 
1114	 0.150896146371725 
1115	 0.151013803045764 
1116	 0.151178845845137 
1117	 0.151323384551812 
1118	 0.151480057503967 
1119	 0.151611596029112 
1120	 0.151748797847919 
1121	 0.151878998614243 
1122	 0.15202030424195 
1123	 0.152197528821982 
1124	 0.152350810466224 
1125	 0.152508248542488 
1126	 0.152646270346578 
1127	 0.152761718546534 
1128	 0.152903974697118 
1129	 0.153047657322543 
1130	 0.1531988250172 
1131	 0.153371989748171 
1132	 0.153522554057674 
1133	 0.153666623339061 
1134	 0.153813657467243 
1135	 0.153956354818243 
1136	 0.154095460825466 
1137	 0.154246108475218 
1138	 0.154368585252972 
1139	 0.154488122562315 
1140	 0.154602677749224 
1141	 0.154711587983638 
1142	 0.154798567259376 
1143	 0.15490683205836 
1144	 0.155027179210268 
1145	 0.155128749721926 
1146	 0.15522287517019 
1147	 0.155327456277259 
1148	 0.155439237550047 
1149	 0.155533479214813 
1150	 0.155620067756582 
1151	 0.155719742371101 
1152	 0.155802619123101 
1153	 0.155871588181005 
1154	 0.155959814117722 
1155	 0.156069220079621 
1156	 0.156158009337355 
1157	 0.156237234633811 
1158	 0.156321521875414 
1159	 0.156411181616888 
1160	 0.156484090404117 
1161	 0.156552977792069 
1162	 0.156620466326226 
1163	 0.156668231935033 
1164	 0.156726368156331 
1165	 0.156794261146777 
1166	 0.156858201438422 
1167	 0.156909691409268 
1168	 0.156969178732124 
1169	 0.157023700087897 
1170	 0.157068481781617 
1171	 0.157126308947688 
1172	 0.157190836027808 
1173	 0.157251348303582 
1174	 0.157319265682901 
1175	 0.15737988726887 
1176	 0.157445187209755 
1177	 0.157492922146674 
1178	 0.157521073515703 
1179	 0.157562138683197 
1180	 0.157594067227966 
1181	 0.157633769287551 
1182	 0.157686305501505 
1183	 0.157738837320415 
1184	 0.157788319759075 
1185	 0.157834642085595 
1186	 0.157882138592101 
1187	 0.157936835814731 
1188	 0.157976524152009 
1189	 0.158006410392982 
1190	 0.158042331924518 
1191	 0.158065424455548 
1192	 0.158103894615359 
1193	 0.158157068245697 
1194	 0.158202049464119 
1195	 0.158253681063924 
1196	 0.158297075661893 
1197	 0.158338869142685 
1198	 0.158370959047616 
1199	 0.158396418202995 
1200	 0.158406260834696 
1201	 0.158445264512867 
1202	 0.1584926821354 
1203	 0.158529904739229 
1204	 0.158588201399043 
1205	 0.158619946146149 
1206	 0.158620982914615 
1207	 0.158642925646061 
1208	 0.158662946792001 
1209	 0.158694508775177 
1210	 0.158744413828077 
1211	 0.158779715226389 
1212	 0.158807158963765 
1213	 0.158846536608474 
1214	 0.158893472811946 
1215	 0.158928024541405 
1216	 0.158960984266996 
1217	 0.159006889617006 
1218	 0.159029388856679 
1219	 0.15902169277739 
1220	 0.159045398088147 
1221	 0.159072035999284 
1222	 0.15910927595045 
1223	 0.15917489217172 
1224	 0.159212084129819 
1225	 0.159230078335785 
1226	 0.159270189565398 
1227	 0.159307583587191 
1228	 0.159350820852705 
1229	 0.159429858934609 
1230	 0.159478091069899 
1231	 0.159505867603998 
1232	 0.159534379014446 
1233	 0.159556087248303 
1234	 0.15956246537552 
1235	 0.159576501961863 
1236	 0.159591160046668 
1237	 0.15960598166886 
1238	 0.159616242310971 
1239	 0.159635902310896 
1240	 0.159665852006591 
1241	 0.159683375977924 
1242	 0.1596879058404 
1243	 0.159714279030771 
1244	 0.159746470143678 
1245	 0.159777879924462 
1246	 0.159838855989389 
1247	 0.159875413442636 
1248	 0.159892843014245 
1249	 0.159913078788549 
1250	 0.159918488271293 
1251	 0.159915602090855 
1252	 0.15993512018311 
1253	 0.159961009158072 
1254	 0.159987615462114 
1255	 0.160031950021095 
1256	 0.160063111371008 
1257	 0.160086559425697 
1258	 0.160109007201746 
1259	 0.160130077606179 
1260	 0.160152795696976 
1261	 0.160172553399977 
1262	 0.160193749052201 
1263	 0.160217082516192 
1264	 0.160239731017611 
1265	 0.160263704157248 
1266	 0.160282869501888 
1267	 0.160297217541983 
1268	 0.160317062931358 
1269	 0.160334555666716 
1270	 0.160341762725483 
1271	 0.160370434713312 
1272	 0.160410924075408 
1273	 0.160449215670272 
1274	 0.160497763959559 
1275	 0.160544255109287 
1276	 0.160582566506157 
1277	 0.160636427782747 
1278	 0.160701721382611 
1279	 0.160766056428736 
1280	 0.160844236036661 
1281	 0.160913250385108 
1282	 0.160980666236942 
1283	 0.161045785546942 
1284	 0.161112872280806 
1285	 0.161167595333907 
1286	 0.161216013695762 
1287	 0.161254271582396 
1288	 0.161293933844458 
1289	 0.161329148060219 
1290	 0.161352201563411 
1291	 0.161373001947185 
1292	 0.161387584973533 
1293	 0.161383725724017 
1294	 0.161384167795123 
1295	 0.161392529909194 
1296	 0.161383800559751 
1297	 0.161359608701065 
1298	 0.16134258456898 
1299	 0.161327211329382 
1300	 0.161295246270402 
1301	 0.161266156344781 
1302	 0.161218321489248 
1303	 0.161138790236887 
1304	 0.161073540967114 
1305	 0.161003628740884 
1306	 0.160942229020571 
1307	 0.160891140937072 
1308	 0.160807759231331 
1309	 0.160734946454873 
1310	 0.160647141242099 
1311	 0.16058454716025 
1312	 0.160542971775317 
1313	 0.160477819340302 
1314	 0.160409336500143 
1315	 0.160351286728049 
1316	 0.160276169831707 
1317	 0.160221672948292 
1318	 0.160190323484558 
1319	 0.160152414061377 
1320	 0.160111968846934 
1321	 0.160079487678809 
1322	 0.160045964806035 
1323	 0.160033739969851 
1324	 0.160025319923488 
1325	 0.160031292959826 
1326	 0.160057023112885 
1327	 0.160075700724371 
1328	 0.160087869728107 
1329	 0.160095738972456 
1330	 0.160118943535545 
1331	 0.160136424505767 
1332	 0.160186202370639 
1333	 0.160265929469282 
1334	 0.160328800963812 
1335	 0.160396360445812 
1336	 0.160469932033698 
1337	 0.160539712669891 
1338	 0.160616992554607 
1339	 0.160719218832376 
1340	 0.160801799877428 
1341	 0.160870053250406 
1342	 0.160942606830964 
1343	 0.161015775544683 
1344	 0.161077840744629 
1345	 0.161147006770218 
1346	 0.161223766804427 
1347	 0.161297661767444 
1348	 0.161355984834251 
1349	 0.16140468125815 
1350	 0.161445205805744 
1351	 0.161480211434606 
1352	 0.161494237384092 
1353	 0.161538114447441 
1354	 0.161599961723694 
1355	 0.161641678373583 
1356	 0.161687891939091 
1357	 0.161730347919765 
1358	 0.161734537288351 
1359	 0.161787800375099 
1360	 0.161869167405246 
1361	 0.161954796724006 
1362	 0.16206745812457 
1363	 0.162171991650385 
1364	 0.162275001430322 
1365	 0.162389783134418 
1366	 0.162500668896041 
1367	 0.162639847399001 
1368	 0.162793636701274 
1369	 0.162922288220606 
1370	 0.163060070180279 
1371	 0.163178494007201 
1372	 0.163270940711502 
1373	 0.163365930915834 
1374	 0.163431559618127 
1375	 0.16348327112166 
1376	 0.163504531746097 
1377	 0.163498252218562 
1378	 0.163477104281134 
1379	 0.163412817974969 
1380	 0.163380071026162 
1381	 0.163332038582388 
1382	 0.163313530073338 
1383	 0.163318883359085 
1384	 0.163326545362455 
1385	 0.163356306095408 
1386	 0.163376548111646 
1387	 0.16341762472194 
1388	 0.163423782391195 
1389	 0.163415602369725 
1390	 0.163393403037968 
1391	 0.163339109965583 
1392	 0.163272599512648 
1393	 0.16317271472795 
1394	 0.163064716962764 
1395	 0.162974968747776 
1396	 0.162883969427167 
1397	 0.162807746337323 
1398	 0.162758239181025 
1399	 0.16269281025254 
1400	 0.16263143303496 
1401	 0.162553164449473 
1402	 0.162463967660408 
1403	 0.162386632654806 
1404	 0.162288947621263 
1405	 0.162216798767836 
1406	 0.162179455051403 
1407	 0.162116827338907 
1408	 0.162048383345814 
1409	 0.161984857533745 
1410	 0.161903538928251 
1411	 0.161842502810926 
1412	 0.161794159789386 
1413	 0.161750888240066 
1414	 0.161720752962393 
1415	 0.161684771432902 
1416	 0.161647401243241 
1417	 0.161620706744277 
1418	 0.161576741813952 
1419	 0.161543377034248 
1420	 0.161533296771451 
1421	 0.161521049530413 
1422	 0.161519894877983 
1423	 0.161514836983208 
1424	 0.161490950596171 
1425	 0.161442554935953 
1426	 0.161409797656597 
1427	 0.16136219899103 
1428	 0.161343486655554 
1429	 0.161343138080377 
1430	 0.16133888492365 
1431	 0.161357423871758 
1432	 0.161356828740144 
1433	 0.161340590686945 
1434	 0.161333298691498 
1435	 0.161315804759831 
1436	 0.161316332216404 
1437	 0.161340794204437 
1438	 0.16134777157858 
1439	 0.161358808597092 
1440	 0.161360503302618 
1441	 0.161338409206615 
1442	 0.161334202382542 
1443	 0.161332332570028 
1444	 0.161326335550138 
1445	 0.16135792948756 
1446	 0.16137626029066 
1447	 0.161380064012218 
1448	 0.161408004624295 
1449	 0.161406222174442 
1450	 0.161386038001411 
1451	 0.161391856050324 
1452	 0.161405702321744 
1453	 0.161425379250072 
1454	 0.161461627449221 
1455	 0.16148808173105 
1456	 0.161521011859619 
1457	 0.161538402968565 
1458	 0.161540436972051 
1459	 0.161561564677186 
1460	 0.161573733493696 
1461	 0.161602382663884 
1462	 0.161661411279651 
1463	 0.161700961269649 
1464	 0.161749975463265 
1465	 0.161773694026474 
1466	 0.161761247553599 
1467	 0.161772788027862 
1468	 0.161771025163734 
1469	 0.161795938161696 
1470	 0.161857057024546 
1471	 0.161905519143378 
1472	 0.161944164587671 
1473	 0.161987834379559 
1474	 0.162009153951673 
1475	 0.162031955144314 
1476	 0.162056852808627 
1477	 0.162072852387929 
1478	 0.162106950163312 
1479	 0.162143970293056 
1480	 0.162186190746863 
1481	 0.162242541081308 
1482	 0.162280954460848 
1483	 0.162307754326344 
1484	 0.162342758158894 
1485	 0.162368062230245 
1486	 0.162404745732283 
1487	 0.162447158744643 
1488	 0.16249469651637 
1489	 0.162561040342788 
1490	 0.162608170735575 
1491	 0.162649811373254 
1492	 0.162690418849799 
1493	 0.162712108048422 
1494	 0.162750807702007 
1495	 0.162801370744531 
1496	 0.162848400137908 
1497	 0.16291299071154 
1498	 0.162950655706827 
1499	 0.162968708396132 
1500	 0.162992400044295 
1501	 0.16299379432569 
1502	 0.16301544876939 
1503	 0.163050366705634 
1504	 0.163088556276636 
1505	 0.1631394128779 
1506	 0.163174269799432 
1507	 0.163181909660418 
1508	 0.163206933407664 
1509	 0.163230007530465 
1510	 0.163236001039102 
1511	 0.163247326786033 
1512	 0.163264867320293 
1513	 0.163274948161911 
1514	 0.163293315247299 
1515	 0.163332613932632 
1516	 0.163365660561608 
1517	 0.163400949305591 
1518	 0.163438393559342 
1519	 0.163473013805515 
1520	 0.163505665453359 
1521	 0.163545961582585 
1522	 0.163590886068098 
1523	 0.16362468796117 
1524	 0.163664884820222 
1525	 0.163688565751477 
1526	 0.163693769153502 
1527	 0.163705282397266 
1528	 0.163707944602332 
1529	 0.163725371195572 
1530	 0.163752434412328 
1531	 0.163770007781297 
1532	 0.163784882790337 
1533	 0.163808155514525 
1534	 0.163834902344517 
1535	 0.163855592991602 
1536	 0.163879279217229 
1537	 0.163907729328972 
1538	 0.163933788650364 
1539	 0.163952797529598 
1540	 0.163974589316121 
1541	 0.163999525229135 
1542	 0.164019885683491 
1543	 0.164038524942024 
1544	 0.164059595761656 
1545	 0.164081434030584 
1546	 0.164103108561413 
1547	 0.164111357131755 
1548	 0.164134171641107 
1549	 0.164162491609223 
1550	 0.164173387145426 
1551	 0.164189387451756 
1552	 0.164204500908014 
1553	 0.164225288150033 
1554	 0.164253376505876 
1555	 0.164266467840702 
1556	 0.164257674534737 
1557	 0.164257216559135 
1558	 0.164264867543131 
1559	 0.164260769194945 
1560	 0.164255834317264 
1561	 0.164253694804046 
1562	 0.164249713720289 
1563	 0.164233849507291 
1564	 0.164231307485402 
1565	 0.164238361333242 
1566	 0.16424840546015 
1567	 0.164264795381632 
1568	 0.16427454683512 
1569	 0.164283673910122 
1570	 0.164299808811304 
1571	 0.164316395312465 
1572	 0.164328201967992 
1573	 0.164354784048357 
1574	 0.164358239533821 
1575	 0.164335467417564 
1576	 0.164330595966017 
1577	 0.164323181537823 
1578	 0.164324177452326 
1579	 0.164334832077716 
1580	 0.164347237826333 
1581	 0.164368142473446 
1582	 0.164375977896469 
1583	 0.164382039659158 
1584	 0.164387052978611 
1585	 0.164378144835003 
1586	 0.164383914702796 
1587	 0.164398582421542 
1588	 0.164412353061155 
1589	 0.164434123027114 
1590	 0.164446854078499 
1591	 0.164462867863573 
1592	 0.164468793694593 
1593	 0.164463566225159 
1594	 0.164460041969572 
1595	 0.164447003826416 
1596	 0.164437392945203 
1597	 0.164431852377995 
1598	 0.164422406622867 
1599	 0.164414715080222 
1600	 0.164402921006803 
1601	 0.164364267261609 
1602	 0.164362745805296 
1603	 0.164392578401526 
1604	 0.16440472283332 
1605	 0.164441483775823 
1606	 0.164459102954452 
1607	 0.164456860805022 
1608	 0.164438494846997 
1609	 0.16443399958079 
1610	 0.164442342922364 
1611	 0.164434596189993 
1612	 0.164433688097502 
1613	 0.164434059677413 
1614	 0.164422290202292 
1615	 0.164411055252753 
1616	 0.164403476185794 
1617	 0.164411445040894 
1618	 0.164419353499091 
1619	 0.16443641297099 
1620	 0.164463220411638 
1621	 0.164473237845021 
1622	 0.164468849809529 
1623	 0.164475128069822 
1624	 0.164479445524883 
1625	 0.164493472047225 
1626	 0.16451807333824 
1627	 0.164525932275474 
1628	 0.164533184369966 
1629	 0.164534638884209 
1630	 0.164520846816649 
1631	 0.164520710317996 
1632	 0.164528282881962 
1633	 0.164527427929371 
1634	 0.164524734733336 
1635	 0.164524236017338 
1636	 0.164525154700125 
1637	 0.164515250600297 
1638	 0.16450146365997 
1639	 0.164489436897164 
1640	 0.164464677079133 
1641	 0.164455474650449 
1642	 0.164460505118182 
1643	 0.164452855345125 
1644	 0.164440908413283 
1645	 0.164437390255863 
1646	 0.164434580556069 
1647	 0.164428422497236 
1648	 0.164428502127889 
1649	 0.164423270084405 
1650	 0.164410681950256 
1651	 0.164399901631519 
1652	 0.164387358693602 
1653	 0.16438187014432 
1654	 0.164376726996341 
1655	 0.164374284136928 
1656	 0.164381653894147 
1657	 0.164382861420308 
1658	 0.164380776043137 
1659	 0.164377745658252 
1660	 0.164378663709442 
1661	 0.164368715186336 
1662	 0.16434707255623 
1663	 0.164335427629508 
1664	 0.164318225959472 
1665	 0.164312524879296 
1666	 0.164327929677921 
1667	 0.164317281470602 
1668	 0.164289777427601 
1669	 0.164282331412029 
1670	 0.164261659434159 
1671	 0.164267336356079 
1672	 0.164309540602394 
1673	 0.16432752044339 
1674	 0.164346458364829 
1675	 0.164357738091354 
1676	 0.164360911255749 
1677	 0.164359670389301 
1678	 0.164351476445185 
1679	 0.164345129497354 
1680	 0.164328125537095 
1681	 0.164325216271186 
1682	 0.164332172171512 
1683	 0.164334478105221 
1684	 0.16434211815749 
1685	 0.164345481952412 
1686	 0.164343244673633 
1687	 0.164345226461713 
1688	 0.16434430238337 
1689	 0.164353859572466 
1690	 0.164376238620414 
1691	 0.164385470479248 
1692	 0.164395427983153 
1693	 0.164404073126788 
1694	 0.164413344639745 
1695	 0.164400353973172 
1696	 0.164368987198999 
1697	 0.164357244143891 
1698	 0.164334685386007 
1699	 0.164319860920514 
1700	 0.16432386650103 
1701	 0.16432754807402 
1702	 0.164320227227249 
1703	 0.164330151584771 
1704	 0.16435869408693 
1705	 0.164385243473883 
1706	 0.16442140397386 
1707	 0.164442056869321 
1708	 0.164469071241857 
1709	 0.16447463252742 
1710	 0.164456046587148 
1711	 0.164447652722684 
1712	 0.164433712890331 
1713	 0.164425369262492 
1714	 0.164420310819607 
1715	 0.164412372274996 
1716	 0.164392418503971 
1717	 0.164394732775644 
1718	 0.164417194365947 
1719	 0.164419859873686 
1720	 0.164437807240495 
1721	 0.164424164431409 
1722	 0.164377899356255 
1723	 0.164346959794872 
1724	 0.164308414973223 
1725	 0.16427742322858 
1726	 0.16424799589756 
1727	 0.164223361224637 
1728	 0.164199950380503 
1729	 0.164183434745829 
1730	 0.164167473048191 
1731	 0.164178895217588 
1732	 0.164212378467348 
1733	 0.164225019295661 
1734	 0.164261427892546 
1735	 0.164248097834064 
1736	 0.164198124407389 
1737	 0.164163924658058 
1738	 0.164109526254037 
1739	 0.164076029029149 
1740	 0.164057439547394 
1741	 0.164021907103973 
1742	 0.163974733852163 
1743	 0.163960597824342 
1744	 0.163958503898545 
1745	 0.163934325243739 
1746	 0.163923449615565 
1747	 0.163897266528004 
1748	 0.163878633194737 
1749	 0.163852936647328 
1750	 0.163823116911576 
1751	 0.163817236494521 
1752	 0.163771269668318 
1753	 0.163728511127332 
1754	 0.163728885396847 
1755	 0.163675218490942 
1756	 0.163612598878184 
1757	 0.163612715983001 
1758	 0.163608102176559 
1759	 0.163582783952695 
1760	 0.163575402578596 
1761	 0.163570001403196 
1762	 0.16355482765352 
1763	 0.163533052675868 
1764	 0.163527721453325 
1765	 0.163531561995069 
1766	 0.163505944951742 
1767	 0.163530512539737 
1768	 0.163567067486454 
1769	 0.163552722458405 
1770	 0.163551995118914 
1771	 0.163535318319089 
1772	 0.163510605092327 
1773	 0.163516171582808 
1774	 0.163525097474583 
1775	 0.163536176173894 
1776	 0.163550783838789 
1777	 0.163539977056428 
1778	 0.163533472934424 
1779	 0.163556861827598 
1780	 0.163561870260573 
1781	 0.163562753238854 
1782	 0.163560931003063 
1783	 0.163476225905782 
1784	 0.163456238102138 
1785	 0.16347928352882 
1786	 0.163468141154354 
1787	 0.163465724024223 
1788	 0.163470154868923 
1789	 0.163469322231437 
1790	 0.163451503153697 
1791	 0.163447504957332 
1792	 0.163427701327045 
1793	 0.16335040074453 
1794	 0.163323154901558 
1795	 0.163325211579986 
1796	 0.16331412559096 
1797	 0.163321013492313 
1798	 0.163326035761242 
1799	 0.163325170075659 
1800	 0.163329537590759 
1801	 0.161600501317609 
1802	 0.161773292127035 
1803	 0.161976852233633 
1804	 0.162241969207075 
1805	 0.162515603503909 
1806	 0.162736024182705 
1807	 0.162940078304874 
1808	 0.163102181506278 
1809	 0.163217313646616 
1810	 0.163318396446836 
1811	 0.16339501521439 
1812	 0.163444433073195 
1813	 0.163491037796054 
1814	 0.16352561301059 
1815	 0.163593048591667 
1816	 0.16366286731618 
1817	 0.163680291332242 
1818	 0.163647146222854 
1819	 0.16366060315195 
1820	 0.163664592190268 
1821	 0.163660517800973 
1822	 0.163696223070555 
1823	 0.163729059487294 
1824	 0.163728269233278 
1825	 0.163724009391908 
1826	 0.163724567786024 
1827	 0.16372043227349 
1828	 0.16369024178962 
1829	 0.163622905594058 
1830	 0.163581912776915 
1831	 0.163526260671123 
1832	 0.163490375865226 
1833	 0.16348921119384 
1834	 0.163464459714088 
1835	 0.163466937961117 
1836	 0.16348978071021 
1837	 0.163491753608443 
1838	 0.163511448298562 
1839	 0.16353973819615 
1840	 0.163577542771524 
1841	 0.163593139570524 
1842	 0.163630204959576 
1843	 0.16369461740237 
1844	 0.163732310946433 
1845	 0.163776391629628 
1846	 0.163874947773599 
1847	 0.163954164010409 
1848	 0.164003165735964 
1849	 0.164084730838644 
1850	 0.164149513132659 
1851	 0.164188852180125 
1852	 0.164219115796838 
1853	 0.164270094641193 
1854	 0.164302143948835 
1855	 0.16432539258998 
1856	 0.164345251564383 
1857	 0.164379125578047 
1858	 0.164399430793384 
1859	 0.164404782691864 
1860	 0.164383031700314 
1861	 0.164344831020772 
1862	 0.164277651532838 
1863	 0.164182478885515 
1864	 0.164045018638523 
1865	 0.163918487753016 
1866	 0.163757587262537 
1867	 0.163597317665836 
1868	 0.163463982061273 
1869	 0.163316899236044 
1870	 0.163233013644325 
1871	 0.163181611584877 
1872	 0.163171491492513 
1873	 0.163182276163948 
1874	 0.163234908413855 
1875	 0.163288269659501 
1876	 0.163318748036957 
1877	 0.163357493998427 
1878	 0.163368311452134 
1879	 0.163321746319639 
1880	 0.163247426910107 
1881	 0.163149788897549 
1882	 0.163000070646256 
1883	 0.16280056289217 
1884	 0.162579871168303 
1885	 0.162328292462981 
1886	 0.162065605876603 
1887	 0.161803676451313 
1888	 0.161525755200801 
1889	 0.161221473957231 
1890	 0.160889570771075 
1891	 0.160550712756806 
1892	 0.16019488853242 
1893	 0.159817500705139 
1894	 0.15942569397455 
1895	 0.159018497831284 
1896	 0.158591195090049 
1897	 0.158137675467511 
1898	 0.157671114305957 
1899	 0.157225346240078 
1900	 0.156811753952617 
1901	 0.156415347586632 
1902	 0.156059135095209 
1903	 0.155773984951445 
1904	 0.155475996789181 
1905	 0.155187753875101 
1906	 0.154925282953086 
1907	 0.154671266323962 
1908	 0.154402131979144 
1909	 0.154153483394701 
1910	 0.153910757845649 
1911	 0.153664952817971 
1912	 0.153442211116412 
1913	 0.153225901391951 
1914	 0.153007887949898 
1915	 0.152811994546867 
1916	 0.152632140529376 
1917	 0.152465248548332 
1918	 0.15232194415509 
1919	 0.152187876929483 
1920	 0.152072017733524 
1921	 0.15195717620998 
1922	 0.151848773056219 
1923	 0.151779758452713 
1924	 0.151725033957915 
1925	 0.151705991496366 
1926	 0.151678659451443 
1927	 0.151668727881497 
1928	 0.151652880552699 
1929	 0.151631336798892 
1930	 0.151617375513641 
1931	 0.151609761086187 
1932	 0.151585442152159 
1933	 0.151589119800195 
1934	 0.151611198141341 
1935	 0.151634623071401 
1936	 0.151688096752217 
1937	 0.151722306469854 
1938	 0.151730835683437 
1939	 0.15177203892422 
1940	 0.151816473474403 
1941	 0.151880314909495 
1942	 0.151981871729871 
1943	 0.152068952686588 
1944	 0.15214729379377 
1945	 0.152216194128332 
1946	 0.152281605911252 
1947	 0.152316621886592 
1948	 0.152395168326677 
1949	 0.152497158518806 
1950	 0.152590035346439 
1951	 0.152704671741134 
1952	 0.152807101519793 
1953	 0.152885487007555 
1954	 0.152975146393007 
1955	 0.153059629453126 
1956	 0.153144097684794 
1957	 0.153245406136051 
1958	 0.153350064819621 
1959	 0.153469856936317 
1960	 0.153632493363064 
1961	 0.153754804661413 
1962	 0.153852048774771 
1963	 0.15397043727019 
1964	 0.154082246322709 
1965	 0.154183818472226 
1966	 0.154323865443811 
1967	 0.154490230069946 
1968	 0.154626677477159 
1969	 0.15475903705166 
1970	 0.154883097435307 
1971	 0.154976520928236 
1972	 0.155102185854893 
1973	 0.155252098209634 
1974	 0.155376605733721 
1975	 0.155494355222891 
1976	 0.155630001452839 
1977	 0.155749433655331 
1978	 0.155862020607549 
1979	 0.155990843017729 
1980	 0.156125796498658 
1981	 0.156265460769531 
1982	 0.156396636772708 
1983	 0.156548671100303 
1984	 0.156737269896157 
1985	 0.156892358468771 
1986	 0.157038290331206 
1987	 0.157185299789597 
1988	 0.157317266447573 
1989	 0.157446419049472 
1990	 0.157602499518718 
1991	 0.15775649565292 
1992	 0.157884084164409 
1993	 0.158001330425605 
1994	 0.158115313488262 
1995	 0.15820093206984 
1996	 0.158306098964853 
1997	 0.158424644897394 
1998	 0.158529479993859 
1999	 0.15861931370495 
2000	 0.158723411272649 
2001	 0.158815459069291 
2002	 0.158936832340158 
2003	 0.159075392033031 
2004	 0.159229744146925 
2005	 0.159359692226489 
2006	 0.159488134277863 
2007	 0.159614407512908 
2008	 0.159715794252176 
2009	 0.159839849813905 
2010	 0.159979704900982 
2011	 0.160120850671257 
2012	 0.160269071532166 
2013	 0.160415104863185 
2014	 0.16057413720584 
2015	 0.160720041703957 
2016	 0.160851302750672 
2017	 0.160996449817727 
2018	 0.161107686877955 
2019	 0.161186134716151 
2020	 0.161287241275872 
2021	 0.161365665504947 
2022	 0.161475257216861 
2023	 0.161618985626017 
2024	 0.161747106078199 
2025	 0.161884757014876 
2026	 0.162013344303607 
2027	 0.162133040430715 
2028	 0.162256751930534 
2029	 0.162367274979032 
2030	 0.162465603642964 
2031	 0.162571371728421 
2032	 0.16267435251199 
2033	 0.16277263994932 
2034	 0.162875591124567 
2035	 0.16297036788042 
2036	 0.163050672097038 
2037	 0.163138213240542 
2038	 0.163228503408447 
2039	 0.163317255584009 
2040	 0.163409239608254 
2041	 0.163495226251811 
2042	 0.163568662268066 
2043	 0.163644629995852 
2044	 0.163734293403736 
2045	 0.163830435326365 
2046	 0.163916719941154 
2047	 0.164014044135134 
2048	 0.164102753251439 
2049	 0.164173768477753 
2050	 0.164255669972281 
2051	 0.164343146240853 
2052	 0.164433210071835 
2053	 0.164536122496457 
2054	 0.164621511351963 
2055	 0.164704961672072 
2056	 0.164776395452101 
2057	 0.164854710803063 
2058	 0.164922448863103 
2059	 0.164991534460797 
2060	 0.165072521659033 
2061	 0.165137254845434 
2062	 0.16517734230178 
2063	 0.165238026634069 
2064	 0.16530740957797 
2065	 0.165371931264322 
2066	 0.165432030836631 
2067	 0.165507747050479 
2068	 0.165595361077911 
2069	 0.16567509654364 
2070	 0.165752634928482 
2071	 0.165844753646876 
2072	 0.165915476923286 
2073	 0.165965117500164 
2074	 0.166027332374468 
2075	 0.166087663604511 
2076	 0.16615492987234 
2077	 0.166225723525415 
2078	 0.166294754776583 
2079	 0.166364708129149 
2080	 0.166439563421476 
2081	 0.166525522254947 
2082	 0.166596822618159 
2083	 0.166658534571566 
2084	 0.166732903693513 
2085	 0.166796503389529 
2086	 0.166846345024642 
2087	 0.166902998846413 
2088	 0.166974027397859 
2089	 0.167014422615054 
2090	 0.167018132197832 
2091	 0.167063996737494 
2092	 0.167103823256785 
2093	 0.16716940456391 
2094	 0.167284201382429 
2095	 0.167376273469543 
2096	 0.167468847566459 
2097	 0.167556372784823 
2098	 0.167643416170043 
2099	 0.167718829851589 
2100	 0.167799863692302 
2101	 0.167879837639013 
2102	 0.167958589653453 
2103	 0.168038445194426 
2104	 0.168113018986107 
2105	 0.168182132882475 
2106	 0.168254465799402 
2107	 0.168320448384201 
2108	 0.168396622920352 
2109	 0.168476577868187 
2110	 0.168560293670127 
2111	 0.168645305435741 
2112	 0.168743100546868 
2113	 0.168861893785782 
2114	 0.168968877330751 
2115	 0.169059849198472 
2116	 0.169150461275548 
2117	 0.169230101604786 
2118	 0.169280219481633 
2119	 0.169356633668943 
2120	 0.169449400245229 
2121	 0.169528670808265 
2122	 0.16961771694019 
2123	 0.169681807460239 
2124	 0.169724058860983 
2125	 0.169773526398087 
2126	 0.169816516626627 
2127	 0.169851712939795 
2128	 0.169883984253534 
2129	 0.169915421916988 
2130	 0.169939544148638 
2131	 0.169955233486858 
2132	 0.169977239490417 
2133	 0.170002498935107 
2134	 0.170031030978742 
2135	 0.170057164120441 
2136	 0.170088796332787 
2137	 0.170149253085477 
2138	 0.170161366071098 
2139	 0.170161117873742 
2140	 0.170139692225338 
2141	 0.170063758102341 
2142	 0.170018259379222 
2143	 0.169974862602627 
2144	 0.169931864772383 
2145	 0.169909497810906 
2146	 0.169866034065357 
2147	 0.169802464611576 
2148	 0.169744985883642 
2149	 0.169689324236054 
2150	 0.169630456771865 
2151	 0.169569984983236 
2152	 0.169520629523173 
2153	 0.169449304649147 
2154	 0.169370638098173 
2155	 0.169272205452658 
2156	 0.169150191382916 
2157	 0.169038584903396 
2158	 0.168911011656469 
2159	 0.168791241556804 
2160	 0.168685090910271 
2161	 0.168568006582978 
2162	 0.16843797586269 
2163	 0.168316871743327 
2164	 0.168212555505492 
2165	 0.168081067217554 
2166	 0.167951423496478 
2167	 0.167827525360426 
2168	 0.16768440316847 
2169	 0.167514285096829 
2170	 0.167369055741996 
2171	 0.167214292946027 
2172	 0.167087313262833 
2173	 0.166983161761433 
2174	 0.166878731894184 
2175	 0.166805844863087 
2176	 0.166700538710051 
2177	 0.166566536557693 
2178	 0.166460525285382 
2179	 0.16636596174843 
2180	 0.166254597086257 
2181	 0.166150287148666 
2182	 0.166047997709144 
2183	 0.165930297295061 
2184	 0.165798343839153 
2185	 0.165704551577189 
2186	 0.165640197107836 
2187	 0.165564435520852 
2188	 0.165517421293525 
2189	 0.16542157490408 
2190	 0.16528862990814 
2191	 0.165191976127176 
2192	 0.165077175861219 
2193	 0.164989248496397 
2194	 0.16494833620165 
2195	 0.164880031570742 
2196	 0.16478931889981 
2197	 0.164723204565373 
2198	 0.164645498332592 
2199	 0.164609440153761 
2200	 0.164631850238656 
2201	 0.16462266798031 
2202	 0.164632306036093 
2203	 0.164631458529062 
2204	 0.164592830074529 
2205	 0.164506077962285 
2206	 0.164460454673783 
2207	 0.164395801577417 
2208	 0.164376106919786 
2209	 0.164404595504987 
2210	 0.164392538966348 
2211	 0.164374731901119 
2212	 0.164371586813936 
2213	 0.16435315414347 
2214	 0.164351815212307 
2215	 0.16438752991294 
2216	 0.164398329963192 
2217	 0.164382268266657 
2218	 0.164394152410971 
2219	 0.164428382654141 
2220	 0.164442816458745 
2221	 0.16446093172641 
2222	 0.164480865578666 
2223	 0.164474629583112 
2224	 0.164452687519014 
2225	 0.164440102021605 
2226	 0.164417527062106 
2227	 0.164420967156823 
2228	 0.164442466082945 
2229	 0.16444518696178 
2230	 0.164454901516162 
2231	 0.164463644493091 
2232	 0.164464172295117 
2233	 0.164450498209819 
2234	 0.164430676720494 
2235	 0.164429273715795 
2236	 0.164419250739921 
2237	 0.164414823384081 
2238	 0.164436719101829 
2239	 0.164439296601315 
2240	 0.164420846984262 
2241	 0.164411852457307 
2242	 0.164411342941767 
2243	 0.164408641716155 
2244	 0.164415326230991 
2245	 0.164395201684039 
2246	 0.164375537454131 
2247	 0.164365522789047 
2248	 0.16436674851213 
2249	 0.164377900172214 
2250	 0.164374489373782 
2251	 0.164377046990488 
2252	 0.164375274212703 
2253	 0.164347209857307 
2254	 0.16435822416082 
2255	 0.164401531150806 
2256	 0.164422240648092 
2257	 0.164456567298791 
2258	 0.16446902233443 
2259	 0.164453660843917 
2260	 0.164457500187147 
2261	 0.164462722451662 
2262	 0.164466919668233 
2263	 0.164460583685447 
2264	 0.16448230924059 
2265	 0.164520374739296 
2266	 0.164560882844746 
2267	 0.164636603186638 
2268	 0.164694582328365 
2269	 0.164759156471604 
2270	 0.164780370890237 
2271	 0.16482018542353 
2272	 0.16483586462868 
2273	 0.164858490705563 
2274	 0.164911758747974 
2275	 0.16495353445373 
2276	 0.165027327590619 
2277	 0.165042097240843 
2278	 0.165008451933603 
2279	 0.165022009663353 
2280	 0.165018980339916 
2281	 0.165033575097686 
2282	 0.165091401745279 
2283	 0.165129778773276 
2284	 0.1651596118264 
2285	 0.165183607171489 
2286	 0.165210438278222 
2287	 0.165231712414874 
2288	 0.165229952727961 
2289	 0.165251665560899 
2290	 0.165278378069317 
2291	 0.165325057737738 
2292	 0.165407830352749 
2293	 0.165450325922519 
2294	 0.165482646972746 
2295	 0.165523868862651 
2296	 0.165537324812613 
2297	 0.165572742796992 
2298	 0.165641265160477 
2299	 0.165681819740282 
2300	 0.165685706449499 
2301	 0.165710838481811 
2302	 0.16573845102003 
2303	 0.165776974117064 
2304	 0.165844207371484 
2305	 0.165882978184216 
2306	 0.165898911055472 
2307	 0.165879045383201 
2308	 0.165886660878159 
2309	 0.165895847365049 
2310	 0.165885882963715 
2311	 0.165870211213051 
2312	 0.165876160373738 
2313	 0.165862837561311 
2314	 0.165857105688426 
2315	 0.165894216781907 
2316	 0.165894458135261 
2317	 0.165859965806032 
2318	 0.165860122088166 
2319	 0.165850770464715 
2320	 0.165873702042828 
2321	 0.165925950374425 
2322	 0.165971421617396 
2323	 0.166042071204092 
2324	 0.166102370625799 
2325	 0.16614719930487 
2326	 0.166211617036223 
2327	 0.16627452184358 
2328	 0.16638118398434 
2329	 0.166476811699421 
2330	 0.166559967626522 
2331	 0.16660035824862 
2332	 0.166624751793601 
2333	 0.166665173816659 
2334	 0.166738592906931 
2335	 0.166837720994686 
2336	 0.166925396810932 
2337	 0.167010359206797 
2338	 0.167039772000277 
2339	 0.167019841187472 
2340	 0.166983124198918 
2341	 0.166981532842354 
2342	 0.166995189553906 
2343	 0.167027303618774 
2344	 0.167120079892747 
2345	 0.167139806504965 
2346	 0.167094625628222 
2347	 0.167093565112399 
2348	 0.167074043264889 
2349	 0.16709672510883 
2350	 0.167187633416973 
2351	 0.167189431997006 
2352	 0.167151911671399 
2353	 0.167142124799339 
2354	 0.167097144466199 
2355	 0.16705845880249 
2356	 0.167068715540677 
2357	 0.167040479493962 
2358	 0.166932666077439 
2359	 0.166908969910784 
2360	 0.166948853434072 
2361	 0.166933264479221 
2362	 0.166926008270466 
2363	 0.166917388541051 
2364	 0.16685868694145 
2365	 0.166841357602928 
2366	 0.166886035132777 
2367	 0.166858990835235 
2368	 0.166787449785634 
2369	 0.166750590333251 
2370	 0.166679431935744 
2371	 0.166663055801575 
2372	 0.166666392075584 
2373	 0.166693834798341 
2374	 0.16666220159094 
2375	 0.166578189333641 
2376	 0.166522594720278 
2377	 0.166428319215598 
2378	 0.166381123934201 
2379	 0.166369574086049 
2380	 0.166324890712007 
2381	 0.166325723660327 
2382	 0.166332665628557 
2383	 0.166352992530808 
2384	 0.166314363493122 
2385	 0.166193531985916 
2386	 0.166040038303603 
2387	 0.165829169116078 
2388	 0.165759910381166 
2389	 0.165705703596977 
2390	 0.165637976660262 
2391	 0.165667192299929 
2392	 0.165612424496092 
2393	 0.165593710367885 
2394	 0.16563038618533 
2395	 0.165555847522113 
2396	 0.16545304183937 
2397	 0.165348374949167 
2398	 0.165201844319672 
2399	 0.165170910574011 
2400	 0.165214037923408 
2401	 0.165239660224481 
2402	 0.165315812783998 
2403	 0.165279691639573 
2404	 0.16516211696189 
2405	 0.165010106292168 
2406	 0.164749234056292 
2407	 0.164614011982932 
2408	 0.164550157953012 
2409	 0.164471794278231 
2410	 0.164472718722581 
2411	 0.164403658130956 
2412	 0.164394827590698 
2413	 0.164452360199973 
2414	 0.164478621133564 
2415	 0.164555700948239 
2416	 0.164536080268237 
2417	 0.164397347181116 
2418	 0.164308948372035 
2419	 0.164177523219652 
2420	 0.164131387063022 
2421	 0.16413428670685 
2422	 0.164100706397006 
2423	 0.164092615862505 
2424	 0.164069900727686 
2425	 0.16403899331184 
2426	 0.163989162527939 
2427	 0.163961979533229 
2428	 0.163879701513406 
2429	 0.163687926703483 
2430	 0.163601620090147 
2431	 0.163585329167174 
2432	 0.163547586728511 
2433	 0.163565164482146 
2434	 0.163516949677571 
2435	 0.163381758978634 
2436	 0.163257504105431 
2437	 0.163116294452969 
2438	 0.162999663997807 
2439	 0.16289565129188 
2440	 0.162805531669163 
2441	 0.162741028915064 
2442	 0.162692920937196 
2443	 0.162673230056601 
2444	 0.162656642000967 
2445	 0.162658180370868 
2446	 0.162530225327948 
2447	 0.162309206968886 
2448	 0.162151291250576 
2449	 0.161930666421321 
2450	 0.161827475864994 
2451	 0.161894532376652 
2452	 0.161876263378382 
2453	 0.161816059208292 
2454	 0.161795566743685 
2455	 0.161793272791463 
2456	 0.161669694341794 
2457	 0.161519536239791 
2458	 0.161366326220221 
2459	 0.161041502122583 
2460	 0.160889518957487 
2461	 0.160893413670956 
2462	 0.160875651280725 
2463	 0.160944326282581 
2464	 0.16100971494621 
2465	 0.161056901310276 
2466	 0.160947672254342 
2467	 0.160800966799816 
2468	 0.160634657886906 
2469	 0.160332902346242 
2470	 0.160023287137483 
2471	 0.159899439692865 
2472	 0.159891422004996 
2473	 0.159950969547872 
2474	 0.160034927323904 
2475	 0.159888671837455 
2476	 0.159743825178667 
2477	 0.159639852367178 
2478	 0.159515367728544 
2479	 0.159557768572061 
2480	 0.159548149598729 
2481	 0.159553312713628 
2482	 0.159738301923166 
2483	 0.159837303912159 
2484	 0.1597342145265 
2485	 0.159589832958502 
2486	 0.159350917403548 
2487	 0.159100773444648 
2488	 0.159068517741172 
2489	 0.158986976764249 
2490	 0.158920482242594 
2491	 0.158996137138605 
2492	 0.15890942195067 
2493	 0.158712614594632 
2494	 0.1587177548145 
2495	 0.158783778170874 
2496	 0.158701844705665 
2497	 0.158667457640002 
2498	 0.158612671901364 
2499	 0.158389168580063 
2500	 0.15826768708589 
