Wavelength	LMW_1000004.asd
350	 4.77118095920863E-02 
351	 0.047240624835087 
352	 4.48639453369253E-02 
353	 4.19355439973345E-02 
354	 4.85842422874339E-02 
355	 4.44061617017229E-02 
356	 3.83319997267073E-02 
357	 4.20446183568306E-02 
358	 4.86588069376052E-02 
359	 4.69069109559856E-02 
360	 4.04236420889477E-02 
361	 4.12177451055478E-02 
362	 4.00284554057719E-02 
363	 4.16285881908094E-02 
364	 4.66390080938808E-02 
365	 4.69297399265749E-02 
366	 4.60399255666667E-02 
367	 4.50715057168615E-02 
368	 4.43463533056084E-02 
369	 4.35629894471136E-02 
370	 4.19070675898225E-02 
371	 0.041111396332679 
372	 4.41017171666521E-02 
373	 4.60078755670262E-02 
374	 4.73178176690862E-02 
375	 4.77196601350596E-02 
376	 4.38704616687494E-02 
377	 4.29210118315664E-02 
378	 4.38333060608613E-02 
379	 4.41768596432146E-02 
380	 4.78938237093298E-02 
381	 4.74306550993551E-02 
382	 4.42608754761851E-02 
383	 4.62187204919383E-02 
384	 4.72601658163936E-02 
385	 4.73608016458535E-02 
386	 4.74117416752637E-02 
387	 4.84753280735385E-02 
388	 4.84261404956622E-02 
389	 4.83388958192899E-02 
390	 4.94093792616297E-02 
391	 4.82078942823497E-02 
392	 4.71141339633158E-02 
393	 4.79100738841372E-02 
394	 5.11980017584154E-02 
395	 5.05942832534625E-02 
396	 4.95098235987562E-02 
397	 5.04087456927566E-02 
398	 4.99578276396146E-02 
399	 5.08763954644664E-02 
400	 5.21761507593546E-02 
401	 5.19435220468506E-02 
402	 0.051013953894385 
403	 5.12697993243004E-02 
404	 5.22785058721773E-02 
405	 5.14075635894697E-02 
406	 5.14432228429345E-02 
407	 5.22829365424016E-02 
408	 5.30597910948874E-02 
409	 5.25146048571861E-02 
410	 5.14513795534462E-02 
411	 5.07642489676284E-02 
412	 5.11882139860081E-02 
413	 5.23399376989031E-02 
414	 5.22312634202433E-02 
415	 5.11960907199026E-02 
416	 0.052625690847399 
417	 0.05264628297053 
418	 5.26476546082656E-02 
419	 5.39738331128212E-02 
420	 5.33832893520592E-02 
421	 0.052496723953591 
422	 5.23946775326471E-02 
423	 5.34693376603644E-02 
424	 5.33872391522752E-02 
425	 5.27643012482752E-02 
426	 5.22959443254134E-02 
427	 5.20572515453511E-02 
428	 5.19663031246925E-02 
429	 5.19244117556888E-02 
430	 5.18455154963503E-02 
431	 5.17319853246648E-02 
432	 5.18311901967879E-02 
433	 5.18620126807044E-02 
434	 5.11090746306139E-02 
435	 5.14252417080384E-02 
436	 5.15917977037623E-02 
437	 5.08237658069594E-02 
438	 5.10463280976158E-02 
439	 5.15341012963579E-02 
440	 5.17672436684585E-02 
441	 5.14703478411847E-02 
442	 5.15699634251825E-02 
443	 5.16830275492233E-02 
444	 5.15024050355415E-02 
445	 5.09987733147262E-02 
446	 5.11327392640235E-02 
447	 5.14705629059384E-02 
448	 5.14010992036882E-02 
449	 5.14632154487607E-02 
450	 5.15908478032502E-02 
451	 5.17017228882052E-02 
452	 5.17240055800861E-02 
453	 5.17561598859004E-02 
454	 5.18582423449896E-02 
455	 5.20058840654581E-02 
456	 5.20092657567731E-02 
457	 5.18505012657559E-02 
458	 5.15703038171808E-02 
459	 5.13115284448313E-02 
460	 0.051673827712809 
461	 5.19485202527111E-02 
462	 5.17725883155608E-02 
463	 5.14069796053699E-02 
464	 0.051642272634376 
465	 5.18949437923547E-02 
466	 5.15350296961184E-02 
467	 5.14090532347543E-02 
468	 5.15114170639232E-02 
469	 5.15586373970938E-02 
470	 5.11340025732547E-02 
471	 5.12004525459708E-02 
472	 5.13997503087103E-02 
473	 5.13468352206252E-02 
474	 5.11040781080139E-02 
475	 5.10547813056596E-02 
476	 5.10780585806939E-02 
477	 5.09078941014701E-02 
478	 5.10642291642594E-02 
479	 0.051199363225818 
480	 5.11273504060651E-02 
481	 5.09777419112963E-02 
482	 5.11135908944383E-02 
483	 5.13014598626774E-02 
484	 5.12409062095232E-02 
485	 5.11061764474234E-02 
486	 5.10121474359976E-02 
487	 5.09414519608644E-02 
488	 5.07852889461816E-02 
489	 5.08412830799834E-02 
490	 5.09984281866886E-02 
491	 5.10959409893063E-02 
492	 5.10288107781244E-02 
493	 5.09744451232264E-02 
494	 5.09014960199039E-02 
495	 5.07329488961206E-02 
496	 5.08662810096965E-02 
497	 5.08933703150803E-02 
498	 5.07039351400996E-02 
499	 5.07363713643706E-02 
500	 5.07636776236224E-02 
501	 5.07793437826391E-02 
502	 5.08040393345918E-02 
503	 5.06928860674248E-02 
504	 5.07175361986344E-02 
505	 5.07787428540513E-02 
506	 5.04724433094724E-02 
507	 0.050615168446689 
508	 5.07860507728538E-02 
509	 5.06252647220722E-02 
510	 5.05829436882437E-02 
511	 5.06003907668083E-02 
512	 5.06285065246144E-02 
513	 5.06205279037666E-02 
514	 5.05746003499286E-02 
515	 5.05957804742774E-02 
516	 5.07127926746952E-02 
517	 0.050819122093371 
518	 5.08355274058389E-02 
519	 5.07622090107749E-02 
520	 5.06631586286522E-02 
521	 5.07373142553335E-02 
522	 5.07806807816859E-02 
523	 5.07505732205399E-02 
524	 5.07935830974991E-02 
525	 5.08144952416921E-02 
526	 0.050767433014947 
527	 5.06814069680083E-02 
528	 5.08003176361811E-02 
529	 5.08042844599363E-02 
530	 5.07169780398162E-02 
531	 0.050773181592914 
532	 5.08185028257761E-02 
533	 5.08409101566267E-02 
534	 5.08519139738887E-02 
535	 5.08709053443615E-02 
536	 5.08665334900708E-02 
537	 5.08864121510897E-02 
538	 0.050984257584505 
539	 5.10388684669331E-02 
540	 5.10650730138394E-02 
541	 5.10962330539395E-02 
542	 5.11759480340968E-02 
543	 5.11828670212449E-02 
544	 5.11838301338262E-02 
545	 0.05125920770699 
546	 0.051327813524771 
547	 5.13598074582542E-02 
548	 5.13835883652827E-02 
549	 5.14695948578092E-02 
550	 5.15275776152597E-02 
551	 5.15918519016837E-02 
552	 5.16955667755959E-02 
553	 5.18224448104662E-02 
554	 5.18374871628487E-02 
555	 5.18798965137405E-02 
556	 5.21740081497946E-02 
557	 5.22792476510816E-02 
558	 5.23501507981345E-02 
559	 0.052513641861392 
560	 5.27400090147573E-02 
561	 5.28429674987998E-02 
562	 5.29335906954108E-02 
563	 5.31773689038238E-02 
564	 5.34079108002918E-02 
565	 5.35765288803116E-02 
566	 5.37257538724299E-02 
567	 5.39884950828236E-02 
568	 5.43129781648403E-02 
569	 5.46286668531926E-02 
570	 5.48958742452291E-02 
571	 0.055197376141149 
572	 5.54957458724212E-02 
573	 5.58157543182371E-02 
574	 5.62143272608026E-02 
575	 5.65753383796592E-02 
576	 0.056929672238824 
577	 5.73160009965642E-02 
578	 5.77367267350025E-02 
579	 5.81868855242183E-02 
580	 5.86647891887279E-02 
581	 5.91739707749263E-02 
582	 0.059755002690164 
583	 6.02916957092401E-02 
584	 6.07623802402436E-02 
585	 0.061297453562038 
586	 6.18934471769942E-02 
587	 6.24532281390782E-02 
588	 6.29195094811419E-02 
589	 6.35461657437358E-02 
590	 6.41873028985725E-02 
591	 6.47829107644254E-02 
592	 6.53684366428826E-02 
593	 6.59730619575434E-02 
594	 6.65711385782301E-02 
595	 6.71510743536644E-02 
596	 6.77654237566456E-02 
597	 6.84382210311577E-02 
598	 6.91180024296899E-02 
599	 6.97288947091861E-02 
600	 7.03741184507086E-02 
601	 7.10060087617767E-02 
602	 7.15844393227275E-02 
603	 7.21163938563292E-02 
604	 7.26305272205652E-02 
605	 0.073174633463906 
606	 7.37761887589816E-02 
607	 7.43297168720523E-02 
608	 7.48303215861815E-02 
609	 7.53125494375895E-02 
610	 7.58467947370776E-02 
611	 7.62888288115918E-02 
612	 7.67081797239762E-02 
613	 7.71697250663818E-02 
614	 7.75433372626633E-02 
615	 7.79052970610571E-02 
616	 0.078247849259289 
617	 7.85148096334347E-02 
618	 7.88522405719334E-02 
619	 7.91670294427794E-02 
620	 7.93989404209451E-02 
621	 7.96328337056474E-02 
622	 7.98508853214397E-02 
623	 8.00818633470584E-02 
624	 8.03520329722137E-02 
625	 8.05581280856946E-02 
626	 8.07609679214963E-02 
627	 8.09731684987641E-02 
628	 8.11250269469471E-02 
629	 8.13256117428127E-02 
630	 8.15470291748451E-02 
631	 0.081735009734102 
632	 0.08188541657756 
633	 8.20689279331236E-02 
634	 8.22692738559183E-02 
635	 8.24064484701905E-02 
636	 0.082595231218167 
637	 8.27840784984148E-02 
638	 8.29330303068779E-02 
639	 8.31043180828594E-02 
640	 8.32634183315144E-02 
641	 8.34199412892701E-02 
642	 8.35994823732141E-02 
643	 8.37912374335301E-02 
644	 8.39795813909118E-02 
645	 8.41535902173536E-02 
646	 8.43070959683326E-02 
647	 8.45306627740335E-02 
648	 8.47601677581997E-02 
649	 8.49285633142255E-02 
650	 8.51715096274136E-02 
651	 8.53719650107742E-02 
652	 8.55301752868063E-02 
653	 8.57502354785805E-02 
654	 8.60025723764327E-02 
655	 8.62249719094299E-02 
656	 8.64059024028171E-02 
657	 8.66808180349952E-02 
658	 8.69301507893947E-02 
659	 8.71514155394071E-02 
660	 8.73929238063054E-02 
661	 8.76361958639461E-02 
662	 8.78814991056742E-02 
663	 8.81406302830524E-02 
664	 8.84393746261089E-02 
665	 8.87794158642484E-02 
666	 8.90719690882821E-02 
667	 8.92725582981285E-02 
668	 8.96198111931576E-02 
669	 8.99904791100419E-02 
670	 9.03229794277646E-02 
671	 9.06203630141654E-02 
672	 9.09447264138733E-02 
673	 9.12894611436011E-02 
674	 9.16464077177614E-02 
675	 9.20429302348819E-02 
676	 9.24035362664556E-02 
677	 9.27753925897506E-02 
678	 9.32312580543154E-02 
679	 9.36074576367109E-02 
680	 9.39870981307671E-02 
681	 0.0944178262091 
682	 9.48739441219099E-02 
683	 9.52936510057383E-02 
684	 9.57321016657198E-02 
685	 9.62327779996149E-02 
686	 0.096675408022 
687	 9.71375079719795E-02 
688	 9.76208032983012E-02 
689	 9.80763552662338E-02 
690	 9.85596096886111E-02 
691	 9.90471785335877E-02 
692	 9.95333524185112E-02 
693	 0.100077674762771 
694	 0.100573555758826 
695	 0.10107149600921 
696	 0.101652822409628 
697	 0.102230746510385 
698	 0.102762377549069 
699	 0.10327522041339 
700	 0.103863032266735 
701	 0.104422493007896 
702	 0.104964876448729 
703	 0.105516388715937 
704	 0.10606824415135 
705	 0.106657469551844 
706	 0.107263680816892 
707	 0.107845824598888 
708	 0.108486879807804 
709	 0.109068746427818 
710	 0.109581182963946 
711	 0.110200700132253 
712	 0.110787851213194 
713	 0.111359614781783 
714	 0.111953843350772 
715	 0.112512670867026 
716	 0.113070613124089 
717	 0.113645391960222 
718	 0.114232915260193 
719	 0.114754163362213 
720	 0.115260308718442 
721	 0.115779110875415 
722	 0.116250659549655 
723	 0.116762284834785 
724	 0.117292694673581 
725	 0.117786796175563 
726	 0.118227606219458 
727	 0.118661600760879 
728	 0.119088760010847 
729	 0.119465222522821 
730	 0.119828576977552 
731	 0.120204039734009 
732	 0.120586580021219 
733	 0.120907909357983 
734	 0.121196101286415 
735	 0.121453516159988 
736	 0.12168059452603 
737	 0.121919056653273 
738	 0.122154834040972 
739	 0.122364991668744 
740	 0.122523379503779 
741	 0.122640765611491 
742	 0.122737963868522 
743	 0.122818749103415 
744	 0.12283063642524 
745	 0.122837435297242 
746	 0.122858634651531 
747	 0.122877812548748 
748	 0.122802090826759 
749	 0.122706239634788 
750	 0.12262895326542 
751	 0.122545721834806 
752	 0.122414665928715 
753	 0.122273227493817 
754	 0.122141510212276 
755	 0.121930903201833 
756	 0.121682348826166 
757	 0.121432013836555 
758	 0.121205347598341 
759	 0.120967747257202 
760	 0.120692570421418 
761	 0.120386155277069 
762	 0.12009300145231 
763	 0.119795255295609 
764	 0.119479824362461 
765	 0.119143213481621 
766	 0.118809166691492 
767	 0.11844936252222 
768	 0.118069508679009 
769	 0.117692808137524 
770	 0.117335307786261 
771	 0.116965185058963 
772	 0.116572096654415 
773	 0.116176668023787 
774	 0.11577741514924 
775	 0.115383480337808 
776	 0.115000095682267 
777	 0.11462421110108 
778	 0.114212075776186 
779	 0.113779955589747 
780	 0.113368257469346 
781	 0.112967765859028 
782	 0.112571159154162 
783	 0.112177126430527 
784	 0.111791057770601 
785	 0.111398143409856 
786	 0.111006161528791 
787	 0.110621863203601 
788	 0.110237945397873 
789	 0.109854176604776 
790	 0.10948478954167 
791	 0.109128860948036 
792	 0.108674391622944 
793	 0.108290891800414 
794	 0.107990292693988 
795	 0.107640479071016 
796	 0.107244807312727 
797	 0.106865582788964 
798	 0.106534484961449 
799	 0.106208725529803 
800	 0.105872287881489 
801	 0.105522616293766 
802	 0.105172544557016 
803	 0.104867539620433 
804	 0.104565456801329 
805	 0.104246991821134 
806	 0.103915179141911 
807	 0.103611626597115 
808	 0.103299698367302 
809	 0.102991049393307 
810	 0.10276564559035 
811	 0.102498090078984 
812	 0.102202306525905 
813	 0.101920053494454 
814	 0.101677194919098 
815	 0.101421879515095 
816	 0.101164215992216 
817	 0.10093001220902 
818	 0.100671827747713 
819	 0.100446987505203 
820	 0.100250227194567 
821	 0.10002073312766 
822	 9.97551785921695E-02 
823	 9.95195483769136E-02 
824	 9.93439869402605E-02 
825	 9.91834783378309E-02 
826	 9.90141931099781E-02 
827	 9.88266672472612E-02 
828	 9.86297329175986E-02 
829	 9.84697369479653E-02 
830	 0.0982744015013 
831	 9.80917648797373E-02 
832	 9.79994500625049E-02 
833	 9.78746425232786E-02 
834	 0.097722945089051 
835	 9.75604265842755E-02 
836	 0.097407539938575 
837	 9.73237346837257E-02 
838	 9.72485725635659E-02 
839	 9.71372045411393E-02 
840	 9.70067540137066E-02 
841	 0.096888964317533 
842	 9.67756419423811E-02 
843	 9.66582355694301E-02 
844	 9.65680162267291E-02 
845	 9.64871507287678E-02 
846	 9.64056262289441E-02 
847	 0.096325231721331 
848	 9.62880757613128E-02 
849	 9.62562149934823E-02 
850	 9.62179322783907E-02 
851	 9.61866598604806E-02 
852	 9.61465794803318E-02 
853	 9.60765308964039E-02 
854	 9.60053475090452E-02 
855	 9.60290774316493E-02 
856	 9.60402177524582E-02 
857	 9.60234444503355E-02 
858	 9.59933372022275E-02 
859	 9.59796114113903E-02 
860	 9.59639002154652E-02 
861	 9.59627732289255E-02 
862	 9.59892133863779E-02 
863	 9.59883369632715E-02 
864	 9.59996844951929E-02 
865	 9.60450775150958E-02 
866	 9.61194022422733E-02 
867	 0.09613504421915 
868	 9.61488344003838E-02 
869	 9.61971136639492E-02 
870	 9.62756578158671E-02 
871	 9.63296147224671E-02 
872	 9.63998166574207E-02 
873	 9.64908791757766E-02 
874	 9.65248279954608E-02 
875	 0.096618105382047 
876	 9.67140706420691E-02 
877	 9.67705007462131E-02 
878	 9.69001872462718E-02 
879	 9.70384174766812E-02 
880	 0.097144675301277 
881	 9.72154738595982E-02 
882	 9.73536254663748E-02 
883	 9.75240619640146E-02 
884	 9.76749392050891E-02 
885	 9.77698922328714E-02 
886	 9.79051166519804E-02 
887	 9.80717503872301E-02 
888	 9.82573380412902E-02 
889	 9.84498954285804E-02 
890	 9.86109259224395E-02 
891	 0.098768737954055 
892	 9.89530698285144E-02 
893	 9.91772947934962E-02 
894	 9.93602386166602E-02 
895	 9.95448540918581E-02 
896	 9.97634963592086E-02 
897	 9.99838564003847E-02 
898	 0.100208865480211 
899	 0.10043394381292 
900	 0.100665441486101 
901	 0.100947213648691 
902	 0.101144311074384 
903	 0.101365395679788 
904	 0.101716392886272 
905	 0.10196498461394 
906	 0.102186998849737 
907	 0.102440894861251 
908	 0.102759290163683 
909	 0.10310217266724 
910	 0.10342852982873 
911	 0.103757205459518 
912	 0.104123957207289 
913	 0.104383204479572 
914	 0.104682116053511 
915	 0.105065563347067 
916	 0.105462141886398 
917	 0.105854474672278 
918	 0.106177988123228 
919	 0.106454718304173 
920	 0.106802513641844 
921	 0.107218021226694 
922	 0.107678501340261 
923	 0.108132604869262 
924	 0.10850838055055 
925	 0.108916889614934 
926	 0.109345085520932 
927	 0.109773309989965 
928	 0.110219348808145 
929	 0.110658974966997 
930	 0.111141735391094 
931	 0.111671145690949 
932	 0.112104408539874 
933	 0.112634005563258 
934	 0.11317530252262 
935	 0.113643314242554 
936	 0.114197822517906 
937	 0.114783054819825 
938	 0.11534738034623 
939	 0.11587044267881 
940	 0.116429313297403 
941	 0.117052835533039 
942	 0.117670217853596 
943	 0.118211214334106 
944	 0.118767224858472 
945	 0.119342634956243 
946	 0.119980481387856 
947	 0.120686135470005 
948	 0.121236775260684 
949	 0.121911272855698 
950	 0.122682873349936 
951	 0.123383943085599 
952	 0.124056444354543 
953	 0.124760800679149 
954	 0.12547269316227 
955	 0.126146859342983 
956	 0.126914912600302 
957	 0.127715795009762 
958	 0.128462423008967 
959	 0.129116285924532 
960	 0.129936481456055 
961	 0.130762036994518 
962	 0.131589077144992 
963	 0.13248313347414 
964	 0.13317760298614 
965	 0.134002693140238 
966	 0.134954571522411 
967	 0.135822394508947 
968	 0.136799004275093 
969	 0.137669911148413 
970	 0.13846473190102 
971	 0.139355190003872 
972	 0.140174488345996 
973	 0.141157649259447 
974	 0.142201567374391 
975	 0.143056279442611 
976	 0.144115001429598 
977	 0.145185359274457 
978	 0.146129084870041 
979	 0.146934311983624 
980	 0.147885185226279 
981	 0.148829113327585 
982	 0.149783499556611 
983	 0.150860855510799 
984	 0.151988895704449 
985	 0.153063383544014 
986	 0.154105817289671 
987	 0.15517734834656 
988	 0.156119503374756 
989	 0.157222233490617 
990	 0.158402926096491 
991	 0.159449290988552 
992	 0.160566279511361 
993	 0.161681452648224 
994	 0.162780797824515 
995	 0.163891024203982 
996	 0.165080746117819 
997	 0.166167566542432 
998	 0.167231959226446 
999	 0.168407382839802 
1000	 0.169585445146926 
1001	 0.167610586178241 
1002	 0.168566957515291 
1003	 0.169478538674292 
1004	 0.170484282939537 
1005	 0.171520057442337 
1006	 0.17252709466472 
1007	 0.173578791268611 
1008	 0.174655474236513 
1009	 0.175662020073716 
1010	 0.176652505828664 
1011	 0.177768253180474 
1012	 0.178848137230289 
1013	 0.179795941175508 
1014	 0.180811493499877 
1015	 0.181855293881624 
1016	 0.182890369486527 
1017	 0.183927115203903 
1018	 0.185021871007557 
1019	 0.186014588811983 
1020	 0.186947225479618 
1021	 0.187937800006591 
1022	 0.188950396381098 
1023	 0.189930103795465 
1024	 0.190881179648476 
1025	 0.191827700887012 
1026	 0.192737974451762 
1027	 0.193700508667486 
1028	 0.194694995217559 
1029	 0.195627847717267 
1030	 0.196583166684 
1031	 0.19752671585016 
1032	 0.198455581886204 
1033	 0.199381684239392 
1034	 0.200343721283324 
1035	 0.201229603390527 
1036	 0.202076081405718 
1037	 0.202975042506872 
1038	 0.203895436654605 
1039	 0.204840948186568 
1040	 0.205775008314705 
1041	 0.206673117160404 
1042	 0.207550604554817 
1043	 0.208403945842767 
1044	 0.209284298611309 
1045	 0.21017073523816 
1046	 0.211119350712794 
1047	 0.212090807527009 
1048	 0.213006822844535 
1049	 0.21387964481491 
1050	 0.214740587572739 
1051	 0.215607885231624 
1052	 0.216482711043152 
1053	 0.217370323494845 
1054	 0.21828160872266 
1055	 0.219156955641483 
1056	 0.220028108649415 
1057	 0.220907972981524 
1058	 0.221820347408503 
1059	 0.222702315100547 
1060	 0.223563230680522 
1061	 0.224423520182594 
1062	 0.225295008341973 
1063	 0.226179854858677 
1064	 0.227035243710729 
1065	 0.227928388074094 
1066	 0.228823355142072 
1067	 0.229674696412762 
1068	 0.230618248960059 
1069	 0.231516783648997 
1070	 0.232386439467999 
1071	 0.233249572184028 
1072	 0.234112454270635 
1073	 0.234891045316363 
1074	 0.235762220391813 
1075	 0.236688476072501 
1076	 0.237570696286867 
1077	 0.238487581415436 
1078	 0.239417649002261 
1079	 0.240278654289826 
1080	 0.241186173314614 
1081	 0.242133451443636 
1082	 0.243036233726928 
1083	 0.24394859830254 
1084	 0.244879486681028 
1085	 0.245788533649696 
1086	 0.246668513167577 
1087	 0.247564385391619 
1088	 0.248456900640491 
1089	 0.249344027123737 
1090	 0.250261316396234 
1091	 0.251227161611638 
1092	 0.252191856731848 
1093	 0.253121499873778 
1094	 0.254036138367198 
1095	 0.254907740553954 
1096	 0.255795935659691 
1097	 0.25673096833353 
1098	 0.257680522984441 
1099	 0.258659523645751 
1100	 0.259648336560434 
1101	 0.260665183079595 
1102	 0.261669886838388 
1103	 0.262696953882303 
1104	 0.263691983529309 
1105	 0.264668932428886 
1106	 0.265661663616984 
1107	 0.266660394985004 
1108	 0.267703060156102 
1109	 0.268769425531595 
1110	 0.269808837377258 
1111	 0.270858468376487 
1112	 0.271910676846591 
1113	 0.272960345587679 
1114	 0.274007480665635 
1115	 0.275072023350822 
1116	 0.276130053189507 
1117	 0.277204764047828 
1118	 0.27829192839415 
1119	 0.279400288410455 
1120	 0.280488880889052 
1121	 0.281581680274697 
1122	 0.282704620678099 
1123	 0.283832438291844 
1124	 0.284966060307801 
1125	 0.28614513953249 
1126	 0.287269560819442 
1127	 0.288344134105448 
1128	 0.289468773379257 
1129	 0.290594686829171 
1130	 0.291726590776042 
1131	 0.292891116611143 
1132	 0.294046318893947 
1133	 0.295195461972831 
1134	 0.296341135627397 
1135	 0.297492596274982 
1136	 0.298635922166899 
1137	 0.299782189958105 
1138	 0.30090480755343 
1139	 0.302042932635555 
1140	 0.303190070014824 
1141	 0.304337042782048 
1142	 0.305494339647835 
1143	 0.306628814085477 
1144	 0.307758028922914 
1145	 0.308878551544591 
1146	 0.309971728517858 
1147	 0.311078500825644 
1148	 0.312192461680899 
1149	 0.313303924243028 
1150	 0.31440376514527 
1151	 0.315532450511588 
1152	 0.316642856670775 
1153	 0.317737067029555 
1154	 0.318837186015093 
1155	 0.319925290059002 
1156	 0.321026004448075 
1157	 0.322140365775765 
1158	 0.323242820799767 
1159	 0.32436045145866 
1160	 0.325446237642282 
1161	 0.326499154692291 
1162	 0.327574232887857 
1163	 0.328651001347737 
1164	 0.329717380674214 
1165	 0.330789323677484 
1166	 0.331869497400773 
1167	 0.332912823371674 
1168	 0.333968404245726 
1169	 0.33500679536131 
1170	 0.336048443706659 
1171	 0.337061256083618 
1172	 0.338053185660981 
1173	 0.339045598501315 
1174	 0.340022370754259 
1175	 0.341001638794499 
1176	 0.341983019933426 
1177	 0.342954499990117 
1178	 0.343930284543133 
1179	 0.34488374316222 
1180	 0.345821987395883 
1181	 0.346756626315374 
1182	 0.347674832548125 
1183	 0.348591996083765 
1184	 0.349499065652495 
1185	 0.350410309742254 
1186	 0.351291106287352 
1187	 0.352152354941107 
1188	 0.353011672580976 
1189	 0.353863158953741 
1190	 0.354693786677051 
1191	 0.355513033914047 
1192	 0.356320955240217 
1193	 0.357104047811547 
1194	 0.357889953978743 
1195	 0.358688100811361 
1196	 0.359454536067185 
1197	 0.360201621420086 
1198	 0.360938588023858 
1199	 0.361660217983017 
1200	 0.362356951692536 
1201	 0.363057569087217 
1202	 0.363755274522389 
1203	 0.364438576038479 
1204	 0.365112895341096 
1205	 0.365777192985785 
1206	 0.366434531826891 
1207	 0.367076997320003 
1208	 0.36772006502215 
1209	 0.368329312357125 
1210	 0.368906394162124 
1211	 0.369485781350714 
1212	 0.370034499724653 
1213	 0.37059651072739 
1214	 0.371174440306999 
1215	 0.37173545200913 
1216	 0.372289477828708 
1217	 0.372848255862307 
1218	 0.373373373874445 
1219	 0.373877359072235 
1220	 0.374376688561812 
1221	 0.374847285192438 
1222	 0.375337767758766 
1223	 0.375844485828408 
1224	 0.376320644971666 
1225	 0.376788068596121 
1226	 0.3772504427419 
1227	 0.377690826526593 
1228	 0.37813239015023 
1229	 0.378580244074765 
1230	 0.379016890613731 
1231	 0.379447056367345 
1232	 0.379864144577745 
1233	 0.380271900628202 
1234	 0.380676142743681 
1235	 0.381060285630362 
1236	 0.381428019419736 
1237	 0.3817902279079 
1238	 0.382134213448364 
1239	 0.382486786791172 
1240	 0.382837791741687 
1241	 0.383181973056959 
1242	 0.383535233041554 
1243	 0.383865857650846 
1244	 0.384170943760231 
1245	 0.384486639916406 
1246	 0.384796365335111 
1247	 0.385106544947544 
1248	 0.385430973005744 
1249	 0.38574343602685 
1250	 0.38602878813977 
1251	 0.386293113574078 
1252	 0.386560667050935 
1253	 0.386804548112552 
1254	 0.387064623594945 
1255	 0.387334597788028 
1256	 0.387593371348951 
1257	 0.387854998227294 
1258	 0.388099709824926 
1259	 0.388335264960869 
1260	 0.388564891156724 
1261	 0.388758058521336 
1262	 0.388989756023556 
1263	 0.389258478909934 
1264	 0.389494470365381 
1265	 0.389743286730356 
1266	 0.389972301259942 
1267	 0.390178991467087 
1268	 0.390353778015912 
1269	 0.390547332921549 
1270	 0.390747062323031 
1271	 0.390929707220677 
1272	 0.391098623944888 
1273	 0.391278427633592 
1274	 0.391444900049459 
1275	 0.391633809142199 
1276	 0.391842520820761 
1277	 0.392039748924617 
1278	 0.392247329201766 
1279	 0.392441437798498 
1280	 0.392632927513803 
1281	 0.392811055893001 
1282	 0.392973746905 
1283	 0.393137598098064 
1284	 0.393285126818085 
1285	 0.393446705069915 
1286	 0.393601015756905 
1287	 0.39374321743142 
1288	 0.393885251508134 
1289	 0.394018353846128 
1290	 0.39415300081385 
1291	 0.394286376747341 
1292	 0.394423215730713 
1293	 0.394564902468765 
1294	 0.39468267860205 
1295	 0.394803810074239 
1296	 0.394902439395581 
1297	 0.394967280260683 
1298	 0.395047008661325 
1299	 0.395119623114934 
1300	 0.395193094149514 
1301	 0.395287018408647 
1302	 0.395348581510984 
1303	 0.395394770051368 
1304	 0.395424913373569 
1305	 0.395456622396665 
1306	 0.395474847645205 
1307	 0.395505962679543 
1308	 0.395532854147696 
1309	 0.395532758746286 
1310	 0.395499129843293 
1311	 0.395490852206883 
1312	 0.395480092486761 
1313	 0.395466273066458 
1314	 0.395474285625917 
1315	 0.395447420865231 
1316	 0.395394113773692 
1317	 0.395344291072634 
1318	 0.395266915057226 
1319	 0.39521741290345 
1320	 0.395201095922825 
1321	 0.395148294530029 
1322	 0.395085530263697 
1323	 0.395020168474409 
1324	 0.39494982346035 
1325	 0.394879879777107 
1326	 0.394840566481943 
1327	 0.394805165116391 
1328	 0.394742026561266 
1329	 0.394674831007518 
1330	 0.394624868452099 
1331	 0.394581597324613 
1332	 0.394532735859884 
1333	 0.394501059726274 
1334	 0.394444048795698 
1335	 0.394362174859726 
1336	 0.394299803034252 
1337	 0.39422955128595 
1338	 0.394179535782271 
1339	 0.394158958744918 
1340	 0.394113481519595 
1341	 0.394076947858007 
1342	 0.394016955380741 
1343	 0.393931767917697 
1344	 0.39384665932052 
1345	 0.393767750847831 
1346	 0.393676280527078 
1347	 0.393561951295335 
1348	 0.393436295323161 
1349	 0.393289028942145 
1350	 0.393107254303553 
1351	 0.392938641339723 
1352	 0.392774329116514 
1353	 0.392589703364982 
1354	 0.392398199118119 
1355	 0.39219225640348 
1356	 0.391952851508998 
1357	 0.391744725295342 
1358	 0.391504014057792 
1359	 0.391339106436366 
1360	 0.391212485530623 
1361	 0.391114762952641 
1362	 0.391075519761703 
1363	 0.39104093535961 
1364	 0.391020101285394 
1365	 0.391026276547793 
1366	 0.391074983539321 
1367	 0.391108038424898 
1368	 0.391173322823886 
1369	 0.391195751666899 
1370	 0.391115043480095 
1371	 0.391027253855381 
1372	 0.390869050441489 
1373	 0.390653644193499 
1374	 0.390395746297397 
1375	 0.390135822970771 
1376	 0.389725925835678 
1377	 0.389230404281604 
1378	 0.388655789037706 
1379	 0.38793025739803 
1380	 0.387245152768744 
1381	 0.386478862391919 
1382	 0.38576819502179 
1383	 0.385114331489218 
1384	 0.384385500613434 
1385	 0.383700780729424 
1386	 0.382893069040049 
1387	 0.382012644938833 
1388	 0.381056346231498 
1389	 0.380040929284426 
1390	 0.378923359294184 
1391	 0.377695995258513 
1392	 0.376385086709601 
1393	 0.374959969236292 
1394	 0.373483471274697 
1395	 0.371981586434058 
1396	 0.37046430608736 
1397	 0.368952164707699 
1398	 0.36742950927721 
1399	 0.3658970093468 
1400	 0.364358513783281 
1401	 0.362811475976779 
1402	 0.361216363260515 
1403	 0.359710270431178 
1404	 0.358203603869367 
1405	 0.35678624686843 
1406	 0.355460517681716 
1407	 0.354127367763813 
1408	 0.352822216298367 
1409	 0.351565339001282 
1410	 0.350292080608096 
1411	 0.349140101932035 
1412	 0.348063655774456 
1413	 0.347060056298981 
1414	 0.346156673986086 
1415	 0.345291621267854 
1416	 0.344433434487714 
1417	 0.343649581973591 
1418	 0.342901179847561 
1419	 0.342180125320941 
1420	 0.341570558197971 
1421	 0.341005388638084 
1422	 0.340473970153273 
1423	 0.339992049185497 
1424	 0.339488769041493 
1425	 0.338971518036744 
1426	 0.338520439172619 
1427	 0.33806944793475 
1428	 0.337697727514938 
1429	 0.337403129492432 
1430	 0.337115812396065 
1431	 0.336896097467796 
1432	 0.336645711613768 
1433	 0.336379835938549 
1434	 0.336167317549459 
1435	 0.335945324424146 
1436	 0.335778638835082 
1437	 0.335709128432739 
1438	 0.335598812645762 
1439	 0.335491298904733 
1440	 0.335398792841176 
1441	 0.335272591829724 
1442	 0.335147834159575 
1443	 0.335071674774668 
1444	 0.335010906300199 
1445	 0.334993937456097 
1446	 0.335006771194383 
1447	 0.335011473371548 
1448	 0.335015404067954 
1449	 0.334998641322148 
1450	 0.334969396916874 
1451	 0.334971337421336 
1452	 0.334964762212313 
1453	 0.335010962122397 
1454	 0.335119708442199 
1455	 0.335178172485215 
1456	 0.33524141512189 
1457	 0.335295623270826 
1458	 0.335301563809441 
1459	 0.335374147192298 
1460	 0.335468875498072 
1461	 0.335597239916574 
1462	 0.335764680482411 
1463	 0.335937487586 
1464	 0.336150816654355 
1465	 0.336352064028568 
1466	 0.336551089284039 
1467	 0.336776490753768 
1468	 0.336961242379544 
1469	 0.337236266662319 
1470	 0.337587569750253 
1471	 0.33794368501855 
1472	 0.338312497808556 
1473	 0.338725126526633 
1474	 0.339063404104559 
1475	 0.339411509072215 
1476	 0.339796468411545 
1477	 0.340185832675763 
1478	 0.340651582922409 
1479	 0.341120820354451 
1480	 0.341598149366946 
1481	 0.342105593144271 
1482	 0.342583157397732 
1483	 0.343045703741005 
1484	 0.34351096500311 
1485	 0.343957928796772 
1486	 0.344434844032689 
1487	 0.344914911842539 
1488	 0.34540735868983 
1489	 0.345946495962912 
1490	 0.346436347649728 
1491	 0.346907860785113 
1492	 0.347381525601099 
1493	 0.34782671076267 
1494	 0.348287603293501 
1495	 0.348760603989907 
1496	 0.34922170878535 
1497	 0.349681445325402 
1498	 0.3501363461217 
1499	 0.350602831328559 
1500	 0.351037809630195 
1501	 0.351441646012445 
1502	 0.351861462860065 
1503	 0.352274669370918 
1504	 0.352667136949008 
1505	 0.35310331824952 
1506	 0.353519104747849 
1507	 0.353910349820017 
1508	 0.35430961189831 
1509	 0.354679955012746 
1510	 0.355056283377388 
1511	 0.355444372280159 
1512	 0.355829239222359 
1513	 0.356232545231774 
1514	 0.356626091574726 
1515	 0.357011750548654 
1516	 0.357399470903773 
1517	 0.357757489278349 
1518	 0.358092626445509 
1519	 0.358434491629978 
1520	 0.358752684260119 
1521	 0.359087780643898 
1522	 0.359436999553779 
1523	 0.359774768496929 
1524	 0.360114317594445 
1525	 0.360442591314101 
1526	 0.360758015456567 
1527	 0.361078862544126 
1528	 0.361398224841478 
1529	 0.361707251840719 
1530	 0.362016580069028 
1531	 0.362319877863934 
1532	 0.362621650102661 
1533	 0.362901273796853 
1534	 0.363159128990939 
1535	 0.363431362954346 
1536	 0.363688769771231 
1537	 0.363953751494721 
1538	 0.364237499558021 
1539	 0.364513751054865 
1540	 0.364786561551844 
1541	 0.365049114127911 
1542	 0.36530723595666 
1543	 0.365563543766257 
1544	 0.365808732435205 
1545	 0.36605615322779 
1546	 0.366311497189823 
1547	 0.366556947223832 
1548	 0.366790817772274 
1549	 0.36701401990646 
1550	 0.367226388353065 
1551	 0.36743070663876 
1552	 0.367639127589444 
1553	 0.367850140220226 
1554	 0.368068168184114 
1555	 0.368301999715926 
1556	 0.368512906589762 
1557	 0.368723900637463 
1558	 0.368944659384775 
1559	 0.369135654782317 
1560	 0.369332216290086 
1561	 0.369535361734288 
1562	 0.36972331387079 
1563	 0.369889716090538 
1564	 0.370077982454549 
1565	 0.370273279611259 
1566	 0.370462297709058 
1567	 0.370659787870859 
1568	 0.370840779284746 
1569	 0.371018707560877 
1570	 0.371178832891132 
1571	 0.371326613040326 
1572	 0.371468330152324 
1573	 0.371591199838713 
1574	 0.371717579902725 
1575	 0.371835854548681 
1576	 0.371960038694357 
1577	 0.372084822418007 
1578	 0.372210003618572 
1579	 0.372339104256185 
1580	 0.372465111613542 
1581	 0.372587377424592 
1582	 0.372715488169503 
1583	 0.372830901017743 
1584	 0.372976211758736 
1585	 0.373158451240252 
1586	 0.373301353517907 
1587	 0.373457257169796 
1588	 0.37358443925464 
1589	 0.373665362131312 
1590	 0.373761293864324 
1591	 0.373851373675767 
1592	 0.373941530286428 
1593	 0.374040415393679 
1594	 0.374121671333994 
1595	 0.374184008129198 
1596	 0.374259807901938 
1597	 0.37433271955763 
1598	 0.374400978188576 
1599	 0.374488132797219 
1600	 0.374555461972798 
1601	 0.374575643446446 
1602	 0.374642872021424 
1603	 0.374730576145409 
1604	 0.374816199770928 
1605	 0.374941219110458 
1606	 0.375048898471435 
1607	 0.375139335041873 
1608	 0.375234411022187 
1609	 0.375342085329101 
1610	 0.375422944573909 
1611	 0.3755015843192 
1612	 0.375574456919364 
1613	 0.375601871974031 
1614	 0.375637045679449 
1615	 0.375679182228488 
1616	 0.375710114270675 
1617	 0.375781758886657 
1618	 0.375849431145924 
1619	 0.375894361031262 
1620	 0.375952534488719 
1621	 0.376002413087063 
1622	 0.376043489362611 
1623	 0.376092318365052 
1624	 0.376141996272354 
1625	 0.376198673471149 
1626	 0.376255687711475 
1627	 0.376322078466993 
1628	 0.376405244376846 
1629	 0.376466236472178 
1630	 0.376530117253247 
1631	 0.376572760620296 
1632	 0.376592966258833 
1633	 0.37662213429911 
1634	 0.376647078068187 
1635	 0.376663740502999 
1636	 0.376677859022753 
1637	 0.376687353583452 
1638	 0.376685609878075 
1639	 0.37668731812875 
1640	 0.376680031636311 
1641	 0.37669693005607 
1642	 0.37672072673608 
1643	 0.376749801643523 
1644	 0.376807719057429 
1645	 0.376834940870974 
1646	 0.376848236265104 
1647	 0.376862974459526 
1648	 0.376866489352875 
1649	 0.376877447418639 
1650	 0.376896781053334 
1651	 0.376898597488151 
1652	 0.376883747958977 
1653	 0.376890459453617 
1654	 0.376902467970916 
1655	 0.376903830088888 
1656	 0.376928541802557 
1657	 0.376912351784052 
1658	 0.376851474551212 
1659	 0.376823679220063 
1660	 0.376780115500419 
1661	 0.37677611482912 
1662	 0.376813312225706 
1663	 0.376824932625518 
1664	 0.376862919931857 
1665	 0.376852715088283 
1666	 0.376809981819313 
1667	 0.376767459526746 
1668	 0.376703615620658 
1669	 0.376636264789736 
1670	 0.376542171772629 
1671	 0.376491100695746 
1672	 0.376443084681885 
1673	 0.37641577575999 
1674	 0.37643877241348 
1675	 0.376429496991559 
1676	 0.376419735662553 
1677	 0.376391702078826 
1678	 0.376347058342265 
1679	 0.376306120323391 
1680	 0.376244213698127 
1681	 0.37620617201347 
1682	 0.376185234414463 
1683	 0.376153279988175 
1684	 0.37612261047626 
1685	 0.376095418493178 
1686	 0.376061329823252 
1687	 0.37603944437692 
1688	 0.376050484615134 
1689	 0.376013093736295 
1690	 0.375951655944373 
1691	 0.375895679776678 
1692	 0.375810770720883 
1693	 0.375739669596708 
1694	 0.37568851598481 
1695	 0.375616755278547 
1696	 0.375521666598543 
1697	 0.375446824223002 
1698	 0.375383253870077 
1699	 0.375302670732265 
1700	 0.375211716700256 
1701	 0.375142386562232 
1702	 0.375074329426949 
1703	 0.375005836253449 
1704	 0.374966513845436 
1705	 0.374896091958184 
1706	 0.374790299112875 
1707	 0.374713375469694 
1708	 0.374656571497466 
1709	 0.37456954239047 
1710	 0.37447342075467 
1711	 0.37438556252727 
1712	 0.374267625764896 
1713	 0.374182761696027 
1714	 0.374133068052071 
1715	 0.374067366437802 
1716	 0.374011425550541 
1717	 0.373932372001863 
1718	 0.37385087268684 
1719	 0.373742011272534 
1720	 0.373607850316346 
1721	 0.373469685977258 
1722	 0.373309440290703 
1723	 0.373158803275954 
1724	 0.373008122367993 
1725	 0.372849181658463 
1726	 0.372687597022327 
1727	 0.37252384343073 
1728	 0.372338141573249 
1729	 0.372182275120742 
1730	 0.372041930208159 
1731	 0.371900016111337 
1732	 0.371787110599877 
1733	 0.371632158187737 
1734	 0.371467550920958 
1735	 0.371274194139793 
1736	 0.371043563912633 
1737	 0.37082437381344 
1738	 0.370582171940496 
1739	 0.370372115702327 
1740	 0.370176638889656 
1741	 0.369980497606917 
1742	 0.369799426784875 
1743	 0.369604499785397 
1744	 0.36939251813799 
1745	 0.369218469454883 
1746	 0.369073167257117 
1747	 0.368894656194063 
1748	 0.368704362092061 
1749	 0.368453787546169 
1750	 0.36820866731412 
1751	 0.368005388789208 
1752	 0.367782394933038 
1753	 0.367579647172328 
1754	 0.367401902293486 
1755	 0.367181117463711 
1756	 0.366960221874844 
1757	 0.366728755815921 
1758	 0.366473471571147 
1759	 0.366253176731448 
1760	 0.366051132769038 
1761	 0.365864776548685 
1762	 0.365696926734098 
1763	 0.365532958827126 
1764	 0.365352814905809 
1765	 0.365165961131842 
1766	 0.364977315745584 
1767	 0.364761481526169 
1768	 0.364571307663606 
1769	 0.364416335744959 
1770	 0.364252120294741 
1771	 0.364101582280564 
1772	 0.363960244028218 
1773	 0.363805296345931 
1774	 0.36364794537553 
1775	 0.363492179376213 
1776	 0.363309227724862 
1777	 0.363099559601563 
1778	 0.362892259167076 
1779	 0.3626790128875 
1780	 0.362498875595673 
1781	 0.362370243702294 
1782	 0.362243667924914 
1783	 0.362136100016321 
1784	 0.362026544679245 
1785	 0.36190691819598 
1786	 0.361814716811026 
1787	 0.361755221180565 
1788	 0.361668271517073 
1789	 0.361579597005912 
1790	 0.361497534166666 
1791	 0.361400097229033 
1792	 0.361304172251895 
1793	 0.361211113989334 
1794	 0.361126659825727 
1795	 0.36103427003292 
1796	 0.360993899561298 
1797	 0.360996978558024 
1798	 0.360971661452441 
1799	 0.360969821525604 
1800	 0.360916343318132 
1801	 0.351755158038027 
1802	 0.352089416095527 
1803	 0.352534484361168 
1804	 0.353033752745171 
1805	 0.353485936232307 
1806	 0.353877723307417 
1807	 0.354249637532395 
1808	 0.354550875581086 
1809	 0.354779256840992 
1810	 0.354961542238431 
1811	 0.355087024509907 
1812	 0.355207921502749 
1813	 0.355269314193138 
1814	 0.355294297977123 
1815	 0.355344847253497 
1816	 0.355344188904259 
1817	 0.355323697778858 
1818	 0.355247136940169 
1819	 0.355201613239041 
1820	 0.355144590738328 
1821	 0.355103827356204 
1822	 0.355064058949695 
1823	 0.355052911839314 
1824	 0.355063006199977 
1825	 0.35501855593771 
1826	 0.354951784147755 
1827	 0.354894758365406 
1828	 0.354786434537381 
1829	 0.354636954853851 
1830	 0.354472062470096 
1831	 0.35427801692392 
1832	 0.354052393181768 
1833	 0.353822339548626 
1834	 0.353601910246224 
1835	 0.353422828859962 
1836	 0.353265058037311 
1837	 0.353138663538417 
1838	 0.353042969199478 
1839	 0.352948630230022 
1840	 0.352878166718586 
1841	 0.352790863798827 
1842	 0.352706398294606 
1843	 0.352598025788952 
1844	 0.352465923692588 
1845	 0.352335500627006 
1846	 0.352192506648456 
1847	 0.352044629136595 
1848	 0.351859565248801 
1849	 0.351660792093413 
1850	 0.351429879436079 
1851	 0.351175040122553 
1852	 0.350871286402737 
1853	 0.350544599790138 
1854	 0.350174305303301 
1855	 0.34975814577492 
1856	 0.349307067409099 
1857	 0.348843563662609 
1858	 0.348343820274862 
1859	 0.34779900636934 
1860	 0.34712814786706 
1861	 0.34639066436169 
1862	 0.345511324942824 
1863	 0.344499362786826 
1864	 0.343379878542116 
1865	 0.342200829578622 
1866	 0.34089429647774 
1867	 0.339539207639378 
1868	 0.338086268352709 
1869	 0.336555469629954 
1870	 0.335055004962218 
1871	 0.333483399127002 
1872	 0.331862072429528 
1873	 0.330245798000632 
1874	 0.328575235676104 
1875	 0.32681923639681 
1876	 0.325013631962092 
1877	 0.32308490761272 
1878	 0.321004831180336 
1879	 0.318751108301045 
1880	 0.316322170681468 
1881	 0.313689675959541 
1882	 0.310948269568567 
1883	 0.30806167875003 
1884	 0.304971725268356 
1885	 0.30179543269888 
1886	 0.298519039497971 
1887	 0.295074709889118 
1888	 0.291590731767578 
1889	 0.28805160223712 
1890	 0.284463777815132 
1891	 0.280900337460028 
1892	 0.277300352570166 
1893	 0.273739527695442 
1894	 0.270179119863615 
1895	 0.266633271810478 
1896	 0.263124994738851 
1897	 0.25970739316437 
1898	 0.256332994677904 
1899	 0.253098698403597 
1900	 0.250031461874679 
1901	 0.247100409694551 
1902	 0.244379430713493 
1903	 0.241907162967169 
1904	 0.239540489553159 
1905	 0.23732754392144 
1906	 0.235294177658193 
1907	 0.23338508372503 
1908	 0.231590985733877 
1909	 0.229930754805612 
1910	 0.228373865073918 
1911	 0.226941130507239 
1912	 0.2256097942368 
1913	 0.224374867215468 
1914	 0.223241015665616 
1915	 0.222209790007066 
1916	 0.22128812167232 
1917	 0.220441828334514 
1918	 0.219694328404592 
1919	 0.219029334218049 
1920	 0.218424484024087 
1921	 0.21791561935187 
1922	 0.217479381175786 
1923	 0.217127565909397 
1924	 0.216829274502418 
1925	 0.216623384615093 
1926	 0.216434066632938 
1927	 0.216297358578013 
1928	 0.21618753742382 
1929	 0.216124185797627 
1930	 0.21608630732903 
1931	 0.216084617202997 
1932	 0.216148019021935 
1933	 0.216257659481725 
1934	 0.21640069203737 
1935	 0.216574030110786 
1936	 0.216776196959139 
1937	 0.217031307555257 
1938	 0.21732681819086 
1939	 0.2176584862671 
1940	 0.218039577432197 
1941	 0.218464718330541 
1942	 0.218916790506227 
1943	 0.219376477095567 
1944	 0.219840789162008 
1945	 0.220332034587755 
1946	 0.220835309868497 
1947	 0.221335294980603 
1948	 0.221866410794174 
1949	 0.222435802237253 
1950	 0.22299825836535 
1951	 0.223564835825778 
1952	 0.224149954052509 
1953	 0.224739287062608 
1954	 0.22538061248023 
1955	 0.226027393381789 
1956	 0.226687384993092 
1957	 0.227374229678978 
1958	 0.228082614419031 
1959	 0.228802556463061 
1960	 0.229558437345775 
1961	 0.230306793012683 
1962	 0.23106313179959 
1963	 0.231823577768619 
1964	 0.232590874971124 
1965	 0.233356888694016 
1966	 0.234141866958883 
1967	 0.234924783715262 
1968	 0.235717925754581 
1969	 0.236527203932222 
1970	 0.237327914042767 
1971	 0.238135402696439 
1972	 0.238937245924145 
1973	 0.239731838125444 
1974	 0.240528536944951 
1975	 0.241323741149849 
1976	 0.242115232552052 
1977	 0.242931231700488 
1978	 0.243759177644092 
1979	 0.244575896684883 
1980	 0.245409351023402 
1981	 0.246235498507315 
1982	 0.24704286802669 
1983	 0.247874398418149 
1984	 0.248726573192687 
1985	 0.249570076410667 
1986	 0.250437210263706 
1987	 0.2512695024484 
1988	 0.25208067219165 
1989	 0.252890932353647 
1990	 0.253706790470288 
1991	 0.254489852414086 
1992	 0.255294949975496 
1993	 0.256117038802505 
1994	 0.256929359249145 
1995	 0.257732905973383 
1996	 0.25855145514312 
1997	 0.25940223650846 
1998	 0.260208663709521 
1999	 0.26098740655918 
2000	 0.261776059865447 
2001	 0.26255705462522 
2002	 0.263311142863417 
2003	 0.264083831512688 
2004	 0.26488775895835 
2005	 0.265660249440791 
2006	 0.266408907381551 
2007	 0.26718557775727 
2008	 0.267960013225297 
2009	 0.268745505410556 
2010	 0.269569494876763 
2011	 0.270354112584184 
2012	 0.27113894365246 
2013	 0.271895264587093 
2014	 0.272616852493427 
2015	 0.273335609550976 
2016	 0.274045507294624 
2017	 0.274745601276478 
2018	 0.275458057261951 
2019	 0.276178965696132 
2020	 0.276891435287744 
2021	 0.277615008099691 
2022	 0.278315610642351 
2023	 0.279002091838626 
2024	 0.279685016056223 
2025	 0.280335741567022 
2026	 0.281012764897669 
2027	 0.28169192596305 
2028	 0.282401566486091 
2029	 0.283082213923821 
2030	 0.28377605997277 
2031	 0.284431201743105 
2032	 0.285059815679947 
2033	 0.28568154809823 
2034	 0.286282294812712 
2035	 0.286889114428426 
2036	 0.287483939142441 
2037	 0.288078593141921 
2038	 0.288668684087817 
2039	 0.289260098539275 
2040	 0.289831466653638 
2041	 0.290440526481396 
2042	 0.29104447072259 
2043	 0.291627264972345 
2044	 0.292220385382603 
2045	 0.292826412664328 
2046	 0.293396935251967 
2047	 0.293963384015512 
2048	 0.294508313920015 
2049	 0.29501880870795 
2050	 0.295533595439249 
2051	 0.29602743846286 
2052	 0.296533740368556 
2053	 0.297031151535584 
2054	 0.297543413778993 
2055	 0.298065156239739 
2056	 0.298605824674439 
2057	 0.299124567799555 
2058	 0.299653744115856 
2059	 0.300153306047156 
2060	 0.300625352248985 
2061	 0.30110591584261 
2062	 0.301567468762768 
2063	 0.302045543882384 
2064	 0.302540101953561 
2065	 0.303018330926719 
2066	 0.303496330527552 
2067	 0.30396976286824 
2068	 0.304434957799716 
2069	 0.304891217808517 
2070	 0.305346099872741 
2071	 0.305801568900531 
2072	 0.30624885944221 
2073	 0.306682788501802 
2074	 0.307127884797554 
2075	 0.307575595524229 
2076	 0.308020265096601 
2077	 0.308467695575554 
2078	 0.308911175018525 
2079	 0.309358560840066 
2080	 0.309792774275419 
2081	 0.310214275840201 
2082	 0.310640928911286 
2083	 0.311059433341767 
2084	 0.311474355094337 
2085	 0.311908930046961 
2086	 0.312368710317589 
2087	 0.312793398142142 
2088	 0.313220497104968 
2089	 0.313625854683777 
2090	 0.313983921713629 
2091	 0.314384335972966 
2092	 0.314812394085564 
2093	 0.315210685525801 
2094	 0.315616220556996 
2095	 0.316007488167581 
2096	 0.316353167272482 
2097	 0.316727404114324 
2098	 0.317116802730982 
2099	 0.317508237867048 
2100	 0.317895534530201 
2101	 0.318293754184027 
2102	 0.318676407115684 
2103	 0.319039935370514 
2104	 0.319428564404576 
2105	 0.319820148737296 
2106	 0.320220841404714 
2107	 0.320639642056801 
2108	 0.321053585447576 
2109	 0.321474431906307 
2110	 0.321889778518717 
2111	 0.322304304662919 
2112	 0.322721561466284 
2113	 0.323159846922054 
2114	 0.323553751672167 
2115	 0.323954344623705 
2116	 0.324364622985312 
2117	 0.3247277717508 
2118	 0.325056086113647 
2119	 0.325396521506188 
2120	 0.32570715375416 
2121	 0.326039472016014 
2122	 0.326396364727506 
2123	 0.326721766073814 
2124	 0.327031859429101 
2125	 0.327344688071378 
2126	 0.327645113952032 
2127	 0.327940258717443 
2128	 0.328243670790665 
2129	 0.328530190342037 
2130	 0.328795607718237 
2131	 0.329069276850559 
2132	 0.329312036012373 
2133	 0.329533073228358 
2134	 0.329760853702338 
2135	 0.329978402007555 
2136	 0.330180265611937 
2137	 0.330410273930802 
2138	 0.330562114813751 
2139	 0.330667295243694 
2140	 0.330750045626631 
2141	 0.330756115726011 
2142	 0.330796902666989 
2143	 0.330843348865134 
2144	 0.330867244380189 
2145	 0.330883006226876 
2146	 0.330897656979631 
2147	 0.330876885564516 
2148	 0.330879691885291 
2149	 0.330886813622316 
2150	 0.330926815364263 
2151	 0.330910712361304 
2152	 0.330878075595249 
2153	 0.330835439398941 
2154	 0.330760652993162 
2155	 0.330684759174862 
2156	 0.330615068528423 
2157	 0.330519704479306 
2158	 0.330410002408729 
2159	 0.330273018347345 
2160	 0.330095544520464 
2161	 0.329934014876446 
2162	 0.329753855691617 
2163	 0.329577489636487 
2164	 0.329406058669277 
2165	 0.329249719237352 
2166	 0.329072597985332 
2167	 0.328887507524374 
2168	 0.32868743009531 
2169	 0.328462459852749 
2170	 0.328271294051376 
2171	 0.328073207341257 
2172	 0.327895406494217 
2173	 0.327771517523476 
2174	 0.327594625607759 
2175	 0.327392315449158 
2176	 0.327197742497244 
2177	 0.326966638441158 
2178	 0.326770363637837 
2179	 0.326622105754978 
2180	 0.326430832969481 
2181	 0.326233011137732 
2182	 0.326028394027677 
2183	 0.325803406195549 
2184	 0.32555470205942 
2185	 0.325314649949981 
2186	 0.325074482301846 
2187	 0.324835906424028 
2188	 0.324581085099308 
2189	 0.324351886386199 
2190	 0.324133612521156 
2191	 0.323927722488393 
2192	 0.323751973390919 
2193	 0.323546293050253 
2194	 0.323324568371635 
2195	 0.323125120938288 
2196	 0.322899254385645 
2197	 0.322718851333526 
2198	 0.322576491799896 
2199	 0.322450680311632 
2200	 0.322347770121853 
2201	 0.322260123182408 
2202	 0.322225613041561 
2203	 0.32214063518185 
2204	 0.32209862614304 
2205	 0.322085474400708 
2206	 0.32204684325427 
2207	 0.322022091328997 
2208	 0.321964992972003 
2209	 0.321864499859749 
2210	 0.321814472248597 
2211	 0.321772508129276 
2212	 0.321734402367369 
2213	 0.321744248961818 
2214	 0.321705006972484 
2215	 0.321630379454609 
2216	 0.321570574127918 
2217	 0.321484332732135 
2218	 0.321429629730799 
2219	 0.321412356965976 
2220	 0.321370162712882 
2221	 0.321344835048961 
2222	 0.321291138056224 
2223	 0.321208486584131 
2224	 0.32110712054305 
2225	 0.321030609828927 
2226	 0.320954316658432 
2227	 0.320872376993294 
2228	 0.320789954019372 
2229	 0.320731700018132 
2230	 0.320681161401776 
2231	 0.320620851278182 
2232	 0.320608316418983 
2233	 0.320523379088163 
2234	 0.320381899660658 
2235	 0.320252490887245 
2236	 0.320091816206459 
2237	 0.319945717989806 
2238	 0.319792924571223 
2239	 0.319658938447993 
2240	 0.319545321997456 
2241	 0.319413484522393 
2242	 0.319273560804957 
2243	 0.319149461072947 
2244	 0.319031235649846 
2245	 0.318894847192531 
2246	 0.318784534312667 
2247	 0.318700344990308 
2248	 0.31858226015655 
2249	 0.318443119986916 
2250	 0.318341655361093 
2251	 0.318237183570783 
2252	 0.318146564890531 
2253	 0.318079605443068 
2254	 0.318012673951975 
2255	 0.317975647565846 
2256	 0.317884019438989 
2257	 0.317787200899247 
2258	 0.317671265763651 
2259	 0.317477026258354 
2260	 0.317339710681899 
2261	 0.317223564022792 
2262	 0.317119069595692 
2263	 0.317017520953037 
2264	 0.316955837011046 
2265	 0.316955264245203 
2266	 0.316912019298901 
2267	 0.316883894722919 
2268	 0.31684385125563 
2269	 0.316816594733313 
2270	 0.316686215725476 
2271	 0.316602555649017 
2272	 0.316506588143141 
2273	 0.316345940947403 
2274	 0.316245080800227 
2275	 0.31614192718352 
2276	 0.316046596010139 
2277	 0.315945720709004 
2278	 0.315871512929696 
2279	 0.315757222412544 
2280	 0.315601465684307 
2281	 0.315484214925235 
2282	 0.315369171642076 
2283	 0.315266034192087 
2284	 0.315201835785382 
2285	 0.315100234527993 
2286	 0.314966306536804 
2287	 0.314858023350282 
2288	 0.314756860082454 
2289	 0.314649539038047 
2290	 0.314566688680969 
2291	 0.31445735612688 
2292	 0.314297104254821 
2293	 0.314177086135023 
2294	 0.314084705379282 
2295	 0.313977509590484 
2296	 0.313882006768672 
2297	 0.313798330571288 
2298	 0.313670169567784 
2299	 0.313458607176198 
2300	 0.313272698704025 
2301	 0.313116591281886 
2302	 0.31300430682055 
2303	 0.312932221647252 
2304	 0.312810186729201 
2305	 0.312658685570659 
2306	 0.312479227378449 
2307	 0.312229873471396 
2308	 0.312014980571059 
2309	 0.31179787750685 
2310	 0.311584727337042 
2311	 0.31136800249056 
2312	 0.311160048038854 
2313	 0.310975291887809 
2314	 0.310749085692116 
2315	 0.310496048868438 
2316	 0.310257761686977 
2317	 0.309984121862447 
2318	 0.309769028652781 
2319	 0.309598012106487 
2320	 0.309417351080973 
2321	 0.309263799887773 
2322	 0.309090126313225 
2323	 0.308908490317351 
2324	 0.308726437638978 
2325	 0.308525775116081 
2326	 0.308355381410249 
2327	 0.308201286318619 
2328	 0.308048266839074 
2329	 0.30789715254527 
2330	 0.307758252071283 
2331	 0.307588967852869 
2332	 0.307365404714289 
2333	 0.307123872289107 
2334	 0.306880363567582 
2335	 0.30661333282451 
2336	 0.306355467484134 
2337	 0.306110384547664 
2338	 0.305857021196339 
2339	 0.305609765069672 
2340	 0.305327230657512 
2341	 0.305070006170724 
2342	 0.304823407538539 
2343	 0.304539896526632 
2344	 0.304285248747847 
2345	 0.304001398212507 
2346	 0.303697525545511 
2347	 0.303393402551972 
2348	 0.303101663858694 
2349	 0.302744856095426 
2350	 0.302317147540813 
2351	 0.301944075029039 
2352	 0.301548686122899 
2353	 0.301178833302126 
2354	 0.300889675325413 
2355	 0.300523857056517 
2356	 0.300125445198014 
2357	 0.29971093583752 
2358	 0.299227194492792 
2359	 0.298814750638537 
2360	 0.298429895261057 
2361	 0.298005042284111 
2362	 0.297635145780518 
2363	 0.29718301214898 
2364	 0.296634422207575 
2365	 0.296146788926847 
2366	 0.295609428137855 
2367	 0.295156085393799 
2368	 0.294786085468625 
2369	 0.294371857412996 
2370	 0.293976573966517 
2371	 0.293611473764484 
2372	 0.293159537531544 
2373	 0.292758919011494 
2374	 0.292332631207212 
2375	 0.291893664870331 
2376	 0.291458784574091 
2377	 0.290908543872308 
2378	 0.290425170820607 
2379	 0.289916569433415 
2380	 0.289355359334827 
2381	 0.288913861707799 
2382	 0.288380931574668 
2383	 0.287803943837784 
2384	 0.28729552750708 
2385	 0.286670932653479 
2386	 0.28609754111006 
2387	 0.285615947646621 
2388	 0.285064206713444 
2389	 0.28465515826697 
2390	 0.284229380702606 
2391	 0.283736096617614 
2392	 0.283359648141877 
2393	 0.282880470336329 
2394	 0.282355392145122 
2395	 0.281833090133597 
2396	 0.28125659951696 
2397	 0.280677027911735 
2398	 0.280101566879224 
2399	 0.279569893147482 
2400	 0.279052485741537 
2401	 0.278491508531168 
2402	 0.277945106320288 
2403	 0.277426207800613 
2404	 0.27684490613034 
2405	 0.276291976094192 
2406	 0.275722772413525 
2407	 0.275141807854739 
2408	 0.274621299129025 
2409	 0.274016549601392 
2410	 0.27341784041196 
2411	 0.272791567482027 
2412	 0.272179336308144 
2413	 0.271667623905338 
2414	 0.271151538528487 
2415	 0.270635787087449 
2416	 0.270084779757334 
2417	 0.269468086881979 
2418	 0.268896888189174 
2419	 0.268362801587377 
2420	 0.267777653583216 
2421	 0.267139088783628 
2422	 0.266538401095107 
2423	 0.265919732292754 
2424	 0.265302473152507 
2425	 0.26476202133731 
2426	 0.264200297326851 
2427	 0.263567613139951 
2428	 0.262961102553259 
2429	 0.262412510184019 
2430	 0.261777226501016 
2431	 0.261092662811474 
2432	 0.260508326150684 
2433	 0.259864074617651 
2434	 0.259306280102682 
2435	 0.25892512464469 
2436	 0.258377802701677 
2437	 0.257774504058988 
2438	 0.257235950681908 
2439	 0.256601261546382 
2440	 0.256026292634027 
2441	 0.255581624383702 
2442	 0.255072586274911 
2443	 0.254573243154156 
2444	 0.254009668053309 
2445	 0.253348886145207 
2446	 0.252725834540304 
2447	 0.252031514106066 
2448	 0.251448429584183 
2449	 0.251071729287531 
2450	 0.250518413793166 
2451	 0.249873922991968 
2452	 0.249242014895148 
2453	 0.24844492599433 
2454	 0.247859720640643 
2455	 0.247507188557941 
2456	 0.246966679131656 
2457	 0.246385357792241 
2458	 0.245838267552856 
2459	 0.245180874956808 
2460	 0.244502689964444 
2461	 0.243925693431028 
2462	 0.243309588799614 
2463	 0.242525104616713 
2464	 0.241982162724079 
2465	 0.241608611921421 
2466	 0.241132320232242 
2467	 0.240784945185831 
2468	 0.240253237465444 
2469	 0.239533512786555 
2470	 0.238992976587753 
2471	 0.238424833428858 
2472	 0.238066716686657 
2473	 0.237604401518858 
2474	 0.236946678691838 
2475	 0.2363371192745 
2476	 0.235671163142486 
2477	 0.2351837426627 
2478	 0.234734332064775 
2479	 0.234189380971051 
2480	 0.233763311124246 
2481	 0.233251960166245 
2482	 0.232698826519642 
2483	 0.232245014557542 
2484	 0.231771886485125 
2485	 0.231210497865161 
2486	 0.230778530149474 
2487	 0.230485366677278 
2488	 0.230190684607321 
2489	 0.22997985368557 
2490	 0.229490710394985 
2491	 0.228962711562642 
2492	 0.228523179421457 
2493	 0.227770221508045 
2494	 0.227285689198081 
2495	 0.226938501762888 
2496	 0.22643649806074 
2497	 0.226070749862464 
2498	 0.225536978688776 
2499	 0.225129895912602 
2500	 0.224886536483334 
