Wavelength	LMW_1500001.asd
350	 6.57639086335856E-02 
351	 6.49671258922076E-02 
352	 5.11475133613997E-02 
353	 0.038862972390555 
354	 4.99895749478427E-02 
355	 5.10357331220403E-02 
356	 4.59279932951838E-02 
357	 4.64751291174968E-02 
358	 0.055476609713586 
359	 5.58137710011065E-02 
360	 5.05267993018851E-02 
361	 0.054264835360507 
362	 5.46235140406337E-02 
363	 5.41091811622746E-02 
364	 5.43506430134867E-02 
365	 5.25890662671539E-02 
366	 5.26149172491407E-02 
367	 5.23881940676299E-02 
368	 4.99453683179164E-02 
369	 4.99835945287343E-02 
370	 5.07542130862263E-02 
371	 5.20082046299662E-02 
372	 5.42710562132632E-02 
373	 5.39748998999979E-02 
374	 5.29390172837156E-02 
375	 5.27951747724317E-02 
376	 5.37806883898532E-02 
377	 5.21066705341955E-02 
378	 5.11734658160021E-02 
379	 5.42618053519319E-02 
380	 5.49474611658119E-02 
381	 5.29920186792583E-02 
382	 5.07976703036984E-02 
383	 5.21093128182466E-02 
384	 5.32526737463467E-02 
385	 5.31845478349121E-02 
386	 5.24723414262487E-02 
387	 0.054111272896086 
388	 5.37414553212598E-02 
389	 5.26836210873372E-02 
390	 5.30549581890749E-02 
391	 5.10881895154539E-02 
392	 5.17931818725925E-02 
393	 5.48357680493379E-02 
394	 5.53404410784504E-02 
395	 5.43183161995504E-02 
396	 5.39173820668669E-02 
397	 5.49188251150372E-02 
398	 0.054758613057601 
399	 0.054876573125019 
400	 5.52833004963815E-02 
401	 5.54904950252893E-02 
402	 5.52356583861469E-02 
403	 5.49708180657661E-02 
404	 0.054582851954092 
405	 5.34114685942794E-02 
406	 0.053461519082389 
407	 5.50255940983806E-02 
408	 5.70052104225272E-02 
409	 5.57479409727506E-02 
410	 5.41476685792143E-02 
411	 5.37062785095414E-02 
412	 5.48565756687215E-02 
413	 5.59711630481175E-02 
414	 5.59670747529739E-02 
415	 5.51723816469852E-02 
416	 5.55554400575459E-02 
417	 5.50236981247201E-02 
418	 5.49926412875809E-02 
419	 5.64293089756447E-02 
420	 5.59165427827374E-02 
421	 0.055820532583069 
422	 5.64515349168409E-02 
423	 5.67365491024788E-02 
424	 5.65042762351948E-02 
425	 5.61955394196793E-02 
426	 5.61281208423974E-02 
427	 5.62185739033242E-02 
428	 5.68679056719907E-02 
429	 5.72328303047373E-02 
430	 5.65572204130621E-02 
431	 5.65100867666276E-02 
432	 5.67141266816982E-02 
433	 5.69156021848793E-02 
434	 5.70893068201668E-02 
435	 5.72815147188311E-02 
436	 5.72852079032097E-02 
437	 5.70355941871054E-02 
438	 5.68932187211829E-02 
439	 5.71306634909853E-02 
440	 5.75292333118485E-02 
441	 5.76795273003699E-02 
442	 5.79012519459731E-02 
443	 0.058155940693299 
444	 0.058353136834123 
445	 5.83763294138643E-02 
446	 5.83251012975965E-02 
447	 5.83481201194441E-02 
448	 5.85253258839629E-02 
449	 5.85621528642024E-02 
450	 5.89398444156347E-02 
451	 5.94532253171652E-02 
452	 5.93616246949398E-02 
453	 5.93787597113628E-02 
454	 5.93831575858833E-02 
455	 5.93171668130598E-02 
456	 5.96849361334865E-02 
457	 5.98470135340339E-02 
458	 5.97706720750633E-02 
459	 5.97482570852916E-02 
460	 6.02270884639114E-02 
461	 6.03892066625108E-02 
462	 6.01164925397831E-02 
463	 6.04166368119425E-02 
464	 6.04944317769004E-02 
465	 6.05828405126723E-02 
466	 6.09920558177176E-02 
467	 6.12184786899141E-02 
468	 6.13108611710137E-02 
469	 6.13580585169993E-02 
470	 6.14698915504751E-02 
471	 6.16881759032048E-02 
472	 6.19595883746143E-02 
473	 6.22074797340634E-02 
474	 6.23430744544292E-02 
475	 6.24420672908102E-02 
476	 6.25156636643185E-02 
477	 6.25574748855066E-02 
478	 6.26103824803021E-02 
479	 6.28336994149636E-02 
480	 6.31944783615002E-02 
481	 6.33884160242007E-02 
482	 6.36961688740187E-02 
483	 6.39026361763433E-02 
484	 6.38270827074711E-02 
485	 6.39679400636519E-02 
486	 6.41117337873885E-02 
487	 6.41752290725373E-02 
488	 6.42078126674859E-02 
489	 6.43565379152541E-02 
490	 6.45751728879175E-02 
491	 6.47970569977294E-02 
492	 6.50271610553869E-02 
493	 6.50295157218499E-02 
494	 6.49911848356937E-02 
495	 6.52268172036645E-02 
496	 6.53321539742344E-02 
497	 6.53272193764944E-02 
498	 6.53467189446233E-02 
499	 6.56365135841884E-02 
500	 6.58602123726501E-02 
501	 6.59522134928331E-02 
502	 6.59751980411527E-02 
503	 6.61710864569976E-02 
504	 6.62056089276839E-02 
505	 6.61471165773347E-02 
506	 6.64166085627004E-02 
507	 6.65910068770346E-02 
508	 6.65846530560806E-02 
509	 6.64816577170072E-02 
510	 6.66360147733622E-02 
511	 6.67381269615633E-02 
512	 6.67278038222994E-02 
513	 6.66926192965014E-02 
514	 6.67351072876044E-02 
515	 6.68966372871314E-02 
516	 0.067135098149749 
517	 6.72994362420209E-02 
518	 6.73362395147169E-02 
519	 6.72529203823986E-02 
520	 6.71358385582177E-02 
521	 6.73112569907446E-02 
522	 6.74084878866086E-02 
523	 6.73822976551865E-02 
524	 6.75589083034225E-02 
525	 6.75795059157215E-02 
526	 6.75135070953117E-02 
527	 6.75148223325143E-02 
528	 6.76939337744941E-02 
529	 6.78803859367904E-02 
530	 6.79686038111851E-02 
531	 6.79192159874889E-02 
532	 6.78713713573979E-02 
533	 6.79567121822533E-02 
534	 6.81597051174075E-02 
535	 6.81675908488097E-02 
536	 6.82097220905227E-02 
537	 6.83005156933285E-02 
538	 0.068371065371859 
539	 6.83714675778073E-02 
540	 6.84112390628918E-02 
541	 6.84962976850557E-02 
542	 6.84794616958384E-02 
543	 6.84754764674597E-02 
544	 6.85403426146219E-02 
545	 6.86719703001212E-02 
546	 6.87149062382387E-02 
547	 6.87314259526133E-02 
548	 6.87767516439187E-02 
549	 6.88837166383843E-02 
550	 6.88563745469026E-02 
551	 6.88139909722508E-02 
552	 6.88859130744197E-02 
553	 6.91036137767081E-02 
554	 6.91478977740635E-02 
555	 6.90642763377784E-02 
556	 6.90853941348155E-02 
557	 6.91862706858661E-02 
558	 6.92106416983097E-02 
559	 6.91495848258213E-02 
560	 6.92861409517744E-02 
561	 6.93478091930121E-02 
562	 6.93231196346376E-02 
563	 6.92982922564657E-02 
564	 6.93655219349426E-02 
565	 6.94023302642849E-02 
566	 6.94043891996322E-02 
567	 6.95104762109062E-02 
568	 6.95876353587474E-02 
569	 6.96315473477765E-02 
570	 6.96573781725987E-02 
571	 6.96248448069767E-02 
572	 6.96545603485084E-02 
573	 6.97290393143194E-02 
574	 6.97380202271196E-02 
575	 6.97450727178688E-02 
576	 6.97711991818614E-02 
577	 6.97961375873241E-02 
578	 6.97046207671367E-02 
579	 6.97159099949956E-02 
580	 0.069772318453072 
581	 6.97207749467745E-02 
582	 6.96668015129322E-02 
583	 6.96467227649841E-02 
584	 6.96285072579366E-02 
585	 6.94857095535685E-02 
586	 6.95225448514523E-02 
587	 6.95972456461593E-02 
588	 6.95276880431487E-02 
589	 6.95745528656005E-02 
590	 6.96177680958839E-02 
591	 6.95957699921304E-02 
592	 6.95174057510794E-02 
593	 6.94841741458654E-02 
594	 6.94700820287188E-02 
595	 0.069450492431534 
596	 6.94843245517806E-02 
597	 0.069503522756044 
598	 6.95215573094413E-02 
599	 6.95878372365056E-02 
600	 6.96499654103865E-02 
601	 6.96611026960793E-02 
602	 6.96043306673075E-02 
603	 6.95011109681186E-02 
604	 6.94943460106486E-02 
605	 6.95210513089567E-02 
606	 6.94763992923014E-02 
607	 6.94865509975744E-02 
608	 6.95314817545168E-02 
609	 6.95810570428584E-02 
610	 6.96044281714813E-02 
611	 6.96077860157172E-02 
612	 6.96311415076812E-02 
613	 6.96898888646035E-02 
614	 6.96891775139975E-02 
615	 0.069682004993389 
616	 0.069681189726484 
617	 6.96748537804973E-02 
618	 6.97196724418896E-02 
619	 6.97625408503767E-02 
620	 6.97563996292026E-02 
621	 6.96877851926693E-02 
622	 6.96948015580342E-02 
623	 6.97540988873784E-02 
624	 6.97810861715292E-02 
625	 6.97935840091514E-02 
626	 6.98041300960018E-02 
627	 6.98183484272446E-02 
628	 6.98317355267356E-02 
629	 6.98865760856064E-02 
630	 6.99123907543332E-02 
631	 0.069863121980241 
632	 6.99132671578117E-02 
633	 6.99421853182814E-02 
634	 6.99373710349443E-02 
635	 6.99751203190303E-02 
636	 6.99946004059861E-02 
637	 7.00301561951626E-02 
638	 7.00867475381737E-02 
639	 7.00514611320108E-02 
640	 7.00460774693329E-02 
641	 7.00985386080599E-02 
642	 7.01786731519138E-02 
643	 0.070184500110008 
644	 7.01831748615462E-02 
645	 7.02183354915678E-02 
646	 7.02759190242547E-02 
647	 7.03028813260941E-02 
648	 0.070319969670893 
649	 7.03619256734597E-02 
650	 7.04231865692278E-02 
651	 7.04393128153312E-02 
652	 0.070436010928024 
653	 7.05105435087354E-02 
654	 7.05696617703966E-02 
655	 7.05856489648242E-02 
656	 0.070576355627008 
657	 7.06424249274819E-02 
658	 7.07089660771036E-02 
659	 7.07598175452158E-02 
660	 7.08021009075997E-02 
661	 7.08002204377201E-02 
662	 7.08063495672895E-02 
663	 7.08416248012674E-02 
664	 7.08711020781441E-02 
665	 7.08941485824779E-02 
666	 7.09126911550436E-02 
667	 7.09340872636271E-02 
668	 7.09802126861637E-02 
669	 0.071019006781902 
670	 7.10527097175226E-02 
671	 7.11085545287109E-02 
672	 7.11136175904119E-02 
673	 7.11289434554995E-02 
674	 7.11909635092495E-02 
675	 7.12300442655158E-02 
676	 7.12040044752405E-02 
677	 7.11752076911941E-02 
678	 0.071233537379271 
679	 7.12924459571478E-02 
680	 7.13087636677737E-02 
681	 7.13057355281032E-02 
682	 7.13864915980265E-02 
683	 7.14275581757625E-02 
684	 7.14402530942842E-02 
685	 7.14625129707592E-02 
686	 7.14960573867248E-02 
687	 7.14870638394491E-02 
688	 7.14776493079588E-02 
689	 7.15612791614667E-02 
690	 7.15768726521624E-02 
691	 7.15471907318926E-02 
692	 7.15233438401731E-02 
693	 7.15597519950667E-02 
694	 7.15759187511765E-02 
695	 7.15785335850947E-02 
696	 7.16027054907883E-02 
697	 7.16525618679215E-02 
698	 7.16753277670454E-02 
699	 0.071678097020686 
700	 7.17297994562863E-02 
701	 7.17199889833928E-02 
702	 7.16934642921727E-02 
703	 7.16971373080599E-02 
704	 7.16854648102481E-02 
705	 7.16864324089923E-02 
706	 7.16911691867003E-02 
707	 0.071680672825288 
708	 7.17216558127354E-02 
709	 7.17537442599607E-02 
710	 7.17494716654676E-02 
711	 7.17476937587154E-02 
712	 7.17431300462864E-02 
713	 7.17411238152414E-02 
714	 0.071746469922908 
715	 7.17530236586976E-02 
716	 7.17807970400604E-02 
717	 7.18015516385821E-02 
718	 7.17618498463379E-02 
719	 0.071752211646735 
720	 7.17500779831025E-02 
721	 7.17287372228441E-02 
722	 7.16806402226357E-02 
723	 0.071693549383154 
724	 7.17257171823136E-02 
725	 7.17091816457062E-02 
726	 7.16966676317742E-02 
727	 7.16930045469843E-02 
728	 7.16903223673905E-02 
729	 7.16730254994329E-02 
730	 7.16795838580302E-02 
731	 0.071670242098365 
732	 7.16244382227667E-02 
733	 7.15965571402007E-02 
734	 7.16064121438271E-02 
735	 7.16035814409449E-02 
736	 7.15357014912453E-02 
737	 7.15406035212565E-02 
738	 7.15538290013523E-02 
739	 0.07154817392676 
740	 7.15524025879689E-02 
741	 7.15209476363762E-02 
742	 7.14895648548446E-02 
743	 7.14812956003372E-02 
744	 7.14390796530005E-02 
745	 7.13580854792607E-02 
746	 7.13091324478957E-02 
747	 7.13627584593853E-02 
748	 7.13125236492005E-02 
749	 7.12714907809072E-02 
750	 7.12829347580185E-02 
751	 7.12718671228675E-02 
752	 7.12445328149644E-02 
753	 7.12162277244718E-02 
754	 7.11996439079203E-02 
755	 7.11904154141259E-02 
756	 7.11726755098408E-02 
757	 7.11460456084827E-02 
758	 7.11192500171977E-02 
759	 7.10983228479221E-02 
760	 0.071075214399269 
761	 7.10497610970236E-02 
762	 7.10331871166765E-02 
763	 0.071035009364245 
764	 7.10192297429853E-02 
765	 7.09699141818644E-02 
766	 7.09612689946703E-02 
767	 7.09527135643032E-02 
768	 7.09350387466921E-02 
769	 7.09142067672036E-02 
770	 7.08831178106046E-02 
771	 7.08631852304691E-02 
772	 7.08524859223217E-02 
773	 0.070819675158386 
774	 7.07932711000915E-02 
775	 7.07775739219352E-02 
776	 7.07675712192968E-02 
777	 7.07489771352405E-02 
778	 7.07289344504648E-02 
779	 7.07115907363271E-02 
780	 7.06980375448151E-02 
781	 7.06792062483385E-02 
782	 7.06602619223314E-02 
783	 7.06308515301877E-02 
784	 0.07056782928215 
785	 0.070571926810486 
786	 7.05496892229193E-02 
787	 7.04595596208465E-02 
788	 7.04768554203218E-02 
789	 7.05040662539224E-02 
790	 7.04877328224709E-02 
791	 7.04134523987652E-02 
792	 0.070383039579511 
793	 7.03525747481338E-02 
794	 7.03204377673405E-02 
795	 7.03226517061468E-02 
796	 7.03044710627356E-02 
797	 7.02803779275042E-02 
798	 7.02643441604751E-02 
799	 7.02485196919123E-02 
800	 7.02365919227882E-02 
801	 7.02107732222181E-02 
802	 7.01607739305677E-02 
803	 7.01253064090149E-02 
804	 7.01132900829049E-02 
805	 7.01033299618525E-02 
806	 7.00646668097464E-02 
807	 7.00629209136061E-02 
808	 7.00460491266619E-02 
809	 6.99968550460822E-02 
810	 6.99596413150842E-02 
811	 6.99623203286451E-02 
812	 6.99460494578744E-02 
813	 6.98788552226365E-02 
814	 6.98539781379038E-02 
815	 6.98513152785543E-02 
816	 6.98520365806069E-02 
817	 6.98373121003978E-02 
818	 6.97984875043378E-02 
819	 6.97769917954254E-02 
820	 6.97623044068588E-02 
821	 6.97062867984705E-02 
822	 6.96985799865469E-02 
823	 6.96896447547342E-02 
824	 0.069652433717363 
825	 6.96313630391229E-02 
826	 6.96126789717985E-02 
827	 6.95820280123598E-02 
828	 6.95403946075933E-02 
829	 6.95398919571382E-02 
830	 6.95344369844282E-02 
831	 6.95111911564742E-02 
832	 6.94815926499938E-02 
833	 6.94934544279063E-02 
834	 6.94747921323426E-02 
835	 6.94081287106625E-02 
836	 6.93410214927321E-02 
837	 6.93584963609447E-02 
838	 6.93832478829979E-02 
839	 0.069357880375898 
840	 6.93083670785232E-02 
841	 6.92514454629137E-02 
842	 6.92253942544033E-02 
843	 6.92428518578883E-02 
844	 6.92262950349182E-02 
845	 6.92200838439652E-02 
846	 6.91866805332785E-02 
847	 6.90924271102449E-02 
848	 6.91451112124682E-02 
849	 6.91589153222964E-02 
850	 6.90950729407669E-02 
851	 6.90610179829908E-02 
852	 6.90771037440925E-02 
853	 6.90820585581491E-02 
854	 6.90532186734874E-02 
855	 0.069042409773726 
856	 6.90531439547216E-02 
857	 6.90487683300554E-02 
858	 6.90085325728806E-02 
859	 6.89759841610322E-02 
860	 6.89551290557184E-02 
861	 6.89532834360112E-02 
862	 6.89616875456994E-02 
863	 0.068906416697307 
864	 6.88907639448513E-02 
865	 6.89057254619078E-02 
866	 0.068879344337566 
867	 6.88542246074028E-02 
868	 6.88331950833253E-02 
869	 6.88237347137523E-02 
870	 6.88352783627115E-02 
871	 0.06879189190624 
872	 6.87976010152779E-02 
873	 6.88572837199166E-02 
874	 6.87758768573469E-02 
875	 6.87233188250861E-02 
876	 0.068689828195284 
877	 6.86559973107893E-02 
878	 0.068703999275282 
879	 6.87055780119266E-02 
880	 6.86830952166214E-02 
881	 0.068696001092947 
882	 6.87128978935471E-02 
883	 6.87247588435067E-02 
884	 6.87124013645832E-02 
885	 6.86682737909281E-02 
886	 6.86819958374116E-02 
887	 6.86647045982457E-02 
888	 6.86186133503014E-02 
889	 6.86260032629235E-02 
890	 6.86475792260499E-02 
891	 6.86446901693089E-02 
892	 6.86141673004255E-02 
893	 6.85951607470199E-02 
894	 6.85562535537619E-02 
895	 6.85380902190322E-02 
896	 6.85587897440065E-02 
897	 6.85741113293744E-02 
898	 6.85415587692964E-02 
899	 0.068510296932397 
900	 6.85219550332058E-02 
901	 6.85283012873075E-02 
902	 6.85396040317831E-02 
903	 6.85465466334899E-02 
904	 6.85390916638428E-02 
905	 6.85277086241823E-02 
906	 6.84854778397899E-02 
907	 6.84683522027834E-02 
908	 0.068529905210505 
909	 6.85083554155953E-02 
910	 6.84855211003239E-02 
911	 6.84910593313797E-02 
912	 6.85055657573646E-02 
913	 0.06849246812799 
914	 6.84765065574282E-02 
915	 6.84592291235675E-02 
916	 6.84207800558915E-02 
917	 6.83835049022121E-02 
918	 6.83993564807082E-02 
919	 6.84300537956295E-02 
920	 6.83542411178566E-02 
921	 6.84122287756916E-02 
922	 6.84717906396815E-02 
923	 6.84399699220326E-02 
924	 6.83808108943183E-02 
925	 6.83989510213365E-02 
926	 6.84381305410423E-02 
927	 6.84398250363516E-02 
928	 6.84144954440066E-02 
929	 6.83966157843836E-02 
930	 6.83940840252228E-02 
931	 6.84009452621565E-02 
932	 0.068397379732005 
933	 6.84607681873843E-02 
934	 6.84704332531337E-02 
935	 0.068362265559245 
936	 6.83992332607228E-02 
937	 0.06843063419314 
938	 6.84275667187556E-02 
939	 6.84029143704753E-02 
940	 6.83602670938015E-02 
941	 6.83869516556331E-02 
942	 6.84417721354397E-02 
943	 6.84458917009833E-02 
944	 6.84031675181554E-02 
945	 6.83563790620312E-02 
946	 6.83341683589382E-02 
947	 6.83492460167125E-02 
948	 6.83983067638053E-02 
949	 6.83834176159886E-02 
950	 6.83542128567153E-02 
951	 6.83975307281196E-02 
952	 6.83672008848927E-02 
953	 6.83630811317217E-02 
954	 6.84003015721439E-02 
955	 6.84343061035133E-02 
956	 0.068424673260825 
957	 6.84320920802406E-02 
958	 6.84352081532555E-02 
959	 6.83917275681526E-02 
960	 6.84624043106891E-02 
961	 0.0684872417055 
962	 6.84895792646455E-02 
963	 6.85720916429646E-02 
964	 0.068476670135489 
965	 6.84354023256211E-02 
966	 0.068455917802049 
967	 0.068407393680007 
968	 6.84516902142324E-02 
969	 6.84859608904406E-02 
970	 6.84522575506497E-02 
971	 6.83630503919623E-02 
972	 6.83406063299584E-02 
973	 6.83607784179379E-02 
974	 6.83453614202612E-02 
975	 6.82515103036993E-02 
976	 6.83973792085456E-02 
977	 6.84994648306829E-02 
978	 6.84645610939415E-02 
979	 6.83736645704258E-02 
980	 6.83126680305554E-02 
981	 6.82847558576652E-02 
982	 6.82401387184211E-02 
983	 6.81525221328528E-02 
984	 6.82726510604888E-02 
985	 6.83616465319872E-02 
986	 6.82765452159391E-02 
987	 6.80810710955207E-02 
988	 6.83935000367678E-02 
989	 6.85430206641106E-02 
990	 6.84350517581046E-02 
991	 6.83460681643486E-02 
992	 6.85299421942638E-02 
993	 6.84627608323361E-02 
994	 6.83188931111604E-02 
995	 6.84478748639309E-02 
996	 6.84487563628651E-02 
997	 6.84648577135616E-02 
998	 6.85111630078401E-02 
999	 6.85308537688224E-02 
1000	 6.83982205573055E-02 
1001	 6.77282997983688E-02 
1002	 6.76863197311435E-02 
1003	 6.76564540499242E-02 
1004	 6.76575644841162E-02 
1005	 6.76695957526678E-02 
1006	 6.76696437467126E-02 
1007	 6.76984304824421E-02 
1008	 6.77296492432466E-02 
1009	 6.76823182250522E-02 
1010	 6.76162663861888E-02 
1011	 6.75318771485908E-02 
1012	 6.74671075503277E-02 
1013	 0.067492340135559 
1014	 6.75092326242165E-02 
1015	 6.75010884705575E-02 
1016	 6.75063111235652E-02 
1017	 6.75334451647428E-02 
1018	 6.75316921304456E-02 
1019	 6.75609299488761E-02 
1020	 6.76661463505544E-02 
1021	 0.067712832789146 
1022	 6.76428410838759E-02 
1023	 6.76304297921944E-02 
1024	 6.75823171296159E-02 
1025	 6.74997300708186E-02 
1026	 0.067493615460642 
1027	 6.74407250536896E-02 
1028	 6.74040426387775E-02 
1029	 6.74205377616576E-02 
1030	 6.73711355207393E-02 
1031	 6.73333710941645E-02 
1032	 0.067289090751871 
1033	 6.72651898385853E-02 
1034	 6.72240229539681E-02 
1035	 6.72255773414926E-02 
1036	 6.72284335529594E-02 
1037	 6.72221947521653E-02 
1038	 6.72446582206338E-02 
1039	 6.72136450695319E-02 
1040	 6.71880869251179E-02 
1041	 6.72231916673136E-02 
1042	 6.72053744985398E-02 
1043	 0.067176328299759 
1044	 6.71505336175495E-02 
1045	 6.71389067743743E-02 
1046	 6.70647022096258E-02 
1047	 6.70226629881712E-02 
1048	 6.70344121944074E-02 
1049	 6.70679662859997E-02 
1050	 6.71043569831279E-02 
1051	 6.71226155722998E-02 
1052	 0.067107353889974 
1053	 6.70747088876565E-02 
1054	 6.71134708052947E-02 
1055	 6.71644891865588E-02 
1056	 6.71566813727066E-02 
1057	 6.71547209838804E-02 
1058	 6.71327352685706E-02 
1059	 6.71319411751201E-02 
1060	 6.70988530609852E-02 
1061	 0.067160396645076 
1062	 6.72247357246638E-02 
1063	 6.72495748770737E-02 
1064	 6.72700006977143E-02 
1065	 6.72732666978841E-02 
1066	 6.73136864217948E-02 
1067	 6.73761052694829E-02 
1068	 6.73932666010048E-02 
1069	 0.067410565417952 
1070	 6.74179948182392E-02 
1071	 6.73836004238598E-02 
1072	 6.73650134532654E-02 
1073	 6.73448953322239E-02 
1074	 6.73562808472127E-02 
1075	 6.73719336721734E-02 
1076	 6.74244205989771E-02 
1077	 6.74698600928995E-02 
1078	 6.74792138745432E-02 
1079	 6.74717609033895E-02 
1080	 6.74485996248628E-02 
1081	 6.74517348448359E-02 
1082	 6.74794860185935E-02 
1083	 6.74979303034124E-02 
1084	 6.75312445158015E-02 
1085	 6.75338528964042E-02 
1086	 6.75293138537004E-02 
1087	 6.75155635126228E-02 
1088	 6.74695576850744E-02 
1089	 0.067448298033041 
1090	 6.74573463746852E-02 
1091	 6.74614115970018E-02 
1092	 6.74756327276719E-02 
1093	 6.74757970010534E-02 
1094	 6.74581605420619E-02 
1095	 6.74279270450984E-02 
1096	 6.74273999672621E-02 
1097	 6.74410167734078E-02 
1098	 6.74485812275076E-02 
1099	 6.74888380745033E-02 
1100	 6.74848092505147E-02 
1101	 0.067437182576426 
1102	 6.74270775425836E-02 
1103	 6.74270155036108E-02 
1104	 6.74035429088005E-02 
1105	 6.73973488839065E-02 
1106	 6.73994948105802E-02 
1107	 6.73747886792506E-02 
1108	 6.73367687308909E-02 
1109	 6.72947812997626E-02 
1110	 6.72775193958176E-02 
1111	 6.72787237651605E-02 
1112	 6.73003851302367E-02 
1113	 6.72958675044627E-02 
1114	 6.73197581320977E-02 
1115	 6.73078835986137E-02 
1116	 6.72359068904493E-02 
1117	 6.72223260429778E-02 
1118	 6.72479833484203E-02 
1119	 6.72295854817694E-02 
1120	 6.72286161864258E-02 
1121	 6.72208229396742E-02 
1122	 6.71780087027532E-02 
1123	 6.71608331362836E-02 
1124	 6.71354235322012E-02 
1125	 6.71116640807075E-02 
1126	 6.70847020052456E-02 
1127	 6.70440067930345E-02 
1128	 0.067027469254271 
1129	 6.70249479480485E-02 
1130	 6.70160003050086E-02 
1131	 6.70246944599677E-02 
1132	 6.70186066651553E-02 
1133	 6.70008425179039E-02 
1134	 6.69897477676529E-02 
1135	 6.69848706492389E-02 
1136	 6.69591496027307E-02 
1137	 6.69446352673825E-02 
1138	 6.69406462949982E-02 
1139	 6.69397336346483E-02 
1140	 6.69539964173593E-02 
1141	 6.69450388938173E-02 
1142	 6.69278268842035E-02 
1143	 6.69147501598803E-02 
1144	 6.68917940799607E-02 
1145	 0.066879040819151 
1146	 6.68783472484277E-02 
1147	 6.68658896399864E-02 
1148	 6.68518125259987E-02 
1149	 6.68285715364493E-02 
1150	 6.67895535525423E-02 
1151	 6.67652709520223E-02 
1152	 6.67346000853318E-02 
1153	 6.67097683696429E-02 
1154	 6.67043881722393E-02 
1155	 6.67257191736291E-02 
1156	 6.67242745046474E-02 
1157	 6.67299380527322E-02 
1158	 0.066719842810293 
1159	 6.66825561673111E-02 
1160	 6.66681738449222E-02 
1161	 6.66630277745919E-02 
1162	 6.66548592438776E-02 
1163	 6.66502944198352E-02 
1164	 6.66511905191491E-02 
1165	 6.66487000221324E-02 
1166	 6.66556248648031E-02 
1167	 6.66708928626034E-02 
1168	 6.66761990931273E-02 
1169	 6.66679925055748E-02 
1170	 6.66457465976609E-02 
1171	 6.66267441438855E-02 
1172	 6.65882735991753E-02 
1173	 0.066577808306004 
1174	 6.65830682167917E-02 
1175	 6.65801772254926E-02 
1176	 6.65913280668786E-02 
1177	 0.066590702096214 
1178	 6.65705263422768E-02 
1179	 6.65682937563334E-02 
1180	 6.65829551129379E-02 
1181	 6.65833215960805E-02 
1182	 6.65866914625991E-02 
1183	 6.65777994675382E-02 
1184	 6.65820346507072E-02 
1185	 6.65747440737148E-02 
1186	 6.65900615348139E-02 
1187	 6.66358044262769E-02 
1188	 6.66498029037124E-02 
1189	 6.66572338279451E-02 
1190	 6.66618711799101E-02 
1191	 6.66479793641915E-02 
1192	 6.66457057985666E-02 
1193	 6.66498071462499E-02 
1194	 6.66516603743063E-02 
1195	 6.66484674474956E-02 
1196	 0.066653875593944 
1197	 6.66661372544118E-02 
1198	 6.66761266233149E-02 
1199	 6.66877618330875E-02 
1200	 6.67068032875979E-02 
1201	 6.67158490521477E-02 
1202	 6.67188218205073E-02 
1203	 0.06672539569906 
1204	 6.67255358364953E-02 
1205	 6.67381957844612E-02 
1206	 0.066763262687518 
1207	 6.67754747981343E-02 
1208	 6.67859789381403E-02 
1209	 6.67995993263372E-02 
1210	 6.68035061941668E-02 
1211	 6.68159105597023E-02 
1212	 6.68432702765678E-02 
1213	 6.68608935594875E-02 
1214	 6.68807877462719E-02 
1215	 6.68906131976753E-02 
1216	 6.68939096097515E-02 
1217	 6.68848258569283E-02 
1218	 6.68906130423303E-02 
1219	 6.68931004219006E-02 
1220	 6.69026071727628E-02 
1221	 6.69285641057633E-02 
1222	 6.69385413875187E-02 
1223	 6.69464821479335E-02 
1224	 6.69450790276042E-02 
1225	 6.69223734058043E-02 
1226	 6.69229337731291E-02 
1227	 6.69281681494973E-02 
1228	 6.69348324620773E-02 
1229	 6.69624195940283E-02 
1230	 6.69775848200305E-02 
1231	 6.69825240321649E-02 
1232	 0.066989722038301 
1233	 6.69962132225511E-02 
1234	 0.066997200108111 
1235	 6.70112334860184E-02 
1236	 0.067039758969882 
1237	 6.70421033734471E-02 
1238	 6.70371509413664E-02 
1239	 6.70393132800441E-02 
1240	 0.06702379858663 
1241	 6.70213805092722E-02 
1242	 6.70313071656158E-02 
1243	 6.70432778412179E-02 
1244	 0.067056196586896 
1245	 0.067069131102291 
1246	 6.70972817929952E-02 
1247	 6.71135564730084E-02 
1248	 6.71228764239506E-02 
1249	 6.71268780737745E-02 
1250	 0.067127911577199 
1251	 6.71259435490799E-02 
1252	 6.71247144602912E-02 
1253	 6.71186578153186E-02 
1254	 6.71180717410461E-02 
1255	 6.71205883619078E-02 
1256	 6.71216079517628E-02 
1257	 6.71238526207357E-02 
1258	 6.71243969434266E-02 
1259	 6.71222505296829E-02 
1260	 6.71240421907864E-02 
1261	 6.71349543441546E-02 
1262	 6.71326059309882E-02 
1263	 6.71202323273995E-02 
1264	 6.71140621938524E-02 
1265	 6.71024102684776E-02 
1266	 6.70913486259364E-02 
1267	 6.70757474713102E-02 
1268	 6.70788428211656E-02 
1269	 6.70840025687186E-02 
1270	 6.70884074676289E-02 
1271	 6.71028858284302E-02 
1272	 6.71398776896734E-02 
1273	 6.71505772124038E-02 
1274	 6.71479382804906E-02 
1275	 6.71569153751353E-02 
1276	 6.71538079202486E-02 
1277	 6.71703981857284E-02 
1278	 6.72062757053957E-02 
1279	 6.72357242489592E-02 
1280	 6.72698609825192E-02 
1281	 6.73038881505133E-02 
1282	 6.73442627790263E-02 
1283	 6.73740289305106E-02 
1284	 6.73940820654923E-02 
1285	 6.74182124123335E-02 
1286	 6.74587309410505E-02 
1287	 0.067500638888314 
1288	 6.75457506605241E-02 
1289	 6.76110742670701E-02 
1290	 6.76660650290021E-02 
1291	 6.77096103711791E-02 
1292	 6.77617322006399E-02 
1293	 6.78298562726347E-02 
1294	 6.78752345758578E-02 
1295	 6.79045431404062E-02 
1296	 6.79473368764491E-02 
1297	 0.067986617094709 
1298	 6.80268799648142E-02 
1299	 6.80671002149452E-02 
1300	 0.06811966369139 
1301	 6.81822920700439E-02 
1302	 6.82336918476019E-02 
1303	 6.82908667453639E-02 
1304	 6.83494693721587E-02 
1305	 6.83841716638355E-02 
1306	 6.84321551489378E-02 
1307	 6.84564865871633E-02 
1308	 6.84576504874285E-02 
1309	 6.84683672584094E-02 
1310	 6.84533710701005E-02 
1311	 0.068466478355284 
1312	 6.85036241409322E-02 
1313	 6.85237144060704E-02 
1314	 6.85515075778434E-02 
1315	 6.85591519489653E-02 
1316	 0.068544268612336 
1317	 6.85456789095709E-02 
1318	 6.85480828341683E-02 
1319	 6.85464108487112E-02 
1320	 6.85516367132325E-02 
1321	 6.85503811875655E-02 
1322	 6.85437409689479E-02 
1323	 6.85256217884335E-02 
1324	 6.85194474917992E-02 
1325	 6.85253312268266E-02 
1326	 6.85222638776785E-02 
1327	 6.85309908400205E-02 
1328	 6.85308014718218E-02 
1329	 6.85141020188112E-02 
1330	 0.068501342946827 
1331	 6.84850710319534E-02 
1332	 6.84607425327714E-02 
1333	 6.84242984080326E-02 
1334	 6.84125198640448E-02 
1335	 6.84056143915187E-02 
1336	 6.83978111845246E-02 
1337	 6.84143170822621E-02 
1338	 6.84042638788813E-02 
1339	 6.83680275953547E-02 
1340	 0.068352236474946 
1341	 6.83384652045596E-02 
1342	 6.83253668114596E-02 
1343	 6.83178976129481E-02 
1344	 6.83196582429823E-02 
1345	 6.83084718146082E-02 
1346	 6.82886952389038E-02 
1347	 6.82680877146864E-02 
1348	 6.82429311974609E-02 
1349	 6.82217015754978E-02 
1350	 6.81954382687099E-02 
1351	 6.81556118968209E-02 
1352	 6.81047732862781E-02 
1353	 0.068062442296887 
1354	 6.80100739968329E-02 
1355	 6.79649469861339E-02 
1356	 6.79246466084777E-02 
1357	 6.78893108188697E-02 
1358	 6.78483646003136E-02 
1359	 6.78228746629172E-02 
1360	 6.78196875912145E-02 
1361	 6.78045487797727E-02 
1362	 0.067780364655568 
1363	 6.77729159334105E-02 
1364	 6.77656232169006E-02 
1365	 0.067769707464879 
1366	 6.77958871790139E-02 
1367	 6.78176016547491E-02 
1368	 6.78327633241803E-02 
1369	 6.78449821871547E-02 
1370	 6.78441445695863E-02 
1371	 6.78541691633184E-02 
1372	 6.78695183819023E-02 
1373	 6.78685376443347E-02 
1374	 6.78588716193486E-02 
1375	 6.78440986083325E-02 
1376	 6.78190685618154E-02 
1377	 6.77803010124085E-02 
1378	 6.77401905486082E-02 
1379	 6.76880434292794E-02 
1380	 6.76479183471185E-02 
1381	 0.067592222792451 
1382	 6.75647881120287E-02 
1383	 6.75613272348355E-02 
1384	 6.75527911213967E-02 
1385	 6.75628439914426E-02 
1386	 0.067563424188014 
1387	 0.06756254519936 
1388	 6.75564419958036E-02 
1389	 6.75423602653308E-02 
1390	 6.75316139345545E-02 
1391	 6.75289243021956E-02 
1392	 6.75197498892145E-02 
1393	 6.75155669398282E-02 
1394	 6.75112939645884E-02 
1395	 6.74898633746796E-02 
1396	 6.74628987162335E-02 
1397	 6.74510438604798E-02 
1398	 6.74421341324911E-02 
1399	 6.74372317503338E-02 
1400	 6.74492378831762E-02 
1401	 6.74470481594546E-02 
1402	 6.74314551173908E-02 
1403	 6.74362262831559E-02 
1404	 6.74428501064883E-02 
1405	 6.74544919134141E-02 
1406	 0.067489943462487 
1407	 6.75029056089937E-02 
1408	 6.75050811491774E-02 
1409	 0.067511355182575 
1410	 6.75013638832545E-02 
1411	 6.75115607134013E-02 
1412	 6.75298353888948E-02 
1413	 6.75594330403677E-02 
1414	 6.75878815634826E-02 
1415	 6.76149447207696E-02 
1416	 6.76337387561897E-02 
1417	 0.067635552867596 
1418	 6.76474280429657E-02 
1419	 6.76579207713977E-02 
1420	 6.76664240396104E-02 
1421	 6.76890380377698E-02 
1422	 6.77208334550233E-02 
1423	 6.77451956940804E-02 
1424	 6.77584645557679E-02 
1425	 6.77684156346665E-02 
1426	 6.77766602427469E-02 
1427	 6.77642280386225E-02 
1428	 6.77782839667404E-02 
1429	 6.78051880413272E-02 
1430	 6.78294312813588E-02 
1431	 6.78703845888532E-02 
1432	 6.78899155694838E-02 
1433	 6.78955500420137E-02 
1434	 6.79166908621584E-02 
1435	 6.79315206682166E-02 
1436	 0.06795308107942 
1437	 6.79949338752533E-02 
1438	 6.80209061853296E-02 
1439	 6.80348315756667E-02 
1440	 6.80612230427437E-02 
1441	 6.80712051478989E-02 
1442	 6.80693960912211E-02 
1443	 6.80880405585302E-02 
1444	 6.81030829518045E-02 
1445	 0.068118186751698 
1446	 6.81424567719937E-02 
1447	 6.81617235082164E-02 
1448	 6.81753369646657E-02 
1449	 6.81852596629886E-02 
1450	 6.82038621020653E-02 
1451	 6.82209834726166E-02 
1452	 6.82293846371467E-02 
1453	 6.82466385617073E-02 
1454	 6.82748068872958E-02 
1455	 6.82963929427248E-02 
1456	 6.83163878952625E-02 
1457	 6.83364061976446E-02 
1458	 6.83542901557962E-02 
1459	 6.83764450625997E-02 
1460	 6.84009156680952E-02 
1461	 6.84262909324674E-02 
1462	 6.84581269900425E-02 
1463	 6.84816427686353E-02 
1464	 6.85052239123811E-02 
1465	 6.85173301211182E-02 
1466	 6.85143057932738E-02 
1467	 6.85228461837726E-02 
1468	 6.85240679135043E-02 
1469	 6.85366717128549E-02 
1470	 6.85650191506024E-02 
1471	 6.85871826330601E-02 
1472	 6.86087650236475E-02 
1473	 6.86320458251874E-02 
1474	 6.86365129285625E-02 
1475	 6.86433129297477E-02 
1476	 0.068653702900641 
1477	 6.86641076601815E-02 
1478	 0.068673373058241 
1479	 6.86849506392344E-02 
1480	 6.87050192688642E-02 
1481	 6.87219933835042E-02 
1482	 6.87374861244899E-02 
1483	 6.87643205418201E-02 
1484	 6.87750154217111E-02 
1485	 6.87696666248929E-02 
1486	 6.87735284351447E-02 
1487	 6.87750772542556E-02 
1488	 6.87822630044956E-02 
1489	 6.87976134301599E-02 
1490	 0.068806062183435 
1491	 6.88096060800405E-02 
1492	 6.88198962428636E-02 
1493	 6.88302072895599E-02 
1494	 6.88397858004743E-02 
1495	 6.88553727466772E-02 
1496	 6.88708037672536E-02 
1497	 6.88845424961798E-02 
1498	 6.88957173513781E-02 
1499	 6.89063149293512E-02 
1500	 6.89201376005834E-02 
1501	 6.89340453914914E-02 
1502	 6.89465002046431E-02 
1503	 6.89616535004225E-02 
1504	 6.89755440041648E-02 
1505	 6.89900756536619E-02 
1506	 6.89950019624458E-02 
1507	 6.90019669094142E-02 
1508	 6.90025896203775E-02 
1509	 6.90076887492972E-02 
1510	 6.90240631549572E-02 
1511	 6.90285640905419E-02 
1512	 6.90448936429268E-02 
1513	 0.069052335186088 
1514	 6.90434853296275E-02 
1515	 6.90501219950279E-02 
1516	 6.90520736902556E-02 
1517	 6.90535247500111E-02 
1518	 6.90495177674306E-02 
1519	 6.90603641398842E-02 
1520	 6.90803021405522E-02 
1521	 6.90896327785048E-02 
1522	 0.06910448456445 
1523	 6.91168306059667E-02 
1524	 6.91149804293793E-02 
1525	 0.069123635834769 
1526	 6.91459291795521E-02 
1527	 6.91553028546652E-02 
1528	 6.91523895097481E-02 
1529	 6.91704885403113E-02 
1530	 6.92013773970722E-02 
1531	 6.92155333728534E-02 
1532	 6.92385864845188E-02 
1533	 0.069243818930782 
1534	 6.92251969783163E-02 
1535	 6.92186746268797E-02 
1536	 6.92068376029851E-02 
1537	 6.92075598915664E-02 
1538	 6.92161950584488E-02 
1539	 6.92229376188841E-02 
1540	 6.92375983325896E-02 
1541	 6.92501448137903E-02 
1542	 6.92600993374566E-02 
1543	 6.92696975951961E-02 
1544	 6.92877045741488E-02 
1545	 6.92952316063857E-02 
1546	 6.92931378947703E-02 
1547	 6.92914820633071E-02 
1548	 0.069305782075356 
1549	 6.93071734858926E-02 
1550	 6.93077895125066E-02 
1551	 0.069326804633584 
1552	 6.93351935023121E-02 
1553	 6.93392954627383E-02 
1554	 6.93461146366914E-02 
1555	 6.93442862133325E-02 
1556	 0.069354618456651 
1557	 6.93580981938291E-02 
1558	 6.93576123040137E-02 
1559	 0.069369937611769 
1560	 6.93719872824328E-02 
1561	 6.93621792519147E-02 
1562	 6.93545080922079E-02 
1563	 6.93464775253998E-02 
1564	 6.93470113326074E-02 
1565	 0.069343552836518 
1566	 6.93505660345307E-02 
1567	 6.93748857588621E-02 
1568	 6.93828273632988E-02 
1569	 6.93809009282557E-02 
1570	 6.93885812278886E-02 
1571	 6.94035909089476E-02 
1572	 6.94060571893211E-02 
1573	 6.94075662522684E-02 
1574	 6.94074156333615E-02 
1575	 6.93845229417217E-02 
1576	 6.93902657412251E-02 
1577	 6.94201350800847E-02 
1578	 6.94315904822221E-02 
1579	 6.94506508887899E-02 
1580	 6.94618912210725E-02 
1581	 6.94562008712526E-02 
1582	 6.94584131823113E-02 
1583	 6.94669981062301E-02 
1584	 6.94674435824264E-02 
1585	 0.069461682099936 
1586	 6.94616028174885E-02 
1587	 0.069467001567581 
1588	 6.94611772233792E-02 
1589	 6.94456870367721E-02 
1590	 6.94396432154604E-02 
1591	 6.94284412964258E-02 
1592	 6.94229042769699E-02 
1593	 6.94344379806977E-02 
1594	 6.94348880091797E-02 
1595	 6.94250137559309E-02 
1596	 6.94223828695145E-02 
1597	 6.94213181210692E-02 
1598	 0.069417839590952 
1599	 6.94170162002385E-02 
1600	 6.94158961920563E-02 
1601	 6.94098241931161E-02 
1602	 6.94082952139721E-02 
1603	 6.94114705579335E-02 
1604	 6.94131317060211E-02 
1605	 6.94165419387933E-02 
1606	 6.94183579376416E-02 
1607	 6.94189986228595E-02 
1608	 6.94186920519871E-02 
1609	 6.94246403238979E-02 
1610	 6.94273796628821E-02 
1611	 6.94309961028641E-02 
1612	 6.94353903590665E-02 
1613	 6.94192994083414E-02 
1614	 6.94206756328759E-02 
1615	 6.94207732418053E-02 
1616	 6.94064530184416E-02 
1617	 6.94156895322577E-02 
1618	 6.94171057894119E-02 
1619	 6.94175072858303E-02 
1620	 6.94323140122577E-02 
1621	 6.94366997081839E-02 
1622	 6.94355552874153E-02 
1623	 6.94426806457116E-02 
1624	 6.94549674320974E-02 
1625	 0.069455428828861 
1626	 6.94498439121906E-02 
1627	 0.069458517551016 
1628	 0.069472776506194 
1629	 6.94673261126759E-02 
1630	 6.94630417431178E-02 
1631	 6.94602526380811E-02 
1632	 0.069435999219087 
1633	 6.94303788361105E-02 
1634	 6.94488180855319E-02 
1635	 6.94441588480958E-02 
1636	 6.94266345990277E-02 
1637	 6.94147249066896E-02 
1638	 6.93975977211756E-02 
1639	 6.93900459040251E-02 
1640	 6.93862202880261E-02 
1641	 6.93816104008215E-02 
1642	 6.93809313158683E-02 
1643	 6.93823764799057E-02 
1644	 6.93872834192422E-02 
1645	 6.93850670780763E-02 
1646	 6.93846111098473E-02 
1647	 6.93798033482494E-02 
1648	 6.93605797981145E-02 
1649	 6.93594057284837E-02 
1650	 6.93691739514324E-02 
1651	 6.93719085663686E-02 
1652	 0.069377700146934 
1653	 6.93859710266554E-02 
1654	 6.93985402376054E-02 
1655	 6.93960016410452E-02 
1656	 6.93919304463118E-02 
1657	 6.93840586653469E-02 
1658	 6.93532752546067E-02 
1659	 6.93461439439872E-02 
1660	 6.93611197475496E-02 
1661	 6.93519616945529E-02 
1662	 6.93343097439475E-02 
1663	 6.93258164624751E-02 
1664	 6.93003909572082E-02 
1665	 6.93004119482352E-02 
1666	 6.93334137963446E-02 
1667	 0.06933586224491 
1668	 6.93352001874092E-02 
1669	 6.93268985819686E-02 
1670	 6.92921173589918E-02 
1671	 6.92822752217151E-02 
1672	 6.92816734000024E-02 
1673	 6.92824878654805E-02 
1674	 6.92956860933233E-02 
1675	 0.069301868308519 
1676	 6.93054663222426E-02 
1677	 0.069311271477596 
1678	 6.93231860948565E-02 
1679	 6.93223432092165E-02 
1680	 0.069311598306829 
1681	 6.93107748577236E-02 
1682	 6.93071787176465E-02 
1683	 6.93033540974169E-02 
1684	 6.93123905042025E-02 
1685	 6.93061519323479E-02 
1686	 6.92793989652059E-02 
1687	 6.92730469773833E-02 
1688	 0.069271162588131 
1689	 6.92714805905384E-02 
1690	 6.92869064710958E-02 
1691	 6.92913686039054E-02 
1692	 0.069296135264496 
1693	 0.069287224472683 
1694	 0.069259440322667 
1695	 6.92547739636368E-02 
1696	 6.92509046319735E-02 
1697	 6.92504315879131E-02 
1698	 6.92684605894936E-02 
1699	 6.92786961006023E-02 
1700	 6.92809235261499E-02 
1701	 6.92870204653322E-02 
1702	 6.93045744356992E-02 
1703	 6.93067506798039E-02 
1704	 6.92943543200217E-02 
1705	 6.92935458844486E-02 
1706	 6.92951229027623E-02 
1707	 0.069291998309685 
1708	 6.92951202870439E-02 
1709	 0.06928905681983 
1710	 6.92690675971947E-02 
1711	 6.92601747474151E-02 
1712	 6.92568382793256E-02 
1713	 6.92447995723125E-02 
1714	 0.069226451042855 
1715	 6.92228284657567E-02 
1716	 6.92182599193786E-02 
1717	 6.92229962731493E-02 
1718	 6.92437479777368E-02 
1719	 6.92561397736165E-02 
1720	 6.92756774010262E-02 
1721	 0.069279129378607 
1722	 6.92680505309548E-02 
1723	 6.92762374287776E-02 
1724	 6.92917171835536E-02 
1725	 6.92822127622503E-02 
1726	 6.92788313618256E-02 
1727	 6.92610215682088E-02 
1728	 6.92056271573577E-02 
1729	 6.91786512721983E-02 
1730	 6.91625555679113E-02 
1731	 6.91486129518564E-02 
1732	 6.91399235906183E-02 
1733	 6.91354187599467E-02 
1734	 6.91400279716618E-02 
1735	 6.91375312113747E-02 
1736	 6.91396407523304E-02 
1737	 0.069132113907183 
1738	 6.91157527874033E-02 
1739	 6.91022363028016E-02 
1740	 6.90818330635827E-02 
1741	 6.90706430250732E-02 
1742	 6.90652202878071E-02 
1743	 6.90569688258803E-02 
1744	 6.90540915688794E-02 
1745	 6.90450372780408E-02 
1746	 6.90285026626864E-02 
1747	 6.90303895133192E-02 
1748	 6.90228996398903E-02 
1749	 6.90093055995089E-02 
1750	 6.89912034324768E-02 
1751	 6.89755577508979E-02 
1752	 6.89585893332703E-02 
1753	 6.89553478449519E-02 
1754	 0.068964426671213 
1755	 6.89444967376969E-02 
1756	 6.89293242609156E-02 
1757	 6.89105328900211E-02 
1758	 6.88810441361741E-02 
1759	 6.88659759769145E-02 
1760	 6.88558333712282E-02 
1761	 6.88762355363064E-02 
1762	 6.88985681717114E-02 
1763	 6.88968101430125E-02 
1764	 6.88922658698275E-02 
1765	 6.88523493899214E-02 
1766	 6.88091824898128E-02 
1767	 6.88268709975966E-02 
1768	 6.88540147341901E-02 
1769	 6.88741788288109E-02 
1770	 6.88831142385814E-02 
1771	 6.88532245408351E-02 
1772	 6.88149852237798E-02 
1773	 6.87797153927654E-02 
1774	 6.87646135880737E-02 
1775	 6.87616711298744E-02 
1776	 6.87551969383976E-02 
1777	 6.87572590054785E-02 
1778	 6.87382794557356E-02 
1779	 6.87230921758387E-02 
1780	 6.87112944245241E-02 
1781	 6.86780256661421E-02 
1782	 6.86554803307533E-02 
1783	 6.86494584638612E-02 
1784	 6.86387629018125E-02 
1785	 6.86358188358777E-02 
1786	 6.86410913310572E-02 
1787	 6.86418592348396E-02 
1788	 6.86380197253561E-02 
1789	 6.86556432605229E-02 
1790	 6.86578399765872E-02 
1791	 0.068623623831858 
1792	 6.86225685887952E-02 
1793	 0.068647791502489 
1794	 6.86601373562569E-02 
1795	 6.86945069608823E-02 
1796	 6.87116877031194E-02 
1797	 6.87094424136873E-02 
1798	 6.86919196760235E-02 
1799	 6.86520925592317E-02 
1800	 6.86296734317065E-02 
1801	 6.58556040244495E-02 
1802	 6.59685257788673E-02 
1803	 6.60777060655527E-02 
1804	 6.61578586274139E-02 
1805	 6.62215326971892E-02 
1806	 0.066235004582244 
1807	 6.62645626416866E-02 
1808	 6.63180383891912E-02 
1809	 6.64038920138161E-02 
1810	 6.64489214580074E-02 
1811	 6.65003486754581E-02 
1812	 6.65406636093762E-02 
1813	 6.65345499953268E-02 
1814	 6.65213623408813E-02 
1815	 6.65495432665983E-02 
1816	 6.65764322344196E-02 
1817	 0.066588177993073 
1818	 6.65922129155259E-02 
1819	 6.66125124228572E-02 
1820	 6.66380734410997E-02 
1821	 6.66360549544941E-02 
1822	 6.66614965756256E-02 
1823	 6.67025406734458E-02 
1824	 6.66853378102762E-02 
1825	 6.66861809213046E-02 
1826	 6.67148805651866E-02 
1827	 6.67264911819691E-02 
1828	 6.67271113463309E-02 
1829	 6.67395973110478E-02 
1830	 6.67319729192181E-02 
1831	 6.67011289133236E-02 
1832	 6.66539361245904E-02 
1833	 6.66281886734943E-02 
1834	 6.66283370632554E-02 
1835	 6.66272778770906E-02 
1836	 6.66567634570039E-02 
1837	 6.66763710384649E-02 
1838	 0.066660948373096 
1839	 6.66752868670947E-02 
1840	 6.67004144274085E-02 
1841	 6.67125259539436E-02 
1842	 6.67338341706774E-02 
1843	 6.67850839433634E-02 
1844	 6.68074635927559E-02 
1845	 6.68090731203139E-02 
1846	 6.68139057324741E-02 
1847	 6.68134180281079E-02 
1848	 6.68145779210987E-02 
1849	 6.68533315985601E-02 
1850	 6.68853726546798E-02 
1851	 6.69299424538925E-02 
1852	 6.69693340746921E-02 
1853	 6.70061191370095E-02 
1854	 0.066999087711795 
1855	 6.69958225604599E-02 
1856	 6.70269329820133E-02 
1857	 6.70597100423871E-02 
1858	 6.71069216331745E-02 
1859	 6.71590591833552E-02 
1860	 6.71812236263179E-02 
1861	 6.71816397170964E-02 
1862	 6.71734672208716E-02 
1863	 6.71452752797894E-02 
1864	 0.067091888681202 
1865	 6.70494366067827E-02 
1866	 6.69880183536489E-02 
1867	 6.69328585834276E-02 
1868	 6.69080380836257E-02 
1869	 6.68879073033732E-02 
1870	 6.68903193376433E-02 
1871	 6.69038843138985E-02 
1872	 6.69405220055266E-02 
1873	 0.06697212578043 
1874	 6.70111783675482E-02 
1875	 6.70494997150995E-02 
1876	 6.70654636844532E-02 
1877	 0.06709228679616 
1878	 6.71266539969382E-02 
1879	 6.71470059187951E-02 
1880	 6.71625128162272E-02 
1881	 6.71842960579748E-02 
1882	 6.71936623069145E-02 
1883	 6.71921374723189E-02 
1884	 6.71746566046965E-02 
1885	 6.71679047681074E-02 
1886	 6.71486878367451E-02 
1887	 0.067110765623905 
1888	 6.71081227775675E-02 
1889	 6.70914706025742E-02 
1890	 6.70509908083168E-02 
1891	 6.70125887290247E-02 
1892	 6.69609256474201E-02 
1893	 0.066913843360483 
1894	 6.68666481247359E-02 
1895	 6.68166001458708E-02 
1896	 0.066772242321711 
1897	 6.67202698834022E-02 
1898	 6.66418032431157E-02 
1899	 6.65686004364312E-02 
1900	 0.066495718929308 
1901	 6.64248414997339E-02 
1902	 0.066373777920941 
1903	 6.63508187151097E-02 
1904	 6.63159430063633E-02 
1905	 6.62944599794075E-02 
1906	 0.066258518385833 
1907	 6.62103640324307E-02 
1908	 6.61658207271287E-02 
1909	 0.066118397816343 
1910	 6.60693362926593E-02 
1911	 6.60404431887993E-02 
1912	 6.60226881785107E-02 
1913	 0.06599187992318 
1914	 6.59580139652154E-02 
1915	 6.59309664375126E-02 
1916	 6.59013170326619E-02 
1917	 6.58704300542091E-02 
1918	 6.58338269048269E-02 
1919	 6.58157405982052E-02 
1920	 6.58059532068787E-02 
1921	 6.57926064594834E-02 
1922	 6.58083258029926E-02 
1923	 6.58460228496465E-02 
1924	 0.065855377738628 
1925	 6.58476544067666E-02 
1926	 6.58515504310553E-02 
1927	 6.58545432927164E-02 
1928	 0.065837433817198 
1929	 0.065842071450312 
1930	 6.58496276939066E-02 
1931	 6.58510385644358E-02 
1932	 6.58805321147535E-02 
1933	 6.58967043533343E-02 
1934	 6.58888382823879E-02 
1935	 0.065886227306864 
1936	 6.58591247006003E-02 
1937	 6.58501010711157E-02 
1938	 6.58580968283182E-02 
1939	 6.58647269766423E-02 
1940	 6.58742750935166E-02 
1941	 6.58738051050936E-02 
1942	 6.59005743027157E-02 
1943	 0.065914204183174 
1944	 6.59288539194067E-02 
1945	 6.59780392178801E-02 
1946	 0.066001617192438 
1947	 6.60100033817857E-02 
1948	 0.066022006298197 
1949	 0.066030878132577 
1950	 6.60346830260518E-02 
1951	 6.60277796125449E-02 
1952	 6.60428154127094E-02 
1953	 6.60472281318916E-02 
1954	 6.60526899313454E-02 
1955	 6.60506622469915E-02 
1956	 6.60433999420389E-02 
1957	 0.066049296827919 
1958	 6.60494790176514E-02 
1959	 6.60700638528122E-02 
1960	 6.61119718108072E-02 
1961	 0.066148848481654 
1962	 6.62027362223201E-02 
1963	 6.62356780680765E-02 
1964	 6.62515153603431E-02 
1965	 6.62872377626215E-02 
1966	 6.63063493545905E-02 
1967	 6.63341119531004E-02 
1968	 6.63677025350501E-02 
1969	 6.64135904810914E-02 
1970	 6.64498451683754E-02 
1971	 6.64957106152904E-02 
1972	 6.65186680968601E-02 
1973	 6.65191314162128E-02 
1974	 6.65363214102859E-02 
1975	 6.65408542104221E-02 
1976	 6.65621732072851E-02 
1977	 6.66006979615894E-02 
1978	 6.66439663435252E-02 
1979	 6.66818275625875E-02 
1980	 6.67120348878229E-02 
1981	 6.67349043888872E-02 
1982	 6.67384071834035E-02 
1983	 6.67669600396573E-02 
1984	 6.67977079353285E-02 
1985	 6.68324591623548E-02 
1986	 0.066892554718102 
1987	 6.69359403647309E-02 
1988	 0.066969271711593 
1989	 6.70057206320578E-02 
1990	 6.70374779661951E-02 
1991	 6.70694812732919E-02 
1992	 6.70985041486678E-02 
1993	 6.71284362550183E-02 
1994	 6.71444651123368E-02 
1995	 6.71519031382423E-02 
1996	 6.71623407098672E-02 
1997	 6.71476164009023E-02 
1998	 6.71703861866416E-02 
1999	 6.72239133158506E-02 
2000	 6.72553346015377E-02 
2001	 6.72855536220726E-02 
2002	 6.73341492689003E-02 
2003	 6.73679218380568E-02 
2004	 6.73948237833022E-02 
2005	 6.74289608242605E-02 
2006	 6.74810222079541E-02 
2007	 0.067511809454826 
2008	 6.75173520048475E-02 
2009	 0.067553632162718 
2010	 6.76122890554666E-02 
2011	 6.76442879154206E-02 
2012	 6.76714183203286E-02 
2013	 6.77081835504641E-02 
2014	 6.77282971170188E-02 
2015	 0.067755731389831 
2016	 6.78091954219358E-02 
2017	 6.78557350270415E-02 
2018	 6.78974317560253E-02 
2019	 6.79445888830101E-02 
2020	 6.79646022929238E-02 
2021	 6.79528329215443E-02 
2022	 6.79716419221316E-02 
2023	 6.79702777438153E-02 
2024	 6.80022889098263E-02 
2025	 6.80948097220932E-02 
2026	 6.81491448798704E-02 
2027	 6.81897601330505E-02 
2028	 6.82336306216046E-02 
2029	 6.82834566446385E-02 
2030	 6.83207583354356E-02 
2031	 0.068361742865323 
2032	 0.068418205281779 
2033	 6.84590930868573E-02 
2034	 6.84860237975983E-02 
2035	 6.85174132530402E-02 
2036	 0.068549725251121 
2037	 6.85824427507898E-02 
2038	 6.86131929941624E-02 
2039	 6.86374241293419E-02 
2040	 6.86577645087092E-02 
2041	 6.86872636496417E-02 
2042	 6.87005115294713E-02 
2043	 6.87010394364461E-02 
2044	 6.87233988899793E-02 
2045	 6.87589182336264E-02 
2046	 0.068781460457401 
2047	 6.88218469262801E-02 
2048	 6.88323982870361E-02 
2049	 6.88059590604291E-02 
2050	 6.88059404507926E-02 
2051	 6.87891623856128E-02 
2052	 6.88035966815887E-02 
2053	 6.88648402053886E-02 
2054	 6.89005307045621E-02 
2055	 0.068938199973282 
2056	 6.89704511245963E-02 
2057	 6.90054107315268E-02 
2058	 6.90297847567105E-02 
2059	 0.069051786266201 
2060	 6.90809095765102E-02 
2061	 6.91029997650094E-02 
2062	 6.91010225654106E-02 
2063	 6.91219950829806E-02 
2064	 6.91646973003511E-02 
2065	 6.91912151096266E-02 
2066	 0.069222537638413 
2067	 6.92429873141439E-02 
2068	 6.92469648769605E-02 
2069	 6.92541150457418E-02 
2070	 6.92659794033447E-02 
2071	 6.92690798546913E-02 
2072	 0.069296108594818 
2073	 6.93461983829086E-02 
2074	 6.93718005977175E-02 
2075	 6.93920249393274E-02 
2076	 6.94265227127962E-02 
2077	 6.94549044856849E-02 
2078	 6.94884677071702E-02 
2079	 6.95502988422614E-02 
2080	 6.95893783359425E-02 
2081	 6.96156621730246E-02 
2082	 6.96350609531548E-02 
2083	 6.96454988771446E-02 
2084	 6.96507128827439E-02 
2085	 6.96571694639525E-02 
2086	 6.96521689331898E-02 
2087	 6.96609554186675E-02 
2088	 6.96788715075259E-02 
2089	 6.96891032333343E-02 
2090	 6.96936068380356E-02 
2091	 6.97117720976742E-02 
2092	 6.97347042944289E-02 
2093	 6.97574238270611E-02 
2094	 6.97901138207971E-02 
2095	 6.98212640206476E-02 
2096	 6.98515083866867E-02 
2097	 6.98787667492495E-02 
2098	 6.99023285742913E-02 
2099	 6.99395974534038E-02 
2100	 6.99662103604516E-02 
2101	 6.99846559075876E-02 
2102	 7.00098676747646E-02 
2103	 7.00406051317335E-02 
2104	 7.00622924882425E-02 
2105	 7.00724056060353E-02 
2106	 7.01015844413247E-02 
2107	 7.01275303321943E-02 
2108	 7.01704055449497E-02 
2109	 7.02478957615057E-02 
2110	 7.02998680487992E-02 
2111	 7.03495726164106E-02 
2112	 0.07039405580825 
2113	 7.04279004907803E-02 
2114	 7.04532256331686E-02 
2115	 7.04847797863876E-02 
2116	 0.070521405757264 
2117	 7.05445593260312E-02 
2118	 0.070553847031145 
2119	 7.05825058136359E-02 
2120	 7.06249404498994E-02 
2121	 7.06407355395656E-02 
2122	 7.06580069938834E-02 
2123	 7.06647247902725E-02 
2124	 7.06287372975188E-02 
2125	 7.06271794310485E-02 
2126	 7.06553826649357E-02 
2127	 0.070664591175497 
2128	 7.06692608228664E-02 
2129	 7.06809518083713E-02 
2130	 7.06982375365749E-02 
2131	 7.06951413266955E-02 
2132	 0.070698645041719 
2133	 7.07170342719947E-02 
2134	 7.07095797819423E-02 
2135	 7.06740249046106E-02 
2136	 7.06632229874901E-02 
2137	 7.06540548085432E-02 
2138	 0.070647520174904 
2139	 7.06575149647686E-02 
2140	 7.06550704351483E-02 
2141	 7.06475897391829E-02 
2142	 7.06346599923941E-02 
2143	 7.06152409213484E-02 
2144	 7.05967909019763E-02 
2145	 7.05745463287425E-02 
2146	 7.05511785510068E-02 
2147	 7.05376477886291E-02 
2148	 7.05095804410612E-02 
2149	 0.070464945758905 
2150	 0.070404695349581 
2151	 7.03488837320595E-02 
2152	 7.02682469918393E-02 
2153	 7.02150618484714E-02 
2154	 7.01755932740932E-02 
2155	 7.01373597346006E-02 
2156	 7.01173702410558E-02 
2157	 7.00809070975419E-02 
2158	 7.00457658099312E-02 
2159	 6.99981945282345E-02 
2160	 6.99341181993574E-02 
2161	 6.98735121781348E-02 
2162	 6.97978626926659E-02 
2163	 6.97380260960075E-02 
2164	 6.96832208758542E-02 
2165	 6.96444615205797E-02 
2166	 6.95823466608299E-02 
2167	 6.95215054566047E-02 
2168	 6.94562996041389E-02 
2169	 0.069366174452073 
2170	 6.93022588982003E-02 
2171	 6.92526442974977E-02 
2172	 6.92035347336536E-02 
2173	 6.91665420196268E-02 
2174	 6.91189506277562E-02 
2175	 6.90694424057054E-02 
2176	 0.069023178350184 
2177	 6.89683939146813E-02 
2178	 6.89245283962754E-02 
2179	 6.88948701638781E-02 
2180	 6.88559336511916E-02 
2181	 6.88289022818037E-02 
2182	 6.87820822144838E-02 
2183	 6.87098053826467E-02 
2184	 6.86429875526373E-02 
2185	 0.068600839508262 
2186	 6.85655668583236E-02 
2187	 6.85242047836783E-02 
2188	 6.85093978975236E-02 
2189	 6.84726019346515E-02 
2190	 6.84020466482997E-02 
2191	 6.83621950828038E-02 
2192	 6.83504315275671E-02 
2193	 6.83100654089266E-02 
2194	 6.82588110929955E-02 
2195	 6.82179688800938E-02 
2196	 6.81649923521228E-02 
2197	 6.81211995769144E-02 
2198	 6.80827106917473E-02 
2199	 6.80572499169844E-02 
2200	 6.80475806237251E-02 
2201	 6.80264688384533E-02 
2202	 6.79943174421491E-02 
2203	 6.79958272373234E-02 
2204	 6.79930457001566E-02 
2205	 6.79773102088349E-02 
2206	 6.79826507355946E-02 
2207	 6.80242766749595E-02 
2208	 6.80303108668043E-02 
2209	 6.80267019518852E-02 
2210	 0.0680187118831 
2211	 6.79965862132231E-02 
2212	 6.79776181877953E-02 
2213	 6.79416626068905E-02 
2214	 6.79351900334634E-02 
2215	 6.79507491471642E-02 
2216	 6.79498822862759E-02 
2217	 6.79597464912631E-02 
2218	 6.79645348017031E-02 
2219	 6.79510150575672E-02 
2220	 6.79445918899849E-02 
2221	 6.79512523424159E-02 
2222	 6.79480589697887E-02 
2223	 6.79426178595103E-02 
2224	 6.79428894384284E-02 
2225	 6.79459872804743E-02 
2226	 0.067951462972017 
2227	 6.79640819000202E-02 
2228	 6.79842121383731E-02 
2229	 0.067998976862902 
2230	 6.80151009341756E-02 
2231	 6.80356567816894E-02 
2232	 6.80545799702284E-02 
2233	 0.068077419807377 
2234	 6.81199188083273E-02 
2235	 6.81341951036879E-02 
2236	 6.81329870162683E-02 
2237	 0.06813539204524 
2238	 6.81308889900852E-02 
2239	 6.81165869888072E-02 
2240	 6.80834418220688E-02 
2241	 0.068073668310256 
2242	 6.80576580225226E-02 
2243	 0.06805385533043 
2244	 6.80701970665361E-02 
2245	 6.81045582264488E-02 
2246	 6.81195989924968E-02 
2247	 6.81349063223789E-02 
2248	 6.81494786557124E-02 
2249	 6.81629311570338E-02 
2250	 6.81752338140598E-02 
2251	 6.81848951999533E-02 
2252	 6.81979023023549E-02 
2253	 6.82104611108574E-02 
2254	 6.82307218649364E-02 
2255	 6.82658035960085E-02 
2256	 6.82743092874098E-02 
2257	 6.82790319035232E-02 
2258	 6.82732735910456E-02 
2259	 6.82357165114831E-02 
2260	 6.82232799586392E-02 
2261	 6.82092303439016E-02 
2262	 6.82121167658218E-02 
2263	 6.82292524951888E-02 
2264	 0.068249719610781 
2265	 6.82916606346897E-02 
2266	 6.83257703570887E-02 
2267	 0.068355414352649 
2268	 6.83948375592507E-02 
2269	 6.84603978528543E-02 
2270	 6.84868766741547E-02 
2271	 6.84837240584062E-02 
2272	 6.85082980886459E-02 
2273	 6.85297742887144E-02 
2274	 6.85591373724088E-02 
2275	 6.85604353077815E-02 
2276	 6.85679054487427E-02 
2277	 6.85664408290926E-02 
2278	 6.85061533525872E-02 
2279	 6.85228530037307E-02 
2280	 6.86019285746059E-02 
2281	 6.86474087501592E-02 
2282	 6.87156121049593E-02 
2283	 6.87502325152036E-02 
2284	 6.87542841527307E-02 
2285	 6.87675122369554E-02 
2286	 6.87557791762144E-02 
2287	 6.87769875417046E-02 
2288	 6.88389152726915E-02 
2289	 0.068860870414556 
2290	 6.88862528327955E-02 
2291	 6.88988207734962E-02 
2292	 6.88523248326308E-02 
2293	 6.88470222678875E-02 
2294	 6.88622471069911E-02 
2295	 6.88768630722983E-02 
2296	 6.89058818247476E-02 
2297	 6.89563874395068E-02 
2298	 6.89386919170871E-02 
2299	 6.89457440121079E-02 
2300	 6.89980688300732E-02 
2301	 6.90023005786483E-02 
2302	 6.90052130985044E-02 
2303	 6.90391261849812E-02 
2304	 6.90333627108035E-02 
2305	 6.90157288358309E-02 
2306	 0.069042483523262 
2307	 6.91250845837528E-02 
2308	 6.91659464846345E-02 
2309	 6.92166719792965E-02 
2310	 6.92299013337712E-02 
2311	 6.92101783271101E-02 
2312	 0.069197860085608 
2313	 6.91493464938717E-02 
2314	 6.91503234949876E-02 
2315	 6.91831401487999E-02 
2316	 6.92003433895702E-02 
2317	 6.92379929095474E-02 
2318	 6.92576119468582E-02 
2319	 6.92618719691915E-02 
2320	 6.92668142329387E-02 
2321	 6.92494194334308E-02 
2322	 6.92721947268256E-02 
2323	 0.069328240617498 
2324	 6.93558899373671E-02 
2325	 6.93849495092206E-02 
2326	 6.94311467226015E-02 
2327	 6.94826600408486E-02 
2328	 6.95042495121559E-02 
2329	 6.95233940486321E-02 
2330	 0.069541222346996 
2331	 6.95505830595446E-02 
2332	 6.95528029175081E-02 
2333	 6.95874284911628E-02 
2334	 6.96257651970196E-02 
2335	 6.96242631155787E-02 
2336	 0.069606862791605 
2337	 6.96017672446939E-02 
2338	 6.96306731426036E-02 
2339	 6.97072801654301E-02 
2340	 6.97570946913775E-02 
2341	 6.97928715103322E-02 
2342	 6.98558449948464E-02 
2343	 6.98612425054467E-02 
2344	 0.069827886469024 
2345	 6.98198567382565E-02 
2346	 6.98034536200009E-02 
2347	 6.98097545686985E-02 
2348	 6.98470095113875E-02 
2349	 6.98606129937262E-02 
2350	 0.069871581472551 
2351	 6.98797189748686E-02 
2352	 6.98646072087894E-02 
2353	 6.98682064556053E-02 
2354	 6.99100798510812E-02 
2355	 6.99037680585245E-02 
2356	 6.98470778697413E-02 
2357	 6.98471402851996E-02 
2358	 6.98435285108377E-02 
2359	 6.98570061026488E-02 
2360	 6.99356744137524E-02 
2361	 6.99718372500565E-02 
2362	 6.99977596859147E-02 
2363	 7.00042044795018E-02 
2364	 6.99951184605665E-02 
2365	 6.99724541741723E-02 
2366	 6.99027063257711E-02 
2367	 6.98853876982747E-02 
2368	 0.069872235037451 
2369	 6.98704723529595E-02 
2370	 6.99198217823644E-02 
2371	 6.99407663580029E-02 
2372	 6.98924028819361E-02 
2373	 6.98838611651138E-02 
2374	 6.98622402500655E-02 
2375	 6.98160125826581E-02 
2376	 6.98554098597424E-02 
2377	 6.99224839292957E-02 
2378	 6.99504829388681E-02 
2379	 6.99802601393326E-02 
2380	 6.99589971497465E-02 
2381	 6.99088360009032E-02 
2382	 0.069877741180956 
2383	 6.98506472249412E-02 
2384	 6.98637965325579E-02 
2385	 6.98886122012845E-02 
2386	 6.98913675801443E-02 
2387	 6.99294032024557E-02 
2388	 6.99241501356551E-02 
2389	 6.98530705912447E-02 
2390	 6.98827020405394E-02 
2391	 6.98864748036153E-02 
2392	 0.069865325410765 
2393	 6.99617657338846E-02 
2394	 6.99471639510438E-02 
2395	 0.069894104399629 
2396	 6.99066646769153E-02 
2397	 6.98711169135188E-02 
2398	 6.99016299890088E-02 
2399	 6.99072462504367E-02 
2400	 6.98190970656749E-02 
2401	 6.98037160381492E-02 
2402	 6.98516470301326E-02 
2403	 6.98462676882052E-02 
2404	 0.069899619332117 
2405	 6.99734907332824E-02 
2406	 6.98825550340615E-02 
2407	 6.98822138416619E-02 
2408	 0.06990870578705 
2409	 6.98309645868253E-02 
2410	 6.98813085251481E-02 
2411	 6.98877036040143E-02 
2412	 6.98428148319492E-02 
2413	 6.98634158295696E-02 
2414	 6.97409572631268E-02 
2415	 6.95731896274298E-02 
2416	 6.94570423289881E-02 
2417	 6.93030724067633E-02 
2418	 6.92262184986246E-02 
2419	 6.92219257595561E-02 
2420	 6.92244440878895E-02 
2421	 6.92526435608245E-02 
2422	 6.92959431702632E-02 
2423	 6.93861652360049E-02 
2424	 6.94804760008982E-02 
2425	 0.069652775890429 
2426	 6.96882842454925E-02 
2427	 6.96495470419266E-02 
2428	 6.95818340715916E-02 
2429	 6.94000743346012E-02 
2430	 6.93430838426079E-02 
2431	 6.92779794317844E-02 
2432	 6.92772720215738E-02 
2433	 6.93740343914128E-02 
2434	 6.94120458521088E-02 
2435	 6.95432270760227E-02 
2436	 6.95854100318773E-02 
2437	 6.94946805291512E-02 
2438	 6.94976783752646E-02 
2439	 6.95220026938021E-02 
2440	 6.95332418147591E-02 
2441	 6.96249506457927E-02 
2442	 6.96510661873968E-02 
2443	 6.95853183919198E-02 
2444	 6.94772755959432E-02 
2445	 6.93231554848897E-02 
2446	 6.92267142490664E-02 
2447	 6.91313413807442E-02 
2448	 6.90613593143468E-02 
2449	 6.90192410763936E-02 
2450	 6.89843733187491E-02 
2451	 6.89565816847053E-02 
2452	 6.89208199651716E-02 
2453	 6.89480086495674E-02 
2454	 6.89176664274108E-02 
2455	 6.88183304084913E-02 
2456	 6.87773848562491E-02 
2457	 6.87217142567852E-02 
2458	 6.86902143212226E-02 
2459	 0.06866419985479 
2460	 6.86183810891009E-02 
2461	 6.86152921355131E-02 
2462	 6.86240129785812E-02 
2463	 6.87184034027627E-02 
2464	 6.87352746809095E-02 
2465	 6.86297206714466E-02 
2466	 6.85701690505402E-02 
2467	 6.84163093019044E-02 
2468	 6.83976838919976E-02 
2469	 6.85620574457046E-02 
2470	 6.86097094818695E-02 
2471	 0.068765909796193 
2472	 6.88900313292718E-02 
2473	 6.87993136818835E-02 
2474	 6.87856727681119E-02 
2475	 6.87465583133417E-02 
2476	 6.86901587180649E-02 
2477	 6.87926507526549E-02 
2478	 6.87443646694248E-02 
2479	 6.85987105846023E-02 
2480	 6.84289078638287E-02 
2481	 6.81364534764502E-02 
2482	 6.82109572222024E-02 
2483	 6.83430410047359E-02 
2484	 6.81762921919496E-02 
2485	 0.068143322861307 
2486	 6.79774582755862E-02 
2487	 6.78286781944338E-02 
2488	 6.78463399069302E-02 
2489	 6.76038939580361E-02 
2490	 0.067498668219634 
2491	 6.76206282981208E-02 
2492	 6.77678968965834E-02 
2493	 6.81145219399649E-02 
2494	 6.82333985467465E-02 
2495	 6.79609196331291E-02 
2496	 6.77925792788645E-02 
2497	 6.77306753876511E-02 
2498	 6.76597318104614E-02 
2499	 6.77907975333481E-02 
2500	 6.78833285873121E-02 
