Wavelength	LMW_2100000.asd
350	 8.21607509252068E-02 
351	 8.84581496802958E-02 
352	 8.65157815529014E-02 
353	 8.43446318463761E-02 
354	 9.43147423453904E-02 
355	 0.091413149531864 
356	 8.46484639007557E-02 
357	 8.76970536591717E-02 
358	 9.76306072413048E-02 
359	 0.103905025867639 
360	 0.104345962252242 
361	 0.102936504629112 
362	 0.107058118881459 
363	 0.112239977962121 
364	 0.114915036723864 
365	 0.115559602253358 
366	 0.115020530697451 
367	 0.114676636559898 
368	 0.116119826935675 
369	 0.122426731325741 
370	 0.12212557411391 
371	 0.118989354990261 
372	 0.125565810636146 
373	 0.126197025211176 
374	 0.125721831689997 
375	 0.128371781282245 
376	 0.132968006357491 
377	 0.133836703112441 
378	 0.134908652144924 
379	 0.140128181626482 
380	 0.140611237363968 
381	 0.139411914848793 
382	 0.139411475325514 
383	 0.142501047466256 
384	 0.144427034210658 
385	 0.14356974818026 
386	 0.141784397794561 
387	 0.146814519625672 
388	 0.150662241161651 
389	 0.151936272290667 
390	 0.151925358757239 
391	 0.153529002416209 
392	 0.155739041451291 
393	 0.158168029514024 
394	 0.161063902040994 
395	 0.162868051412638 
396	 0.164063204901885 
397	 0.165116557791231 
398	 0.165484378942422 
399	 0.167148776537118 
400	 0.169395187285592 
401	 0.170649162229178 
402	 0.170665576284655 
403	 0.171681330264875 
404	 0.173679911924825 
405	 0.174360657508415 
406	 0.175359196162067 
407	 0.176950008398574 
408	 0.178359123446823 
409	 0.176538985552135 
410	 0.176220106051634 
411	 0.177495428455156 
412	 0.178420362960432 
413	 0.180041164962253 
414	 0.180885264258525 
415	 0.180576936796493 
416	 0.180294091810152 
417	 0.180766678705986 
418	 0.181518593429365 
419	 0.181883683055788 
420	 0.181782532409743 
421	 0.181420154377181 
422	 0.181155064311256 
423	 0.181315851333068 
424	 0.18090693194863 
425	 0.180419354152482 
426	 0.180236843383236 
427	 0.180274666538171 
428	 0.179631205331629 
429	 0.178902537200427 
430	 0.178899250270964 
431	 0.178853775368035 
432	 0.178821620628997 
433	 0.17880101715353 
434	 0.178705917508618 
435	 0.178774193165307 
436	 0.17878812028648 
437	 0.178901428822193 
438	 0.18050058866414 
439	 0.18256397880544 
440	 0.184606824874079 
441	 0.186465383835628 
442	 0.188287018528682 
443	 0.189786286459108 
444	 0.190860811108433 
445	 0.191716408831303 
446	 0.192452876929491 
447	 0.193201136703095 
448	 0.193960293405215 
449	 0.194170362943308 
450	 0.194602165138964 
451	 0.195267609004554 
452	 0.195534840491211 
453	 0.195719841002611 
454	 0.195903116124466 
455	 0.19617416377062 
456	 0.196779148692114 
457	 0.197277105178668 
458	 0.197412635493831 
459	 0.197139198963262 
460	 0.197160566363046 
461	 0.197171098602501 
462	 0.197200660625724 
463	 0.197890698723851 
464	 0.198375642390937 
465	 0.198531843477999 
466	 0.198521678953487 
467	 0.198713936147345 
468	 0.198819528995475 
469	 0.198801084505903 
470	 0.198835688275412 
471	 0.19891755857873 
472	 0.199057642687204 
473	 0.199233685072638 
474	 0.199369227453104 
475	 0.1993286587953 
476	 0.199180536631443 
477	 0.19909104212987 
478	 0.199152558453248 
479	 0.199151687277076 
480	 0.199066318651303 
481	 0.199171939293832 
482	 0.199327310249671 
483	 0.199471640582084 
484	 0.199537866378969 
485	 0.199341067753642 
486	 0.199187502680858 
487	 0.199138418320729 
488	 0.199047178761806 
489	 0.199030291124326 
490	 0.199048641496311 
491	 0.19907317432153 
492	 0.199180975794967 
493	 0.19920930899257 
494	 0.199145405387356 
495	 0.199057281510793 
496	 0.199018168100387 
497	 0.198900490687702 
498	 0.198756496551342 
499	 0.198948656495993 
500	 0.198843720863002 
501	 0.198552166775909 
502	 0.198385812876368 
503	 0.198509897147037 
504	 0.198340752076015 
505	 0.197975836764798 
506	 0.198105841923069 
507	 0.198001285356135 
508	 0.197892837137726 
509	 0.19795491293653 
510	 0.197693027279879 
511	 0.197494080006704 
512	 0.197427571041186 
513	 0.197390771907175 
514	 0.197391356584258 
515	 0.19727799662329 
516	 0.197032480988494 
517	 0.196879544560941 
518	 0.196726556861545 
519	 0.196578070629455 
520	 0.196452172976892 
521	 0.196292949163101 
522	 0.196132992142617 
523	 0.195990769715019 
524	 0.195864989316663 
525	 0.19580710507247 
526	 0.195679425632192 
527	 0.195404363294739 
528	 0.195212938826059 
529	 0.19504779400632 
530	 0.194896968364861 
531	 0.194773902886189 
532	 0.194628383294573 
533	 0.194518035654532 
534	 0.194450412652642 
535	 0.194300679719065 
536	 0.194098821505623 
537	 0.193896959447548 
538	 0.193746086965851 
539	 0.193602654243555 
540	 0.19341444514945 
541	 0.193216023121509 
542	 0.193157968395288 
543	 0.193045102904553 
544	 0.192866942078329 
545	 0.192676114502477 
546	 0.192555635964027 
547	 0.192399290607315 
548	 0.192217974126658 
549	 0.19211446242031 
550	 0.191877859311546 
551	 0.191673747929047 
552	 0.19162090974108 
553	 0.191555767082559 
554	 0.191382790470177 
555	 0.191182309461113 
556	 0.191107389234949 
557	 0.190997119406185 
558	 0.190849017894755 
559	 0.190708170247916 
560	 0.190675619375113 
561	 0.190619050896938 
562	 0.190545405056654 
563	 0.190489356472047 
564	 0.190359337312537 
565	 0.190192861293366 
566	 0.190033505521833 
567	 0.189920919137013 
568	 0.18981763736266 
569	 0.189625141875871 
570	 0.189311252136367 
571	 0.189098378901831 
572	 0.188902803590398 
573	 0.188732180776306 
574	 0.188647886264092 
575	 0.188528211725024 
576	 0.188376730292927 
577	 0.188219349671619 
578	 0.188088167894686 
579	 0.187923153461057 
580	 0.18771125130258 
581	 0.187468286947736 
582	 0.187241621786441 
583	 0.187045810376764 
584	 0.186907013653344 
585	 0.186873103488084 
586	 0.186924034607401 
587	 0.186976271880005 
588	 0.186945328818689 
589	 0.186824498951864 
590	 0.186732386547059 
591	 0.186674962312472 
592	 0.186554589422302 
593	 0.186408293123392 
594	 0.18635126058705 
595	 0.186414623992396 
596	 0.186383270740467 
597	 0.186255617050962 
598	 0.186087854306489 
599	 0.185958377724238 
600	 0.185779046258236 
601	 0.185614863380595 
602	 0.185499838931951 
603	 0.185375093018703 
604	 0.185375994219091 
605	 0.185392311236308 
606	 0.185269815275724 
607	 0.185137549336407 
608	 0.185008950515334 
609	 0.184902553454004 
610	 0.184847791830984 
611	 0.184727953147295 
612	 0.184601098980164 
613	 0.184525634356787 
614	 0.184403836923748 
615	 0.184293523601549 
616	 0.184210848842244 
617	 0.184142705874409 
618	 0.18410473672533 
619	 0.184025889679284 
620	 0.183888595562167 
621	 0.183813302234413 
622	 0.183772896943552 
623	 0.183687540972755 
624	 0.183498109125787 
625	 0.183461546816514 
626	 0.183410950089429 
627	 0.183287426512194 
628	 0.183218813072684 
629	 0.183131708405157 
630	 0.183070717910878 
631	 0.183063107689095 
632	 0.182946205414133 
633	 0.18286068711195 
634	 0.182813767698802 
635	 0.182707509424161 
636	 0.1826746426282 
637	 0.182635695416305 
638	 0.182533775744391 
639	 0.182452146572469 
640	 0.182401971262455 
641	 0.182346325065085 
642	 0.182242627975289 
643	 0.182221230238949 
644	 0.182148134721188 
645	 0.181997370704234 
646	 0.181932912834864 
647	 0.181904359921732 
648	 0.181875859566581 
649	 0.181817633557966 
650	 0.181719422140773 
651	 0.181641960031327 
652	 0.181599837845355 
653	 0.181562163240542 
654	 0.181472282368072 
655	 0.181336886588388 
656	 0.181211259044919 
657	 0.181255420116243 
658	 0.181212268082179 
659	 0.181089804971191 
660	 0.181013084033361 
661	 0.180923096955102 
662	 0.180847254546092 
663	 0.180797374047274 
664	 0.18075426650302 
665	 0.180677642669088 
666	 0.180600063444601 
667	 0.180546618494668 
668	 0.180402083658393 
669	 0.180352872063392 
670	 0.180363296460007 
671	 0.180223874293174 
672	 0.180122123611834 
673	 0.180068713058919 
674	 0.180032145134335 
675	 0.179952887564191 
676	 0.179903854286467 
677	 0.179838196515271 
678	 0.179685893572324 
679	 0.179599508966282 
680	 0.179527258028744 
681	 0.179444161206619 
682	 0.179383778643742 
683	 0.179293526105452 
684	 0.179219188271158 
685	 0.179185540392426 
686	 0.179036785084605 
687	 0.178956514776968 
688	 0.178946642308265 
689	 0.178877774447423 
690	 0.178739000569153 
691	 0.17862432421202 
692	 0.178566226016358 
693	 0.178438336430596 
694	 0.178344943187324 
695	 0.17828508125576 
696	 0.17822020983113 
697	 0.178130170471293 
698	 0.178030799992415 
699	 0.177948378731734 
700	 0.177914057689844 
701	 0.177866429607227 
702	 0.177788252506852 
703	 0.177691709939861 
704	 0.177643838342709 
705	 0.177568158567544 
706	 0.177431304467586 
707	 0.177245912807866 
708	 0.177173312756155 
709	 0.177128667623734 
710	 0.177048099088743 
711	 0.176936506287338 
712	 0.176875330277772 
713	 0.176809780088728 
714	 0.17668772483355 
715	 0.176624850335846 
716	 0.176563964819781 
717	 0.176475686879318 
718	 0.176359686749371 
719	 0.17627034370003 
720	 0.176216873425967 
721	 0.176165243746701 
722	 0.176006461961847 
723	 0.175901718356462 
724	 0.175842954196027 
725	 0.175762885376786 
726	 0.175614323740734 
727	 0.175540638559812 
728	 0.17552440734606 
729	 0.175402157756525 
730	 0.175311548769426 
731	 0.175250602743302 
732	 0.175193692620463 
733	 0.175122036258513 
734	 0.175038321119991 
735	 0.174952788619552 
736	 0.174874888557767 
737	 0.174784069110075 
738	 0.174691199742994 
739	 0.174604530869411 
740	 0.174526533560709 
741	 0.174457439415355 
742	 0.174366722359653 
743	 0.174240714372532 
744	 0.174116314789294 
745	 0.174075053054649 
746	 0.174066552531488 
747	 0.173990402632564 
748	 0.173909660223604 
749	 0.173802829295735 
750	 0.173687550708249 
751	 0.173633448760686 
752	 0.173534713131158 
753	 0.173420227840514 
754	 0.173341743650598 
755	 0.173328273838154 
756	 0.173278088554954 
757	 0.173198405660159 
758	 0.173145384150157 
759	 0.173073827151073 
760	 0.172958750317123 
761	 0.172838818223083 
762	 0.17282467696883 
763	 0.172759265305163 
764	 0.172652443057656 
765	 0.172549576043446 
766	 0.172469590216073 
767	 0.172432399624282 
768	 0.172391428726028 
769	 0.172281979163839 
770	 0.172170207032954 
771	 0.17209150361528 
772	 0.172041703277102 
773	 0.171974784312196 
774	 0.171927733244024 
775	 0.171872722409119 
776	 0.17178947358195 
777	 0.171718998099801 
778	 0.17160938264488 
779	 0.171522294716165 
780	 0.1715307277078 
781	 0.171430753226314 
782	 0.171350986002505 
783	 0.171317149075015 
784	 0.171224747128711 
785	 0.171157097925461 
786	 0.171107529709391 
787	 0.171050546767184 
788	 0.17095347796926 
789	 0.17088407614108 
790	 0.170824036797479 
791	 0.170741697059757 
792	 0.170727702576434 
793	 0.170672692707362 
794	 0.170571900659016 
795	 0.170514433317432 
796	 0.170455475424739 
797	 0.170399814429115 
798	 0.17035096492443 
799	 0.17029858287067 
800	 0.170227677539256 
801	 0.170143604220181 
802	 0.170061314992421 
803	 0.169999362595283 
804	 0.169967622997449 
805	 0.169927731217927 
806	 0.169826567254825 
807	 0.169752609954022 
808	 0.169691790426077 
809	 0.16963349355439 
810	 0.169586749991095 
811	 0.169581185440347 
812	 0.169557132210085 
813	 0.169472519816221 
814	 0.169382946432288 
815	 0.169309999089457 
816	 0.169247711769617 
817	 0.169186894987343 
818	 0.169183741525886 
819	 0.169171180036883 
820	 0.169119538126525 
821	 0.169040937521484 
822	 0.16895356855906 
823	 0.168891164749153 
824	 0.168856091486319 
825	 0.168798256830674 
826	 0.168764527292135 
827	 0.168720311144275 
828	 0.168639269691801 
829	 0.168591681749024 
830	 0.168541550771345 
831	 0.168472359386675 
832	 0.168388433652144 
833	 0.168357023793783 
834	 0.16829246258813 
835	 0.168201191565682 
836	 0.168179009987682 
837	 0.168175832280456 
838	 0.168161582878092 
839	 0.168106234261923 
840	 0.167973702984966 
841	 0.167918053343118 
842	 0.167920339872054 
843	 0.167907421614168 
844	 0.167802479661705 
845	 0.16776436459075 
846	 0.167742170550988 
847	 0.167631088863815 
848	 0.167635300164131 
849	 0.167624427571842 
850	 0.167550989091762 
851	 0.167462203123655 
852	 0.167420665395742 
853	 0.167381194110433 
854	 0.1673190033666 
855	 0.167263449121172 
856	 0.16721806551052 
857	 0.167212618296717 
858	 0.167234940371814 
859	 0.167153439568684 
860	 0.167079764984556 
861	 0.167013919869497 
862	 0.166926872290082 
863	 0.166842946899487 
864	 0.166784524580784 
865	 0.166719305160844 
866	 0.166608806626527 
867	 0.166620779598146 
868	 0.166639067032349 
869	 0.166598240833778 
870	 0.166519901706658 
871	 0.166481998655597 
872	 0.166444408404842 
873	 0.166381185963367 
874	 0.166323267477647 
875	 0.166229564934967 
876	 0.166190615488136 
877	 0.166238444527703 
878	 0.166170684705156 
879	 0.166108044481985 
880	 0.16607617274652 
881	 0.166060949430328 
882	 0.166032836486432 
883	 0.165955857449723 
884	 0.165858470072716 
885	 0.165797984663232 
886	 0.165762394258719 
887	 0.165716731586114 
888	 0.165670022507768 
889	 0.165666127638203 
890	 0.165703816083584 
891	 0.165636172515552 
892	 0.16547265591432 
893	 0.165426657605179 
894	 0.165422023598122 
895	 0.165414299292598 
896	 0.165398265932659 
897	 0.165433960061491 
898	 0.165349419806395 
899	 0.165269720894358 
900	 0.165280263452952 
901	 0.165136830979187 
902	 0.165078197781494 
903	 0.165083004115794 
904	 0.165060502894899 
905	 0.165027254037309 
906	 0.164987882892394 
907	 0.164964017316337 
908	 0.164964095696941 
909	 0.164891282995207 
910	 0.16486790498935 
911	 0.164874845837049 
912	 0.164804852780201 
913	 0.164678950385011 
914	 0.164629535496932 
915	 0.164649076223956 
916	 0.164609562911224 
917	 0.164572105777404 
918	 0.164549952333588 
919	 0.164517640041041 
920	 0.164423006528231 
921	 0.164381659789974 
922	 0.164361953746601 
923	 0.164336850779595 
924	 0.164322899336932 
925	 0.164237532795405 
926	 0.164191000697375 
927	 0.164212670011761 
928	 0.164113717648429 
929	 0.164104954419532 
930	 0.164111301920147 
931	 0.164055640028384 
932	 0.16402772570809 
933	 0.164003263089041 
934	 0.163960011774318 
935	 0.163896462836734 
936	 0.163874766048362 
937	 0.163792695682786 
938	 0.16370896331248 
939	 0.163702121526928 
940	 0.163726268966845 
941	 0.163693397680047 
942	 0.163676639964625 
943	 0.163732210953869 
944	 0.163575655184933 
945	 0.163478536767075 
946	 0.163474310485354 
947	 0.163478354608065 
948	 0.163469686070804 
949	 0.16333925217695 
950	 0.163224916392431 
951	 0.163302648502908 
952	 0.163281919030486 
953	 0.163244384539704 
954	 0.163222885718848 
955	 0.163204398804922 
956	 0.163136239447741 
957	 0.163085953370246 
958	 0.163036249248475 
959	 0.162949568149038 
960	 0.16300657983608 
961	 0.163053271074595 
962	 0.162998154158632 
963	 0.162855397568632 
964	 0.162853131517246 
965	 0.162919323189026 
966	 0.162958333593979 
967	 0.162902401381088 
968	 0.162834719321783 
969	 0.162775185242465 
970	 0.162691017961511 
971	 0.162557196167038 
972	 0.16259642305418 
973	 0.162600789023132 
974	 0.162498933847437 
975	 0.162371508526573 
976	 0.162442754534635 
977	 0.162400326975996 
978	 0.162297157774214 
979	 0.162373215680431 
980	 0.162340380022183 
981	 0.162292891709238 
982	 0.162230964772126 
983	 0.162122491524922 
984	 0.16216035850945 
985	 0.162145101105697 
986	 0.16202155132756 
987	 0.161862952486417 
988	 0.161814571080013 
989	 0.161844328299388 
990	 0.161859708223747 
991	 0.161797937318952 
992	 0.161851256924841 
993	 0.161756984146863 
994	 0.161683731535973 
995	 0.161828155461431 
996	 0.161639793859165 
997	 0.161620496016368 
998	 0.161697877770419 
999	 0.161662357307775 
1000	 0.161739278695421 
1001	 0.157326673169552 
1002	 0.157325885681819 
1003	 0.157302831639314 
1004	 0.15723583429589 
1005	 0.15713841618558 
1006	 0.157073439638578 
1007	 0.156998939404757 
1008	 0.156894483461934 
1009	 0.156786864534981 
1010	 0.156762842075506 
1011	 0.156768473431015 
1012	 0.156753115020756 
1013	 0.1567502841359 
1014	 0.156734218630556 
1015	 0.156688969025558 
1016	 0.156635200446443 
1017	 0.156595057500663 
1018	 0.156577543832169 
1019	 0.156574595043453 
1020	 0.156545857019874 
1021	 0.156517311021001 
1022	 0.156538307096855 
1023	 0.156524491120863 
1024	 0.156460263122366 
1025	 0.156423691207104 
1026	 0.15631087157999 
1027	 0.156151139133705 
1028	 0.15611512858924 
1029	 0.156107452175571 
1030	 0.156040123693031 
1031	 0.156005339518512 
1032	 0.156029413820914 
1033	 0.156013836092013 
1034	 0.155956514251548 
1035	 0.15594800493573 
1036	 0.155922031760613 
1037	 0.155882384519675 
1038	 0.155843520061002 
1039	 0.155822406699677 
1040	 0.155827597093951 
1041	 0.155811224680361 
1042	 0.155753749437619 
1043	 0.155689228331849 
1044	 0.155636209965862 
1045	 0.155578457986954 
1046	 0.155532761122037 
1047	 0.155489346420822 
1048	 0.155424673929898 
1049	 0.155336832457803 
1050	 0.155236276186493 
1051	 0.155189223111523 
1052	 0.155160225067552 
1053	 0.155109307252836 
1054	 0.155063735841066 
1055	 0.15501471707534 
1056	 0.154960283225131 
1057	 0.154918903087284 
1058	 0.154932554812521 
1059	 0.15490391088117 
1060	 0.154864481623562 
1061	 0.154774042074112 
1062	 0.154699641641463 
1063	 0.1546695971066 
1064	 0.154647853989714 
1065	 0.15463712089112 
1066	 0.154609189352837 
1067	 0.15453669012413 
1068	 0.15445720764767 
1069	 0.154411548947342 
1070	 0.15436187498633 
1071	 0.154344229042619 
1072	 0.154282094696265 
1073	 0.154178615940756 
1074	 0.1541109495314 
1075	 0.154045444257341 
1076	 0.154001230876853 
1077	 0.15392897243325 
1078	 0.153857664499875 
1079	 0.153815267485618 
1080	 0.153765604863332 
1081	 0.15374080571492 
1082	 0.153754964111593 
1083	 0.153735743207199 
1084	 0.153694652396277 
1085	 0.153659252766971 
1086	 0.15362434113549 
1087	 0.153566877829177 
1088	 0.153487468858542 
1089	 0.153424622503466 
1090	 0.153370603066788 
1091	 0.153317211775963 
1092	 0.153298284635778 
1093	 0.153278583332739 
1094	 0.153207537897428 
1095	 0.153159681916364 
1096	 0.153122096371089 
1097	 0.153053257328606 
1098	 0.153005056286677 
1099	 0.1529765686449 
1100	 0.152945599029162 
1101	 0.152914493913456 
1102	 0.152880221454741 
1103	 0.152852716252671 
1104	 0.152818711924476 
1105	 0.152767928043781 
1106	 0.152739786235206 
1107	 0.152685817690942 
1108	 0.152632594094394 
1109	 0.152616528999621 
1110	 0.152568197418808 
1111	 0.152534303526477 
1112	 0.152528781466741 
1113	 0.152492263747181 
1114	 0.152433282778232 
1115	 0.152388195188677 
1116	 0.152341592067535 
1117	 0.152290739607003 
1118	 0.152225974684223 
1119	 0.152192338553829 
1120	 0.152159024112427 
1121	 0.152120287752699 
1122	 0.152105585697642 
1123	 0.152049284959082 
1124	 0.151996163185779 
1125	 0.15190988355816 
1126	 0.151877740547122 
1127	 0.151884828218408 
1128	 0.151850777362254 
1129	 0.151824845201123 
1130	 0.151787071601492 
1131	 0.151696463258941 
1132	 0.151651276780159 
1133	 0.151651145560612 
1134	 0.151624676134624 
1135	 0.151608595547052 
1136	 0.151562282055295 
1137	 0.151517728600525 
1138	 0.151473709284718 
1139	 0.151426456473107 
1140	 0.15138055314789 
1141	 0.151336364911918 
1142	 0.151288683630998 
1143	 0.151239945067826 
1144	 0.15119569167961 
1145	 0.15114944009994 
1146	 0.15108613660449 
1147	 0.151044121238872 
1148	 0.151027667432297 
1149	 0.150988228236542 
1150	 0.150945157874612 
1151	 0.150905457827063 
1152	 0.150845838798884 
1153	 0.150798363635987 
1154	 0.150752117012433 
1155	 0.150719109988587 
1156	 0.150669045037552 
1157	 0.150611005513397 
1158	 0.150556193446962 
1159	 0.150487915197952 
1160	 0.150439736207761 
1161	 0.150416857797249 
1162	 0.150365470302554 
1163	 0.150297729547735 
1164	 0.150249633707566 
1165	 0.150191906053359 
1166	 0.150143252749484 
1167	 0.150116028537799 
1168	 0.150078585081367 
1169	 0.150041369754725 
1170	 0.149996627647277 
1171	 0.149951547763684 
1172	 0.149909537029505 
1173	 0.14986634152228 
1174	 0.149810063614427 
1175	 0.149769747379599 
1176	 0.149743962251077 
1177	 0.149709045958799 
1178	 0.149675819438694 
1179	 0.149641893472363 
1180	 0.149606237226594 
1181	 0.149566769092582 
1182	 0.149526703661154 
1183	 0.149484469528118 
1184	 0.149445346461027 
1185	 0.149407013243351 
1186	 0.149357798156909 
1187	 0.1493046513888 
1188	 0.149257912727135 
1189	 0.149201910161102 
1190	 0.149154468737444 
1191	 0.149112081601522 
1192	 0.149078386273353 
1193	 0.149053355250191 
1194	 0.14902091762741 
1195	 0.149007510751686 
1196	 0.148971961522503 
1197	 0.148903159527508 
1198	 0.14885615547975 
1199	 0.148813642501329 
1200	 0.148768613322724 
1201	 0.14873217700921 
1202	 0.148713483335658 
1203	 0.148681490247966 
1204	 0.148644683998442 
1205	 0.148609536606402 
1206	 0.148577243312468 
1207	 0.148537563296875 
1208	 0.14849210615814 
1209	 0.148448561466092 
1210	 0.148401457307835 
1211	 0.148355439870978 
1212	 0.148307893566392 
1213	 0.148264494747336 
1214	 0.148227204287085 
1215	 0.148182872395714 
1216	 0.148136814689826 
1217	 0.148094451403229 
1218	 0.148042151836237 
1219	 0.14797343965386 
1220	 0.14792554797968 
1221	 0.147878313977305 
1222	 0.147842781777143 
1223	 0.147836429006935 
1224	 0.147798436027859 
1225	 0.147743546463923 
1226	 0.147703042279869 
1227	 0.147657652257586 
1228	 0.147608215172502 
1229	 0.147567319193604 
1230	 0.147525083479775 
1231	 0.147465142672238 
1232	 0.147417750762844 
1233	 0.147377366169903 
1234	 0.147350615696271 
1235	 0.147314449237875 
1236	 0.147280040874703 
1237	 0.147242955550762 
1238	 0.147205721946962 
1239	 0.147164992050582 
1240	 0.147119259282004 
1241	 0.147077079582402 
1242	 0.147037602558048 
1243	 0.146991597519484 
1244	 0.146940264154547 
1245	 0.146895066601637 
1246	 0.146850774664617 
1247	 0.146802447093426 
1248	 0.146755905234001 
1249	 0.146709316207251 
1250	 0.146661826043461 
1251	 0.146615451896496 
1252	 0.146568305137522 
1253	 0.146528394093561 
1254	 0.146480874697569 
1255	 0.146425691031382 
1256	 0.146372612082792 
1257	 0.14632330171929 
1258	 0.146265397673791 
1259	 0.146192914841913 
1260	 0.146139792289635 
1261	 0.146091822713788 
1262	 0.146043493522529 
1263	 0.146019385682254 
1264	 0.145971896367857 
1265	 0.145889592885979 
1266	 0.14583832181738 
1267	 0.145806642414414 
1268	 0.145759148746791 
1269	 0.145709449725051 
1270	 0.14568250816092 
1271	 0.145619587860154 
1272	 0.145509804515538 
1273	 0.14545325060682 
1274	 0.145421137052255 
1275	 0.145366910398785 
1276	 0.145323176151141 
1277	 0.145273653713762 
1278	 0.145199806134998 
1279	 0.145143203850557 
1280	 0.145103692693604 
1281	 0.145061904283767 
1282	 0.145022089470202 
1283	 0.144979127716691 
1284	 0.144935953218623 
1285	 0.144895234555347 
1286	 0.144863479053386 
1287	 0.14483384818524 
1288	 0.144791350662278 
1289	 0.144754754134452 
1290	 0.144702955732344 
1291	 0.144620545872461 
1292	 0.144573653423794 
1293	 0.14454646660798 
1294	 0.144501960818703 
1295	 0.144463033242317 
1296	 0.144422434116239 
1297	 0.144367641451628 
1298	 0.144319435000288 
1299	 0.14428501924317 
1300	 0.144242897053948 
1301	 0.144195656214117 
1302	 0.144146783345584 
1303	 0.14410267035284 
1304	 0.14404463116868 
1305	 0.143985127294374 
1306	 0.143921097208861 
1307	 0.143861909102634 
1308	 0.143816002233103 
1309	 0.143764121080985 
1310	 0.143719002124414 
1311	 0.143661467733235 
1312	 0.143592459446444 
1313	 0.143533784391071 
1314	 0.1434739628326 
1315	 0.143419398089058 
1316	 0.143374333023873 
1317	 0.143326527226094 
1318	 0.143270783149646 
1319	 0.143224617864233 
1320	 0.143200643240027 
1321	 0.143151960265133 
1322	 0.143081794543902 
1323	 0.143036864960265 
1324	 0.142999400953461 
1325	 0.142934990183986 
1326	 0.142869509762502 
1327	 0.142812505237342 
1328	 0.142726445427425 
1329	 0.142639647430161 
1330	 0.142582150947448 
1331	 0.142548532146895 
1332	 0.142505317187647 
1333	 0.142486467304635 
1334	 0.142438495584116 
1335	 0.14236576796831 
1336	 0.142319130471617 
1337	 0.142274564891821 
1338	 0.142222613428089 
1339	 0.14218874502679 
1340	 0.142140110143484 
1341	 0.142067595894302 
1342	 0.142011556531276 
1343	 0.141966108389674 
1344	 0.141913570690654 
1345	 0.141853150323521 
1346	 0.141793357165199 
1347	 0.141750126125032 
1348	 0.141705934372093 
1349	 0.141659243360342 
1350	 0.141620492418131 
1351	 0.141564488347067 
1352	 0.141481227777429 
1353	 0.141419019131247 
1354	 0.141361863094261 
1355	 0.141308468275485 
1356	 0.141265494071333 
1357	 0.141212230259024 
1358	 0.141150489987211 
1359	 0.14110083114251 
1360	 0.141061423949558 
1361	 0.141006684812985 
1362	 0.140952875498583 
1363	 0.140897079186373 
1364	 0.140820847889667 
1365	 0.140757778475891 
1366	 0.140711072458424 
1367	 0.140653793876582 
1368	 0.14059838727212 
1369	 0.140542656527 
1370	 0.140463041550497 
1371	 0.140404208360611 
1372	 0.140351228806725 
1373	 0.140285753352697 
1374	 0.140213300787662 
1375	 0.140136906282235 
1376	 0.140065633838443 
1377	 0.139984259339612 
1378	 0.139904211698909 
1379	 0.139834993622183 
1380	 0.139757801898196 
1381	 0.139666296213183 
1382	 0.139586770039643 
1383	 0.139514314490858 
1384	 0.139443958411881 
1385	 0.139384008801379 
1386	 0.139308142287774 
1387	 0.139231938591423 
1388	 0.139148164750012 
1389	 0.139050231133273 
1390	 0.138952284126937 
1391	 0.138864265605538 
1392	 0.138755132624843 
1393	 0.138641958917733 
1394	 0.138522987528979 
1395	 0.138387433543822 
1396	 0.13825078666988 
1397	 0.138107980147077 
1398	 0.137963275684086 
1399	 0.137806410689749 
1400	 0.137638421873114 
1401	 0.137468544596482 
1402	 0.137292127748966 
1403	 0.137107368570727 
1404	 0.136911539382555 
1405	 0.13672786269526 
1406	 0.13654250348787 
1407	 0.136353855961615 
1408	 0.136168811286741 
1409	 0.135986660396834 
1410	 0.135795454871702 
1411	 0.13561523092924 
1412	 0.135439864388536 
1413	 0.135278523997107 
1414	 0.135123235633793 
1415	 0.134976234196174 
1416	 0.13483965346376 
1417	 0.134698214218216 
1418	 0.134557141570435 
1419	 0.134417809270684 
1420	 0.134275845940561 
1421	 0.134134948721139 
1422	 0.133999079169538 
1423	 0.133863910679388 
1424	 0.133727361288075 
1425	 0.133596643796458 
1426	 0.133460284762308 
1427	 0.13331340288096 
1428	 0.13318009759831 
1429	 0.133061121976192 
1430	 0.132924644904145 
1431	 0.132784420175417 
1432	 0.132644451597263 
1433	 0.132489090608639 
1434	 0.132342812235791 
1435	 0.132203969747648 
1436	 0.132067442083022 
1437	 0.13193305167277 
1438	 0.131799562676769 
1439	 0.131671992806497 
1440	 0.13154023203735 
1441	 0.131408857147216 
1442	 0.131275654099985 
1443	 0.131144649197987 
1444	 0.131020452128912 
1445	 0.130884892839129 
1446	 0.130758069372268 
1447	 0.130657559453229 
1448	 0.130553283130009 
1449	 0.130449556675363 
1450	 0.130368777021994 
1451	 0.130302639230412 
1452	 0.130236371655904 
1453	 0.130196435488615 
1454	 0.130194310144272 
1455	 0.130177459381019 
1456	 0.130160047337486 
1457	 0.130160063310069 
1458	 0.130165517710129 
1459	 0.130180550114203 
1460	 0.13021519492872 
1461	 0.130246350576312 
1462	 0.130280294151809 
1463	 0.130323197948152 
1464	 0.130377551965285 
1465	 0.13042099469926 
1466	 0.130468089645573 
1467	 0.130509604211452 
1468	 0.130543362547505 
1469	 0.130576440513887 
1470	 0.130608499936994 
1471	 0.130635655506336 
1472	 0.130671535887178 
1473	 0.130708274371856 
1474	 0.130728428444658 
1475	 0.130748618473094 
1476	 0.130762936240493 
1477	 0.130757227053216 
1478	 0.130766824450955 
1479	 0.130783712958291 
1480	 0.130789944749733 
1481	 0.130795488106109 
1482	 0.130793653924116 
1483	 0.130782589703108 
1484	 0.13078345958121 
1485	 0.130787291692066 
1486	 0.130786597508436 
1487	 0.130786441674417 
1488	 0.130786418374908 
1489	 0.130782806866878 
1490	 0.130777323858902 
1491	 0.130781918326545 
1492	 0.130777655043714 
1493	 0.13075986123018 
1494	 0.130744740846187 
1495	 0.130726617601857 
1496	 0.130713614232017 
1497	 0.130709609768446 
1498	 0.130690566254595 
1499	 0.130667059729672 
1500	 0.130639554793519 
1501	 0.130600089891653 
1502	 0.130564658227995 
1503	 0.13052899572074 
1504	 0.130493513451789 
1505	 0.130462914749139 
1506	 0.130421777799086 
1507	 0.130405796927623 
1508	 0.130395027922796 
1509	 0.130364227622366 
1510	 0.130327650049912 
1511	 0.130289434013951 
1512	 0.130249268339571 
1513	 0.130209506079792 
1514	 0.130182938946049 
1515	 0.130162399632337 
1516	 0.130129264244445 
1517	 0.130100072573588 
1518	 0.130084792652666 
1519	 0.130053562283736 
1520	 0.130007068115115 
1521	 0.12997173580712 
1522	 0.12993833028204 
1523	 0.129903703045341 
1524	 0.129867222884211 
1525	 0.129836749768128 
1526	 0.129812236737754 
1527	 0.129777386468486 
1528	 0.129747772765513 
1529	 0.129705687748308 
1530	 0.129640868433483 
1531	 0.129600301938803 
1532	 0.129564475195418 
1533	 0.129531833431957 
1534	 0.129510232830753 
1535	 0.129491428629952 
1536	 0.129473771746522 
1537	 0.129462360451853 
1538	 0.129465850434214 
1539	 0.12945869630426 
1540	 0.1294550115275 
1541	 0.129438512023354 
1542	 0.129408634824551 
1543	 0.129382946459964 
1544	 0.129353241791158 
1545	 0.129320281031963 
1546	 0.129293737219014 
1547	 0.129250339511703 
1548	 0.129204835753849 
1549	 0.129157984317238 
1550	 0.12909849782002 
1551	 0.129058883943797 
1552	 0.129024826858248 
1553	 0.128978917071935 
1554	 0.128939016515563 
1555	 0.128900180892455 
1556	 0.128858808934599 
1557	 0.128804347867807 
1558	 0.128746099092856 
1559	 0.128704082169337 
1560	 0.128663065015875 
1561	 0.128628212812025 
1562	 0.128587860054871 
1563	 0.128549592395749 
1564	 0.128507288315146 
1565	 0.128462552283151 
1566	 0.128408349624434 
1567	 0.128350243872971 
1568	 0.12829843730557 
1569	 0.128238609262796 
1570	 0.128183760256826 
1571	 0.128137915453078 
1572	 0.128085806830993 
1573	 0.12802836129884 
1574	 0.127973736245731 
1575	 0.127926085147944 
1576	 0.12786597922417 
1577	 0.127793600713572 
1578	 0.127732675332502 
1579	 0.127671006446541 
1580	 0.127611536041722 
1581	 0.127558374911822 
1582	 0.127506023694362 
1583	 0.127456791527534 
1584	 0.12740108416506 
1585	 0.12734633269249 
1586	 0.127288220916844 
1587	 0.127219405470247 
1588	 0.127156853456096 
1589	 0.127095295953728 
1590	 0.127042330923677 
1591	 0.126995924658182 
1592	 0.12694616843641 
1593	 0.126907674324967 
1594	 0.126855927111197 
1595	 0.12679046816794 
1596	 0.126731274516901 
1597	 0.126672414396715 
1598	 0.126610065742672 
1599	 0.126549733840592 
1600	 0.126487455485239 
1601	 0.126416255749713 
1602	 0.126349883287986 
1603	 0.126291871732722 
1604	 0.126223045229626 
1605	 0.126148898171842 
1606	 0.126075743710261 
1607	 0.125997157164452 
1608	 0.125919154316483 
1609	 0.125833548901549 
1610	 0.125751064568335 
1611	 0.125672422661982 
1612	 0.125601828622312 
1613	 0.125555178530064 
1614	 0.125503364769665 
1615	 0.125447363934559 
1616	 0.125400133430976 
1617	 0.125345976309444 
1618	 0.125289550967339 
1619	 0.125225466131231 
1620	 0.12515420229324 
1621	 0.125081624535807 
1622	 0.125000259394202 
1623	 0.12491987144879 
1624	 0.124830236311977 
1625	 0.124770949591532 
1626	 0.124726434399369 
1627	 0.124665049452525 
1628	 0.124619393179768 
1629	 0.124556598482198 
1630	 0.124463894409262 
1631	 0.124403491462784 
1632	 0.124366543763124 
1633	 0.124306478840209 
1634	 0.124243926120904 
1635	 0.124180028826039 
1636	 0.12410645485954 
1637	 0.124034701792486 
1638	 0.123966186219804 
1639	 0.123893463875716 
1640	 0.123818902970366 
1641	 0.123732701704661 
1642	 0.123634949773094 
1643	 0.123555779513727 
1644	 0.123468915093748 
1645	 0.123398745598727 
1646	 0.123355960949844 
1647	 0.123293216190367 
1648	 0.123226769047859 
1649	 0.123156753962903 
1650	 0.123082852162512 
1651	 0.123005645022258 
1652	 0.122916139106115 
1653	 0.122845925407253 
1654	 0.122783541906914 
1655	 0.122717253181633 
1656	 0.122659223675823 
1657	 0.122600436342208 
1658	 0.122539800500266 
1659	 0.122475291504211 
1660	 0.122414612238577 
1661	 0.122351171131203 
1662	 0.122279073336766 
1663	 0.122210334904064 
1664	 0.122148750143191 
1665	 0.122078616597805 
1666	 0.122003287821067 
1667	 0.121924406008275 
1668	 0.121838066927802 
1669	 0.121759432105788 
1670	 0.121671541430268 
1671	 0.121604822123892 
1672	 0.121561806155734 
1673	 0.121498975885722 
1674	 0.121437893937436 
1675	 0.12137497931659 
1676	 0.121295231339623 
1677	 0.1212321974096 
1678	 0.121192440408377 
1679	 0.121124313412323 
1680	 0.121039242775268 
1681	 0.120969524468847 
1682	 0.12088708138255 
1683	 0.120822356500093 
1684	 0.120787659001652 
1685	 0.120725945169349 
1686	 0.120648162985683 
1687	 0.120584159672689 
1688	 0.120523198114019 
1689	 0.120451752571324 
1690	 0.120380009516448 
1691	 0.120314784523948 
1692	 0.12023653016261 
1693	 0.120171428471789 
1694	 0.120127891090041 
1695	 0.120070307625267 
1696	 0.120008334681149 
1697	 0.119943351987198 
1698	 0.119875079226361 
1699	 0.11980753206303 
1700	 0.119734816598025 
1701	 0.119664295299038 
1702	 0.119593518879955 
1703	 0.119527910076677 
1704	 0.119464748927489 
1705	 0.119402214033069 
1706	 0.11934251619016 
1707	 0.119285212834013 
1708	 0.119231928512135 
1709	 0.119170734458173 
1710	 0.119112561336912 
1711	 0.119048635925961 
1712	 0.118970395490116 
1713	 0.11890496467072 
1714	 0.118841625554243 
1715	 0.118784258554025 
1716	 0.118736413748129 
1717	 0.118685693274236 
1718	 0.118638450580135 
1719	 0.118586516502499 
1720	 0.118525866872494 
1721	 0.118480475744424 
1722	 0.118451469871724 
1723	 0.118399126795485 
1724	 0.118349814123274 
1725	 0.118287058957029 
1726	 0.118192922390626 
1727	 0.118124510524749 
1728	 0.118069199563747 
1729	 0.117997573558563 
1730	 0.117921667455299 
1731	 0.117850643894466 
1732	 0.117774999468891 
1733	 0.117711144965801 
1734	 0.117667670519715 
1735	 0.117595238840859 
1736	 0.117501817852811 
1737	 0.117426994800621 
1738	 0.117342349471006 
1739	 0.117274621749078 
1740	 0.117242410193692 
1741	 0.117167678719267 
1742	 0.11706612076433 
1743	 0.116988870260504 
1744	 0.116901785845726 
1745	 0.116830907324715 
1746	 0.116784439707705 
1747	 0.116726538099798 
1748	 0.116661224837931 
1749	 0.11660865081153 
1750	 0.116554266086893 
1751	 0.116509771103708 
1752	 0.116463051669497 
1753	 0.116385671244054 
1754	 0.116318031561735 
1755	 0.116241833744974 
1756	 0.116137919602505 
1757	 0.116067068337326 
1758	 0.116015772261691 
1759	 0.115940072955877 
1760	 0.115888170398746 
1761	 0.115861316111663 
1762	 0.115778225226224 
1763	 0.115696942205336 
1764	 0.115649834352344 
1765	 0.115560762571959 
1766	 0.115484133692974 
1767	 0.115430861839728 
1768	 0.115363689116215 
1769	 0.115316007610292 
1770	 0.115266845384263 
1771	 0.115191942566557 
1772	 0.115116394510586 
1773	 0.115067194675102 
1774	 0.115004525457653 
1775	 0.11494404196677 
1776	 0.114908009142724 
1777	 0.114813530807657 
1778	 0.114720879373488 
1779	 0.114680345883384 
1780	 0.114621802458284 
1781	 0.114573161810605 
1782	 0.114565080144391 
1783	 0.114564620398754 
1784	 0.114530568494076 
1785	 0.11450125897147 
1786	 0.114449629245949 
1787	 0.114351022565063 
1788	 0.114277641089773 
1789	 0.114200241506783 
1790	 0.114135715811094 
1791	 0.114092970981633 
1792	 0.114031593091444 
1793	 0.113956974168457 
1794	 0.113898947829175 
1795	 0.113847634810894 
1796	 0.113792970421348 
1797	 0.113750160099674 
1798	 0.113714072896921 
1799	 0.113662951526029 
1800	 0.1136205029143 
1801	 0.111434714419247 
1802	 0.111463033000409 
1803	 0.111466955930561 
1804	 0.111438155394592 
1805	 0.111410298315444 
1806	 0.111377724619919 
1807	 0.111329594815939 
1808	 0.111302845268545 
1809	 0.111300276505294 
1810	 0.111282962759916 
1811	 0.111275365040638 
1812	 0.111249438422439 
1813	 0.111188206890455 
1814	 0.11112999092361 
1815	 0.111063698154266 
1816	 0.111044388535862 
1817	 0.111011493458884 
1818	 0.110993756166633 
1819	 0.11095545382507 
1820	 0.110914234222122 
1821	 0.110851222387418 
1822	 0.110787699511738 
1823	 0.110788246353427 
1824	 0.110799917220157 
1825	 0.110766354205279 
1826	 0.110729485390181 
1827	 0.110705306214806 
1828	 0.110678157586675 
1829	 0.110642431347954 
1830	 0.110615774125768 
1831	 0.110611271591713 
1832	 0.11056827106475 
1833	 0.110520460873519 
1834	 0.11047845907111 
1835	 0.110395500564082 
1836	 0.110357752160836 
1837	 0.110372340703459 
1838	 0.110348687961105 
1839	 0.11031851979385 
1840	 0.110307167039932 
1841	 0.11027956380179 
1842	 0.110201840830029 
1843	 0.110145457936344 
1844	 0.11012320572637 
1845	 0.110082740410282 
1846	 0.110038153059581 
1847	 0.109996125821108 
1848	 0.109936206055396 
1849	 0.109893734495545 
1850	 0.109852087776689 
1851	 0.109814860507006 
1852	 0.109773411755118 
1853	 0.109740784240745 
1854	 0.109671286312077 
1855	 0.109583855427417 
1856	 0.109515530235507 
1857	 0.109458573131143 
1858	 0.109419232158275 
1859	 0.109376580672992 
1860	 0.109318311245343 
1861	 0.109250138442998 
1862	 0.109166064706244 
1863	 0.109076653676325 
1864	 0.108995350527242 
1865	 0.108922846800377 
1866	 0.108829499375 
1867	 0.108710059954203 
1868	 0.108594975609696 
1869	 0.108492307439231 
1870	 0.108383155944884 
1871	 0.108265091285615 
1872	 0.108155499837802 
1873	 0.108045808063893 
1874	 0.107883362225452 
1875	 0.107707801062073 
1876	 0.107551116555061 
1877	 0.107384059048093 
1878	 0.107222236887965 
1879	 0.107062601769119 
1880	 0.106881891783206 
1881	 0.106685323059474 
1882	 0.106472100252804 
1883	 0.106240341594704 
1884	 0.106003081858516 
1885	 0.105756816010566 
1886	 0.105502843816349 
1887	 0.105243429014738 
1888	 0.104990386909508 
1889	 0.104718972097642 
1890	 0.104425286030622 
1891	 0.104120180021594 
1892	 0.1037994823244 
1893	 0.103462733871356 
1894	 0.103104822413342 
1895	 0.102749323292626 
1896	 0.102373504822217 
1897	 0.10197004108277 
1898	 0.101574286229531 
1899	 0.10118013224831 
1900	 0.100803383409443 
1901	 0.100440927458244 
1902	 0.100073215889097 
1903	 9.97080025405389E-02 
1904	 9.93530099199982E-02 
1905	 9.89995957987566E-02 
1906	 9.86523116868269E-02 
1907	 0.098324442929506 
1908	 9.79965607824361E-02 
1909	 9.76631321468827E-02 
1910	 9.73440531058799E-02 
1911	 9.70362348091443E-02 
1912	 9.67272476387399E-02 
1913	 9.64366197178513E-02 
1914	 9.61681566729957E-02 
1915	 9.58972013437819E-02 
1916	 0.095628640708348 
1917	 9.53760171914189E-02 
1918	 9.51360485677915E-02 
1919	 0.094878093476968 
1920	 9.46339927857525E-02 
1921	 9.44050957692933E-02 
1922	 9.41680897006018E-02 
1923	 9.39532292932154E-02 
1924	 9.37485774558245E-02 
1925	 9.35644394631113E-02 
1926	 9.33712110594463E-02 
1927	 9.31842157852366E-02 
1928	 9.29977180687866E-02 
1929	 9.28182306258438E-02 
1930	 9.26525671450521E-02 
1931	 9.24882429176858E-02 
1932	 9.23274280412071E-02 
1933	 9.21738622817251E-02 
1934	 9.20260154635333E-02 
1935	 9.18882658131415E-02 
1936	 9.17812096096564E-02 
1937	 9.16474766299955E-02 
1938	 9.15090603142266E-02 
1939	 9.13654547779375E-02 
1940	 9.12067585060806E-02 
1941	 9.10558749802319E-02 
1942	 9.08965404419027E-02 
1943	 9.07359520581403E-02 
1944	 9.05952791890951E-02 
1945	 9.04504041672535E-02 
1946	 9.03213098495185E-02 
1947	 0.090220971903402 
1948	 9.00998098087556E-02 
1949	 8.99675333781603E-02 
1950	 8.98521434130193E-02 
1951	 8.97322526741684E-02 
1952	 8.96302870177778E-02 
1953	 8.95324635915693E-02 
1954	 8.94504889842727E-02 
1955	 0.089396255367028 
1956	 8.93341875526655E-02 
1957	 8.93002024847566E-02 
1958	 8.93021738118006E-02 
1959	 8.92962018840239E-02 
1960	 0.089279590705473 
1961	 8.93034655376548E-02 
1962	 8.93638104945478E-02 
1963	 8.94106671478632E-02 
1964	 8.94597731718215E-02 
1965	 8.95471348620985E-02 
1966	 8.96297021660524E-02 
1967	 8.96929112156921E-02 
1968	 8.97795952602287E-02 
1969	 8.98921974071124E-02 
1970	 8.99902868623721E-02 
1971	 9.00854913335329E-02 
1972	 9.01876763221468E-02 
1973	 9.02939901740809E-02 
1974	 9.04035435333977E-02 
1975	 9.05248926211768E-02 
1976	 9.06323101627795E-02 
1977	 9.07402685169394E-02 
1978	 9.08475411556102E-02 
1979	 9.09129064070911E-02 
1980	 0.090982678675086 
1981	 9.10622508175113E-02 
1982	 9.11278009012353E-02 
1983	 9.12108499256029E-02 
1984	 9.13225998686679E-02 
1985	 9.14136372263494E-02 
1986	 9.15018214255154E-02 
1987	 9.15841200613176E-02 
1988	 9.16559695583237E-02 
1989	 9.17308351574104E-02 
1990	 9.18049965302944E-02 
1991	 9.18947024399101E-02 
1992	 9.19645001084191E-02 
1993	 9.20211066634106E-02 
1994	 9.21023864032887E-02 
1995	 0.092172980081359 
1996	 9.22649180900911E-02 
1997	 9.24128146043076E-02 
1998	 9.25049668311929E-02 
1999	 0.092556267870809 
2000	 9.26441315214058E-02 
2001	 9.27216453247764E-02 
2002	 9.28081317957654E-02 
2003	 9.29334182120275E-02 
2004	 9.30561786042222E-02 
2005	 9.31747758162459E-02 
2006	 9.32845570435017E-02 
2007	 0.093405431286369 
2008	 9.35380093349095E-02 
2009	 9.36612347102507E-02 
2010	 9.37945308546047E-02 
2011	 9.39060870875792E-02 
2012	 9.40051194198065E-02 
2013	 9.40987443720754E-02 
2014	 9.41727965649086E-02 
2015	 9.42513146860853E-02 
2016	 9.43278697213661E-02 
2017	 9.44030335946933E-02 
2018	 9.44830318141585E-02 
2019	 9.45637209210697E-02 
2020	 0.094644752334871 
2021	 0.094741083563632 
2022	 9.48109967998503E-02 
2023	 9.48709987266114E-02 
2024	 9.49274763123254E-02 
2025	 9.49630194951719E-02 
2026	 9.50060731968722E-02 
2027	 9.50533661071896E-02 
2028	 9.50818947138511E-02 
2029	 9.51434700989614E-02 
2030	 9.52237216874362E-02 
2031	 9.52813060848985E-02 
2032	 9.53516158231735E-02 
2033	 9.54087516093962E-02 
2034	 9.54388452674215E-02 
2035	 9.54830684851648E-02 
2036	 9.55419235009905E-02 
2037	 9.55882032793374E-02 
2038	 9.56291394740575E-02 
2039	 0.095663827656879 
2040	 9.56820155047052E-02 
2041	 9.57163674559469E-02 
2042	 9.57578982986693E-02 
2043	 9.57898943403098E-02 
2044	 9.58138522042915E-02 
2045	 9.58340267994191E-02 
2046	 9.58616034634799E-02 
2047	 9.58857360775082E-02 
2048	 9.59031473488437E-02 
2049	 9.59339714899751E-02 
2050	 9.59460294512532E-02 
2051	 9.59227132672133E-02 
2052	 9.59246748453503E-02 
2053	 9.59397196994946E-02 
2054	 0.09595093703741 
2055	 9.59856388943486E-02 
2056	 9.59850807798705E-02 
2057	 9.59938521385757E-02 
2058	 9.59945601588558E-02 
2059	 9.59980809655398E-02 
2060	 9.60064339771487E-02 
2061	 9.60033156045365E-02 
2062	 9.59806476369184E-02 
2063	 9.59822701985595E-02 
2064	 9.59860556969077E-02 
2065	 9.59952745328159E-02 
2066	 9.60331670485206E-02 
2067	 9.60534742399037E-02 
2068	 9.60630805822581E-02 
2069	 9.60750009549079E-02 
2070	 9.60821667551878E-02 
2071	 9.60799515439072E-02 
2072	 9.60901189401378E-02 
2073	 9.60960665509823E-02 
2074	 9.61180461032308E-02 
2075	 9.61631343814983E-02 
2076	 9.61857251869076E-02 
2077	 9.62154060300329E-02 
2078	 9.62274674638741E-02 
2079	 9.62028147994067E-02 
2080	 0.096208803262777 
2081	 9.62256056177903E-02 
2082	 9.62391838948343E-02 
2083	 9.62696486341307E-02 
2084	 9.62920235555603E-02 
2085	 9.63142384778618E-02 
2086	 9.63252869832761E-02 
2087	 9.63505702869036E-02 
2088	 9.63903665118411E-02 
2089	 9.64139226902917E-02 
2090	 0.096441534524892 
2091	 9.64522345212248E-02 
2092	 0.096435556176942 
2093	 0.096441710698566 
2094	 9.64425702304331E-02 
2095	 9.64576319690211E-02 
2096	 9.64954096074394E-02 
2097	 0.096525972914279 
2098	 9.65582280510841E-02 
2099	 0.096595549000404 
2100	 9.66242927175227E-02 
2101	 0.096648152991703 
2102	 9.66773085959122E-02 
2103	 9.67021945512766E-02 
2104	 9.67344591020671E-02 
2105	 9.67776711854119E-02 
2106	 9.68110186413235E-02 
2107	 9.68403889240431E-02 
2108	 9.68732367409767E-02 
2109	 9.69002745698003E-02 
2110	 9.69328895400967E-02 
2111	 9.69795497260783E-02 
2112	 9.70132892990206E-02 
2113	 9.70399415857073E-02 
2114	 9.70677585612369E-02 
2115	 9.70951335935067E-02 
2116	 9.71123874470275E-02 
2117	 9.71423978820523E-02 
2118	 9.71667048556082E-02 
2119	 9.72270713874583E-02 
2120	 9.73287043685956E-02 
2121	 9.73831224369064E-02 
2122	 9.74376172047628E-02 
2123	 9.74903443662211E-02 
2124	 9.75157845935562E-02 
2125	 9.75420320081281E-02 
2126	 9.75935161052701E-02 
2127	 9.76180345785879E-02 
2128	 9.75904610930377E-02 
2129	 9.75948313287913E-02 
2130	 9.76109501972146E-02 
2131	 9.76261262646408E-02 
2132	 9.76456333891767E-02 
2133	 0.097686016608683 
2134	 9.76989002419998E-02 
2135	 9.77056234655517E-02 
2136	 9.76973085026352E-02 
2137	 9.76719761781007E-02 
2138	 9.76499266160243E-02 
2139	 9.76150692463942E-02 
2140	 9.75839139479955E-02 
2141	 9.75493795098161E-02 
2142	 9.75204244170651E-02 
2143	 9.74951925640176E-02 
2144	 0.097465847884433 
2145	 9.74524430399732E-02 
2146	 9.74154138646934E-02 
2147	 9.73657790287876E-02 
2148	 0.097304085147558 
2149	 9.72357949007008E-02 
2150	 9.71376252682769E-02 
2151	 9.70770421499943E-02 
2152	 9.70322601265565E-02 
2153	 9.69723751965913E-02 
2154	 0.096926195961492 
2155	 9.68687979119807E-02 
2156	 9.67918260874946E-02 
2157	 9.67244580929133E-02 
2158	 9.66753318246451E-02 
2159	 9.66018136819805E-02 
2160	 9.65207480289558E-02 
2161	 0.096426548947657 
2162	 9.62898782497347E-02 
2163	 9.61868240483549E-02 
2164	 9.60883276569998E-02 
2165	 9.60109876262249E-02 
2166	 9.59119311298826E-02 
2167	 9.58208329591462E-02 
2168	 9.57379373763545E-02 
2169	 9.56389406258176E-02 
2170	 9.55534161965695E-02 
2171	 9.54969484609146E-02 
2172	 9.54266751909695E-02 
2173	 9.53413457036557E-02 
2174	 9.52672667212958E-02 
2175	 9.52011352777082E-02 
2176	 9.51370005042367E-02 
2177	 9.50822563460523E-02 
2178	 0.095015173495636 
2179	 9.49415552210481E-02 
2180	 9.48766960893242E-02 
2181	 9.48023761456871E-02 
2182	 9.47353443674647E-02 
2183	 9.46858998836944E-02 
2184	 9.46336117978628E-02 
2185	 9.45738795101938E-02 
2186	 0.094513234431266 
2187	 0.094438359619636 
2188	 9.43492087885768E-02 
2189	 9.42740188972976E-02 
2190	 9.41965788803101E-02 
2191	 9.41145097630259E-02 
2192	 0.094023844005317 
2193	 9.39597131657671E-02 
2194	 9.38962717687115E-02 
2195	 9.38458722039572E-02 
2196	 0.093837041678338 
2197	 9.38045607649214E-02 
2198	 9.37547629593069E-02 
2199	 9.37182999223804E-02 
2200	 0.093693929516963 
2201	 9.36570077968479E-02 
2202	 0.093618089975365 
2203	 9.35797494044929E-02 
2204	 9.35355398994704E-02 
2205	 9.34760412487282E-02 
2206	 9.34285655090328E-02 
2207	 9.33844863487977E-02 
2208	 9.33444714716683E-02 
2209	 9.33007019099215E-02 
2210	 9.32744642902355E-02 
2211	 9.32649976753076E-02 
2212	 9.32478695949103E-02 
2213	 9.32425364289846E-02 
2214	 9.32266454101289E-02 
2215	 9.32005612787864E-02 
2216	 9.31765359842202E-02 
2217	 9.31470584962173E-02 
2218	 9.31262285822698E-02 
2219	 9.31125249661475E-02 
2220	 9.30971815760886E-02 
2221	 9.30981186261627E-02 
2222	 9.30746101308788E-02 
2223	 9.30395830813215E-02 
2224	 9.30120666810371E-02 
2225	 0.093000174602242 
2226	 9.29974467944456E-02 
2227	 9.29846850181198E-02 
2228	 9.29766853973967E-02 
2229	 9.29741946848917E-02 
2230	 0.092960591270717 
2231	 0.092963190682656 
2232	 9.29955691632589E-02 
2233	 9.30049176448002E-02 
2234	 9.29997116816964E-02 
2235	 9.30043691474595E-02 
2236	 9.30407572259527E-02 
2237	 0.093011619045393 
2238	 0.092933682586456 
2239	 9.28889433718453E-02 
2240	 9.27952083993087E-02 
2241	 9.27470470930427E-02 
2242	 9.27664375616695E-02 
2243	 9.27550486119084E-02 
2244	 9.27492101434249E-02 
2245	 9.27143226566213E-02 
2246	 9.26875199458736E-02 
2247	 9.26667666914213E-02 
2248	 9.26377970914081E-02 
2249	 9.26087225499942E-02 
2250	 9.25833698350708E-02 
2251	 9.25542045865217E-02 
2252	 9.25167355077696E-02 
2253	 9.24771129341727E-02 
2254	 9.24399576733961E-02 
2255	 9.23839646511448E-02 
2256	 9.23641121817898E-02 
2257	 9.23707993119877E-02 
2258	 9.23629513778069E-02 
2259	 9.23750365619375E-02 
2260	 9.23668735980498E-02 
2261	 9.23458666452496E-02 
2262	 0.09232509573836 
2263	 9.22974051986742E-02 
2264	 9.22629463185747E-02 
2265	 0.092209409639935 
2266	 9.21749987272673E-02 
2267	 9.21228454099295E-02 
2268	 9.21181821829871E-02 
2269	 9.21729287713274E-02 
2270	 9.21991994650095E-02 
2271	 9.22425414487307E-02 
2272	 0.092229271787021 
2273	 9.21529752380276E-02 
2274	 0.092112885031638 
2275	 9.20784432430204E-02 
2276	 9.20459307015178E-02 
2277	 9.20269646765909E-02 
2278	 9.20304772708869E-02 
2279	 9.20113623980882E-02 
2280	 9.19909732092177E-02 
2281	 9.19625446568264E-02 
2282	 9.18949904616745E-02 
2283	 9.18972647022112E-02 
2284	 9.19752138644495E-02 
2285	 9.19655543283648E-02 
2286	 0.091956573287708 
2287	 9.19250924269207E-02 
2288	 0.091780001825475 
2289	 9.17200659109139E-02 
2290	 0.09173183867448 
2291	 9.17060847985266E-02 
2292	 9.17050445675496E-02 
2293	 9.16709136233417E-02 
2294	 9.15784864867959E-02 
2295	 9.15262825861083E-02 
2296	 9.15116315232612E-02 
2297	 0.091442459380821 
2298	 9.13469701363287E-02 
2299	 9.12805118431063E-02 
2300	 9.11600053492947E-02 
2301	 9.10591969206877E-02 
2302	 9.10225644919567E-02 
2303	 9.09615363005302E-02 
2304	 9.08939553692881E-02 
2305	 9.08218327761742E-02 
2306	 0.090736393843221 
2307	 9.06354385756039E-02 
2308	 9.05397057441703E-02 
2309	 9.04318768406199E-02 
2310	 9.03300482765883E-02 
2311	 9.02245446422551E-02 
2312	 9.01367087755649E-02 
2313	 9.00662155607234E-02 
2314	 8.99849009759239E-02 
2315	 8.99182718335853E-02 
2316	 8.98163218018821E-02 
2317	 8.96534375211437E-02 
2318	 8.95706559512685E-02 
2319	 8.94995059692959E-02 
2320	 8.94603184648467E-02 
2321	 8.95309179154365E-02 
2322	 8.95148973214372E-02 
2323	 0.089482172708519 
2324	 0.08942206221226 
2325	 8.92713583405726E-02 
2326	 8.91845867132525E-02 
2327	 8.91095104087066E-02 
2328	 0.089041153830567 
2329	 8.90307798510757E-02 
2330	 8.90320290785344E-02 
2331	 8.90183905466249E-02 
2332	 8.90018581185118E-02 
2333	 8.89430025754208E-02 
2334	 8.89277641634413E-02 
2335	 8.89076565521253E-02 
2336	 8.88616098779261E-02 
2337	 0.088882294868743 
2338	 8.88570512493025E-02 
2339	 8.87911162537023E-02 
2340	 8.87724585844764E-02 
2341	 8.87584622016523E-02 
2342	 8.87545167656494E-02 
2343	 8.87199841731055E-02 
2344	 8.86578718389687E-02 
2345	 8.86274044822056E-02 
2346	 8.85673138535347E-02 
2347	 8.85115317326038E-02 
2348	 8.85127928759739E-02 
2349	 8.84748853435081E-02 
2350	 8.83719943078899E-02 
2351	 0.088313938794407 
2352	 8.82772812625477E-02 
2353	 8.82443703587565E-02 
2354	 8.82399311447454E-02 
2355	 8.81886287276587E-02 
2356	 8.81318525698091E-02 
2357	 8.80612916933411E-02 
2358	 8.79060694174007E-02 
2359	 8.78518626301677E-02 
2360	 8.78806111566229E-02 
2361	 8.78354040230824E-02 
2362	 8.78354744572055E-02 
2363	 8.77753982446378E-02 
2364	 8.76068902787559E-02 
2365	 8.75024532689368E-02 
2366	 8.73739474215216E-02 
2367	 8.72982419646053E-02 
2368	 8.73189312919008E-02 
2369	 8.72681451870067E-02 
2370	 8.72231613510565E-02 
2371	 8.71406358250745E-02 
2372	 8.70334939100117E-02 
2373	 8.69382596339917E-02 
2374	 0.086878480847782 
2375	 8.68116932839856E-02 
2376	 8.66637805217544E-02 
2377	 0.086517946356976 
2378	 0.086462175041071 
2379	 8.64561840512665E-02 
2380	 8.64649069591128E-02 
2381	 8.64625785641227E-02 
2382	 8.63112727577857E-02 
2383	 8.61011733875263E-02 
2384	 8.59821509813074E-02 
2385	 8.58733605372082E-02 
2386	 8.58324488558225E-02 
2387	 8.58574195974749E-02 
2388	 8.57619729872964E-02 
2389	 8.55916672608194E-02 
2390	 8.54818879673828E-02 
2391	 8.53789708225009E-02 
2392	 8.52661248843866E-02 
2393	 8.51859121683774E-02 
2394	 8.50562986824413E-02 
2395	 8.48293987811444E-02 
2396	 8.47523853803144E-02 
2397	 8.47925800232006E-02 
2398	 8.47095130131653E-02 
2399	 0.084643532593638 
2400	 8.45076044869797E-02 
2401	 8.42951599962124E-02 
2402	 8.42245054361406E-02 
2403	 8.41944089919288E-02 
2404	 8.40857265224703E-02 
2405	 8.39537749105881E-02 
2406	 8.37962957575591E-02 
2407	 8.35861951643079E-02 
2408	 8.34871198765278E-02 
2409	 8.33913606295383E-02 
2410	 8.32586464653367E-02 
2411	 8.31603292793513E-02 
2412	 8.29911198806242E-02 
2413	 8.29500763274591E-02 
2414	 8.29725455400554E-02 
2415	 8.29498565535981E-02 
2416	 0.082866760704708 
2417	 8.27503594412095E-02 
2418	 8.25496086708125E-02 
2419	 8.22125482529042E-02 
2420	 8.20113071990694E-02 
2421	 8.18034469470985E-02 
2422	 8.17232393683431E-02 
2423	 8.18094606592551E-02 
2424	 8.17500908714663E-02 
2425	 0.081691838830503 
2426	 8.16334570413745E-02 
2427	 8.14855616077168E-02 
2428	 8.13697199584521E-02 
2429	 8.13009287476247E-02 
2430	 8.11888666138632E-02 
2431	 0.081056426704589 
2432	 8.09020533822283E-02 
2433	 8.07794407947164E-02 
2434	 8.05624020900054E-02 
2435	 8.02165862797384E-02 
2436	 8.00052872963119E-02 
2437	 7.97447689533088E-02 
2438	 7.96446480545659E-02 
2439	 7.97471837824442E-02 
2440	 0.079671292471829 
2441	 7.95620773405473E-02 
2442	 7.95089397855905E-02 
2443	 7.94519320129511E-02 
2444	 7.93031238425996E-02 
2445	 7.92022846926423E-02 
2446	 7.90793254303946E-02 
2447	 0.078798626352084 
2448	 7.86234355983817E-02 
2449	 7.85527600188565E-02 
2450	 7.83657928744478E-02 
2451	 7.80944834180896E-02 
2452	 0.077916829672564 
2453	 7.77456853406097E-02 
2454	 7.76214797740388E-02 
2455	 0.077553543921857 
2456	 7.74209862291098E-02 
2457	 0.077314429416391 
2458	 7.72093566819093E-02 
2459	 7.70854679063532E-02 
2460	 7.69476935045432E-02 
2461	 7.67823670670376E-02 
2462	 7.66328105826758E-02 
2463	 0.076497989402661 
2464	 7.63506447070989E-02 
2465	 7.62205884933776E-02 
2466	 7.60549522643066E-02 
2467	 7.57614939969191E-02 
2468	 7.56498996421726E-02 
2469	 7.57041126710363E-02 
2470	 7.55786160443056E-02 
2471	 0.075559261256293 
2472	 7.54372798350274E-02 
2473	 7.51684489394762E-02 
2474	 0.074975817262024 
2475	 7.47119520748481E-02 
2476	 7.44184805936793E-02 
2477	 7.43375302042635E-02 
2478	 7.42072458040848E-02 
2479	 7.40200572234452E-02 
2480	 7.39424247566377E-02 
2481	 7.37342731470819E-02 
2482	 7.34735359360185E-02 
2483	 7.33361370709069E-02 
2484	 7.31164159497802E-02 
2485	 7.27834687194296E-02 
2486	 7.26357923501721E-02 
2487	 7.24449947651807E-02 
2488	 7.22298063893479E-02 
2489	 7.21536899840384E-02 
2490	 7.18200518644624E-02 
2491	 7.15390472247387E-02 
2492	 7.14966084450693E-02 
2493	 7.13754021513674E-02 
2494	 0.071342110480559 
2495	 7.13451466247887E-02 
2496	 7.10518899565404E-02 
2497	 7.07312443092323E-02 
2498	 7.05380639421106E-02 
2499	 7.03204185985994E-02 
2500	 7.01271636350492E-02 
