Wavelength	LMW_1000006.asd
350	 5.88179242084163E-02 
351	 0.058891740594136 
352	 5.29973629889547E-02 
353	 4.54001432486857E-02 
354	 4.36402112997727E-02 
355	 4.51649864904779E-02 
356	 4.64815659557886E-02 
357	 4.57635618024473E-02 
358	 4.85870726988846E-02 
359	 4.90666696117959E-02 
360	 0.046915130751912 
361	 4.55306487868386E-02 
362	 4.40061528193023E-02 
363	 0.043469260686608 
364	 4.45364092886581E-02 
365	 4.70145338318247E-02 
366	 0.046712308030465 
367	 4.52919627250045E-02 
368	 4.54429331044835E-02 
369	 4.68744668238974E-02 
370	 4.74556763855041E-02 
371	 4.61999150453685E-02 
372	 4.34497845635807E-02 
373	 4.44801986875052E-02 
374	 4.66043734469553E-02 
375	 4.77040094337517E-02 
376	 4.86255729052123E-02 
377	 4.76788490852285E-02 
378	 4.69789189495022E-02 
379	 4.84803441621207E-02 
380	 4.86857873289102E-02 
381	 4.74216130615468E-02 
382	 4.59846556817416E-02 
383	 4.65210889525847E-02 
384	 4.85078341621806E-02 
385	 4.91659056704898E-02 
386	 4.79351835272803E-02 
387	 4.89995806192833E-02 
388	 4.95180668006895E-02 
389	 4.95057717011109E-02 
390	 4.94280279825077E-02 
391	 0.047191805411045 
392	 4.69335936772272E-02 
393	 4.87808823244225E-02 
394	 4.94390033016304E-02 
395	 5.02549795036551E-02 
396	 5.09373641512158E-02 
397	 5.13899731808034E-02 
398	 5.26318503980937E-02 
399	 0.052115871817144 
400	 0.051516401461592 
401	 0.052953725147401 
402	 5.17117379183798E-02 
403	 0.050074281850084 
404	 4.98859235611836E-02 
405	 5.19245548944028E-02 
406	 5.28144690647306E-02 
407	 5.30299868216671E-02 
408	 5.32938017062227E-02 
409	 5.26345452834301E-02 
410	 5.25081096265785E-02 
411	 5.27684207612003E-02 
412	 5.27115571975004E-02 
413	 5.36668002389063E-02 
414	 5.44675013193623E-02 
415	 5.43985124126705E-02 
416	 5.35626069731102E-02 
417	 5.28053217980708E-02 
418	 5.28964906334675E-02 
419	 5.39080972294211E-02 
420	 5.39348316860493E-02 
421	 0.05385132809135 
422	 5.40459032423732E-02 
423	 5.44581167070821E-02 
424	 5.41334366741667E-02 
425	 5.31609901204003E-02 
426	 5.22405375970812E-02 
427	 5.29821910677955E-02 
428	 5.34212266388718E-02 
429	 5.32584583476984E-02 
430	 0.052863915920574 
431	 5.29644814157834E-02 
432	 5.28861355759162E-02 
433	 5.26125715536636E-02 
434	 5.27880688101091E-02 
435	 5.29404777405885E-02 
436	 5.28164189312893E-02 
437	 5.24071350307022E-02 
438	 5.21348872262722E-02 
439	 5.23515942538787E-02 
440	 5.27682618946075E-02 
441	 5.28173808543413E-02 
442	 5.26075171402864E-02 
443	 5.25636227864525E-02 
444	 5.27174840437846E-02 
445	 5.24602602608127E-02 
446	 5.25319355754926E-02 
447	 5.27386203781712E-02 
448	 5.27169062005933E-02 
449	 5.25951456734869E-02 
450	 5.25053975402914E-02 
451	 5.24835664251395E-02 
452	 5.24826904525158E-02 
453	 5.25443505245716E-02 
454	 5.25513238009816E-02 
455	 5.25148377898316E-02 
456	 0.052889985221914 
457	 5.27767465422024E-02 
458	 5.24716833802604E-02 
459	 5.26918595064906E-02 
460	 5.28013410516179E-02 
461	 5.27351018206749E-02 
462	 0.052600768328602 
463	 5.26731439589664E-02 
464	 5.25272119185511E-02 
465	 5.24503633484246E-02 
466	 5.27084464830022E-02 
467	 5.26939117941113E-02 
468	 0.052508735376137 
469	 5.23214084960899E-02 
470	 5.23175230825986E-02 
471	 5.22600638635185E-02 
472	 5.22241455359418E-02 
473	 5.22171451107573E-02 
474	 5.19206258620791E-02 
475	 5.18692062680756E-02 
476	 0.052002757818365 
477	 5.20244563435134E-02 
478	 5.20514986739303E-02 
479	 0.052051185969128 
480	 5.20069567182356E-02 
481	 5.19320180396678E-02 
482	 5.20606633694881E-02 
483	 5.22516213933594E-02 
484	 5.23048748143665E-02 
485	 5.22731148644446E-02 
486	 5.20790330130727E-02 
487	 5.18779151557129E-02 
488	 5.19805746416593E-02 
489	 5.19456038470467E-02 
490	 5.18674451176631E-02 
491	 5.18632522829715E-02 
492	 5.18716589534098E-02 
493	 5.18380792998219E-02 
494	 5.18511115337717E-02 
495	 5.20159283266058E-02 
496	 5.20194985733728E-02 
497	 5.18392098524389E-02 
498	 5.16691757813536E-02 
499	 5.19975507403925E-02 
500	 0.051854931224833 
501	 5.16298192345371E-02 
502	 5.18632543566948E-02 
503	 5.18867738070677E-02 
504	 5.17951645867018E-02 
505	 5.17284270594192E-02 
506	 5.18239566333249E-02 
507	 5.17440292554008E-02 
508	 5.16195138442705E-02 
509	 5.15865603357321E-02 
510	 5.15312195588592E-02 
511	 5.15541500264005E-02 
512	 5.16403092210516E-02 
513	 5.17077447316044E-02 
514	 5.16839853295728E-02 
515	 0.051641923391797 
516	 5.16506250124122E-02 
517	 5.17488792932489E-02 
518	 5.18434219671587E-02 
519	 5.18703296332445E-02 
520	 5.18039492443504E-02 
521	 5.17336381612755E-02 
522	 5.16878993311841E-02 
523	 5.16875308120207E-02 
524	 5.17471392877092E-02 
525	 5.16960340660225E-02 
526	 5.16765323959175E-02 
527	 5.17778127393815E-02 
528	 0.051674937950563 
529	 5.16671077141578E-02 
530	 5.17810987430601E-02 
531	 5.18547273332851E-02 
532	 5.17773245133744E-02 
533	 5.17134439701109E-02 
534	 5.17576153415969E-02 
535	 5.17809063360583E-02 
536	 5.17734013380579E-02 
537	 5.18171260955984E-02 
538	 5.19886335510493E-02 
539	 5.20544726708734E-02 
540	 0.052043104170548 
541	 5.20269281768972E-02 
542	 0.052105588213328 
543	 5.21457369922652E-02 
544	 5.21958393088876E-02 
545	 5.23072300924798E-02 
546	 5.23408689664507E-02 
547	 5.23306285520184E-02 
548	 5.23526352950325E-02 
549	 5.24999005053687E-02 
550	 5.25604954077368E-02 
551	 5.25498266461918E-02 
552	 5.25581941232117E-02 
553	 5.27668804420471E-02 
554	 5.29155100893305E-02 
555	 5.29973524986896E-02 
556	 5.31267611609709E-02 
557	 5.31845408475808E-02 
558	 5.32890240422479E-02 
559	 5.34936099429882E-02 
560	 5.37067558103972E-02 
561	 5.38140696092821E-02 
562	 5.39026092586483E-02 
563	 5.40989556893368E-02 
564	 5.42962737324875E-02 
565	 5.44776749987367E-02 
566	 5.46697459811283E-02 
567	 5.49401823345538E-02 
568	 5.52864466424296E-02 
569	 5.56070093310728E-02 
570	 0.055841690175529 
571	 5.61400268306623E-02 
572	 5.65117184425883E-02 
573	 5.69036836286751E-02 
574	 5.72245622893787E-02 
575	 5.75216667738556E-02 
576	 5.78691274726821E-02 
577	 5.82891442891749E-02 
578	 5.86793194059525E-02 
579	 5.91143457422624E-02 
580	 5.96095415525598E-02 
581	 6.01493598884743E-02 
582	 6.06862500710716E-02 
583	 6.12553369953654E-02 
584	 6.18278944417527E-02 
585	 6.22750095029546E-02 
586	 0.062744079496769 
587	 6.32872949651316E-02 
588	 6.39028343832383E-02 
589	 6.45015206662479E-02 
590	 6.51248556838965E-02 
591	 6.57382871413447E-02 
592	 6.62488532468684E-02 
593	 6.68413417911711E-02 
594	 0.06748147899996 
595	 6.81088569631038E-02 
596	 6.87108065835963E-02 
597	 6.93755350056968E-02 
598	 7.00491628779504E-02 
599	 7.06263194672189E-02 
600	 7.12850559289353E-02 
601	 7.19384846470643E-02 
602	 7.25193356741199E-02 
603	 0.073051685639946 
604	 0.073591462886422 
605	 7.41356823764772E-02 
606	 7.46669378903794E-02 
607	 7.52253261180297E-02 
608	 7.57721263241654E-02 
609	 7.62754117516396E-02 
610	 7.67197050373477E-02 
611	 7.72148735091846E-02 
612	 7.76903818394467E-02 
613	 7.80798185116493E-02 
614	 7.85037007246667E-02 
615	 7.88334096459121E-02 
616	 7.91100111404633E-02 
617	 7.94778664777018E-02 
618	 7.98149351674817E-02 
619	 8.00871956840291E-02 
620	 8.03072849981586E-02 
621	 8.05537027805583E-02 
622	 8.08197446408093E-02 
623	 8.10705730053033E-02 
624	 8.12671355698387E-02 
625	 8.14411339638711E-02 
626	 8.16524239357353E-02 
627	 8.18992254646866E-02 
628	 8.20970399480988E-02 
629	 8.22863526602453E-02 
630	 8.25031381729139E-02 
631	 0.082743950239771 
632	 8.28445541258953E-02 
633	 8.30089244765378E-02 
634	 8.32416356539116E-02 
635	 8.33886855770955E-02 
636	 8.35970709448938E-02 
637	 8.38001815782725E-02 
638	 8.39404334842944E-02 
639	 8.40648258402884E-02 
640	 8.42259402511913E-02 
641	 8.44213647520267E-02 
642	 0.084619105486261 
643	 8.48131809897341E-02 
644	 8.49850011082788E-02 
645	 8.51419798030738E-02 
646	 0.085328844029021 
647	 8.55230926336763E-02 
648	 8.57057534512586E-02 
649	 8.58736014450088E-02 
650	 8.60838921449515E-02 
651	 0.086317191069168 
652	 8.65288541211369E-02 
653	 8.66671298449738E-02 
654	 8.69057329521271E-02 
655	 8.71858691475396E-02 
656	 8.74328711442791E-02 
657	 8.76426613346271E-02 
658	 8.78520751829022E-02 
659	 8.80943579717975E-02 
660	 8.83838669301381E-02 
661	 0.088617711220156 
662	 8.88602164230864E-02 
663	 8.91504704691186E-02 
664	 8.94683357602073E-02 
665	 8.97707090617219E-02 
666	 9.00431892549133E-02 
667	 9.03009916807842E-02 
668	 9.06295793777037E-02 
669	 9.09697877381907E-02 
670	 0.091295721256606 
671	 9.16136887425913E-02 
672	 9.19303657867863E-02 
673	 9.23093448118524E-02 
674	 9.27533513187354E-02 
675	 0.093103080854915 
676	 9.34391948573283E-02 
677	 9.37894880051926E-02 
678	 9.41620313377809E-02 
679	 9.45676110941014E-02 
680	 9.49886825970903E-02 
681	 9.54159514267379E-02 
682	 9.58552474790756E-02 
683	 0.096252943012345 
684	 9.66796703344374E-02 
685	 9.71886410876178E-02 
686	 9.76535901583435E-02 
687	 9.80923090889156E-02 
688	 0.098546055437809 
689	 9.90602327124307E-02 
690	 9.95317717722871E-02 
691	 0.100001462782301 
692	 0.100506231377253 
693	 0.101038380969123 
694	 0.101526160456031 
695	 0.102020972952871 
696	 0.102597661054219 
697	 0.103188051871953 
698	 0.103732541921294 
699	 0.104245429975649 
700	 0.104814898021864 
701	 0.105379755472852 
702	 0.105957469875063 
703	 0.106554643312262 
704	 0.107097442607732 
705	 0.107666260915635 
706	 0.108254450965208 
707	 0.108817950972616 
708	 0.109424298974545 
709	 0.110026721887173 
710	 0.110597867871558 
711	 0.111157089784463 
712	 0.111751910813649 
713	 0.11234101236544 
714	 0.11288673986975 
715	 0.113465811979926 
716	 0.114028214649927 
717	 0.114577050649574 
718	 0.115149324241355 
719	 0.115692160375632 
720	 0.116212092967166 
721	 0.116718653568922 
722	 0.11720773769675 
723	 0.117704438107644 
724	 0.11821448271924 
725	 0.118724940324926 
726	 0.119175421514932 
727	 0.119600922304331 
728	 0.120023764656163 
729	 0.120445355531564 
730	 0.120798649976272 
731	 0.121142454610754 
732	 0.121515656451908 
733	 0.121859060372402 
734	 0.122145731219241 
735	 0.122387935765786 
736	 0.12261729658951 
737	 0.122848487570985 
738	 0.123079050128072 
739	 0.123296831109818 
740	 0.123481133291427 
741	 0.123597661580241 
742	 0.123678952959561 
743	 0.123750244637935 
744	 0.123771074156208 
745	 0.123780913154148 
746	 0.123804581133906 
747	 0.123842941518359 
748	 0.123800999668533 
749	 0.123693470359377 
750	 0.123565905807191 
751	 0.123484439660825 
752	 0.123348709495127 
753	 0.123190691540268 
754	 0.123044644024099 
755	 0.122860575523981 
756	 0.122627732086337 
757	 0.122384733196209 
758	 0.122180657361883 
759	 0.121938583130605 
760	 0.121629307165426 
761	 0.121283717000402 
762	 0.120997326627441 
763	 0.120719141238635 
764	 0.120426574373798 
765	 0.1201092934647 
766	 0.119774280559434 
767	 0.11943124819674 
768	 0.119056777801024 
769	 0.118632278054968 
770	 0.118301720750295 
771	 0.117957489268381 
772	 0.117552272869441 
773	 0.117139170028816 
774	 0.11673107650024 
775	 0.116336946116327 
776	 0.115955939965324 
777	 0.115573175653624 
778	 0.115180104571433 
779	 0.114774836798202 
780	 0.114363492983416 
781	 0.113974428113371 
782	 0.113583679099525 
783	 0.113176959199223 
784	 0.112757566381836 
785	 0.112369080178702 
786	 0.111994095338238 
787	 0.111607423057987 
788	 0.1111908299181 
789	 0.110812896690089 
790	 0.110446996708204 
791	 0.1100419359492 
792	 0.109625465079698 
793	 0.109271523778409 
794	 0.108954176260802 
795	 0.108570696180949 
796	 0.108205211142688 
797	 0.107862003530375 
798	 0.107527930665396 
799	 0.107181367110953 
800	 0.106838137359263 
801	 0.10649022204435 
802	 0.106138061934008 
803	 0.105843928574458 
804	 0.105537208293788 
805	 0.105213404707586 
806	 0.104909717169592 
807	 0.104613699881845 
808	 0.10431171505882 
809	 0.104010885652847 
810	 0.10374264849992 
811	 0.103452728911032 
812	 0.103162937678844 
813	 0.102903374672236 
814	 0.1026836150166 
815	 0.102425764362583 
816	 0.102161193948977 
817	 0.101946526523791 
818	 0.101696523517537 
819	 0.101461930811345 
820	 0.101250938919753 
821	 0.101029128643938 
822	 0.100779208531454 
823	 0.100545065156322 
824	 0.100355934631937 
825	 0.100202236833707 
826	 0.100020221052977 
827	 9.98072109928387E-02 
828	 9.95910794400207E-02 
829	 9.94318729993571E-02 
830	 9.92418238405098E-02 
831	 9.90772230183886E-02 
832	 9.90235523680899E-02 
833	 9.88916546389577E-02 
834	 9.87321051267586E-02 
835	 9.85740970737806E-02 
836	 9.84141737294028E-02 
837	 9.83155710634601E-02 
838	 9.82370631786768E-02 
839	 9.81349495368639E-02 
840	 9.79924312713971E-02 
841	 9.78834379935611E-02 
842	 9.77863544115831E-02 
843	 0.097675298259713 
844	 9.76050692931178E-02 
845	 9.75307637053609E-02 
846	 9.74267684861738E-02 
847	 9.73007092212837E-02 
848	 9.72767017162131E-02 
849	 9.72494169437999E-02 
850	 9.72003437470749E-02 
851	 9.71883784764809E-02 
852	 9.71246442273055E-02 
853	 9.70811157538701E-02 
854	 9.70766416859467E-02 
855	 9.70232937126867E-02 
856	 9.70045230691765E-02 
857	 9.69971902475725E-02 
858	 9.69699783372253E-02 
859	 9.69329916361627E-02 
860	 9.69181110866997E-02 
861	 9.69330636971911E-02 
862	 9.69651910988955E-02 
863	 9.69678342807839E-02 
864	 9.69632574121228E-02 
865	 9.69936308116528E-02 
866	 9.70874896593364E-02 
867	 9.71095551983087E-02 
868	 9.71312061844715E-02 
869	 9.71786026038638E-02 
870	 9.72162376341874E-02 
871	 9.72960936970439E-02 
872	 9.73993596444521E-02 
873	 9.75023370263346E-02 
874	 9.75943361508264E-02 
875	 9.76552760717182E-02 
876	 9.76861133006502E-02 
877	 9.77188689347887E-02 
878	 9.78500902937325E-02 
879	 9.79816633254126E-02 
880	 9.80909865332028E-02 
881	 9.81972763126783E-02 
882	 9.83658671540085E-02 
883	 9.85498419671224E-02 
884	 9.86829115077133E-02 
885	 9.87366040552097E-02 
886	 9.89466383634671E-02 
887	 9.91588831289405E-02 
888	 9.93134193745766E-02 
889	 9.94588887881429E-02 
890	 9.96046019368909E-02 
891	 9.97668507474548E-02 
892	 9.99455227422839E-02 
893	 0.100121288758499 
894	 0.100310419464707 
895	 0.100513047253919 
896	 0.100727806952421 
897	 0.100956476674626 
898	 0.101203360965281 
899	 0.1014578843491 
900	 0.101702684300554 
901	 0.10191164590421 
902	 0.102099412055676 
903	 0.102351398815649 
904	 0.102704488039018 
905	 0.102937182679229 
906	 0.10316959765475 
907	 0.103411488485586 
908	 0.103648526555655 
909	 0.104038515049368 
910	 0.104407090033431 
911	 0.104728570317009 
912	 0.105078929839833 
913	 0.105412166623008 
914	 0.105715852733749 
915	 0.106017632752441 
916	 0.106371460647232 
917	 0.10676075851701 
918	 0.107116767063734 
919	 0.107426501530361 
920	 0.107751381528724 
921	 0.108165609662015 
922	 0.108608552603831 
923	 0.109032965410066 
924	 0.109452634751702 
925	 0.10986213028397 
926	 0.110295080423998 
927	 0.110753695984677 
928	 0.111168852394029 
929	 0.111684071981836 
930	 0.112203617831395 
931	 0.112634082898833 
932	 0.113028584908627 
933	 0.113545649718064 
934	 0.114085196807165 
935	 0.114551486685686 
936	 0.115105643650565 
937	 0.115684094509955 
938	 0.116263522763131 
939	 0.116835747316345 
940	 0.117397841131879 
941	 0.118017511603099 
942	 0.118624217602932 
943	 0.119142999485608 
944	 0.119700248591199 
945	 0.120280287574312 
946	 0.120939201211575 
947	 0.121686211959777 
948	 0.122199071766015 
949	 0.122816582373761 
950	 0.123561698480637 
951	 0.124286098939358 
952	 0.124959606784892 
953	 0.125680205995801 
954	 0.126410194645697 
955	 0.127070902290162 
956	 0.127836224797742 
957	 0.128553125818437 
958	 0.129267650894662 
959	 0.130103049515308 
960	 0.130833602426128 
961	 0.131607891021367 
962	 0.132461977711775 
963	 0.13332997658109 
964	 0.134124709223119 
965	 0.135018625282798 
966	 0.135923274114221 
967	 0.136646028186409 
968	 0.137527853342758 
969	 0.138453607558973 
970	 0.139338957563378 
971	 0.140179294296434 
972	 0.141163392899857 
973	 0.142174364771639 
974	 0.143120686935379 
975	 0.14398814881711 
976	 0.144956323840652 
977	 0.145935218458454 
978	 0.146900016303696 
979	 0.147866206276282 
980	 0.148751972019536 
981	 0.149690481206256 
982	 0.150729406469563 
983	 0.151827419302535 
984	 0.152839786320126 
985	 0.153985958854215 
986	 0.155108326204971 
987	 0.155961256265962 
988	 0.157015277542585 
989	 0.158174570447383 
990	 0.159262092587736 
991	 0.160209361911845 
992	 0.161554433882078 
993	 0.162626631482447 
994	 0.163616463073012 
995	 0.164910326364095 
996	 0.165890223493896 
997	 0.166966187276483 
998	 0.168081971027047 
999	 0.16910416443887 
1000	 0.170327620593421 
1001	 0.167997904371776 
1002	 0.16909227895253 
1003	 0.170165337352975 
1004	 0.171208823602615 
1005	 0.172191458462102 
1006	 0.173197689303557 
1007	 0.174173177967626 
1008	 0.175230732586896 
1009	 0.176279991509953 
1010	 0.177360315584267 
1011	 0.17845648339738 
1012	 0.179469651822536 
1013	 0.180490110897048 
1014	 0.181568849660795 
1015	 0.182585795272174 
1016	 0.183623574626088 
1017	 0.184669919025541 
1018	 0.18572126669666 
1019	 0.186702032880518 
1020	 0.187754960486127 
1021	 0.18878228805227 
1022	 0.189643849629955 
1023	 0.190510141992364 
1024	 0.191389389271024 
1025	 0.192259012677643 
1026	 0.193210420612238 
1027	 0.194230440164607 
1028	 0.195234031823662 
1029	 0.196205594774305 
1030	 0.197180652588801 
1031	 0.198125929959413 
1032	 0.199048971482664 
1033	 0.199974603550452 
1034	 0.200904735914439 
1035	 0.201783042912001 
1036	 0.202688588589624 
1037	 0.203627665956831 
1038	 0.204517264838174 
1039	 0.205412421504564 
1040	 0.206320844405727 
1041	 0.207190957928608 
1042	 0.208077031994758 
1043	 0.208987045440486 
1044	 0.20988735302151 
1045	 0.210799694226027 
1046	 0.211681420022787 
1047	 0.212585805958306 
1048	 0.213537070009598 
1049	 0.214401043015304 
1050	 0.215258224420755 
1051	 0.216139919453119 
1052	 0.216957634982247 
1053	 0.217835180951409 
1054	 0.218749876150383 
1055	 0.219640996079922 
1056	 0.220525525644035 
1057	 0.221399308208118 
1058	 0.222251413982801 
1059	 0.223136134022832 
1060	 0.224023759183969 
1061	 0.224923094221719 
1062	 0.225806196326562 
1063	 0.226718084576715 
1064	 0.22763630943964 
1065	 0.228504491480845 
1066	 0.229419230071347 
1067	 0.230298448086662 
1068	 0.231137954108859 
1069	 0.232037436811494 
1070	 0.232911178930091 
1071	 0.233758916202445 
1072	 0.234633491113881 
1073	 0.235510701082699 
1074	 0.236377051757588 
1075	 0.237223401885238 
1076	 0.238134065468226 
1077	 0.239024879914983 
1078	 0.239897690999454 
1079	 0.240794052415896 
1080	 0.241685195670539 
1081	 0.242579968240912 
1082	 0.24349549475277 
1083	 0.244417140750572 
1084	 0.245338476609902 
1085	 0.246279769342428 
1086	 0.247258275785706 
1087	 0.248189840890488 
1088	 0.2491033616526 
1089	 0.250028084811987 
1090	 0.2509404717081 
1091	 0.251839120580855 
1092	 0.252744951196968 
1093	 0.253658723979658 
1094	 0.254576931896281 
1095	 0.255496930079503 
1096	 0.256434274633516 
1097	 0.257384491117757 
1098	 0.258343236680027 
1099	 0.259310027885156 
1100	 0.260262947604933 
1101	 0.261209990768991 
1102	 0.262191890105468 
1103	 0.263172488565772 
1104	 0.264167994361312 
1105	 0.265216510690351 
1106	 0.266254206157501 
1107	 0.26728327702496 
1108	 0.268327084334712 
1109	 0.269374115445082 
1110	 0.270425904665883 
1111	 0.271484496068089 
1112	 0.272559958086108 
1113	 0.273617888968394 
1114	 0.274672494058467 
1115	 0.275726305997411 
1116	 0.276763319303859 
1117	 0.277822642245676 
1118	 0.278878272571708 
1119	 0.279960055691532 
1120	 0.281088961240391 
1121	 0.28219572053401 
1122	 0.283329403768776 
1123	 0.284480516477239 
1124	 0.285596102500414 
1125	 0.286685566994709 
1126	 0.28780647854015 
1127	 0.28891651857855 
1128	 0.29004826343886 
1129	 0.291207064787356 
1130	 0.292349034535616 
1131	 0.293488398149577 
1132	 0.294635371316539 
1133	 0.295786596126436 
1134	 0.296939874560692 
1135	 0.298114442388403 
1136	 0.29924138250195 
1137	 0.30039398414139 
1138	 0.301544897535161 
1139	 0.30269201233484 
1140	 0.30385122500897 
1141	 0.304989250962366 
1142	 0.306111910889181 
1143	 0.30724063339698 
1144	 0.308357393860111 
1145	 0.309480313833476 
1146	 0.310613007896676 
1147	 0.311727078201563 
1148	 0.31283883807671 
1149	 0.313942314812053 
1150	 0.315009610267809 
1151	 0.316123152500602 
1152	 0.317232794334489 
1153	 0.318311562253776 
1154	 0.319425389570501 
1155	 0.320563956459428 
1156	 0.321671925248165 
1157	 0.322786688515936 
1158	 0.323896595749927 
1159	 0.324992151787014 
1160	 0.326086221816404 
1161	 0.327184991200959 
1162	 0.328271540523071 
1163	 0.329351576446807 
1164	 0.330419692222086 
1165	 0.331474632255398 
1166	 0.332545400632315 
1167	 0.333570901329508 
1168	 0.334625160693132 
1169	 0.335683596327352 
1170	 0.336756226281017 
1171	 0.33780729784224 
1172	 0.338878818113428 
1173	 0.339904415664001 
1174	 0.340896601918785 
1175	 0.341890861705225 
1176	 0.342883782458886 
1177	 0.343845893138156 
1178	 0.344778450202291 
1179	 0.34572092264331 
1180	 0.346636553603754 
1181	 0.347564199694048 
1182	 0.348504253737202 
1183	 0.349458100020269 
1184	 0.350377948522302 
1185	 0.351291701334279 
1186	 0.352184594029934 
1187	 0.353053562126677 
1188	 0.353923087423957 
1189	 0.35479644196753 
1190	 0.355632132379321 
1191	 0.356449605598648 
1192	 0.357253712932701 
1193	 0.358021905096852 
1194	 0.358797144290881 
1195	 0.359574622409933 
1196	 0.36033485315869 
1197	 0.361089940004343 
1198	 0.361826836008465 
1199	 0.362549377657653 
1200	 0.363252189938069 
1201	 0.363960501243748 
1202	 0.3646622948508 
1203	 0.36535376161944 
1204	 0.366050551680727 
1205	 0.366718955856877 
1206	 0.367369089087676 
1207	 0.368006888129844 
1208	 0.368624680078602 
1209	 0.36923930694945 
1210	 0.369845354935406 
1211	 0.370439561187209 
1212	 0.371023057808784 
1213	 0.371600594119406 
1214	 0.37216915057165 
1215	 0.37272813902381 
1216	 0.373279356670508 
1217	 0.373823556963379 
1218	 0.374364420346873 
1219	 0.37490232025879 
1220	 0.375421885054062 
1221	 0.375935137527727 
1222	 0.376438003802706 
1223	 0.376934269695326 
1224	 0.37740408073076 
1225	 0.37785019575398 
1226	 0.378303859410031 
1227	 0.378739356292041 
1228	 0.379173644290257 
1229	 0.37961664715003 
1230	 0.38005212064948 
1231	 0.380478945650888 
1232	 0.380895013711025 
1233	 0.381304878165481 
1234	 0.381718965651517 
1235	 0.382108851378699 
1236	 0.382480335403279 
1237	 0.382850773711572 
1238	 0.383210375316042 
1239	 0.383565688050298 
1240	 0.383915590434133 
1241	 0.384258580293433 
1242	 0.384589625075717 
1243	 0.384925496127 
1244	 0.38526647160722 
1245	 0.385590594737278 
1246	 0.385899826081065 
1247	 0.386221487007392 
1248	 0.386549730571063 
1249	 0.386860950198133 
1250	 0.387168753407637 
1251	 0.387461763095207 
1252	 0.387745340947445 
1253	 0.387995952277635 
1254	 0.388267567716158 
1255	 0.388550060969494 
1256	 0.388817484047105 
1257	 0.389087855781764 
1258	 0.389334808456572 
1259	 0.389561022397253 
1260	 0.389791571352175 
1261	 0.39000370792836 
1262	 0.390225848030231 
1263	 0.390461605640714 
1264	 0.390686019625427 
1265	 0.390899046091938 
1266	 0.391119100112815 
1267	 0.39135289771757 
1268	 0.391557296117549 
1269	 0.391763872052878 
1270	 0.391975253232857 
1271	 0.39216865347575 
1272	 0.392339654758967 
1273	 0.392524248488266 
1274	 0.392712972966831 
1275	 0.392889603391567 
1276	 0.39305014377735 
1277	 0.39323108381363 
1278	 0.393414260718791 
1279	 0.393597917807527 
1280	 0.393813109276223 
1281	 0.393997526174396 
1282	 0.394155428225284 
1283	 0.394318130596448 
1284	 0.394471991676467 
1285	 0.394622001271316 
1286	 0.394764277859973 
1287	 0.39492852094948 
1288	 0.395076096088873 
1289	 0.395215056085091 
1290	 0.395357013398669 
1291	 0.395503051511883 
1292	 0.395633500017723 
1293	 0.395762292117318 
1294	 0.395874901444639 
1295	 0.395969331105005 
1296	 0.396065229566408 
1297	 0.396154615932996 
1298	 0.396238595115261 
1299	 0.39632071433502 
1300	 0.396391141819215 
1301	 0.396449837013003 
1302	 0.396507445255981 
1303	 0.396555827371785 
1304	 0.396603708402445 
1305	 0.396657613292965 
1306	 0.396685839847636 
1307	 0.396725430641382 
1308	 0.396741311139977 
1309	 0.396729625938783 
1310	 0.39669063645759 
1311	 0.396663676551501 
1312	 0.396605811458454 
1313	 0.396572779133572 
1314	 0.396568265466718 
1315	 0.396533120125275 
1316	 0.39647776185541 
1317	 0.396437975714553 
1318	 0.396390578302258 
1319	 0.396350935759286 
1320	 0.396344793372236 
1321	 0.396300701299534 
1322	 0.396228450971559 
1323	 0.396164814914349 
1324	 0.396117640294271 
1325	 0.396064773533729 
1326	 0.39603011288813 
1327	 0.395999923747497 
1328	 0.395936878381062 
1329	 0.395854993873285 
1330	 0.395794708695421 
1331	 0.395738139305532 
1332	 0.395690170696434 
1333	 0.395656832492069 
1334	 0.395612081422713 
1335	 0.395570778287882 
1336	 0.395522018205915 
1337	 0.395459752384026 
1338	 0.395412134598476 
1339	 0.395379407603752 
1340	 0.395327109820806 
1341	 0.395285125742176 
1342	 0.395216626715998 
1343	 0.395126984978204 
1344	 0.395017023101182 
1345	 0.394943879707878 
1346	 0.394846088526484 
1347	 0.394726778502129 
1348	 0.394619004677392 
1349	 0.39444670486012 
1350	 0.394234223465623 
1351	 0.394052593155733 
1352	 0.393868723367126 
1353	 0.393681901450788 
1354	 0.393511927557551 
1355	 0.393315880008671 
1356	 0.393079853359532 
1357	 0.392889171905186 
1358	 0.392688699444983 
1359	 0.392534263812135 
1360	 0.392406332326926 
1361	 0.392317094197804 
1362	 0.392283848277107 
1363	 0.392231943477024 
1364	 0.39218848332612 
1365	 0.392175905627472 
1366	 0.39216879513258 
1367	 0.392180034678966 
1368	 0.392243431587012 
1369	 0.392280577010731 
1370	 0.392251375829811 
1371	 0.392170780636793 
1372	 0.392011912341918 
1373	 0.391801403384592 
1374	 0.391535124146491 
1375	 0.391239198643653 
1376	 0.390811530065643 
1377	 0.390307237053789 
1378	 0.389712326315643 
1379	 0.388958341435512 
1380	 0.388256416811686 
1381	 0.387479185273962 
1382	 0.386750573489621 
1383	 0.386075358034472 
1384	 0.385324400615668 
1385	 0.384613142403455 
1386	 0.383785638024719 
1387	 0.382888714810587 
1388	 0.381923132243924 
1389	 0.380915767021508 
1390	 0.379779705339889 
1391	 0.378524191112556 
1392	 0.377195644951787 
1393	 0.375755174960178 
1394	 0.374270060383483 
1395	 0.372760772086252 
1396	 0.37122485953022 
1397	 0.369687692227537 
1398	 0.368116042332826 
1399	 0.366549334226313 
1400	 0.364979370081947 
1401	 0.363408485443109 
1402	 0.3617978761517 
1403	 0.360265043123053 
1404	 0.3587305201705 
1405	 0.357290487065545 
1406	 0.355932915014373 
1407	 0.354579204474519 
1408	 0.353263879701245 
1409	 0.351995222138243 
1410	 0.350709364132816 
1411	 0.349551871309405 
1412	 0.348471201374764 
1413	 0.347484253263928 
1414	 0.346585869409331 
1415	 0.345690348436283 
1416	 0.34480738420266 
1417	 0.343993208058669 
1418	 0.343216655894074 
1419	 0.342504241572202 
1420	 0.341881317280845 
1421	 0.341304739323093 
1422	 0.340769331329965 
1423	 0.340254502862372 
1424	 0.339744598383901 
1425	 0.339230640515799 
1426	 0.338781516989577 
1427	 0.338347133294123 
1428	 0.337983115514797 
1429	 0.337692739347007 
1430	 0.337412493735347 
1431	 0.337191450140984 
1432	 0.336948593701093 
1433	 0.336706554226917 
1434	 0.336494889630573 
1435	 0.33626893198428 
1436	 0.336101697153746 
1437	 0.336000601359016 
1438	 0.335888994460278 
1439	 0.335798946202067 
1440	 0.335728907916757 
1441	 0.335632022138247 
1442	 0.33554795967502 
1443	 0.335491068379868 
1444	 0.33544039472958 
1445	 0.335435091680758 
1446	 0.335442852530492 
1447	 0.335438613822876 
1448	 0.335434116373793 
1449	 0.335403989518936 
1450	 0.335372732868956 
1451	 0.33537551490666 
1452	 0.335377309546982 
1453	 0.335435731175591 
1454	 0.335558168625403 
1455	 0.335637378260644 
1456	 0.33575013172384 
1457	 0.335807766730608 
1458	 0.335799230744034 
1459	 0.335853682931684 
1460	 0.335877506109289 
1461	 0.335990635108882 
1462	 0.336184555939415 
1463	 0.336363324002999 
1464	 0.336599658412517 
1465	 0.336810095176422 
1466	 0.336987931530125 
1467	 0.337210730044927 
1468	 0.33740917342956 
1469	 0.33769038053973 
1470	 0.338045960091177 
1471	 0.338416773283256 
1472	 0.338799994977074 
1473	 0.339213949581692 
1474	 0.339559317860977 
1475	 0.339916190409751 
1476	 0.340302201384909 
1477	 0.340700885272619 
1478	 0.341183668184574 
1479	 0.341671461099063 
1480	 0.342167518666789 
1481	 0.342700396295074 
1482	 0.343186746834728 
1483	 0.343636832930762 
1484	 0.344128290200334 
1485	 0.34461529484622 
1486	 0.345119263877835 
1487	 0.345663934945921 
1488	 0.346166324343482 
1489	 0.346663025769035 
1490	 0.347139397324789 
1491	 0.347592494472491 
1492	 0.348051958857206 
1493	 0.348480258293527 
1494	 0.348947415672312 
1495	 0.349435418104309 
1496	 0.349912969469286 
1497	 0.350423926722622 
1498	 0.350900735373737 
1499	 0.351366505963837 
1500	 0.351810796394286 
1501	 0.352217144950132 
1502	 0.352641315486961 
1503	 0.353059083315891 
1504	 0.353468663948042 
1505	 0.353890589499837 
1506	 0.354319362154951 
1507	 0.354738471969026 
1508	 0.35514598605401 
1509	 0.355560735068232 
1510	 0.35596417300198 
1511	 0.35635798878747 
1512	 0.356753891653061 
1513	 0.357142845253635 
1514	 0.357529292993809 
1515	 0.357921153760891 
1516	 0.358308798431841 
1517	 0.358672008283308 
1518	 0.35902238371314 
1519	 0.359371724640964 
1520	 0.359696054591551 
1521	 0.360032903370568 
1522	 0.360381125739249 
1523	 0.360715447606591 
1524	 0.361039323004433 
1525	 0.36136962048738 
1526	 0.36170349761551 
1527	 0.3620204949817 
1528	 0.362333298271066 
1529	 0.362636001135695 
1530	 0.362918000264313 
1531	 0.363216506650412 
1532	 0.363525433195381 
1533	 0.363816217872552 
1534	 0.364104678305804 
1535	 0.364384030935341 
1536	 0.364630940341144 
1537	 0.36490734121977 
1538	 0.365205448145387 
1539	 0.365491063724806 
1540	 0.36579134361712 
1541	 0.366075073881534 
1542	 0.36634310959853 
1543	 0.366604939614513 
1544	 0.366863854232509 
1545	 0.367111799782005 
1546	 0.367351035620815 
1547	 0.367575225187807 
1548	 0.367801526787415 
1549	 0.368019639862463 
1550	 0.368230223656644 
1551	 0.368444322792735 
1552	 0.368676585094544 
1553	 0.368898822115309 
1554	 0.369108398685966 
1555	 0.369320579776011 
1556	 0.369496482643666 
1557	 0.369667668571697 
1558	 0.369869909648574 
1559	 0.370074303435949 
1560	 0.370272753498587 
1561	 0.370478650466726 
1562	 0.370674013044348 
1563	 0.370854653760332 
1564	 0.371056411831896 
1565	 0.371268849139631 
1566	 0.371475102301479 
1567	 0.371699525689441 
1568	 0.371879957757617 
1569	 0.372036690627055 
1570	 0.372196246985239 
1571	 0.372335355597146 
1572	 0.37247990676895 
1573	 0.372625334265636 
1574	 0.372768673763864 
1575	 0.372903976491383 
1576	 0.373037893676489 
1577	 0.373173650663948 
1578	 0.373308130833173 
1579	 0.373439340218514 
1580	 0.373566631329261 
1581	 0.373690243030639 
1582	 0.373820506419767 
1583	 0.373947325687286 
1584	 0.374073739443435 
1585	 0.37420391216718 
1586	 0.374339894047753 
1587	 0.374476545698335 
1588	 0.374615724376357 
1589	 0.374786840595951 
1590	 0.37490766749294 
1591	 0.374994447077186 
1592	 0.375088860083852 
1593	 0.375153606475069 
1594	 0.375232736119518 
1595	 0.375331655255883 
1596	 0.375410010116491 
1597	 0.375475716525999 
1598	 0.375539922528779 
1599	 0.375585789437099 
1600	 0.375648706034361 
1601	 0.3757074957311 
1602	 0.375786624126457 
1603	 0.375894993126277 
1604	 0.375991858816725 
1605	 0.376098334827105 
1606	 0.376197991060981 
1607	 0.376295125479296 
1608	 0.37637699891386 
1609	 0.376461989172756 
1610	 0.376553991932348 
1611	 0.376623042780433 
1612	 0.376680368695571 
1613	 0.376737472380616 
1614	 0.376784848233189 
1615	 0.376815761864001 
1616	 0.376874242532505 
1617	 0.376953990201862 
1618	 0.377006069312454 
1619	 0.377067945518985 
1620	 0.377123842781471 
1621	 0.377178602982495 
1622	 0.37721578999805 
1623	 0.377266028196695 
1624	 0.377331774765655 
1625	 0.37737435239552 
1626	 0.377397672569048 
1627	 0.377442295694946 
1628	 0.377493077228638 
1629	 0.377531638517181 
1630	 0.377573216669133 
1631	 0.377615077173608 
1632	 0.377650752502374 
1633	 0.377678683149134 
1634	 0.377710376128381 
1635	 0.377735166463136 
1636	 0.377742184640058 
1637	 0.377757276708192 
1638	 0.377782562843143 
1639	 0.377796211914524 
1640	 0.377793453781664 
1641	 0.37781151021851 
1642	 0.37783786921136 
1643	 0.377859932265389 
1644	 0.377894930158362 
1645	 0.377912806490269 
1646	 0.377918723356566 
1647	 0.377928935975877 
1648	 0.377939041414882 
1649	 0.377939169583981 
1650	 0.377928591396805 
1651	 0.377932790297033 
1652	 0.377933066442737 
1653	 0.377942341942546 
1654	 0.377965997674537 
1655	 0.377987198548925 
1656	 0.378023226437674 
1657	 0.378022836062302 
1658	 0.378005653026568 
1659	 0.377996191384899 
1660	 0.377958031568506 
1661	 0.377943305735659 
1662	 0.377954205047566 
1663	 0.377947630572251 
1664	 0.37793167120562 
1665	 0.377921793905011 
1666	 0.37792425159841 
1667	 0.377899052504352 
1668	 0.377862913099059 
1669	 0.37782188586462 
1670	 0.377753470428091 
1671	 0.377704418104513 
1672	 0.377662016343192 
1673	 0.377620347871436 
1674	 0.377574039503479 
1675	 0.3775490075692 
1676	 0.377547758170676 
1677	 0.377522757736856 
1678	 0.377511642375279 
1679	 0.3774703861376 
1680	 0.377378257229896 
1681	 0.377337443928671 
1682	 0.377318292814664 
1683	 0.377282945916092 
1684	 0.377259591018548 
1685	 0.377239403896109 
1686	 0.377210376163167 
1687	 0.377178366394328 
1688	 0.377162302017751 
1689	 0.377136774707308 
1690	 0.377101602454581 
1691	 0.377050225183368 
1692	 0.377005513685335 
1693	 0.376933538843847 
1694	 0.376820713437729 
1695	 0.376727596332539 
1696	 0.376616980866602 
1697	 0.376542378445606 
1698	 0.376494823840362 
1699	 0.376430510397285 
1700	 0.376382178151675 
1701	 0.376323797126019 
1702	 0.376249157649325 
1703	 0.376183024492048 
1704	 0.376127232589275 
1705	 0.37606248903661 
1706	 0.375991588582206 
1707	 0.375916662358258 
1708	 0.375842614571673 
1709	 0.375760740131868 
1710	 0.375668061321968 
1711	 0.375576328573147 
1712	 0.375485538683704 
1713	 0.375385463504628 
1714	 0.375268739874427 
1715	 0.375179184988219 
1716	 0.375100181480787 
1717	 0.375009556682527 
1718	 0.37494357841052 
1719	 0.374836755200725 
1720	 0.374701135720504 
1721	 0.37456854867756 
1722	 0.374411681044121 
1723	 0.374272748485725 
1724	 0.374155208958105 
1725	 0.373993605868562 
1726	 0.373807817719343 
1727	 0.373645221831476 
1728	 0.373452019205159 
1729	 0.373291052219693 
1730	 0.373179343070707 
1731	 0.373030996001585 
1732	 0.372870388639628 
1733	 0.372707438543963 
1734	 0.372539678076824 
1735	 0.372356916541587 
1736	 0.372171899110435 
1737	 0.371960571575928 
1738	 0.371715829512748 
1739	 0.371493892375783 
1740	 0.371266433491314 
1741	 0.371045296665667 
1742	 0.37082803848443 
1743	 0.370629333496424 
1744	 0.370432694166113 
1745	 0.370250827145765 
1746	 0.370102604173163 
1747	 0.369920576847626 
1748	 0.369734081737079 
1749	 0.369493923223077 
1750	 0.369265374770712 
1751	 0.369054887587336 
1752	 0.368796442853275 
1753	 0.368558861247836 
1754	 0.368370285182267 
1755	 0.368166962935715 
1756	 0.367948255178413 
1757	 0.367730009418215 
1758	 0.367485200461894 
1759	 0.367244291311593 
1760	 0.367039226778709 
1761	 0.366855900420442 
1762	 0.366670773689696 
1763	 0.36646742658938 
1764	 0.366264309446574 
1765	 0.366048640810996 
1766	 0.365840363335821 
1767	 0.365646592921752 
1768	 0.365445937257923 
1769	 0.365270312589274 
1770	 0.365103083356936 
1771	 0.364947331763904 
1772	 0.36480088148076 
1773	 0.364661809393391 
1774	 0.36452461188704 
1775	 0.36435156810731 
1776	 0.364165505731425 
1777	 0.363953082255106 
1778	 0.363730738965958 
1779	 0.363533792948718 
1780	 0.363355430761155 
1781	 0.36320689973339 
1782	 0.363088553437932 
1783	 0.36299707137239 
1784	 0.362911710561976 
1785	 0.362853483257131 
1786	 0.362784305266654 
1787	 0.362739650577551 
1788	 0.362656708592259 
1789	 0.362546572216798 
1790	 0.362438948811289 
1791	 0.362292038661864 
1792	 0.362182862486069 
1793	 0.362077209675047 
1794	 0.362018454286561 
1795	 0.362002366122526 
1796	 0.361965719168158 
1797	 0.361966860175247 
1798	 0.361947705242403 
1799	 0.361919604072148 
1800	 0.361872895509604 
1801	 0.352582554869062 
1802	 0.352973511234011 
1803	 0.353416428488202 
1804	 0.353889508709696 
1805	 0.354325456712385 
1806	 0.354740082519408 
1807	 0.355149764990922 
1808	 0.355452534948149 
1809	 0.355696421060308 
1810	 0.355881458793904 
1811	 0.355981962585948 
1812	 0.356043622560816 
1813	 0.356108604806552 
1814	 0.356134678847526 
1815	 0.35613298172006 
1816	 0.356138880583066 
1817	 0.356121893180813 
1818	 0.356054761569345 
1819	 0.356019406483757 
1820	 0.356001744817187 
1821	 0.355943904038456 
1822	 0.355922138102336 
1823	 0.355937203909192 
1824	 0.355930680045487 
1825	 0.355902714508394 
1826	 0.355851223214321 
1827	 0.35574178136932 
1828	 0.355593743667145 
1829	 0.355390499952342 
1830	 0.355212404421486 
1831	 0.355006926574313 
1832	 0.354784068552586 
1833	 0.354571998508912 
1834	 0.354360712519732 
1835	 0.354183831316134 
1836	 0.354025456701466 
1837	 0.353894855194097 
1838	 0.35379890046104 
1839	 0.3537064412736 
1840	 0.353622117400195 
1841	 0.35352741978622 
1842	 0.353462911656826 
1843	 0.353387783825506 
1844	 0.353267683808007 
1845	 0.353147409878844 
1846	 0.353009795461453 
1847	 0.352829162500057 
1848	 0.352625285100477 
1849	 0.352427398589668 
1850	 0.352190397581555 
1851	 0.351927651084001 
1852	 0.351634668209145 
1853	 0.351315667682501 
1854	 0.350925639373836 
1855	 0.350499464326743 
1856	 0.350055516209159 
1857	 0.349572710971512 
1858	 0.349046607508003 
1859	 0.348464897157022 
1860	 0.347768816361705 
1861	 0.346991951556893 
1862	 0.346120721020017 
1863	 0.345119094438528 
1864	 0.344000655257429 
1865	 0.342823422035202 
1866	 0.34147683532936 
1867	 0.340090594423749 
1868	 0.338663898286409 
1869	 0.337137337363586 
1870	 0.335609371551927 
1871	 0.334018057251866 
1872	 0.332376234483202 
1873	 0.330699724532648 
1874	 0.328974588057478 
1875	 0.327200921276635 
1876	 0.325369914196946 
1877	 0.323378635571546 
1878	 0.321222972982399 
1879	 0.318908537423893 
1880	 0.316412155903042 
1881	 0.313692313671418 
1882	 0.310889940647808 
1883	 0.307963483047404 
1884	 0.304815566747934 
1885	 0.30157817033063 
1886	 0.298216212787936 
1887	 0.294688890093181 
1888	 0.291100126602839 
1889	 0.287435778297494 
1890	 0.283753951123553 
1891	 0.28010429559154 
1892	 0.276410608774784 
1893	 0.272776408052596 
1894	 0.269168743637756 
1895	 0.265586147371048 
1896	 0.262011756118852 
1897	 0.258534662345538 
1898	 0.25511927609083 
1899	 0.251813284466551 
1900	 0.248702637229369 
1901	 0.245739847667351 
1902	 0.24296895706772 
1903	 0.240433633230109 
1904	 0.238020694900921 
1905	 0.235754569789848 
1906	 0.233675713190249 
1907	 0.231737990841534 
1908	 0.229931571957872 
1909	 0.228270048585192 
1910	 0.226701195384113 
1911	 0.225285889277036 
1912	 0.223963346629543 
1913	 0.222731237681169 
1914	 0.221606291671844 
1915	 0.22057348828729 
1916	 0.219625729447912 
1917	 0.218782886730685 
1918	 0.218037049716067 
1919	 0.217355622819823 
1920	 0.216784801861632 
1921	 0.216297392588215 
1922	 0.215840912440209 
1923	 0.215481040552032 
1924	 0.215179453885388 
1925	 0.214939564511986 
1926	 0.214740615458272 
1927	 0.214614732145387 
1928	 0.214538813668132 
1929	 0.214468787623505 
1930	 0.214440051788892 
1931	 0.214462145685032 
1932	 0.214520492504792 
1933	 0.214643207172932 
1934	 0.21480365012212 
1935	 0.215000050547724 
1936	 0.215246691756371 
1937	 0.215519969068262 
1938	 0.215815049275962 
1939	 0.216166126852588 
1940	 0.216571159715269 
1941	 0.216987405587051 
1942	 0.217465202770358 
1943	 0.217965388497172 
1944	 0.218448909748951 
1945	 0.218964693171437 
1946	 0.219486551989614 
1947	 0.220004214926779 
1948	 0.220546796458224 
1949	 0.221114993064872 
1950	 0.221690548074537 
1951	 0.222269283990807 
1952	 0.222879139755045 
1953	 0.223502229790642 
1954	 0.224167017071991 
1955	 0.224844083654841 
1956	 0.225536925409101 
1957	 0.226257367954088 
1958	 0.22700868349404 
1959	 0.227754521183417 
1960	 0.22854324610907 
1961	 0.229297311610563 
1962	 0.230016063964678 
1963	 0.230775464411389 
1964	 0.231540009333496 
1965	 0.232312312166079 
1966	 0.23312507077703 
1967	 0.233943056928378 
1968	 0.234760171317959 
1969	 0.235592726401103 
1970	 0.236401845278917 
1971	 0.237198145955658 
1972	 0.238010898399339 
1973	 0.238805750740125 
1974	 0.239622291613723 
1975	 0.240466519834373 
1976	 0.241307580876656 
1977	 0.242138688613214 
1978	 0.242971969632087 
1979	 0.243783754326588 
1980	 0.244622071407566 
1981	 0.245462080522259 
1982	 0.246306369954652 
1983	 0.247156802800552 
1984	 0.248022820299106 
1985	 0.248878741328585 
1986	 0.249750248371533 
1987	 0.250594743092525 
1988	 0.251416214384451 
1989	 0.252254125798131 
1990	 0.253081614746457 
1991	 0.253867115174591 
1992	 0.254670924801583 
1993	 0.255468130479203 
1994	 0.256286908882158 
1995	 0.257112891144236 
1996	 0.257937309109422 
1997	 0.258790932806733 
1998	 0.259619532443352 
1999	 0.260436460851179 
2000	 0.261241978452409 
2001	 0.262044302401681 
2002	 0.262815414245916 
2003	 0.263596495004819 
2004	 0.264402623630162 
2005	 0.265207551853665 
2006	 0.266039302713643 
2007	 0.266847762501094 
2008	 0.267653225239784 
2009	 0.268447178482626 
2010	 0.269234210849575 
2011	 0.270014926480174 
2012	 0.270780049078806 
2013	 0.271544036043834 
2014	 0.272307755275128 
2015	 0.27306851473682 
2016	 0.273809041671014 
2017	 0.274535025484562 
2018	 0.275259466664139 
2019	 0.275956698930165 
2020	 0.276684999954123 
2021	 0.277441981301009 
2022	 0.278164278435223 
2023	 0.278891019401135 
2024	 0.279593903267409 
2025	 0.280244291748046 
2026	 0.280926430347539 
2027	 0.281611598952901 
2028	 0.282314326856982 
2029	 0.283002832092569 
2030	 0.283714764545681 
2031	 0.284369898107388 
2032	 0.284994789225206 
2033	 0.285619595388639 
2034	 0.286207314225576 
2035	 0.286815933100356 
2036	 0.287430797635538 
2037	 0.288036964479069 
2038	 0.288635941719327 
2039	 0.289239448024973 
2040	 0.289829186911023 
2041	 0.290448185690066 
2042	 0.29106353948688 
2043	 0.291674472033036 
2044	 0.292261375758161 
2045	 0.292831536587554 
2046	 0.293404262976614 
2047	 0.293960327103139 
2048	 0.294518340974985 
2049	 0.295087716402132 
2050	 0.295637558546771 
2051	 0.296173956610269 
2052	 0.29670040363292 
2053	 0.297193276645373 
2054	 0.297715689576505 
2055	 0.298243198714152 
2056	 0.298779376870271 
2057	 0.299307703310065 
2058	 0.299863756825683 
2059	 0.300378078928784 
2060	 0.300867809202104 
2061	 0.301353288033125 
2062	 0.301813097670202 
2063	 0.30229206641743 
2064	 0.3027717454867 
2065	 0.303245778377728 
2066	 0.303725340169095 
2067	 0.304204161062492 
2068	 0.304674275253624 
2069	 0.305148862977056 
2070	 0.305613628313376 
2071	 0.306082050589744 
2072	 0.306541064572055 
2073	 0.306978559755849 
2074	 0.307437195136958 
2075	 0.307903298310946 
2076	 0.308372375162669 
2077	 0.308855163538483 
2078	 0.309326490508194 
2079	 0.309806931178624 
2080	 0.310265253136413 
2081	 0.310711310482346 
2082	 0.311150175900896 
2083	 0.311572018776481 
2084	 0.311993991837049 
2085	 0.312399671257233 
2086	 0.312796167133431 
2087	 0.313179413364689 
2088	 0.313536246173029 
2089	 0.313915298198447 
2090	 0.314287884784743 
2091	 0.314676478243884 
2092	 0.315083096162279 
2093	 0.31548383606754 
2094	 0.315888209415044 
2095	 0.316293173894635 
2096	 0.316709019613592 
2097	 0.317109957915152 
2098	 0.317486504845694 
2099	 0.317885335780245 
2100	 0.318305482392527 
2101	 0.318746725793987 
2102	 0.319147614100019 
2103	 0.319567671912409 
2104	 0.319954847579238 
2105	 0.320275954591793 
2106	 0.320647346319391 
2107	 0.321022855802289 
2108	 0.321427807004649 
2109	 0.321865960338709 
2110	 0.322292956757274 
2111	 0.322738705677399 
2112	 0.323185025568096 
2113	 0.323656321263743 
2114	 0.324081640207594 
2115	 0.324486814519855 
2116	 0.32489309414236 
2117	 0.32525960119105 
2118	 0.325562083821064 
2119	 0.325905370566555 
2120	 0.326256391834682 
2121	 0.326592306208307 
2122	 0.326927397546323 
2123	 0.327253138196291 
2124	 0.327569309599109 
2125	 0.327876322348806 
2126	 0.328181912417432 
2127	 0.328471161370563 
2128	 0.328729266142727 
2129	 0.329004216866997 
2130	 0.329290715899214 
2131	 0.329568106721411 
2132	 0.329806411767293 
2133	 0.330030661216598 
2134	 0.33025213681599 
2135	 0.330432403916102 
2136	 0.330632592845362 
2137	 0.33088235597128 
2138	 0.331045751765144 
2139	 0.331166918321097 
2140	 0.33127044655953 
2141	 0.331321556315454 
2142	 0.331371005012649 
2143	 0.331388999280901 
2144	 0.331420781947809 
2145	 0.331440022195483 
2146	 0.331461143082799 
2147	 0.331492015698796 
2148	 0.331535132173746 
2149	 0.331534314291879 
2150	 0.331520438674252 
2151	 0.331479609595226 
2152	 0.331394570587202 
2153	 0.331331860544792 
2154	 0.331264124833786 
2155	 0.331185781094375 
2156	 0.331120138837755 
2157	 0.331020387462681 
2158	 0.330883453700187 
2159	 0.330758548244284 
2160	 0.330637096668393 
2161	 0.330489059542183 
2162	 0.330323950914102 
2163	 0.330161012881363 
2164	 0.329972592042883 
2165	 0.329786134828328 
2166	 0.329609793491498 
2167	 0.329458358169757 
2168	 0.329264981483507 
2169	 0.329049818135854 
2170	 0.328847001330821 
2171	 0.328624518082188 
2172	 0.328415663523415 
2173	 0.328221771440578 
2174	 0.328022188598864 
2175	 0.327803210987435 
2176	 0.32761565855744 
2177	 0.327459289583969 
2178	 0.327281381044855 
2179	 0.327102314300351 
2180	 0.326933792329282 
2181	 0.326775005977888 
2182	 0.326592728272779 
2183	 0.326420147502264 
2184	 0.326231097414027 
2185	 0.32601518607309 
2186	 0.325756751667895 
2187	 0.325513836209892 
2188	 0.325252723671067 
2189	 0.325016617770723 
2190	 0.324783404085142 
2191	 0.324560443385725 
2192	 0.32435858612726 
2193	 0.32414709387975 
2194	 0.323916130550983 
2195	 0.323721301439032 
2196	 0.323525183574207 
2197	 0.323370849104676 
2198	 0.323254874995436 
2199	 0.323156171878329 
2200	 0.323114375510584 
2201	 0.323046410525837 
2202	 0.32296880823997 
2203	 0.322919342240763 
2204	 0.322860095153713 
2205	 0.322793413195365 
2206	 0.322722282643632 
2207	 0.322651313601875 
2208	 0.322592972482298 
2209	 0.32252563299983 
2210	 0.322474747212142 
2211	 0.322446316904707 
2212	 0.32241639409541 
2213	 0.322402516554567 
2214	 0.322356886070006 
2215	 0.322303110878942 
2216	 0.322253565399385 
2217	 0.322168100080126 
2218	 0.322109996742042 
2219	 0.322087372895668 
2220	 0.322042321145465 
2221	 0.321987004740867 
2222	 0.32193822316163 
2223	 0.321886768098786 
2224	 0.321849395808406 
2225	 0.321789089766165 
2226	 0.321732354669251 
2227	 0.321656857450991 
2228	 0.321552960011531 
2229	 0.321463690895368 
2230	 0.321379716401975 
2231	 0.321284989154823 
2232	 0.321201744500136 
2233	 0.321076364512893 
2234	 0.320894951861089 
2235	 0.320775316591619 
2236	 0.320681244029667 
2237	 0.320548999102534 
2238	 0.320443415651728 
2239	 0.320311962404017 
2240	 0.320100834321542 
2241	 0.319941983835321 
2242	 0.319807311115418 
2243	 0.319687643931018 
2244	 0.319603119301393 
2245	 0.319508725715053 
2246	 0.319388985880129 
2247	 0.319273692262563 
2248	 0.319156322755366 
2249	 0.318998378966964 
2250	 0.318910161942466 
2251	 0.318868736386586 
2252	 0.318797912570774 
2253	 0.318748669953483 
2254	 0.318673716970529 
2255	 0.318589863238909 
2256	 0.318485505399309 
2257	 0.318353712496505 
2258	 0.318247164301575 
2259	 0.318134735673473 
2260	 0.318020723225749 
2261	 0.317910918003996 
2262	 0.317814189069909 
2263	 0.317702984333838 
2264	 0.317617763285733 
2265	 0.317578382363111 
2266	 0.317523573764557 
2267	 0.317472958452323 
2268	 0.317416784985159 
2269	 0.317388430265972 
2270	 0.317290382357748 
2271	 0.317198473291978 
2272	 0.317089437025863 
2273	 0.316944969089222 
2274	 0.316819263837469 
2275	 0.316698825302734 
2276	 0.316592784522313 
2277	 0.316454706780198 
2278	 0.316296575586588 
2279	 0.316176694512118 
2280	 0.316040262921296 
2281	 0.315930980357288 
2282	 0.315884355179824 
2283	 0.315790064388522 
2284	 0.315676548236163 
2285	 0.31557109615304 
2286	 0.315461228008204 
2287	 0.315337073432286 
2288	 0.315185339904706 
2289	 0.315073608218432 
2290	 0.314974221407338 
2291	 0.314877990359533 
2292	 0.31483531119776 
2293	 0.314738378031668 
2294	 0.314609153973192 
2295	 0.314475484275501 
2296	 0.31430504584787 
2297	 0.314151596607077 
2298	 0.314022875791566 
2299	 0.313879102788273 
2300	 0.313712335459302 
2301	 0.313585568770321 
2302	 0.313453556978356 
2303	 0.313285788678246 
2304	 0.313145487140572 
2305	 0.312957929344963 
2306	 0.312749647186106 
2307	 0.312500234409796 
2308	 0.312269849111002 
2309	 0.312009205760636 
2310	 0.311794007333502 
2311	 0.311604899160486 
2312	 0.311391160306006 
2313	 0.311208180444048 
2314	 0.310973351973048 
2315	 0.310674796572375 
2316	 0.310427543866643 
2317	 0.310165903222043 
2318	 0.309950718826289 
2319	 0.309790641031049 
2320	 0.309620578722062 
2321	 0.309478905461549 
2322	 0.309307666133449 
2323	 0.309127788686463 
2324	 0.308943166152525 
2325	 0.308740106952675 
2326	 0.308542574780172 
2327	 0.308338355531789 
2328	 0.308149760465927 
2329	 0.30794513317393 
2330	 0.307780909101441 
2331	 0.307644984555477 
2332	 0.307483313925267 
2333	 0.307254308869408 
2334	 0.307015234633609 
2335	 0.306770893963671 
2336	 0.306426349167098 
2337	 0.306175486533472 
2338	 0.305956636926343 
2339	 0.305685676057751 
2340	 0.305446088322844 
2341	 0.305190346259731 
2342	 0.304930157143715 
2343	 0.30462204922976 
2344	 0.304319860944333 
2345	 0.304023083383711 
2346	 0.303720068080904 
2347	 0.30339935724139 
2348	 0.303087641571609 
2349	 0.302738953220648 
2350	 0.302356763207856 
2351	 0.301951732116117 
2352	 0.301515631752718 
2353	 0.301117255424834 
2354	 0.300700637998827 
2355	 0.30028685559086 
2356	 0.299913547713485 
2357	 0.299507211316092 
2358	 0.299069184667669 
2359	 0.298658212272668 
2360	 0.298262633761107 
2361	 0.297816567381014 
2362	 0.297325099842749 
2363	 0.296892715507498 
2364	 0.296479489957268 
2365	 0.296051858402903 
2366	 0.295657483948884 
2367	 0.295247556803084 
2368	 0.294804376435599 
2369	 0.294351277273964 
2370	 0.293908803167245 
2371	 0.293474955162499 
2372	 0.292915347375843 
2373	 0.292454189515413 
2374	 0.292037007332071 
2375	 0.291520350720689 
2376	 0.29108337348586 
2377	 0.29056100409204 
2378	 0.289956186059647 
2379	 0.289472074754296 
2380	 0.288952151943418 
2381	 0.288422983247452 
2382	 0.287921398608947 
2383	 0.287374069605735 
2384	 0.286823349360984 
2385	 0.286293090863915 
2386	 0.285834689551753 
2387	 0.285366582107245 
2388	 0.28487074572397 
2389	 0.284502654519524 
2390	 0.284089703154373 
2391	 0.283563110152266 
2392	 0.283094216911275 
2393	 0.282548142699201 
2394	 0.281967768126803 
2395	 0.281459960113821 
2396	 0.280908580412571 
2397	 0.28030836537607 
2398	 0.279714348738028 
2399	 0.279178896169474 
2400	 0.27863912308757 
2401	 0.278151417676437 
2402	 0.277735733048332 
2403	 0.277229884858961 
2404	 0.276700411556072 
2405	 0.276220532014233 
2406	 0.275652199464138 
2407	 0.274977479907872 
2408	 0.274431537042565 
2409	 0.273813292717173 
2410	 0.273080868065215 
2411	 0.272527855164062 
2412	 0.271926937140523 
2413	 0.27132349272294 
2414	 0.270887653553967 
2415	 0.270374681820368 
2416	 0.269821821935578 
2417	 0.269218549747731 
2418	 0.26863026583727 
2419	 0.268015911660351 
2420	 0.26746062480701 
2421	 0.26695835020468 
2422	 0.2663811226397 
2423	 0.265780278730337 
2424	 0.265188588734953 
2425	 0.264568898634289 
2426	 0.263910580372414 
2427	 0.263271083590808 
2428	 0.262590324883616 
2429	 0.261744679613968 
2430	 0.261112228310016 
2431	 0.260614403795738 
2432	 0.260047053661318 
2433	 0.259539327505986 
2434	 0.259039904822756 
2435	 0.258545090630627 
2436	 0.25799855405761 
2437	 0.257469209142311 
2438	 0.256915909389775 
2439	 0.256302775614957 
2440	 0.255706386910767 
2441	 0.255117440688164 
2442	 0.254547816334858 
2443	 0.253967181194386 
2444	 0.253407816886847 
2445	 0.252893311571433 
2446	 0.252378298384057 
2447	 0.251841083125245 
2448	 0.251292465622046 
2449	 0.250786401338596 
2450	 0.250157001788325 
2451	 0.249489067895327 
2452	 0.248827645134847 
2453	 0.248010404132121 
2454	 0.247371312241639 
2455	 0.246875182739133 
2456	 0.246259317169023 
2457	 0.245697929136081 
2458	 0.245075063575654 
2459	 0.244294764972824 
2460	 0.24363731151116 
2461	 0.24302554406034 
2462	 0.242416717899719 
2463	 0.241834228777994 
2464	 0.24134708961397 
2465	 0.241010932901257 
2466	 0.24047052886032 
2467	 0.239907124709991 
2468	 0.239267234816457 
2469	 0.238325170714886 
2470	 0.237746705353165 
2471	 0.237209057970392 
2472	 0.236776205871463 
2473	 0.236517050741958 
2474	 0.235980385353456 
2475	 0.235342214859554 
2476	 0.234768642945994 
2477	 0.234163917278004 
2478	 0.233637442668963 
2479	 0.233149018267003 
2480	 0.232661356829995 
2481	 0.232116556410842 
2482	 0.23156917800054 
2483	 0.23107669854192 
2484	 0.230604646933637 
2485	 0.230158665124352 
2486	 0.229543543807303 
2487	 0.228958935368275 
2488	 0.228518433977163 
2489	 0.227990482117655 
2490	 0.227669116169918 
2491	 0.227502636773127 
2492	 0.227092425398288 
2493	 0.226674995196774 
2494	 0.226241163607497 
2495	 0.225855284585399 
2496	 0.225601796111546 
2497	 0.225178701732856 
2498	 0.224763841828985 
2499	 0.224304307448144 
2500	 0.223719570594439 
