Wavelength	LMW_2300009.asd
350	 8.89589263058634E-02 
351	 0.082393355772699 
352	 7.24852801872476E-02 
353	 6.51296892630494E-02 
354	 6.33276454499004E-02 
355	 7.04044182873776E-02 
356	 7.71632273181748E-02 
357	 7.53071010176667E-02 
358	 7.13400471865977E-02 
359	 6.79473702936971E-02 
360	 6.71051860679648E-02 
361	 6.99345940926993E-02 
362	 7.41529002565861E-02 
363	 7.55560686908628E-02 
364	 7.38617571421334E-02 
365	 7.50175096954878E-02 
366	 7.49982082269731E-02 
367	 7.44059662842559E-02 
368	 7.52649397843643E-02 
369	 8.10635927216364E-02 
370	 8.01447322455713E-02 
371	 7.49410076854743E-02 
372	 0.07664429035659 
373	 7.71151775403251E-02 
374	 7.80213149044133E-02 
375	 7.95066780362555E-02 
376	 0.076737358593416 
377	 7.55877495426358E-02 
378	 7.58176902659496E-02 
379	 7.59605071824463E-02 
380	 7.84214844353212E-02 
381	 7.68861623676424E-02 
382	 7.46324269564429E-02 
383	 0.080917685553639 
384	 8.24476862041213E-02 
385	 8.14715842838242E-02 
386	 8.13984212458615E-02 
387	 8.35771251061628E-02 
388	 8.41181167509599E-02 
389	 8.37401984304872E-02 
390	 8.40779010802587E-02 
391	 8.32487750528169E-02 
392	 8.26026327167201E-02 
393	 8.35063530687805E-02 
394	 0.086790426190559 
395	 8.64908506289992E-02 
396	 8.55440960688753E-02 
397	 0.086733214853005 
398	 8.97042945625071E-02 
399	 9.00465807482793E-02 
400	 8.91081751617228E-02 
401	 8.96778066146636E-02 
402	 8.87337742183862E-02 
403	 8.91962846448978E-02 
404	 9.08720500422138E-02 
405	 9.03102984619826E-02 
406	 9.07303845728275E-02 
407	 9.17548350020133E-02 
408	 9.22330690696144E-02 
409	 0.090618861213271 
410	 9.05864012207614E-02 
411	 9.15641099698345E-02 
412	 9.13551082532385E-02 
413	 9.20316656327528E-02 
414	 9.23285509198005E-02 
415	 9.19916084320339E-02 
416	 9.24024169753101E-02 
417	 9.18308305586981E-02 
418	 9.15539849686224E-02 
419	 9.25667593329199E-02 
420	 9.25248498248216E-02 
421	 9.20019696750448E-02 
422	 9.17726443490355E-02 
423	 9.24881463951285E-02 
424	 9.23572511236995E-02 
425	 9.22277798450085E-02 
426	 9.24441570374723E-02 
427	 9.17377076425232E-02 
428	 0.091643393723975 
429	 9.16332622324765E-02 
430	 9.09187913602099E-02 
431	 9.09633348435887E-02 
432	 9.06884298672175E-02 
433	 9.01208026960732E-02 
434	 9.03886464600486E-02 
435	 9.05165529731186E-02 
436	 9.04590804984044E-02 
437	 9.03390660941324E-02 
438	 9.01407617945203E-02 
439	 9.05334863628544E-02 
440	 0.091099725006034 
441	 0.090996468601796 
442	 9.06946166810658E-02 
443	 9.10333428517589E-02 
444	 9.19002493299333E-02 
445	 9.17415838601064E-02 
446	 9.16771030391509E-02 
447	 9.18254534551989E-02 
448	 9.19762176840776E-02 
449	 9.17076199289527E-02 
450	 9.19421812562648E-02 
451	 9.25760022310782E-02 
452	 0.092649673260414 
453	 9.25702256041554E-02 
454	 9.23626203514268E-02 
455	 9.21478968455761E-02 
456	 9.24562454663535E-02 
457	 9.26597041802984E-02 
458	 9.27349065292054E-02 
459	 9.28769746088774E-02 
460	 9.26532530441179E-02 
461	 9.26364962379042E-02 
462	 9.29615520267361E-02 
463	 9.30402128499442E-02 
464	 9.31798443912348E-02 
465	 9.32367028521557E-02 
466	 9.30930559959514E-02 
467	 9.32035761855951E-02 
468	 9.32651631148307E-02 
469	 0.09320482304475 
470	 0.09315112404251 
471	 9.30868784633463E-02 
472	 9.32240686955972E-02 
473	 9.35126601845791E-02 
474	 0.09314535039658 
475	 9.32221950472736E-02 
476	 9.34932994627981E-02 
477	 9.32666936566147E-02 
478	 9.33488680433131E-02 
479	 9.34235721962778E-02 
480	 9.33475201300059E-02 
481	 9.33435326359361E-02 
482	 9.34741145316656E-02 
483	 0.093592675964043 
484	 9.35492658138084E-02 
485	 9.34304563748587E-02 
486	 9.34412143015193E-02 
487	 9.34915387252826E-02 
488	 9.32780547340412E-02 
489	 9.32113228103889E-02 
490	 9.33852290793722E-02 
491	 0.093672587537774 
492	 9.35514424880975E-02 
493	 9.34662304475971E-02 
494	 0.093414759760874 
495	 9.32442541115873E-02 
496	 9.33462310579043E-02 
497	 9.33875066973152E-02 
498	 9.32814309945544E-02 
499	 9.34074892435327E-02 
500	 0.093508829304481 
501	 9.34983342425708E-02 
502	 9.33573903228488E-02 
503	 9.30917028257435E-02 
504	 9.30918701146879E-02 
505	 9.33180123655407E-02 
506	 9.33475506564136E-02 
507	 9.33510341685946E-02 
508	 9.34480083164091E-02 
509	 9.35945491292635E-02 
510	 9.32954172015153E-02 
511	 9.31243432154591E-02 
512	 9.31888210256699E-02 
513	 9.33268902338389E-02 
514	 9.34384708174728E-02 
515	 9.34413776442057E-02 
516	 9.33638847237923E-02 
517	 9.34088978636149E-02 
518	 9.34094570617698E-02 
519	 9.33729250027938E-02 
520	 0.093355250357184 
521	 9.33518301613303E-02 
522	 9.33702783316466E-02 
523	 9.34149759359868E-02 
524	 9.34853186609787E-02 
525	 9.34235941653174E-02 
526	 0.093358423542811 
527	 9.34002031559151E-02 
528	 9.33836944459888E-02 
529	 9.34059323668501E-02 
530	 9.34632547091146E-02 
531	 9.34907851321891E-02 
532	 9.35345483257663E-02 
533	 9.36209501155844E-02 
534	 9.37089814420174E-02 
535	 9.36047645943565E-02 
536	 9.35591294880042E-02 
537	 9.36264677197767E-02 
538	 9.37536312876849E-02 
539	 9.37495993363131E-02 
540	 9.37668910072157E-02 
541	 9.38591897455103E-02 
542	 0.093913126588 
543	 9.39752258256342E-02 
544	 9.40198812357688E-02 
545	 9.40226282578753E-02 
546	 9.40243280478965E-02 
547	 9.40889207805436E-02 
548	 9.41846523604116E-02 
549	 9.42085444319898E-02 
550	 9.43165218985329E-02 
551	 9.44434833339324E-02 
552	 9.45451008597402E-02 
553	 9.47475464684842E-02 
554	 9.49188207777483E-02 
555	 9.50630013395675E-02 
556	 9.52484407364263E-02 
557	 9.54126346832251E-02 
558	 0.095660296083318 
559	 9.59916982180138E-02 
560	 9.61976777169352E-02 
561	 9.63470607760399E-02 
562	 9.65183553614089E-02 
563	 9.67608141930342E-02 
564	 9.69261576290251E-02 
565	 9.70140173027637E-02 
566	 9.70754533317389E-02 
567	 0.09720620368124 
568	 9.75196032379582E-02 
569	 9.79466150339157E-02 
570	 9.83881423951413E-02 
571	 9.88235006656993E-02 
572	 9.92893517922377E-02 
573	 9.97552475837351E-02 
574	 0.100155170718584 
575	 0.100618250272202 
576	 0.101107764438815 
577	 0.101561737682596 
578	 0.101918308153017 
579	 0.102254733169109 
580	 0.102553083940508 
581	 0.102787176683102 
582	 0.103154984408454 
583	 0.103571285144082 
584	 0.103996326499308 
585	 0.104493639133127 
586	 0.105054873819863 
587	 0.105571140432718 
588	 0.105971973752324 
589	 0.106481802993321 
590	 0.107035369592202 
591	 0.10761016760088 
592	 0.108231630800686 
593	 0.108872538842418 
594	 0.109552808096966 
595	 0.110226137858008 
596	 0.11063535075865 
597	 0.111037652141432 
598	 0.111447272700922 
599	 0.111761467398227 
600	 0.112074821212232 
601	 0.112381238612004 
602	 0.112687237338388 
603	 0.113049049550059 
604	 0.11340561122557 
605	 0.11372711274101 
606	 0.114015744686243 
607	 0.114378704732568 
608	 0.114736498848642 
609	 0.11506725257126 
610	 0.115425798114534 
611	 0.115746997983512 
612	 0.116003783327605 
613	 0.116198014412208 
614	 0.116392960185833 
615	 0.116540392334866 
616	 0.116689767667116 
617	 0.116939399694404 
618	 0.117120343018083 
619	 0.117232507888384 
620	 0.117321789862957 
621	 0.11747382635236 
622	 0.117644474245276 
623	 0.117773066043167 
624	 0.117820796276179 
625	 0.117951371384554 
626	 0.118092536301426 
627	 0.118211289033867 
628	 0.118352677022963 
629	 0.118460598864861 
630	 0.118546695902948 
631	 0.118627487965596 
632	 0.118651414419057 
633	 0.118713140643843 
634	 0.118813373124384 
635	 0.118877829169722 
636	 0.118967868900525 
637	 0.119037874696646 
638	 0.119073166293724 
639	 0.119178262415864 
640	 0.119303391394501 
641	 0.119392646759308 
642	 0.119410316415182 
643	 0.119504080626404 
644	 0.119639165679323 
645	 0.119756313508157 
646	 0.119787259647961 
647	 0.119827508644126 
648	 0.119914671289438 
649	 0.120042050687454 
650	 0.120099455782151 
651	 0.120186588021464 
652	 0.120304683606012 
653	 0.120370003823007 
654	 0.120453518001068 
655	 0.120528031400816 
656	 0.120588353973612 
657	 0.120732868413928 
658	 0.120863565981327 
659	 0.120976709942512 
660	 0.121103494842421 
661	 0.121173697558221 
662	 0.121252687218237 
663	 0.121381206630805 
664	 0.121547980270702 
665	 0.121678010028277 
666	 0.121772350961318 
667	 0.121864826336962 
668	 0.122009802724956 
669	 0.122170572047076 
670	 0.122309970166139 
671	 0.122401821448649 
672	 0.122576267459582 
673	 0.122726972354923 
674	 0.122800440131829 
675	 0.122966531190999 
676	 0.123158125643704 
677	 0.123313641268443 
678	 0.123399442006889 
679	 0.123572087846447 
680	 0.123779600611551 
681	 0.123965406258081 
682	 0.124092127472958 
683	 0.12427876401001 
684	 0.12449394573467 
685	 0.124675173062619 
686	 0.124797228978411 
687	 0.124975539837626 
688	 0.125200100776035 
689	 0.125374109976148 
690	 0.125536338508121 
691	 0.125694066760351 
692	 0.125846956044041 
693	 0.12598410766658 
694	 0.126137753387063 
695	 0.126320982409644 
696	 0.12653298417535 
697	 0.1267506281506 
698	 0.126955548995882 
699	 0.127140921886236 
700	 0.127312960763318 
701	 0.127525413421521 
702	 0.127715393014213 
703	 0.127842006244064 
704	 0.127993654269608 
705	 0.128173370098266 
706	 0.128347334463304 
707	 0.128476072528301 
708	 0.128662479807597 
709	 0.128861775794823 
710	 0.129038390672171 
711	 0.129193377329091 
712	 0.129364331125868 
713	 0.129512202601121 
714	 0.129616183143061 
715	 0.129812315576715 
716	 0.129987877354598 
717	 0.130108285123673 
718	 0.130205832686352 
719	 0.130335608737102 
720	 0.130473961700313 
721	 0.13059957465617 
722	 0.130724150445046 
723	 0.13080620037679 
724	 0.130857744080536 
725	 0.130912053431438 
726	 0.13099602134332 
727	 0.131098788957769 
728	 0.131198686285608 
729	 0.131268053417142 
730	 0.131316741274813 
731	 0.131384237848225 
732	 0.131474915579043 
733	 0.131495332137191 
734	 0.131524072914208 
735	 0.131550372828361 
736	 0.1315396836529 
737	 0.131548983710514 
738	 0.131547401294522 
739	 0.131539077773215 
740	 0.131570105508029 
741	 0.131563617520567 
742	 0.131546856109719 
743	 0.131547268821967 
744	 0.131533674159662 
745	 0.131476365085015 
746	 0.131408547534249 
747	 0.13137721788073 
748	 0.131284161479189 
749	 0.131201040496175 
750	 0.131152220112076 
751	 0.131087458334965 
752	 0.131008566972144 
753	 0.130908423790542 
754	 0.1307952303963 
755	 0.130724953188066 
756	 0.130641084905306 
757	 0.130536228964191 
758	 0.13042920467978 
759	 0.130330406559717 
760	 0.130187966974153 
761	 0.130023049031759 
762	 0.12995079459611 
763	 0.12984883556622 
764	 0.129721385088167 
765	 0.129591868947262 
766	 0.129443353274692 
767	 0.129311779074778 
768	 0.129199441723636 
769	 0.129082965922973 
770	 0.128901795032238 
771	 0.128719304692088 
772	 0.128560575749722 
773	 0.128392210900094 
774	 0.128278153218367 
775	 0.128140412861984 
776	 0.127933977076715 
777	 0.127792000219262 
778	 0.12762945729573 
779	 0.127470541681625 
780	 0.127364323289643 
781	 0.127188462711074 
782	 0.127022673513304 
783	 0.126883926250028 
784	 0.126709542985415 
785	 0.126528844680906 
786	 0.1263813372872 
787	 0.126258365837259 
788	 0.126019294776811 
789	 0.125879781650012 
790	 0.125776098340213 
791	 0.125578153173924 
792	 0.125415932012031 
793	 0.125256921557105 
794	 0.125089338647316 
795	 0.124926518083094 
796	 0.124777963440666 
797	 0.12465138520717 
798	 0.12453530932114 
799	 0.124385934579529 
800	 0.124227259343643 
801	 0.124056569213556 
802	 0.123877986429528 
803	 0.123748993573196 
804	 0.123641047497021 
805	 0.12350357649808 
806	 0.123294969001784 
807	 0.123145781538378 
808	 0.123020900987863 
809	 0.122875053928108 
810	 0.122678822853262 
811	 0.122577012644744 
812	 0.122488069796428 
813	 0.122341373291287 
814	 0.122250523729233 
815	 0.122096047471297 
816	 0.121909661545032 
817	 0.121776507898069 
818	 0.121696636052453 
819	 0.121613262647364 
820	 0.121493379491691 
821	 0.121338903576868 
822	 0.121251832886327 
823	 0.121178032476151 
824	 0.121082980156499 
825	 0.121006664369656 
826	 0.120895579886992 
827	 0.120780686317844 
828	 0.120694179165673 
829	 0.120597308607089 
830	 0.120472984997954 
831	 0.120355973764363 
832	 0.120290719423375 
833	 0.120211822278649 
834	 0.120123863970754 
835	 0.120017149188038 
836	 0.119876003989852 
837	 0.119849845966074 
838	 0.119806456070003 
839	 0.119676248281768 
840	 0.119574560701307 
841	 0.119512491878455 
842	 0.119473087892282 
843	 0.119424521716617 
844	 0.11931886628108 
845	 0.119297888234294 
846	 0.119272915324928 
847	 0.119114758512453 
848	 0.119133445448331 
849	 0.119097040566762 
850	 0.118974907196102 
851	 0.118925213799526 
852	 0.118879409583702 
853	 0.118860377281468 
854	 0.118860018436156 
855	 0.118812933122497 
856	 0.11876690150408 
857	 0.118748592308752 
858	 0.118752485583097 
859	 0.11870479324501 
860	 0.118666554787272 
861	 0.118602264660319 
862	 0.118489331634496 
863	 0.11850309508275 
864	 0.11853936622761 
865	 0.118551514239194 
866	 0.118544276642977 
867	 0.118570530387049 
868	 0.118578406512711 
869	 0.118553963234796 
870	 0.118532509753464 
871	 0.118536687971631 
872	 0.118530300734861 
873	 0.118493592500532 
874	 0.118449439086477 
875	 0.118504129488569 
876	 0.118581233324344 
877	 0.118597915787708 
878	 0.118579858141317 
879	 0.118598313380865 
880	 0.118612245336915 
881	 0.118575090302621 
882	 0.118592487015258 
883	 0.118674536431047 
884	 0.118744394720045 
885	 0.118712903581886 
886	 0.118722305611549 
887	 0.118722613230405 
888	 0.118730785496849 
889	 0.118813216509828 
890	 0.118841933545842 
891	 0.118838004550943 
892	 0.118856377506542 
893	 0.118957699447336 
894	 0.119023932854574 
895	 0.119058339190261 
896	 0.119087087972577 
897	 0.119129585212415 
898	 0.11919752983232 
899	 0.119258444391241 
900	 0.119302717798039 
901	 0.119419979424328 
902	 0.119468680231526 
903	 0.11949905383857 
904	 0.119585811105901 
905	 0.11962654122159 
906	 0.119666790710911 
907	 0.119745886842426 
908	 0.119866647098625 
909	 0.119879161923095 
910	 0.119919890005038 
911	 0.120050773775273 
912	 0.120239270946871 
913	 0.120272442231588 
914	 0.120362725971646 
915	 0.120508182759511 
916	 0.120514606956903 
917	 0.120565077979549 
918	 0.120699324924444 
919	 0.120841144956915 
920	 0.120830097725745 
921	 0.120895636055225 
922	 0.12098634387881 
923	 0.121077302040675 
924	 0.12124765119537 
925	 0.121398904941857 
926	 0.121558962817326 
927	 0.121720606589815 
928	 0.121766518418189 
929	 0.121854707004612 
930	 0.121968950262639 
931	 0.1220698989442 
932	 0.122173093345964 
933	 0.122319288879497 
934	 0.122470363085024 
935	 0.122588026232617 
936	 0.122711414597593 
937	 0.122778969285741 
938	 0.122854739781792 
939	 0.123004841678506 
940	 0.123150718448879 
941	 0.123326173238013 
942	 0.123489003974718 
943	 0.123608551598147 
944	 0.123821409048981 
945	 0.123942677008003 
946	 0.124023745025289 
947	 0.124177440564866 
948	 0.124256082064155 
949	 0.124325161333767 
950	 0.124453691821202 
951	 0.124671347337983 
952	 0.124858839160515 
953	 0.124944627001049 
954	 0.12502306341603 
955	 0.125230083793281 
956	 0.12540482460384 
957	 0.125515411771268 
958	 0.12558685991082 
959	 0.125695845477162 
960	 0.126014328266949 
961	 0.126159048782632 
962	 0.126254956193782 
963	 0.126639249168925 
964	 0.126706155126166 
965	 0.126749912047351 
966	 0.126881022000972 
967	 0.127034798839386 
968	 0.12717458393502 
969	 0.12734934242463 
970	 0.127504066058684 
971	 0.127540040961601 
972	 0.127535779334574 
973	 0.127706094787118 
974	 0.12792573127916 
975	 0.127938555510529 
976	 0.128187543451426 
977	 0.128373434121223 
978	 0.128473037777172 
979	 0.128650091083142 
980	 0.128833538013263 
981	 0.128928877554253 
982	 0.129008877220138 
983	 0.129208589337583 
984	 0.129413865250245 
985	 0.129474914528067 
986	 0.129542145897544 
987	 0.129831444031244 
988	 0.129997581818718 
989	 0.130104149023159 
990	 0.130139826900718 
991	 0.130119855162201 
992	 0.130372595635519 
993	 0.13046612283866 
994	 0.130523230913106 
995	 0.130784841759679 
996	 0.130812788827834 
997	 0.130955038573709 
998	 0.131089804245332 
999	 0.131072182076086 
1000	 0.131374009689678 
1001	 0.128036918612284 
1002	 0.128071162292997 
1003	 0.128223387344927 
1004	 0.128332330399428 
1005	 0.128498546977549 
1006	 0.128576819143506 
1007	 0.12861940600583 
1008	 0.12858160147559 
1009	 0.128618854446539 
1010	 0.128744467679693 
1011	 0.128938936985655 
1012	 0.129112318082325 
1013	 0.129169654940961 
1014	 0.1292201186911 
1015	 0.129231302628559 
1016	 0.129271373515091 
1017	 0.129310655627136 
1018	 0.129363620163279 
1019	 0.129377698932863 
1020	 0.129482359423533 
1021	 0.129583434694204 
1022	 0.129655160528186 
1023	 0.129791719190693 
1024	 0.129877776619938 
1025	 0.129889907516931 
1026	 0.129911278327893 
1027	 0.129893218073119 
1028	 0.129905229637893 
1029	 0.129957799248595 
1030	 0.130003953265906 
1031	 0.130066197135998 
1032	 0.13017309338977 
1033	 0.130243425788479 
1034	 0.130301335062286 
1035	 0.130365280460853 
1036	 0.130406229027411 
1037	 0.130448976030195 
1038	 0.130456100814993 
1039	 0.130460798191803 
1040	 0.130499008209023 
1041	 0.130531586752959 
1042	 0.130603422708583 
1043	 0.130668088362721 
1044	 0.130705115358421 
1045	 0.130736794096557 
1046	 0.130757456990393 
1047	 0.130720019325895 
1048	 0.130705818926813 
1049	 0.130746215044674 
1050	 0.13082716735703 
1051	 0.130889642876252 
1052	 0.130941072110026 
1053	 0.130971947455029 
1054	 0.130939727491911 
1055	 0.130956173889178 
1056	 0.130994666595285 
1057	 0.13104696777839 
1058	 0.131159549593504 
1059	 0.131211209080945 
1060	 0.131235539711689 
1061	 0.131279531744356 
1062	 0.131318899648851 
1063	 0.131297619325562 
1064	 0.131283535014253 
1065	 0.131297879167286 
1066	 0.131316312280131 
1067	 0.131335829921875 
1068	 0.131356110288271 
1069	 0.131373079890771 
1070	 0.13138935644997 
1071	 0.131372842064796 
1072	 0.131381548191008 
1073	 0.131414565673114 
1074	 0.131428870123462 
1075	 0.131432165133066 
1076	 0.131447612889774 
1077	 0.131438720028178 
1078	 0.131459667503961 
1079	 0.131445650560258 
1080	 0.131418462251874 
1081	 0.131459211585806 
1082	 0.131484620235595 
1083	 0.131493369365086 
1084	 0.13151885447847 
1085	 0.131523678497255 
1086	 0.131488037001865 
1087	 0.131476358667248 
1088	 0.131465945237643 
1089	 0.131483128293227 
1090	 0.131496505858368 
1091	 0.13151242629406 
1092	 0.13154652212508 
1093	 0.131551047216106 
1094	 0.131548229804276 
1095	 0.13157757857212 
1096	 0.13162054864512 
1097	 0.131667362085055 
1098	 0.131707034645101 
1099	 0.131762992446753 
1100	 0.131782910153983 
1101	 0.131762330374783 
1102	 0.13178080048217 
1103	 0.131803109663238 
1104	 0.131827178318838 
1105	 0.131873678163344 
1106	 0.13191633203161 
1107	 0.131922101201888 
1108	 0.13192826799457 
1109	 0.131944676540452 
1110	 0.131962427004355 
1111	 0.132002175410297 
1112	 0.132076675349118 
1113	 0.132121395018373 
1114	 0.132181394359821 
1115	 0.132208136113059 
1116	 0.132176504426843 
1117	 0.13220426529482 
1118	 0.132257732337019 
1119	 0.132288813591046 
1120	 0.132324070372569 
1121	 0.132383572204848 
1122	 0.132413221807244 
1123	 0.132444403208392 
1124	 0.132489059791586 
1125	 0.132565092738523 
1126	 0.132604348377519 
1127	 0.13262158354569 
1128	 0.132659004973085 
1129	 0.132692083482492 
1130	 0.132740248077593 
1131	 0.132810946433825 
1132	 0.132861677351042 
1133	 0.132914246719859 
1134	 0.132954893115592 
1135	 0.132982380090532 
1136	 0.133006097294711 
1137	 0.133034592958891 
1138	 0.13305057487353 
1139	 0.133081801666058 
1140	 0.133130053479416 
1141	 0.133154045918044 
1142	 0.133166833736436 
1143	 0.13319517992161 
1144	 0.133208087916624 
1145	 0.133237922480257 
1146	 0.133292162048796 
1147	 0.133337617565871 
1148	 0.133388416880325 
1149	 0.133432280241188 
1150	 0.133481127128921 
1151	 0.133514285516537 
1152	 0.133537362665477 
1153	 0.133551331560238 
1154	 0.133572316243471 
1155	 0.133590399879753 
1156	 0.133607297461351 
1157	 0.13361607752763 
1158	 0.133644716911844 
1159	 0.133698414008659 
1160	 0.133715162046174 
1161	 0.133718649144548 
1162	 0.133737673460813 
1163	 0.133722726700269 
1164	 0.133737774828173 
1165	 0.133783356867452 
1166	 0.133841166925548 
1167	 0.133881209646766 
1168	 0.133915550609675 
1169	 0.13394083441944 
1170	 0.133955131192474 
1171	 0.133973698205524 
1172	 0.133983622155199 
1173	 0.134001555095336 
1174	 0.134026167264744 
1175	 0.134043810608505 
1176	 0.134056429571064 
1177	 0.134076884714934 
1178	 0.134103397579392 
1179	 0.134121555973085 
1180	 0.134127723573929 
1181	 0.134152519413528 
1182	 0.134187925848799 
1183	 0.134216831916627 
1184	 0.134241322178011 
1185	 0.134280449945069 
1186	 0.134305224339166 
1187	 0.134308076279632 
1188	 0.134326231432981 
1189	 0.134352058899051 
1190	 0.134377058981932 
1191	 0.134399477073885 
1192	 0.134426278325804 
1193	 0.134461387375578 
1194	 0.134491369726182 
1195	 0.134526442074985 
1196	 0.134551560116193 
1197	 0.134564665596089 
1198	 0.134584339879461 
1199	 0.134603861399652 
1200	 0.134621459913196 
1201	 0.134633141108882 
1202	 0.134642728009401 
1203	 0.134660665357089 
1204	 0.134677744440813 
1205	 0.134690237741505 
1206	 0.134710001974659 
1207	 0.134724874706078 
1208	 0.134731370902198 
1209	 0.134736550664424 
1210	 0.134737863390928 
1211	 0.134748737954978 
1212	 0.134752691064039 
1213	 0.134767258266902 
1214	 0.134801632661284 
1215	 0.134829660646274 
1216	 0.134857435204057 
1217	 0.134888823344695 
1218	 0.134908454663569 
1219	 0.134927083897368 
1220	 0.134933723345968 
1221	 0.134919285326374 
1222	 0.134926889501673 
1223	 0.134930719205315 
1224	 0.134949435682656 
1225	 0.13499654261704 
1226	 0.1350215094644 
1227	 0.135041503690767 
1228	 0.135061787812036 
1229	 0.135073729070293 
1230	 0.13508519048701 
1231	 0.135090586092973 
1232	 0.135107257272316 
1233	 0.135127790415026 
1234	 0.135146571328399 
1235	 0.135174498989323 
1236	 0.135226578117801 
1237	 0.135243877833154 
1238	 0.135240160955212 
1239	 0.135255302940116 
1240	 0.135260266401848 
1241	 0.135275419876687 
1242	 0.135318871365885 
1243	 0.135336292637686 
1244	 0.135334375950708 
1245	 0.135340849449923 
1246	 0.135339672176626 
1247	 0.135345125833982 
1248	 0.135355357765001 
1249	 0.135368706237704 
1250	 0.135392502934057 
1251	 0.135392835784592 
1252	 0.13540872438037 
1253	 0.13543071807719 
1254	 0.135445196385248 
1255	 0.135460942787219 
1256	 0.135474042720762 
1257	 0.135479272802247 
1258	 0.135489405651824 
1259	 0.135504433875275 
1260	 0.135514380033257 
1261	 0.135522698988865 
1262	 0.135529899419699 
1263	 0.135528771215998 
1264	 0.135535749604916 
1265	 0.135548102557737 
1266	 0.135559678416665 
1267	 0.135576285280018 
1268	 0.135593135084895 
1269	 0.135604875935544 
1270	 0.135605574883433 
1271	 0.135626209496293 
1272	 0.135656856428818 
1273	 0.135679503284503 
1274	 0.13571546116788 
1275	 0.135733374415922 
1276	 0.135729229600224 
1277	 0.135744746769422 
1278	 0.135768082461408 
1279	 0.135783904413199 
1280	 0.135792539129234 
1281	 0.13582004646713 
1282	 0.135868051021515 
1283	 0.135891823226901 
1284	 0.135915842260407 
1285	 0.135941409340715 
1286	 0.135942748549173 
1287	 0.135937491976667 
1288	 0.135959592607286 
1289	 0.136010725739955 
1290	 0.136030417530682 
1291	 0.136048742315394 
1292	 0.136061671579553 
1293	 0.136057024318154 
1294	 0.136061202614977 
1295	 0.13606860368812 
1296	 0.136072687052394 
1297	 0.136078822663737 
1298	 0.136079606384631 
1299	 0.13607819908414 
1300	 0.136075714147724 
1301	 0.136065502966338 
1302	 0.136053636150668 
1303	 0.136041072224856 
1304	 0.136031285652099 
1305	 0.13601250419265 
1306	 0.135986639965124 
1307	 0.135945747653488 
1308	 0.135938355650021 
1309	 0.135934679268241 
1310	 0.135942320192164 
1311	 0.135945267393815 
1312	 0.135967055687503 
1313	 0.135966370798627 
1314	 0.135945491802769 
1315	 0.1359458072788 
1316	 0.135952224805042 
1317	 0.135949473825663 
1318	 0.135946128249782 
1319	 0.135952890344958 
1320	 0.135964673220839 
1321	 0.13596734011758 
1322	 0.135973931118528 
1323	 0.135983172330945 
1324	 0.135965245985487 
1325	 0.13594856432071 
1326	 0.135978626940241 
1327	 0.136000678638009 
1328	 0.136023913431981 
1329	 0.136059223860753 
1330	 0.136082532090371 
1331	 0.136086997671619 
1332	 0.136109669286772 
1333	 0.136144617354405 
1334	 0.136170353225046 
1335	 0.136188036592186 
1336	 0.136216224542513 
1337	 0.136251843548649 
1338	 0.136281161183385 
1339	 0.136308292176285 
1340	 0.13634852384644 
1341	 0.136395138838258 
1342	 0.136430604104952 
1343	 0.136474346094366 
1344	 0.13651351888876 
1345	 0.136521275194263 
1346	 0.13654303502616 
1347	 0.136578171447028 
1348	 0.136589091544489 
1349	 0.136600501506172 
1350	 0.136623175949452 
1351	 0.136652267682825 
1352	 0.136680567023615 
1353	 0.136725217257191 
1354	 0.13679416398196 
1355	 0.136838115533242 
1356	 0.136882150127169 
1357	 0.136915700057413 
1358	 0.136927270272124 
1359	 0.136958748868208 
1360	 0.136997819013022 
1361	 0.137029902145612 
1362	 0.137072552882968 
1363	 0.137100979259325 
1364	 0.137109918378062 
1365	 0.137130209985905 
1366	 0.137147967273591 
1367	 0.137175609207894 
1368	 0.1371987467808 
1369	 0.137232506143998 
1370	 0.137253843315656 
1371	 0.137257523993952 
1372	 0.137269656440265 
1373	 0.137280290296151 
1374	 0.137287982376123 
1375	 0.137293909293569 
1376	 0.137305722962135 
1377	 0.137317951104845 
1378	 0.137325549019065 
1379	 0.137344483811993 
1380	 0.137344622665495 
1381	 0.137328273833003 
1382	 0.137316968484095 
1383	 0.137296667978139 
1384	 0.137280481077564 
1385	 0.137271353835311 
1386	 0.13725202489456 
1387	 0.137236909473192 
1388	 0.137208291712704 
1389	 0.137165743288035 
1390	 0.137120909623738 
1391	 0.137078989375996 
1392	 0.137018419080831 
1393	 0.136967396816092 
1394	 0.136913045419052 
1395	 0.13681987887523 
1396	 0.136726366842726 
1397	 0.136635138334061 
1398	 0.136529183081204 
1399	 0.136424749223516 
1400	 0.13633266448565 
1401	 0.136223967655573 
1402	 0.136103268516732 
1403	 0.135976731556155 
1404	 0.135835321972209 
1405	 0.135710446502069 
1406	 0.135575755913854 
1407	 0.135457908541177 
1408	 0.135367572344697 
1409	 0.135259700578807 
1410	 0.135138720369229 
1411	 0.135040068174507 
1412	 0.134941399324352 
1413	 0.134856040820114 
1414	 0.134803596244618 
1415	 0.134745329480655 
1416	 0.134683514520789 
1417	 0.134630445977727 
1418	 0.134583160887241 
1419	 0.134540694676752 
1420	 0.134516696757271 
1421	 0.134494532792424 
1422	 0.134460577791492 
1423	 0.13443146823616 
1424	 0.134405502707058 
1425	 0.134382885682544 
1426	 0.134357103514896 
1427	 0.13432827650825 
1428	 0.134308668603913 
1429	 0.134286229527391 
1430	 0.134271513268325 
1431	 0.134275106495406 
1432	 0.134266298688743 
1433	 0.134248848404721 
1434	 0.134240455134306 
1435	 0.134227945103707 
1436	 0.134231016114698 
1437	 0.134251681024959 
1438	 0.134262720514903 
1439	 0.134279072282964 
1440	 0.134286831039527 
1441	 0.134301594152893 
1442	 0.134318127276514 
1443	 0.134326404584701 
1444	 0.134343413693456 
1445	 0.134347556673736 
1446	 0.134347446283564 
1447	 0.134364293149882 
1448	 0.134376248044575 
1449	 0.134386704576089 
1450	 0.134399336901973 
1451	 0.134415436123634 
1452	 0.134434842740071 
1453	 0.134451555682534 
1454	 0.134472417839271 
1455	 0.134486176698922 
1456	 0.134490869050553 
1457	 0.134506084467055 
1458	 0.13452491164743 
1459	 0.134540583558439 
1460	 0.134556322772527 
1461	 0.134577180636265 
1462	 0.134596984614002 
1463	 0.134622265301808 
1464	 0.134658044593751 
1465	 0.134690785818207 
1466	 0.134726845617077 
1467	 0.134753537771678 
1468	 0.134765787882178 
1469	 0.134795438663542 
1470	 0.134824816572132 
1471	 0.134866616117333 
1472	 0.13491667272412 
1473	 0.134967162678049 
1474	 0.134996980814616 
1475	 0.135019743945253 
1476	 0.135055927237233 
1477	 0.135104367204106 
1478	 0.13516083856405 
1479	 0.135216547578146 
1480	 0.135265183881305 
1481	 0.135308171080325 
1482	 0.135355206263997 
1483	 0.135406936040884 
1484	 0.135445751375241 
1485	 0.135476585527473 
1486	 0.135515105837958 
1487	 0.135547575286551 
1488	 0.135583918059054 
1489	 0.135627817201789 
1490	 0.135669955214456 
1491	 0.135708215272711 
1492	 0.135748211631399 
1493	 0.135792796702162 
1494	 0.135837849095583 
1495	 0.135881898006964 
1496	 0.135926344732473 
1497	 0.135973566841557 
1498	 0.136019176945579 
1499	 0.13606828912977 
1500	 0.136109478621565 
1501	 0.13614272659594 
1502	 0.136179767116285 
1503	 0.136219485243714 
1504	 0.136244566654415 
1505	 0.136273739922363 
1506	 0.136315208760851 
1507	 0.13633860067971 
1508	 0.136344284516343 
1509	 0.136357109339567 
1510	 0.136387744554339 
1511	 0.136411933729911 
1512	 0.136449211216484 
1513	 0.136480543196325 
1514	 0.136483556016876 
1515	 0.136501989039137 
1516	 0.136526346607971 
1517	 0.136554653031908 
1518	 0.136596431458601 
1519	 0.136622301031492 
1520	 0.136647628561272 
1521	 0.136662229879263 
1522	 0.136658913608839 
1523	 0.136674310006374 
1524	 0.13668846372275 
1525	 0.136708338933227 
1526	 0.13674877689322 
1527	 0.136764923291554 
1528	 0.136768483184613 
1529	 0.136782854641988 
1530	 0.136786645018492 
1531	 0.136799317926485 
1532	 0.136824616124286 
1533	 0.136844751542932 
1534	 0.136862365833943 
1535	 0.136882456682647 
1536	 0.13690339782063 
1537	 0.13692918945041 
1538	 0.136955504061953 
1539	 0.136985447795964 
1540	 0.137024850909605 
1541	 0.13705841332592 
1542	 0.137098748888227 
1543	 0.137123732955182 
1544	 0.13713327241743 
1545	 0.13714973513281 
1546	 0.137156935942788 
1547	 0.137174387607505 
1548	 0.137185241656313 
1549	 0.137189581604316 
1550	 0.137190692303928 
1551	 0.137179488485719 
1552	 0.137194900426239 
1553	 0.137215942005914 
1554	 0.137221904762473 
1555	 0.137234938720788 
1556	 0.137249696680566 
1557	 0.137266729264046 
1558	 0.137284952096171 
1559	 0.13731270984741 
1560	 0.137338915593429 
1561	 0.137366368025684 
1562	 0.137382249763151 
1563	 0.137401219889442 
1564	 0.137410645295476 
1565	 0.13740671828158 
1566	 0.137400653072896 
1567	 0.137380588706203 
1568	 0.137390323729016 
1569	 0.137411324065717 
1570	 0.137421444064897 
1571	 0.137451360368464 
1572	 0.137460862390838 
1573	 0.137448363976369 
1574	 0.137442539638805 
1575	 0.137435981212416 
1576	 0.13743624206716 
1577	 0.137425726627486 
1578	 0.137435254890348 
1579	 0.137472260861255 
1580	 0.137488344409296 
1581	 0.137502524670359 
1582	 0.137513775540573 
1583	 0.137506101256943 
1584	 0.137518199208073 
1585	 0.137546168559007 
1586	 0.137564649972917 
1587	 0.13759155997522 
1588	 0.137605705871948 
1589	 0.137605556719945 
1590	 0.137612644720452 
1591	 0.137609790322238 
1592	 0.137623093581925 
1593	 0.137659300153009 
1594	 0.137674279054888 
1595	 0.137685625876945 
1596	 0.137696979084577 
1597	 0.137695768614196 
1598	 0.137693873988665 
1599	 0.137693432731615 
1600	 0.137696170457724 
1601	 0.137700024051332 
1602	 0.137693770814549 
1603	 0.137687381592864 
1604	 0.137677585839299 
1605	 0.137641105925003 
1606	 0.137629226818069 
1607	 0.137626497815282 
1608	 0.137640891335508 
1609	 0.137662293014926 
1610	 0.137677072586716 
1611	 0.137693463927837 
1612	 0.137704191034553 
1613	 0.137715034184783 
1614	 0.137738167506568 
1615	 0.137738362308834 
1616	 0.137733346331858 
1617	 0.137736838867959 
1618	 0.137717003688796 
1619	 0.137709840164051 
1620	 0.137724607848225 
1621	 0.137734648552175 
1622	 0.137754322814979 
1623	 0.137753803539328 
1624	 0.13775082397392 
1625	 0.137741561751224 
1626	 0.137710182480039 
1627	 0.137705400256467 
1628	 0.137708168879657 
1629	 0.137719018139246 
1630	 0.137750789087298 
1631	 0.137753135530416 
1632	 0.137748353986618 
1633	 0.137748148887925 
1634	 0.137729711258905 
1635	 0.137730368177304 
1636	 0.13775072841985 
1637	 0.137754524694903 
1638	 0.137755361490956 
1639	 0.137751055800814 
1640	 0.137733422674349 
1641	 0.137735512975636 
1642	 0.137742477105688 
1643	 0.137750667148127 
1644	 0.137774905941791 
1645	 0.137784597304512 
1646	 0.137786640361251 
1647	 0.137787864062519 
1648	 0.137786278333876 
1649	 0.137785082748937 
1650	 0.137778820297322 
1651	 0.137778448247039 
1652	 0.137784141593594 
1653	 0.137779742234786 
1654	 0.137762056309258 
1655	 0.137770226272864 
1656	 0.137789117267861 
1657	 0.13780074158052 
1658	 0.137835305821309 
1659	 0.137843820727105 
1660	 0.137834976461896 
1661	 0.137819253931381 
1662	 0.13778418405828 
1663	 0.137771137987324 
1664	 0.137750128596922 
1665	 0.137748383963206 
1666	 0.13778394493221 
1667	 0.13778314840551 
1668	 0.137771632158945 
1669	 0.137757651151179 
1670	 0.137728114763042 
1671	 0.137699642275252 
1672	 0.137658896460134 
1673	 0.137644196643835 
1674	 0.137625483491469 
1675	 0.137634793849564 
1676	 0.137694364996246 
1677	 0.137709777106371 
1678	 0.137723751735264 
1679	 0.137720373264853 
1680	 0.137675476058444 
1681	 0.1376674101572 
1682	 0.137669935949601 
1683	 0.137672968550742 
1684	 0.137695148232966 
1685	 0.137704363986091 
1686	 0.137708124614641 
1687	 0.137709589872772 
1688	 0.137704026696394 
1689	 0.137708152422189 
1690	 0.13771868583962 
1691	 0.137717911268014 
1692	 0.137712744223072 
1693	 0.137716397324719 
1694	 0.13771348839278 
1695	 0.137717168762404 
1696	 0.137742972589324 
1697	 0.137746620331475 
1698	 0.137741252995239 
1699	 0.137727648819395 
1700	 0.137691359832379 
1701	 0.137678627446878 
1702	 0.137663455259048 
1703	 0.137664145668221 
1704	 0.137699988310505 
1705	 0.137701237945572 
1706	 0.137691666779726 
1707	 0.137682264188591 
1708	 0.137649118008377 
1709	 0.137637739547821 
1710	 0.137640623937613 
1711	 0.137638022950487 
1712	 0.137645360287758 
1713	 0.137638588406561 
1714	 0.137620819594613 
1715	 0.137610188694212 
1716	 0.13760070491022 
1717	 0.137577097363781 
1718	 0.137547617379726 
1719	 0.137529384741772 
1720	 0.137492505323123 
1721	 0.1374872484672 
1722	 0.137516302483686 
1723	 0.137518066309557 
1724	 0.137526209561145 
1725	 0.137518578739576 
1726	 0.137487683139395 
1727	 0.137475251808648 
1728	 0.137463404154573 
1729	 0.137449237275002 
1730	 0.13744877324849 
1731	 0.137429622042591 
1732	 0.137394175602599 
1733	 0.13737389546947 
1734	 0.137352572257693 
1735	 0.137328268133281 
1736	 0.13730838397238 
1737	 0.137291782871169 
1738	 0.137271478789341 
1739	 0.137254690879249 
1740	 0.137257122834563 
1741	 0.137220785299767 
1742	 0.137156518660004 
1743	 0.137121329224078 
1744	 0.137077408513787 
1745	 0.13704231874352 
1746	 0.137019397104631 
1747	 0.13701472419393 
1748	 0.13702795615934 
1749	 0.137039400333734 
1750	 0.137039397257267 
1751	 0.137012946523702 
1752	 0.136982195249699 
1753	 0.136966232780639 
1754	 0.136954094586579 
1755	 0.136934116621218 
1756	 0.136885563410845 
1757	 0.136841491922458 
1758	 0.13682292519204 
1759	 0.136814303000324 
1760	 0.136803445934423 
1761	 0.136770421417651 
1762	 0.136733762277868 
1763	 0.13670390012157 
1764	 0.136668449853706 
1765	 0.136648553564493 
1766	 0.136649174713054 
1767	 0.136655470500152 
1768	 0.136664621267429 
1769	 0.136663255787384 
1770	 0.136656454786196 
1771	 0.136633855376201 
1772	 0.136603658376129 
1773	 0.136589297451836 
1774	 0.136570353912481 
1775	 0.136521514348263 
1776	 0.136456792863342 
1777	 0.13642569863582 
1778	 0.136403944212995 
1779	 0.136392948839806 
1780	 0.136411924404027 
1781	 0.136391709420046 
1782	 0.136338537308345 
1783	 0.136289487185391 
1784	 0.13627015269953 
1785	 0.136287474482024 
1786	 0.13628409703327 
1787	 0.136297838337692 
1788	 0.136292909685133 
1789	 0.136252660227868 
1790	 0.136244312020526 
1791	 0.136241980498605 
1792	 0.136230902207083 
1793	 0.136236416147419 
1794	 0.13622362478983 
1795	 0.136194359877175 
1796	 0.136186211563637 
1797	 0.136181861355421 
1798	 0.136175455825631 
1799	 0.136171369822769 
1800	 0.136173916393271 
1801	 0.132465386518797 
1802	 0.132524069028012 
1803	 0.132565296163546 
1804	 0.132588933939229 
1805	 0.132650847036591 
1806	 0.132664148080321 
1807	 0.132657906166061 
1808	 0.132675314299679 
1809	 0.132707531160897 
1810	 0.132723434142131 
1811	 0.132733041401443 
1812	 0.13277003525477 
1813	 0.13276383236321 
1814	 0.132738666616335 
1815	 0.132768814053923 
1816	 0.132768256698088 
1817	 0.132766900520971 
1818	 0.132777285851895 
1819	 0.132802939503863 
1820	 0.132819738690557 
1821	 0.132835623582213 
1822	 0.132889513078787 
1823	 0.132922417246413 
1824	 0.132910581219324 
1825	 0.132884185720374 
1826	 0.132860424201323 
1827	 0.13281859161275 
1828	 0.13279653504598 
1829	 0.132789903323533 
1830	 0.132783683034683 
1831	 0.13278371653207 
1832	 0.132781617518062 
1833	 0.13278968828805 
1834	 0.132781652107305 
1835	 0.132773155470343 
1836	 0.132777407613758 
1837	 0.132765374484911 
1838	 0.132737156909805 
1839	 0.132726496021778 
1840	 0.13272211974056 
1841	 0.132715644624488 
1842	 0.132718853345652 
1843	 0.132738229269574 
1844	 0.132741052698035 
1845	 0.132749783215242 
1846	 0.132742034854152 
1847	 0.132706012347005 
1848	 0.132679067572856 
1849	 0.132658177433851 
1850	 0.132639460535664 
1851	 0.132626473812736 
1852	 0.132625922436251 
1853	 0.132611071780418 
1854	 0.132585427306654 
1855	 0.132577464516223 
1856	 0.132558015907477 
1857	 0.132522618324361 
1858	 0.13248231690221 
1859	 0.132419488141371 
1860	 0.132353633448249 
1861	 0.132273041407018 
1862	 0.132209078220468 
1863	 0.132152845798502 
1864	 0.132079496543943 
1865	 0.132007963447944 
1866	 0.13193706899929 
1867	 0.131859296885117 
1868	 0.13179657926464 
1869	 0.13171744473386 
1870	 0.13162925588746 
1871	 0.131528851980688 
1872	 0.131421535540857 
1873	 0.131273679399758 
1874	 0.131120678847066 
1875	 0.130947866814865 
1876	 0.130733808153216 
1877	 0.130528811475346 
1878	 0.130342591451827 
1879	 0.130133810421039 
1880	 0.129914589029222 
1881	 0.12971601755683 
1882	 0.129468234759533 
1883	 0.129180698787463 
1884	 0.128882901041898 
1885	 0.12857611080311 
1886	 0.128242730068597 
1887	 0.127911676088169 
1888	 0.127571254528859 
1889	 0.127220618734263 
1890	 0.126838016829708 
1891	 0.126433359306276 
1892	 0.125991118980654 
1893	 0.125559165590941 
1894	 0.125118437379419 
1895	 0.124649058456746 
1896	 0.124183480840958 
1897	 0.123722085795019 
1898	 0.123232593751583 
1899	 0.122765930698043 
1900	 0.122311853676641 
1901	 0.121855921993437 
1902	 0.121412249203654 
1903	 0.120980849144989 
1904	 0.120557784894637 
1905	 0.120142473743211 
1906	 0.11973621627277 
1907	 0.119349840294517 
1908	 0.118976324647614 
1909	 0.118628867697162 
1910	 0.118297649692502 
1911	 0.117984389022146 
1912	 0.117691222943515 
1913	 0.117412939031827 
1914	 0.117139554705432 
1915	 0.116906653489936 
1916	 0.116702284807405 
1917	 0.116515010017613 
1918	 0.116349838710566 
1919	 0.116206709425517 
1920	 0.116070307421194 
1921	 0.115933635085973 
1922	 0.115819207259481 
1923	 0.115705802836184 
1924	 0.115587649194837 
1925	 0.115458347227607 
1926	 0.115357272161619 
1927	 0.115264904215259 
1928	 0.115175312442637 
1929	 0.115105556912251 
1930	 0.115044154429836 
1931	 0.115002036050133 
1932	 0.11498173402697 
1933	 0.114979603004936 
1934	 0.114986434101757 
1935	 0.114998697775949 
1936	 0.115022401224455 
1937	 0.115040750179914 
1938	 0.115062062426786 
1939	 0.115089660410908 
1940	 0.115119744496782 
1941	 0.115134199772713 
1942	 0.115182308414631 
1943	 0.115241417196155 
1944	 0.115309719199532 
1945	 0.115391397415804 
1946	 0.115458741427948 
1947	 0.115515064103379 
1948	 0.115591936462689 
1949	 0.115675286752077 
1950	 0.115752355561619 
1951	 0.115835435122839 
1952	 0.115924530487685 
1953	 0.11600881956775 
1954	 0.116101259339151 
1955	 0.116194679168717 
1956	 0.116279534553952 
1957	 0.11638323901897 
1958	 0.116489733878678 
1959	 0.116595455934052 
1960	 0.116717981680705 
1961	 0.116839150910701 
1962	 0.116953438447615 
1963	 0.117070713951724 
1964	 0.117196492839615 
1965	 0.117319816382166 
1966	 0.1174519483657 
1967	 0.117575571089541 
1968	 0.117702688293304 
1969	 0.117841473777936 
1970	 0.117972376677232 
1971	 0.118090297687855 
1972	 0.118219750231579 
1973	 0.11835984632086 
1974	 0.118488991364134 
1975	 0.118610232493695 
1976	 0.118747747942482 
1977	 0.118872854755568 
1978	 0.118989472114138 
1979	 0.119120131298228 
1980	 0.119245017144632 
1981	 0.119376302348389 
1982	 0.119511166073146 
1983	 0.119651316290181 
1984	 0.119797665573774 
1985	 0.11994150234357 
1986	 0.120088684129353 
1987	 0.120231552901536 
1988	 0.120372614163999 
1989	 0.120517337521612 
1990	 0.120631075016303 
1991	 0.120778784178728 
1992	 0.120925664373767 
1993	 0.121068570057109 
1994	 0.121220903002246 
1995	 0.12140179843651 
1996	 0.121553174926012 
1997	 0.121693494801514 
1998	 0.121835237556091 
1999	 0.121969534897169 
2000	 0.122099225903229 
2001	 0.12221614937124 
2002	 0.122341686464721 
2003	 0.122497570590222 
2004	 0.122638465828002 
2005	 0.12277511116349 
2006	 0.122937561553684 
2007	 0.123061046761924 
2008	 0.123135798293532 
2009	 0.123248031142958 
2010	 0.123376178985214 
2011	 0.123485642632497 
2012	 0.123585811684117 
2013	 0.12370194825494 
2014	 0.123821207915183 
2015	 0.123923534414369 
2016	 0.124039788934299 
2017	 0.124198617086393 
2018	 0.124328431078763 
2019	 0.124441600642672 
2020	 0.124571567595034 
2021	 0.124711391259968 
2022	 0.12483765291019 
2023	 0.124967794630541 
2024	 0.125094059095325 
2025	 0.125210011148747 
2026	 0.125328157850073 
2027	 0.125457922368663 
2028	 0.125562472104011 
2029	 0.125674399483469 
2030	 0.125779530683669 
2031	 0.125888038781805 
2032	 0.125999992514366 
2033	 0.126104648677603 
2034	 0.126198701391053 
2035	 0.126309121161602 
2036	 0.126420413399342 
2037	 0.126534709527217 
2038	 0.126666902613419 
2039	 0.126789186203219 
2040	 0.126902876700511 
2041	 0.127023145010229 
2042	 0.127158660201828 
2043	 0.127265610110336 
2044	 0.127364489306102 
2045	 0.127450695834315 
2046	 0.127542328399288 
2047	 0.127619406288811 
2048	 0.127703616363788 
2049	 0.127798738243266 
2050	 0.127881693995392 
2051	 0.127949177553872 
2052	 0.128026237731315 
2053	 0.128120052608421 
2054	 0.128189776189746 
2055	 0.128247557314108 
2056	 0.128301361203676 
2057	 0.128362472537709 
2058	 0.128414805010841 
2059	 0.128463344407215 
2060	 0.128511133944018 
2061	 0.128572134756004 
2062	 0.128620030675105 
2063	 0.128685892518072 
2064	 0.128788834743774 
2065	 0.128870186079907 
2066	 0.128936646287538 
2067	 0.129011665863371 
2068	 0.12909036419522 
2069	 0.12916255115019 
2070	 0.129245233816734 
2071	 0.129345015600096 
2072	 0.129415537192855 
2073	 0.129477396829995 
2074	 0.129537869964129 
2075	 0.12957891192756 
2076	 0.129629680874517 
2077	 0.12968245314036 
2078	 0.129740696235268 
2079	 0.129790785077441 
2080	 0.129856355840004 
2081	 0.129948485575536 
2082	 0.130021699107971 
2083	 0.130094320450959 
2084	 0.130165108612263 
2085	 0.130225140654705 
2086	 0.130259170090559 
2087	 0.130328285235924 
2088	 0.130419002057379 
2089	 0.130484850513022 
2090	 0.130558296617047 
2091	 0.130619183606975 
2092	 0.130641357290195 
2093	 0.130700113169978 
2094	 0.130782768106117 
2095	 0.130856722558343 
2096	 0.130948811280421 
2097	 0.131023362389738 
2098	 0.131063090069093 
2099	 0.13114021238095 
2100	 0.131219051948717 
2101	 0.131302242208473 
2102	 0.131384605635105 
2103	 0.131486218406808 
2104	 0.131570886775515 
2105	 0.131647160657628 
2106	 0.131718898424213 
2107	 0.131786595531819 
2108	 0.131854290869116 
2109	 0.13190687311414 
2110	 0.131973414281759 
2111	 0.132040018237653 
2112	 0.13212042851377 
2113	 0.132219837201367 
2114	 0.132314841897772 
2115	 0.132397684737872 
2116	 0.132484151238538 
2117	 0.132565192865999 
2118	 0.132633745685436 
2119	 0.13270108598781 
2120	 0.132771264102243 
2121	 0.132838644357188 
2122	 0.132889256520119 
2123	 0.132952526655756 
2124	 0.133032661781416 
2125	 0.133097366449622 
2126	 0.133157557555303 
2127	 0.133214306710276 
2128	 0.133263168986928 
2129	 0.133310576704653 
2130	 0.133351358206596 
2131	 0.133399255596116 
2132	 0.133437725862622 
2133	 0.133483599807589 
2134	 0.133491668621952 
2135	 0.133474023545091 
2136	 0.133469955358696 
2137	 0.133438211378687 
2138	 0.13342947459879 
2139	 0.133455800175338 
2140	 0.13344641879319 
2141	 0.133422553359869 
2142	 0.133393891848714 
2143	 0.13334108586661 
2144	 0.13329833238155 
2145	 0.133257690483447 
2146	 0.133217727466009 
2147	 0.133186022486691 
2148	 0.133141538647572 
2149	 0.133098237121216 
2150	 0.133055335785153 
2151	 0.132998034122011 
2152	 0.132934139392038 
2153	 0.132865623552513 
2154	 0.132779186178826 
2155	 0.132708225797966 
2156	 0.132643074267754 
2157	 0.132572033220381 
2158	 0.132507542925359 
2159	 0.132434007022799 
2160	 0.13236378383777 
2161	 0.132272953113372 
2162	 0.132162757804455 
2163	 0.132056349002699 
2164	 0.131926610953965 
2165	 0.131804801502557 
2166	 0.131711995152917 
2167	 0.131643514853546 
2168	 0.131560597183043 
2169	 0.131494964708319 
2170	 0.131414238663372 
2171	 0.131322569131972 
2172	 0.131230280553441 
2173	 0.131137313213114 
2174	 0.131043456721913 
2175	 0.13093964587626 
2176	 0.130841278744188 
2177	 0.130747564192963 
2178	 0.130654329075097 
2179	 0.130560517901036 
2180	 0.130467721533837 
2181	 0.130376211245138 
2182	 0.130286822229888 
2183	 0.130216805117352 
2184	 0.130110205043148 
2185	 0.130017067859239 
2186	 0.12992642182705 
2187	 0.129829419071534 
2188	 0.12971618695275 
2189	 0.129633371361221 
2190	 0.129564245611557 
2191	 0.129487566147801 
2192	 0.12942084069864 
2193	 0.129357064862937 
2194	 0.129295497590868 
2195	 0.129226972781489 
2196	 0.129159308031954 
2197	 0.129098805466409 
2198	 0.129010279942781 
2199	 0.128961312352524 
2200	 0.12896407531458 
2201	 0.128941793873734 
2202	 0.128917153969046 
2203	 0.128909796222627 
2204	 0.128889026020913 
2205	 0.128847503705628 
2206	 0.128823430281154 
2207	 0.128808889359055 
2208	 0.128798633164297 
2209	 0.128794371884653 
2210	 0.12878392170274 
2211	 0.128788430581007 
2212	 0.128768981279382 
2213	 0.128722913012079 
2214	 0.128695022981023 
2215	 0.128659167260141 
2216	 0.128639601505014 
2217	 0.128638969045078 
2218	 0.128633381843641 
2219	 0.128631402052929 
2220	 0.128629566344837 
2221	 0.128614591463502 
2222	 0.128631214289093 
2223	 0.128643662423567 
2224	 0.128629803463404 
2225	 0.128629537457436 
2226	 0.128618665567392 
2227	 0.128631210229275 
2228	 0.128658403988484 
2229	 0.128684363522982 
2230	 0.128735162536982 
2231	 0.128751808978323 
2232	 0.128746832194384 
2233	 0.128757635984067 
2234	 0.128754426568528 
2235	 0.12876325655508 
2236	 0.128792658566289 
2237	 0.128807066243956 
2238	 0.1288171612663 
2239	 0.128824135635449 
2240	 0.128841592301963 
2241	 0.128835071637378 
2242	 0.128792766863543 
2243	 0.12877694698941 
2244	 0.128768768912425 
2245	 0.128734056084799 
2246	 0.128758985629304 
2247	 0.128783286489478 
2248	 0.128781220851419 
2249	 0.128766932780575 
2250	 0.12876554063411 
2251	 0.12874957490307 
2252	 0.128751286897063 
2253	 0.128776504247904 
2254	 0.128782920351647 
2255	 0.128792987741654 
2256	 0.128775223390251 
2257	 0.128715779107212 
2258	 0.128713353061445 
2259	 0.128709778680248 
2260	 0.128728541503409 
2261	 0.128816388889539 
2262	 0.128860893045889 
2263	 0.128876904949501 
2264	 0.128914664054607 
2265	 0.128966042102273 
2266	 0.128994588133819 
2267	 0.129032303083559 
2268	 0.129050282743703 
2269	 0.129023816181127 
2270	 0.12902079400209 
2271	 0.129039660632435 
2272	 0.129047821639362 
2273	 0.129062085641125 
2274	 0.129067943281353 
2275	 0.129089334407093 
2276	 0.129107552721008 
2277	 0.129124380124001 
2278	 0.129170091398986 
2279	 0.129177899899618 
2280	 0.129141259279569 
2281	 0.129152840838414 
2282	 0.129164129025664 
2283	 0.129201464266919 
2284	 0.129300318016353 
2285	 0.129328350774996 
2286	 0.129336679065206 
2287	 0.1293399526925 
2288	 0.129277175046987 
2289	 0.129283712313745 
2290	 0.129340261507093 
2291	 0.129368114097475 
2292	 0.129404718997535 
2293	 0.129442569047037 
2294	 0.129483467304014 
2295	 0.129506126996736 
2296	 0.129525801371419 
2297	 0.129542098754513 
2298	 0.129548514292636 
2299	 0.129557300545477 
2300	 0.129603076054988 
2301	 0.129655641835744 
2302	 0.12966172013706 
2303	 0.129629068584913 
2304	 0.129585601454799 
2305	 0.129522368176764 
2306	 0.129495197009364 
2307	 0.129494914843085 
2308	 0.129484919020548 
2309	 0.129486613675182 
2310	 0.12948167744577 
2311	 0.129463285304305 
2312	 0.129463345996178 
2313	 0.129486624899731 
2314	 0.129485295680253 
2315	 0.129468630726792 
2316	 0.129482471015352 
2317	 0.129489466163119 
2318	 0.129507824052387 
2319	 0.129604329136692 
2320	 0.129604396798635 
2321	 0.129511108672144 
2322	 0.129490462642527 
2323	 0.129448319340393 
2324	 0.129442637241505 
2325	 0.129496842318058 
2326	 0.12955537527796 
2327	 0.129661698924579 
2328	 0.129686107555255 
2329	 0.129710325563245 
2330	 0.12974346935473 
2331	 0.1296853310014 
2332	 0.129639583109218 
2333	 0.129610903920487 
2334	 0.129577227245426 
2335	 0.129557382823334 
2336	 0.129516326432775 
2337	 0.129482148466131 
2338	 0.129485254168286 
2339	 0.129483106502047 
2340	 0.129452829629512 
2341	 0.129480226100569 
2342	 0.129496946216431 
2343	 0.129440862564965 
2344	 0.129460615213573 
2345	 0.129466915993795 
2346	 0.129444332561897 
2347	 0.129423808123582 
2348	 0.12944619698998 
2349	 0.129421154549142 
2350	 0.129359421534756 
2351	 0.129305026572026 
2352	 0.12921530565831 
2353	 0.129182327398762 
2354	 0.129184410320711 
2355	 0.129142633370718 
2356	 0.129124089622564 
2357	 0.129089640745874 
2358	 0.129008579295243 
2359	 0.128937800429505 
2360	 0.128864827841859 
2361	 0.128823775258925 
2362	 0.12879079590693 
2363	 0.128748518056073 
2364	 0.128756438573082 
2365	 0.128729318880503 
2366	 0.128651845503373 
2367	 0.128579040230375 
2368	 0.128508447371904 
2369	 0.128435739770557 
2370	 0.128338780190078 
2371	 0.128273125087157 
2372	 0.128260128892675 
2373	 0.12817619810279 
2374	 0.128103530382194 
2375	 0.128080606441247 
2376	 0.127993653081724 
2377	 0.127913040013282 
2378	 0.127812363184383 
2379	 0.12769431461896 
2380	 0.127649944681091 
2381	 0.127580635333203 
2382	 0.127547945864244 
2383	 0.127567073324965 
2384	 0.127460303448372 
2385	 0.127383757596666 
2386	 0.127369493897123 
2387	 0.127299667994404 
2388	 0.127269350108006 
2389	 0.12724418797358 
2390	 0.127169822270092 
2391	 0.1270726942195 
2392	 0.126929230200951 
2393	 0.126802697672631 
2394	 0.126713286549686 
2395	 0.126593665602047 
2396	 0.126564011284556 
2397	 0.126538451202888 
2398	 0.126417332524387 
2399	 0.126284913721783 
2400	 0.126121719810831 
2401	 0.126022629023859 
2402	 0.126010734503553 
2403	 0.125992954664684 
2404	 0.126017920458287 
2405	 0.126030468516856 
2406	 0.125858964586216 
2407	 0.125737966284771 
2408	 0.125725345080031 
2409	 0.125641013530755 
2410	 0.125717654891389 
2411	 0.125817948982681 
2412	 0.125681340450983 
2413	 0.125581094204461 
2414	 0.125499278864034 
2415	 0.125304687009701 
2416	 0.125205383415567 
2417	 0.1252605577804 
2418	 0.125147238951312 
2419	 0.124947313636047 
2420	 0.124829749569307 
2421	 0.124626524098098 
2422	 0.124520575712213 
2423	 0.124518913299595 
2424	 0.124480317965807 
2425	 0.124525563343381 
2426	 0.12442396118073 
2427	 0.124229971739809 
2428	 0.12415242852553 
2429	 0.124001440093783 
2430	 0.123886673210353 
2431	 0.123912266876166 
2432	 0.123829371455302 
2433	 0.123647767356026 
2434	 0.123544919501366 
2435	 0.123483256813807 
2436	 0.123359700269662 
2437	 0.123205141989837 
2438	 0.123078775115589 
2439	 0.122937579529256 
2440	 0.122828841815507 
2441	 0.122798846433459 
2442	 0.122675767667986 
2443	 0.122501306322479 
2444	 0.122386492342486 
2445	 0.122155168573607 
2446	 0.122092361126386 
2447	 0.122185404079548 
2448	 0.122173935871759 
2449	 0.122311330317987 
2450	 0.122265304905361 
2451	 0.122083436815992 
2452	 0.121898020391885 
2453	 0.121539978942959 
2454	 0.121269534889065 
2455	 0.120990894326997 
2456	 0.120860126949968 
2457	 0.12087395775891 
2458	 0.120759472688689 
2459	 0.120692104649519 
2460	 0.12055208785479 
2461	 0.120243163029148 
2462	 0.120137245513635 
2463	 0.120165735634997 
2464	 0.120104805778001 
2465	 0.120103082394302 
2466	 0.120012141119861 
2467	 0.11981468741085 
2468	 0.119623547657222 
2469	 0.119422545809689 
2470	 0.119223523365349 
2471	 0.11899184247355 
2472	 0.118812364137929 
2473	 0.118760735727262 
2474	 0.11859836949338 
2475	 0.118348196403984 
2476	 0.118259191694044 
2477	 0.118065181713775 
2478	 0.117998889982767 
2479	 0.118030981061469 
2480	 0.117986480512254 
2481	 0.11814247471565 
2482	 0.118110745973493 
2483	 0.11792649693201 
2484	 0.117741581838818 
2485	 0.117524384961237 
2486	 0.117426065040561 
2487	 0.117424091175862 
2488	 0.117505974939164 
2489	 0.117337653947466 
2490	 0.117104468196536 
2491	 0.117024558076542 
2492	 0.116785730580894 
2493	 0.116704007943574 
2494	 0.116784495128916 
2495	 0.116554747234397 
2496	 0.116406742338714 
2497	 0.116480403236478 
2498	 0.116216722855694 
2499	 0.116042432979081 
2500	 0.116212255432876 
