Wavelength	LMW_1900008.asd
350	 5.01307805475284E-02 
351	 5.28925448056581E-02 
352	 4.62596891532374E-02 
353	 3.85790407617105E-02 
354	 4.43179468672512E-02 
355	 4.44591857872563E-02 
356	 4.32980446647141E-02 
357	 4.77597656318235E-02 
358	 5.14723661101202E-02 
359	 5.19410311210345E-02 
360	 4.78205562537354E-02 
361	 3.98695427410881E-02 
362	 4.19407083990534E-02 
363	 4.60007729996134E-02 
364	 4.63850175429456E-02 
365	 4.53415048349152E-02 
366	 4.63806091221089E-02 
367	 4.79840386839782E-02 
368	 4.85522813068245E-02 
369	 5.32568023061417E-02 
370	 5.13693862915858E-02 
371	 4.55464749533115E-02 
372	 4.69902724789642E-02 
373	 5.23264157593831E-02 
374	 5.32522587028591E-02 
375	 4.86685161238868E-02 
376	 0.050682312680539 
377	 5.05858152479988E-02 
378	 5.03560040822771E-02 
379	 5.31471308094268E-02 
380	 0.05396917056515 
381	 0.052003058742645 
382	 5.10212709256264E-02 
383	 5.68049505785315E-02 
384	 5.68538785575807E-02 
385	 5.31711303564995E-02 
386	 0.050432980493097 
387	 5.42943225655391E-02 
388	 5.72887872786552E-02 
389	 5.78152650197165E-02 
390	 5.68064519666522E-02 
391	 5.70988244823198E-02 
392	 5.74186828079724E-02 
393	 5.77135553967518E-02 
394	 5.90452186226931E-02 
395	 6.09366067028737E-02 
396	 6.17039211044316E-02 
397	 6.11044319433377E-02 
398	 6.23759422685597E-02 
399	 6.28861564494273E-02 
400	 0.062997401782915 
401	 6.38059190403773E-02 
402	 6.40923757147906E-02 
403	 6.38727754219026E-02 
404	 6.36693389264701E-02 
405	 0.06436010992225 
406	 6.50663697286412E-02 
407	 6.55323038378848E-02 
408	 0.065761491713021 
409	 6.60598356365907E-02 
410	 6.61439552525042E-02 
411	 6.63825095505259E-02 
412	 6.72721802428753E-02 
413	 6.81453248323238E-02 
414	 6.77771622327992E-02 
415	 6.67329040698439E-02 
416	 6.78203813546427E-02 
417	 6.85589641261782E-02 
418	 6.89785620379716E-02 
419	 6.95932540550032E-02 
420	 7.05721615801644E-02 
421	 7.00383005538954E-02 
422	 6.93222209893412E-02 
423	 7.12917268576681E-02 
424	 7.17662638582328E-02 
425	 7.12665123912748E-02 
426	 0.070782314738941 
427	 7.09577765016148E-02 
428	 7.12532294188067E-02 
429	 7.17222960540631E-02 
430	 7.24133291412728E-02 
431	 7.24502115703983E-02 
432	 7.23052210668594E-02 
433	 7.23572378868934E-02 
434	 7.28029895878452E-02 
435	 7.34837205250943E-02 
436	 7.38270162801605E-02 
437	 7.36407956240848E-02 
438	 7.38759404717467E-02 
439	 7.40211910886532E-02 
440	 0.074167301745002 
441	 7.46075820946802E-02 
442	 7.47563813324376E-02 
443	 7.47602140642345E-02 
444	 0.074833057802938 
445	 7.51808202093612E-02 
446	 7.54228541185006E-02 
447	 7.55281392041008E-02 
448	 0.07563614491041 
449	 7.61485478238814E-02 
450	 7.64528359536046E-02 
451	 7.65493690324929E-02 
452	 7.69506680485179E-02 
453	 7.72748729452313E-02 
454	 7.72843601140345E-02 
455	 7.70801477409718E-02 
456	 0.077544138568677 
457	 7.78257142405524E-02 
458	 7.79416918303138E-02 
459	 7.82424177142609E-02 
460	 7.84207142878512E-02 
461	 7.85272354244099E-02 
462	 7.86140229946224E-02 
463	 7.86810227420067E-02 
464	 7.89746608063654E-02 
465	 7.95065043728663E-02 
466	 8.00840870810054E-02 
467	 8.00544970049637E-02 
468	 7.99919983457086E-02 
469	 8.00461428003711E-02 
470	 8.00096203531039E-02 
471	 8.00882497222391E-02 
472	 8.02958741747686E-02 
473	 8.05804226883116E-02 
474	 8.08429993987082E-02 
475	 8.09135880557568E-02 
476	 8.09493319207444E-02 
477	 8.12055023128653E-02 
478	 8.14624218006218E-02 
479	 8.16123059764041E-02 
480	 8.16260946445781E-02 
481	 0.081551182178525 
482	 8.19158563504131E-02 
483	 8.24149368237112E-02 
484	 8.26372575820964E-02 
485	 8.28207845035576E-02 
486	 8.27813116080866E-02 
487	 8.27068917385727E-02 
488	 8.30470872009552E-02 
489	 8.31784802334239E-02 
490	 8.31677722884137E-02 
491	 0.083207893253406 
492	 8.35163350587347E-02 
493	 8.36491829059232E-02 
494	 0.083725480317488 
495	 0.084058496117928 
496	 8.42414697705556E-02 
497	 8.42425286415044E-02 
498	 8.41954022931727E-02 
499	 0.084423618784872 
500	 8.45356312385172E-02 
501	 8.45923231978387E-02 
502	 8.47351106255435E-02 
503	 8.48344437734832E-02 
504	 8.49493232607824E-02 
505	 8.50945815857375E-02 
506	 8.52371940237245E-02 
507	 8.52979418016303E-02 
508	 8.53789971850557E-02 
509	 8.55112695788004E-02 
510	 8.54121346505066E-02 
511	 8.54462328664793E-02 
512	 8.56678452642715E-02 
513	 8.59326988314301E-02 
514	 8.59619523015629E-02 
515	 0.086042455284056 
516	 8.62599922351347E-02 
517	 0.08623513459961 
518	 8.63544966326095E-02 
519	 8.65344625614709E-02 
520	 8.65787115100629E-02 
521	 8.65353368577894E-02 
522	 8.66612190539035E-02 
523	 8.68836325156046E-02 
524	 8.67888219599914E-02 
525	 8.67886050809372E-02 
526	 8.68796358316271E-02 
527	 8.69787443361504E-02 
528	 8.70620601520351E-02 
529	 8.71734385481126E-02 
530	 8.72680961459352E-02 
531	 8.72603840428395E-02 
532	 0.087302302757681 
533	 8.74177140744653E-02 
534	 8.75555132499256E-02 
535	 8.75329777868509E-02 
536	 8.76243780444125E-02 
537	 8.77890311503913E-02 
538	 8.78785448599934E-02 
539	 8.79393685420828E-02 
540	 8.80250381315332E-02 
541	 0.088142194736886 
542	 0.088237848405739 
543	 8.82214366851998E-02 
544	 8.82045221406233E-02 
545	 8.83075959306866E-02 
546	 8.84556984558541E-02 
547	 8.85465795126451E-02 
548	 8.85653066135388E-02 
549	 8.85739312809798E-02 
550	 8.86067121385439E-02 
551	 0.088681027312369 
552	 8.87899257336574E-02 
553	 8.88808519345909E-02 
554	 8.89852170729988E-02 
555	 0.089093169338456 
556	 8.91762856235261E-02 
557	 8.92429716706954E-02 
558	 8.93086852157061E-02 
559	 8.94058513967295E-02 
560	 8.96087586321359E-02 
561	 8.96949497362747E-02 
562	 8.97273033997965E-02 
563	 8.98344228119064E-02 
564	 8.99017920730624E-02 
565	 8.99178465213371E-02 
566	 8.99212901738489E-02 
567	 8.99975967583666E-02 
568	 9.01143677851066E-02 
569	 9.02241197580372E-02 
570	 9.03131741024064E-02 
571	 9.05072380796725E-02 
572	 9.06508106687353E-02 
573	 9.07112113293475E-02 
574	 9.07512528642431E-02 
575	 9.08237692681898E-02 
576	 9.09357805863546E-02 
577	 9.10493915513247E-02 
578	 9.10403538677399E-02 
579	 9.10626793625555E-02 
580	 9.10777871379034E-02 
581	 0.090997367840939 
582	 9.10009030386727E-02 
583	 9.10131019509051E-02 
584	 9.10138470477883E-02 
585	 9.10921089311929E-02 
586	 0.091243075386735 
587	 9.13646493819919E-02 
588	 9.13857791936039E-02 
589	 9.15031079784061E-02 
590	 9.16393087981735E-02 
591	 9.17552739724363E-02 
592	 9.18551001082702E-02 
593	 9.18926174334896E-02 
594	 9.19913057460368E-02 
595	 9.21911828151954E-02 
596	 9.22208486227879E-02 
597	 9.22633689037026E-02 
598	 9.22985256001029E-02 
599	 0.092225467698008 
600	 9.22549597615401E-02 
601	 9.23045602413297E-02 
602	 0.092306314960407 
603	 9.22745466318247E-02 
604	 9.22982591186245E-02 
605	 9.23449990626058E-02 
606	 9.23552891404905E-02 
607	 9.23927846420296E-02 
608	 9.24498164189689E-02 
609	 9.25218901684436E-02 
610	 9.26121557900244E-02 
611	 9.26750630055418E-02 
612	 9.27244791510693E-02 
613	 9.27826735015312E-02 
614	 0.09284965574462 
615	 9.28824398310569E-02 
616	 9.28972980219379E-02 
617	 9.29464315660622E-02 
618	 9.29769969987131E-02 
619	 9.29834179349171E-02 
620	 9.29865310034382E-02 
621	 9.30558010801641E-02 
622	 9.30884579116816E-02 
623	 9.30881443140702E-02 
624	 9.31018876657312E-02 
625	 9.31421649158185E-02 
626	 9.32142973450854E-02 
627	 9.32853750546564E-02 
628	 9.32739121515556E-02 
629	 9.33272564303798E-02 
630	 9.34102130570412E-02 
631	 0.093449000331355 
632	 0.093422955229151 
633	 0.093449986350757 
634	 9.35297672517398E-02 
635	 9.35655261361706E-02 
636	 0.093585742303972 
637	 9.36292896536313E-02 
638	 9.37036030220174E-02 
639	 9.37327644212359E-02 
640	 9.37640722610006E-02 
641	 9.38026702376417E-02 
642	 9.38370171071042E-02 
643	 9.38781682049626E-02 
644	 9.39220974739739E-02 
645	 9.39712295191417E-02 
646	 9.40413480191471E-02 
647	 9.40547560818596E-02 
648	 9.40541504499712E-02 
649	 9.40960583406884E-02 
650	 9.41311942951664E-02 
651	 9.41600818073074E-02 
652	 9.41988145658445E-02 
653	 9.42709394275857E-02 
654	 9.43025962556378E-02 
655	 9.43093859786936E-02 
656	 9.43331012679993E-02 
657	 9.44494503780849E-02 
658	 9.44904778645711E-02 
659	 9.44926140443114E-02 
660	 9.45682799006886E-02 
661	 0.094574694813899 
662	 9.46264207920439E-02 
663	 9.47385019168878E-02 
664	 9.47477719958024E-02 
665	 9.47900098531818E-02 
666	 9.48447568032512E-02 
667	 9.48718913528936E-02 
668	 9.49446799025027E-02 
669	 9.49845109663223E-02 
670	 9.49934529427459E-02 
671	 9.50384029367373E-02 
672	 9.50478711337066E-02 
673	 0.095069207036703 
674	 9.51364843396092E-02 
675	 9.52127178595873E-02 
676	 9.52444500353286E-02 
677	 9.52611260773153E-02 
678	 9.53180249285644E-02 
679	 9.53508483778542E-02 
680	 9.53896176258914E-02 
681	 9.54365240993188E-02 
682	 9.54478549877645E-02 
683	 0.09546287846642 
684	 9.55135704942325E-02 
685	 9.55995784370581E-02 
686	 0.095613981449284 
687	 9.56563481592074E-02 
688	 9.57090866934114E-02 
689	 9.56816940259269E-02 
690	 9.56865654878939E-02 
691	 9.57304665596579E-02 
692	 9.57886990936162E-02 
693	 9.58071782887903E-02 
694	 9.58181397254273E-02 
695	 9.58365038047694E-02 
696	 9.58685751479117E-02 
697	 0.095903715061838 
698	 9.59442542944108E-02 
699	 9.59824427970482E-02 
700	 9.60009774788443E-02 
701	 9.60446090435323E-02 
702	 9.60798505848089E-02 
703	 9.60758635455537E-02 
704	 0.096046112575184 
705	 9.60934692106553E-02 
706	 9.61633283794269E-02 
707	 9.61381043336034E-02 
708	 9.61387721437398E-02 
709	 0.096167361191907 
710	 9.62100915011705E-02 
711	 9.62504192781305E-02 
712	 9.62521846870093E-02 
713	 9.62398994757815E-02 
714	 9.62535397309591E-02 
715	 9.63208757454713E-02 
716	 9.63712679855484E-02 
717	 9.63715066147877E-02 
718	 9.63280004445461E-02 
719	 9.63399099252852E-02 
720	 9.63444532358268E-02 
721	 9.63155186263464E-02 
722	 0.096346977828914 
723	 9.63732273189479E-02 
724	 9.63952724115053E-02 
725	 9.64237332619114E-02 
726	 9.63981447644859E-02 
727	 9.64020243124784E-02 
728	 9.64399697810989E-02 
729	 9.64396838013408E-02 
730	 9.64220903661669E-02 
731	 0.096407013214074 
732	 9.64075528148063E-02 
733	 9.64232434474315E-02 
734	 0.096424632406383 
735	 9.63954675327909E-02 
736	 9.63416779055818E-02 
737	 9.63559624059132E-02 
738	 9.63533753112884E-02 
739	 9.63139694264967E-02 
740	 9.63022620510714E-02 
741	 9.63186855429238E-02 
742	 9.63312261104999E-02 
743	 9.63176829343726E-02 
744	 9.63025572561639E-02 
745	 9.62935325341679E-02 
746	 9.62942173719098E-02 
747	 9.62985001585921E-02 
748	 9.62551064711751E-02 
749	 9.62282347102581E-02 
750	 9.62385654170864E-02 
751	 9.62416689424679E-02 
752	 9.61874229529142E-02 
753	 9.61324895189148E-02 
754	 9.61237995186657E-02 
755	 9.60968097357661E-02 
756	 9.61069474020883E-02 
757	 9.61313635967433E-02 
758	 9.61145849789461E-02 
759	 9.60835532342872E-02 
760	 9.60522823034942E-02 
761	 9.60307785942082E-02 
762	 9.60244452430396E-02 
763	 9.60127383553134E-02 
764	 9.59947768672438E-02 
765	 9.59754236107433E-02 
766	 9.59581736550968E-02 
767	 0.095960549745216 
768	 9.59697780473221E-02 
769	 9.59597549756016E-02 
770	 9.59333743630898E-02 
771	 0.095909002568943 
772	 9.58901367059232E-02 
773	 9.58616225009166E-02 
774	 9.58756143294509E-02 
775	 9.58762209083297E-02 
776	 9.58239611678775E-02 
777	 9.57883571881961E-02 
778	 9.57672755572992E-02 
779	 9.57602353107712E-02 
780	 9.57626447371974E-02 
781	 9.57577231163921E-02 
782	 9.57453186661967E-02 
783	 9.57181465358994E-02 
784	 9.56636251972975E-02 
785	 9.56588650376253E-02 
786	 9.56671090482285E-02 
787	 9.56498832200403E-02 
788	 9.56180194679854E-02 
789	 9.56105668979126E-02 
790	 9.55931758841226E-02 
791	 9.55316136194783E-02 
792	 9.55543856044315E-02 
793	 9.55472406271727E-02 
794	 9.54901806882548E-02 
795	 9.54545046855666E-02 
796	 9.54376660530689E-02 
797	 0.095434779423952 
798	 9.54381843924461E-02 
799	 9.54403075792267E-02 
800	 9.54164706847223E-02 
801	 9.53828417967444E-02 
802	 9.53586685509724E-02 
803	 0.095316768446014 
804	 9.52914963312617E-02 
805	 9.52908462350071E-02 
806	 9.52988683606103E-02 
807	 9.52686347618423E-02 
808	 9.52150067225509E-02 
809	 9.51679149632096E-02 
810	 9.51639190064992E-02 
811	 9.51614786264642E-02 
812	 9.51625129722887E-02 
813	 9.51681333304883E-02 
814	 9.51490188524562E-02 
815	 9.51348862460221E-02 
816	 9.51095426261606E-02 
817	 9.50598631193088E-02 
818	 9.50983178472906E-02 
819	 9.50967193019776E-02 
820	 9.50266073051434E-02 
821	 0.094960120178058 
822	 9.49426341387933E-02 
823	 9.49485076016663E-02 
824	 9.49531201596884E-02 
825	 9.49560332404695E-02 
826	 9.49434171599176E-02 
827	 0.094927021882494 
828	 9.49184442257065E-02 
829	 9.49055188188855E-02 
830	 9.48740264739429E-02 
831	 9.48490264935521E-02 
832	 9.48612319268419E-02 
833	 9.48496198860395E-02 
834	 9.48396654843152E-02 
835	 9.48281104242858E-02 
836	 9.47861473524795E-02 
837	 9.47945567490023E-02 
838	 9.48032493526009E-02 
839	 9.47734556264312E-02 
840	 9.47229291778879E-02 
841	 9.46840310754979E-02 
842	 9.46775928719681E-02 
843	 9.47015217105466E-02 
844	 0.094702405173739 
845	 9.47036810621408E-02 
846	 9.47043241098652E-02 
847	 0.094697244975443 
848	 9.47101222702482E-02 
849	 9.46925789506536E-02 
850	 9.46487873736153E-02 
851	 9.46294881710409E-02 
852	 9.46153265786165E-02 
853	 9.45989862067427E-02 
854	 9.45868044327306E-02 
855	 0.094601838074612 
856	 9.45836179292636E-02 
857	 9.45853624445383E-02 
858	 9.46315461810644E-02 
859	 9.46016194851829E-02 
860	 9.45876152633442E-02 
861	 9.45894081618029E-02 
862	 0.094574963223537 
863	 9.45225303782347E-02 
864	 9.44953774578763E-02 
865	 9.45101257749265E-02 
866	 9.45451799214409E-02 
867	 9.45607397753568E-02 
868	 9.45701184459958E-02 
869	 9.45687491359232E-02 
870	 9.45354961323648E-02 
871	 9.45535397279583E-02 
872	 0.094567076577557 
873	 0.09454295308132 
874	 9.45224909033458E-02 
875	 9.44873401836984E-02 
876	 0.094452614334713 
877	 9.44269745397065E-02 
878	 9.43721754307507E-02 
879	 9.44250456073859E-02 
880	 9.44874192988894E-02 
881	 9.44401583005045E-02 
882	 9.44473973734893E-02 
883	 9.44766535449105E-02 
884	 9.44805735473457E-02 
885	 9.44312680598264E-02 
886	 9.44578782733446E-02 
887	 9.44665462986498E-02 
888	 9.44456865858541E-02 
889	 9.44599934476427E-02 
890	 9.44613172175282E-02 
891	 9.44339045997595E-02 
892	 0.094401169479953 
893	 9.44227034274778E-02 
894	 9.44179993539455E-02 
895	 9.44170732828525E-02 
896	 9.44337949080891E-02 
897	 0.094413416203505 
898	 9.44917941489613E-02 
899	 9.45671612703981E-02 
900	 9.45468731708093E-02 
901	 9.45373652136165E-02 
902	 9.44704287940806E-02 
903	 9.44301727062492E-02 
904	 9.44877684917347E-02 
905	 0.094473872228744 
906	 9.44705537107491E-02 
907	 9.44979126835574E-02 
908	 9.45345826592158E-02 
909	 9.45309910671097E-02 
910	 9.44770941556951E-02 
911	 9.44478920750862E-02 
912	 9.45297429273371E-02 
913	 9.45080063835402E-02 
914	 9.45214719997953E-02 
915	 9.45678352374157E-02 
916	 0.094517223923314 
917	 9.45224624950557E-02 
918	 9.45608843038816E-02 
919	 9.45922467929442E-02 
920	 9.45873072066537E-02 
921	 9.45669222855432E-02 
922	 0.094568778722306 
923	 9.45932733022116E-02 
924	 9.45857588030441E-02 
925	 9.45565952775542E-02 
926	 9.45999597689146E-02 
927	 9.46864838725811E-02 
928	 9.45423608123994E-02 
929	 9.44495947867722E-02 
930	 9.45010965925266E-02 
931	 9.46438036980987E-02 
932	 9.46234257064395E-02 
933	 9.46594303478773E-02 
934	 9.47026513888717E-02 
935	 0.094679973584839 
936	 9.46858874502477E-02 
937	 9.46309921887124E-02 
938	 9.45844178204612E-02 
939	 9.46247364964335E-02 
940	 9.46817367681051E-02 
941	 9.46826711728983E-02 
942	 9.46844393169006E-02 
943	 9.47429614486235E-02 
944	 9.46832407939395E-02 
945	 9.46547565635665E-02 
946	 9.46728672722786E-02 
947	 9.46863148998922E-02 
948	 9.46612407635749E-02 
949	 9.47211789397577E-02 
950	 9.48034571438006E-02 
951	 9.47860991873078E-02 
952	 9.47750179293891E-02 
953	 9.48074632545076E-02 
954	 0.094829681063649 
955	 9.47744811803971E-02 
956	 9.47801595396709E-02 
957	 0.09482866555833 
958	 0.094857004604437 
959	 0.094820904034008 
960	 9.49120830967445E-02 
961	 9.48965900623141E-02 
962	 9.48045625071846E-02 
963	 9.48116978277911E-02 
964	 9.47390048170494E-02 
965	 9.48085006959642E-02 
966	 0.094982565972185 
967	 9.50497661895613E-02 
968	 9.50110884249903E-02 
969	 9.49074710553103E-02 
970	 9.48167175003182E-02 
971	 9.48081771100008E-02 
972	 9.47909586990902E-02 
973	 9.48173130158489E-02 
974	 9.48499542339865E-02 
975	 9.48285613862977E-02 
976	 9.49684013327605E-02 
977	 9.49940833129044E-02 
978	 9.49052771418681E-02 
979	 9.48999108937399E-02 
980	 9.50680316882556E-02 
981	 9.50099139113424E-02 
982	 9.48492024044727E-02 
983	 9.49568581547363E-02 
984	 9.50577607657425E-02 
985	 9.50407805802442E-02 
986	 9.49756411126251E-02 
987	 9.50097172443412E-02 
988	 9.51296430165835E-02 
989	 9.51431936246138E-02 
990	 9.50952841142995E-02 
991	 9.51127857549527E-02 
992	 9.50520201135745E-02 
993	 9.49837334630515E-02 
994	 9.49709433224216E-02 
995	 0.095026645217403 
996	 9.50186976961348E-02 
997	 9.49844919509827E-02 
998	 9.49707351804409E-02 
999	 9.50250167414895E-02 
1000	 9.51992521248641E-02 
1001	 9.44139665817284E-02 
1002	 9.43894000022028E-02 
1003	 9.44149738734255E-02 
1004	 9.44423023540545E-02 
1005	 9.44961193991053E-02 
1006	 9.44848344797625E-02 
1007	 9.44686110774084E-02 
1008	 9.44018043195312E-02 
1009	 9.43149416881899E-02 
1010	 9.43292332647057E-02 
1011	 9.43677533539388E-02 
1012	 9.44601858798608E-02 
1013	 9.45713066574642E-02 
1014	 9.45688589370343E-02 
1015	 9.45391579326739E-02 
1016	 9.45202107350523E-02 
1017	 9.45077234415377E-02 
1018	 9.44643751342437E-02 
1019	 9.44841293365415E-02 
1020	 9.45401267326352E-02 
1021	 0.094556170006636 
1022	 9.45463786877652E-02 
1023	 9.45342903424587E-02 
1024	 9.44887169346335E-02 
1025	 0.094440632267256 
1026	 9.44279450394321E-02 
1027	 9.44260791996786E-02 
1028	 9.44488478353981E-02 
1029	 0.094461455921253 
1030	 9.44599344836169E-02 
1031	 0.094462759325874 
1032	 9.44653126816827E-02 
1033	 9.44309645500052E-02 
1034	 9.44059878549667E-02 
1035	 9.44129117912406E-02 
1036	 9.44055832389418E-02 
1037	 9.43994220808172E-02 
1038	 9.44198670294129E-02 
1039	 9.44239993647273E-02 
1040	 9.43825259317409E-02 
1041	 0.094367587250936 
1042	 9.43058499733254E-02 
1043	 9.42315569233831E-02 
1044	 9.42377390914473E-02 
1045	 9.42991513010371E-02 
1046	 9.43397802495653E-02 
1047	 9.44046822084105E-02 
1048	 9.44506426754656E-02 
1049	 9.44235988726091E-02 
1050	 9.44257436425595E-02 
1051	 9.44450071872298E-02 
1052	 9.44731826914094E-02 
1053	 9.45006487824785E-02 
1054	 9.45102330500867E-02 
1055	 9.45386227155152E-02 
1056	 0.094568877321028 
1057	 9.45775066149738E-02 
1058	 0.094572769955665 
1059	 9.45788535805079E-02 
1060	 9.45663358341362E-02 
1061	 9.45656807408128E-02 
1062	 9.45865148772784E-02 
1063	 9.46243694376037E-02 
1064	 9.46591326157762E-02 
1065	 9.46601374404881E-02 
1066	 0.094657442727263 
1067	 9.46908461292664E-02 
1068	 9.47204388261225E-02 
1069	 9.47356909514113E-02 
1070	 9.47593896295307E-02 
1071	 9.48131102227754E-02 
1072	 9.48083263494345E-02 
1073	 0.094769398585848 
1074	 9.47617898193541E-02 
1075	 9.47397588695192E-02 
1076	 9.47114733939424E-02 
1077	 9.47553647666746E-02 
1078	 9.47855929437729E-02 
1079	 0.09477776021362 
1080	 9.48016595894786E-02 
1081	 9.48134615724335E-02 
1082	 9.47739453201224E-02 
1083	 0.094754703576945 
1084	 9.47367031412711E-02 
1085	 9.47390732610261E-02 
1086	 9.47524656362024E-02 
1087	 0.094766548676996 
1088	 9.48081546294703E-02 
1089	 9.48199024585302E-02 
1090	 9.48305818763263E-02 
1091	 9.47746427283013E-02 
1092	 9.47113992192924E-02 
1093	 9.46792236369347E-02 
1094	 9.46266906733073E-02 
1095	 9.46465965884354E-02 
1096	 0.094695865809604 
1097	 9.47108790134879E-02 
1098	 9.47301043535732E-02 
1099	 9.47590813935133E-02 
1100	 9.47635773779155E-02 
1101	 9.47417252526275E-02 
1102	 0.094742201235385 
1103	 9.47547456146891E-02 
1104	 9.47407141457305E-02 
1105	 9.47210060631954E-02 
1106	 9.47324047958728E-02 
1107	 9.47327344189858E-02 
1108	 0.09474576499069 
1109	 0.09479004816903 
1110	 9.48159226795749E-02 
1111	 0.094842394874328 
1112	 9.48699376013956E-02 
1113	 9.48929516775049E-02 
1114	 9.49091952345539E-02 
1115	 9.49306194430595E-02 
1116	 9.49555017566767E-02 
1117	 9.49760349772472E-02 
1118	 9.49957888590352E-02 
1119	 9.50091657674007E-02 
1120	 0.095038172028393 
1121	 9.50519788498282E-02 
1122	 9.50514370359233E-02 
1123	 9.50651674452947E-02 
1124	 9.50938678535734E-02 
1125	 0.095127982095008 
1126	 9.51580790233844E-02 
1127	 9.52090119021641E-02 
1128	 9.52480394536055E-02 
1129	 9.52673304396019E-02 
1130	 9.53037514579772E-02 
1131	 9.53588107810768E-02 
1132	 9.53968924950635E-02 
1133	 9.54322992816295E-02 
1134	 9.54599977490947E-02 
1135	 9.54738727627577E-02 
1136	 9.55016868217523E-02 
1137	 9.55010108116348E-02 
1138	 9.55041490715298E-02 
1139	 9.55222318553166E-02 
1140	 9.55378365919059E-02 
1141	 0.095560689860043 
1142	 9.56161001701393E-02 
1143	 9.56342364663262E-02 
1144	 9.56184829292906E-02 
1145	 9.56367277232846E-02 
1146	 9.56647590775893E-02 
1147	 9.56804950975668E-02 
1148	 9.57092605322972E-02 
1149	 9.57341034053104E-02 
1150	 9.57460272609976E-02 
1151	 9.57534244844122E-02 
1152	 9.57768989171684E-02 
1153	 9.57884062904452E-02 
1154	 9.58020193705987E-02 
1155	 9.58071024741196E-02 
1156	 0.095820049973549 
1157	 9.58409177845055E-02 
1158	 9.58533772065599E-02 
1159	 9.58599731195578E-02 
1160	 9.58704705831802E-02 
1161	 9.58747688736543E-02 
1162	 9.58880625869599E-02 
1163	 9.59194098400266E-02 
1164	 9.59314992799142E-02 
1165	 9.59229690509424E-02 
1166	 9.59402109559669E-02 
1167	 9.59593363461076E-02 
1168	 9.59679394966745E-02 
1169	 9.59842507953159E-02 
1170	 9.60151252182326E-02 
1171	 9.60386711676535E-02 
1172	 9.60520574217309E-02 
1173	 9.60758336108087E-02 
1174	 9.61167162295758E-02 
1175	 9.61381739804371E-02 
1176	 9.61437189028809E-02 
1177	 9.61662382423592E-02 
1178	 9.61913240501313E-02 
1179	 9.62127561298449E-02 
1180	 9.62480137270434E-02 
1181	 9.62719559644189E-02 
1182	 9.62782995638914E-02 
1183	 9.62903322108633E-02 
1184	 9.63159471691871E-02 
1185	 0.09635368881415 
1186	 9.63781154863131E-02 
1187	 9.64081967055681E-02 
1188	 9.64306939543735E-02 
1189	 9.64420459618691E-02 
1190	 9.64559122462993E-02 
1191	 9.64648854869985E-02 
1192	 9.64868523651119E-02 
1193	 9.65038417982616E-02 
1194	 9.65342730692537E-02 
1195	 9.65979509774717E-02 
1196	 9.66348051197534E-02 
1197	 9.66625423294094E-02 
1198	 9.66902006604129E-02 
1199	 9.67116051828277E-02 
1200	 9.67196274387873E-02 
1201	 9.67286528345771E-02 
1202	 9.67307792116858E-02 
1203	 0.096750529809192 
1204	 9.67649461207461E-02 
1205	 9.67958237789094E-02 
1206	 9.68561989825616E-02 
1207	 0.096895453503227 
1208	 0.09693466557649 
1209	 9.69649311563067E-02 
1210	 9.69788977413551E-02 
1211	 9.70048792110095E-02 
1212	 9.70317713556323E-02 
1213	 0.097058572050928 
1214	 0.09710225924371 
1215	 9.71285320947178E-02 
1216	 9.71463432381702E-02 
1217	 9.71513733856239E-02 
1218	 9.71662565192358E-02 
1219	 9.71695439496914E-02 
1220	 9.71901028008788E-02 
1221	 9.72272019761279E-02 
1222	 0.097251924485584 
1223	 9.72807298306641E-02 
1224	 9.73004450365515E-02 
1225	 9.73098008137317E-02 
1226	 9.73240201397306E-02 
1227	 9.73303402737796E-02 
1228	 9.73477906298805E-02 
1229	 9.73707619151019E-02 
1230	 9.73965537172558E-02 
1231	 9.74386259967957E-02 
1232	 9.74677536697433E-02 
1233	 9.74924565592249E-02 
1234	 9.75144816746564E-02 
1235	 9.75358569429398E-02 
1236	 9.75487853151972E-02 
1237	 9.75671036844568E-02 
1238	 9.75834822786862E-02 
1239	 0.097609765632007 
1240	 9.76445167519627E-02 
1241	 9.76696075694233E-02 
1242	 0.097699255655432 
1243	 9.77260819299738E-02 
1244	 9.77489782922781E-02 
1245	 9.77641872183606E-02 
1246	 9.77698936196657E-02 
1247	 9.77866803117313E-02 
1248	 9.77941346216123E-02 
1249	 9.78150507398488E-02 
1250	 9.78498772348533E-02 
1251	 9.78760765817228E-02 
1252	 9.78946526952246E-02 
1253	 9.78975616397939E-02 
1254	 9.79206698666111E-02 
1255	 9.79511277240076E-02 
1256	 9.79743307318996E-02 
1257	 9.80081938446106E-02 
1258	 9.80290130445617E-02 
1259	 9.80319335781862E-02 
1260	 9.80468944435454E-02 
1261	 9.80654452144569E-02 
1262	 9.80841347460376E-02 
1263	 9.81105019006987E-02 
1264	 9.81278725822491E-02 
1265	 9.81427086308539E-02 
1266	 9.81544040059691E-02 
1267	 9.81553974976706E-02 
1268	 9.81589627093483E-02 
1269	 9.81730309490459E-02 
1270	 9.81944861602554E-02 
1271	 9.82036856867836E-02 
1272	 9.82138899364986E-02 
1273	 9.82290772651529E-02 
1274	 9.82310136308127E-02 
1275	 9.82537737958516E-02 
1276	 9.82946823243192E-02 
1277	 0.098330018103519 
1278	 9.83716928101879E-02 
1279	 0.098410633830456 
1280	 9.84525059989383E-02 
1281	 9.84931974853357E-02 
1282	 9.85162224317301E-02 
1283	 9.85645272947022E-02 
1284	 9.86354501733354E-02 
1285	 9.86941579614008E-02 
1286	 9.87492002943719E-02 
1287	 9.88359756903524E-02 
1288	 9.88946576252537E-02 
1289	 9.89290875804756E-02 
1290	 9.89899556569096E-02 
1291	 9.90651553204166E-02 
1292	 9.91207535703683E-02 
1293	 9.91833614688437E-02 
1294	 9.92257643707108E-02 
1295	 9.92403630585858E-02 
1296	 9.92735737409639E-02 
1297	 9.93029705033881E-02 
1298	 9.93407766768565E-02 
1299	 9.94017361153275E-02 
1300	 9.94346855470286E-02 
1301	 9.94599515216549E-02 
1302	 9.94799930323304E-02 
1303	 9.94813878500586E-02 
1304	 9.94821684701081E-02 
1305	 9.94884801187899E-02 
1306	 9.94785491551272E-02 
1307	 9.94822937150745E-02 
1308	 9.94880484165015E-02 
1309	 9.94845450277024E-02 
1310	 9.94804528681798E-02 
1311	 9.94813868747813E-02 
1312	 9.94726134538844E-02 
1313	 9.94719081262518E-02 
1314	 9.94807294839017E-02 
1315	 0.099487596751087 
1316	 9.94956313261805E-02 
1317	 9.95017683214689E-02 
1318	 9.95183983257187E-02 
1319	 9.95221751017092E-02 
1320	 9.95058582223632E-02 
1321	 9.95038257595963E-02 
1322	 9.95047976327592E-02 
1323	 9.95038052940975E-02 
1324	 9.95121334226206E-02 
1325	 9.95313207898364E-02 
1326	 9.95449017020467E-02 
1327	 9.95461082125649E-02 
1328	 9.95383457304925E-02 
1329	 9.95477988558415E-02 
1330	 9.95561415925867E-02 
1331	 9.95542865322865E-02 
1332	 9.95819447597643E-02 
1333	 9.96386350257516E-02 
1334	 9.96675809354775E-02 
1335	 9.96967756013551E-02 
1336	 9.97312709227423E-02 
1337	 9.97490547838483E-02 
1338	 9.97801554772486E-02 
1339	 9.98360228681943E-02 
1340	 0.099877099264765 
1341	 9.99113618106385E-02 
1342	 9.99431766416647E-02 
1343	 9.99714284371198E-02 
1344	 9.99926595751089E-02 
1345	 0.100028092831736 
1346	 0.100071270228915 
1347	 0.10011352193158 
1348	 0.100153120107261 
1349	 0.100196010097126 
1350	 0.100234160513492 
1351	 0.100275087427472 
1352	 0.100325190646273 
1353	 0.100370029892135 
1354	 0.100404443361619 
1355	 0.100451254018521 
1356	 0.100515238578793 
1357	 0.100558035945726 
1358	 0.100590011023657 
1359	 0.100630517216718 
1360	 0.100660249363899 
1361	 0.100697174706462 
1362	 0.100748043528249 
1363	 0.100793983746561 
1364	 0.100839983916101 
1365	 0.100877156637977 
1366	 0.100908104107602 
1367	 0.100947052268254 
1368	 0.100967173191494 
1369	 0.100993102829178 
1370	 0.101020450788251 
1371	 0.101024701939257 
1372	 0.101027962827037 
1373	 0.101034933071349 
1374	 0.101042790899719 
1375	 0.10104914967583 
1376	 0.101061813038589 
1377	 0.101081179406612 
1378	 0.101094029290945 
1379	 0.101115066572083 
1380	 0.101114930472369 
1381	 0.101101035364664 
1382	 0.101088418364718 
1383	 0.101059551113285 
1384	 0.101039740406606 
1385	 0.101036726273714 
1386	 0.101014592411336 
1387	 0.100986273753061 
1388	 0.100950552893879 
1389	 0.100911948908533 
1390	 0.100836373818233 
1391	 0.100784170824501 
1392	 0.100747163440737 
1393	 0.100685690365475 
1394	 0.100632839984718 
1395	 0.100581541797559 
1396	 0.100505303438493 
1397	 0.100436759300501 
1398	 0.100386174200071 
1399	 0.100303495716665 
1400	 0.100191688497063 
1401	 0.100098991157729 
1402	 0.099997608249993 
1403	 9.99042816310084E-02 
1404	 9.98213568535232E-02 
1405	 9.97414156613364E-02 
1406	 0.099664515759561 
1407	 9.95833174179215E-02 
1408	 0.09950413224477 
1409	 9.94267879488354E-02 
1410	 9.93359657359538E-02 
1411	 0.099267372525988 
1412	 9.92050115107061E-02 
1413	 9.91632865371799E-02 
1414	 9.91419469600819E-02 
1415	 9.91173443922972E-02 
1416	 9.91164847551512E-02 
1417	 9.91222247222724E-02 
1418	 9.91061231735457E-02 
1419	 9.90965973289598E-02 
1420	 9.90920434148578E-02 
1421	 9.90818103587696E-02 
1422	 9.90820300339476E-02 
1423	 9.91023615555328E-02 
1424	 9.91079931681352E-02 
1425	 9.91004749865117E-02 
1426	 0.099105190319509 
1427	 9.91106910403683E-02 
1428	 9.91289302323959E-02 
1429	 9.91593112583677E-02 
1430	 9.91850819122732E-02 
1431	 9.92191018466949E-02 
1432	 9.92436073416969E-02 
1433	 9.92570496899728E-02 
1434	 9.92878115148449E-02 
1435	 9.93311394471141E-02 
1436	 9.93615615242932E-02 
1437	 9.93927525671198E-02 
1438	 9.94226823693549E-02 
1439	 9.94417353501215E-02 
1440	 9.94663886431477E-02 
1441	 9.94991779392403E-02 
1442	 9.95359693024534E-02 
1443	 9.95768313638042E-02 
1444	 0.099612890868757 
1445	 9.96590590233927E-02 
1446	 9.97021237038273E-02 
1447	 9.97290776567448E-02 
1448	 9.97634812794973E-02 
1449	 9.98005753962206E-02 
1450	 9.98338952858614E-02 
1451	 9.98758699871164E-02 
1452	 9.99352480676677E-02 
1453	 9.99753399081114E-02 
1454	 0.100010552182848 
1455	 0.100042903335766 
1456	 0.100062643989023 
1457	 0.100088810463785 
1458	 0.100113385849346 
1459	 0.100143819294018 
1460	 0.100171048174686 
1461	 0.100211037901954 
1462	 0.100274924080204 
1463	 0.100314457040389 
1464	 0.100346366160364 
1465	 0.10038695043571 
1466	 0.100413488610069 
1467	 0.100446755933758 
1468	 0.100489553470023 
1469	 0.100535318940398 
1470	 0.100584749391033 
1471	 0.100625814670145 
1472	 0.100687569156492 
1473	 0.100739471800263 
1474	 0.100770551570562 
1475	 0.100818800023441 
1476	 0.100857299696335 
1477	 0.100902554976201 
1478	 0.100958909152706 
1479	 0.101002312834672 
1480	 0.101038114709729 
1481	 0.101070666527072 
1482	 0.101108351765157 
1483	 0.101139616523759 
1484	 0.101183212231657 
1485	 0.101236022473762 
1486	 0.101286901228676 
1487	 0.101348995054637 
1488	 0.101395872072734 
1489	 0.101436707229752 
1490	 0.101479597420487 
1491	 0.101508879082088 
1492	 0.101549539590891 
1493	 0.101598330549905 
1494	 0.101643492925069 
1495	 0.101690736380492 
1496	 0.101740556642166 
1497	 0.101798131988062 
1498	 0.101845257186958 
1499	 0.101885805584532 
1500	 0.101928729433032 
1501	 0.101970435029328 
1502	 0.10200244055624 
1503	 0.102029388535734 
1504	 0.102058150808788 
1505	 0.102089752393098 
1506	 0.102132150594534 
1507	 0.102182476867615 
1508	 0.102228063017153 
1509	 0.102259291949744 
1510	 0.102275475610738 
1511	 0.102291306146313 
1512	 0.102321648902994 
1513	 0.102361080621088 
1514	 0.102405312508145 
1515	 0.102446240955145 
1516	 0.102481777643356 
1517	 0.102518043277443 
1518	 0.102543711132385 
1519	 0.102575338868452 
1520	 0.102613483639267 
1521	 0.102651168921825 
1522	 0.102691497404604 
1523	 0.102719320289416 
1524	 0.102739229699441 
1525	 0.102771527006504 
1526	 0.10280125720627 
1527	 0.10282840766784 
1528	 0.102865695120816 
1529	 0.102897563037722 
1530	 0.102920200274958 
1531	 0.102944624149111 
1532	 0.102968544012658 
1533	 0.102998900921087 
1534	 0.103033734537209 
1535	 0.103058967734298 
1536	 0.103089111021241 
1537	 0.103115173629719 
1538	 0.103115941941101 
1539	 0.103140311528234 
1540	 0.103187871571435 
1541	 0.103223650766561 
1542	 0.103264762684921 
1543	 0.10330083853458 
1544	 0.103329757666971 
1545	 0.103353919967136 
1546	 0.103374707983076 
1547	 0.103400344384304 
1548	 0.103407052364581 
1549	 0.103410387291804 
1550	 0.103433695849929 
1551	 0.103449043026696 
1552	 0.103465274691178 
1553	 0.103499887321285 
1554	 0.103520894769539 
1555	 0.103547512161157 
1556	 0.103587802861232 
1557	 0.103610520435026 
1558	 0.103623511334264 
1559	 0.103648047677355 
1560	 0.103679319621605 
1561	 0.103719585254031 
1562	 0.103739094990211 
1563	 0.103759375132732 
1564	 0.103774530117192 
1565	 0.10376773133322 
1566	 0.103780552898476 
1567	 0.103809922324208 
1568	 0.103827017037419 
1569	 0.103837292454735 
1570	 0.103853193521676 
1571	 0.103867051090833 
1572	 0.103885651781253 
1573	 0.103907634868071 
1574	 0.103934164232866 
1575	 0.103973736153252 
1576	 0.103994385430452 
1577	 0.104007575353499 
1578	 0.104022306803481 
1579	 0.104019587065677 
1580	 0.104035597365747 
1581	 0.104071883131091 
1582	 0.104092281742987 
1583	 0.104110036372879 
1584	 0.1041242659175 
1585	 0.104126366826218 
1586	 0.104137982345581 
1587	 0.104155429054627 
1588	 0.104171025728607 
1589	 0.104189155300937 
1590	 0.104203993846115 
1591	 0.104209360762337 
1592	 0.104228243263088 
1593	 0.104264812841616 
1594	 0.104282354245068 
1595	 0.104293228125976 
1596	 0.104308413757134 
1597	 0.104301349637018 
1598	 0.104318359541143 
1599	 0.10437213672739 
1600	 0.104398111089639 
1601	 0.104420611515006 
1602	 0.104435669705026 
1603	 0.104428783919443 
1604	 0.104424859255349 
1605	 0.104412336934783 
1606	 0.104413959864948 
1607	 0.104421384104657 
1608	 0.104426351673395 
1609	 0.104453287937928 
1610	 0.104475046783744 
1611	 0.104458859049899 
1612	 0.104451865737467 
1613	 0.104451291340548 
1614	 0.104454332933908 
1615	 0.104488295539554 
1616	 0.104527650806369 
1617	 0.104547395718936 
1618	 0.104557953612397 
1619	 0.104583744140656 
1620	 0.104603019039825 
1621	 0.104612704342045 
1622	 0.104622379263143 
1623	 0.104640360029535 
1624	 0.10464639421983 
1625	 0.104659501350536 
1626	 0.104690763273164 
1627	 0.104705441565537 
1628	 0.104708534889907 
1629	 0.104712337977222 
1630	 0.104713887259244 
1631	 0.104721233679538 
1632	 0.104726323338474 
1633	 0.104730159073893 
1634	 0.104736580746198 
1635	 0.104749811274027 
1636	 0.104759618965479 
1637	 0.104772987558496 
1638	 0.104804029893518 
1639	 0.104815599730692 
1640	 0.104811994659582 
1641	 0.104818716978306 
1642	 0.104822346431266 
1643	 0.104833666824121 
1644	 0.104852826422448 
1645	 0.104866297347972 
1646	 0.104882686165075 
1647	 0.10489387195486 
1648	 0.104893229598659 
1649	 0.104912781581048 
1650	 0.104951186767786 
1651	 0.104959993213302 
1652	 0.104971801831978 
1653	 0.104965857995464 
1654	 0.104919625357928 
1655	 0.104909325233389 
1656	 0.104906934107247 
1657	 0.104914867804908 
1658	 0.104948311724563 
1659	 0.104957116213033 
1660	 0.10496122849137 
1661	 0.104966705601513 
1662	 0.104957876817976 
1663	 0.104960665624279 
1664	 0.104965041768393 
1665	 0.104986353217646 
1666	 0.105025470684537 
1667	 0.105045831064736 
1668	 0.10507715264656 
1669	 0.105092273298935 
1670	 0.10508601677902 
1671	 0.10508275688803 
1672	 0.105073365963243 
1673	 0.105074646239785 
1674	 0.105065826195067 
1675	 0.105078393935846 
1676	 0.105117940534227 
1677	 0.105138320059098 
1678	 0.105170675126116 
1679	 0.105174624794132 
1680	 0.105150751746896 
1681	 0.105142026398922 
1682	 0.10511297244847 
1683	 0.105113976494768 
1684	 0.105142009608638 
1685	 0.105157032644627 
1686	 0.105183404925037 
1687	 0.105198356917648 
1688	 0.105199280241135 
1689	 0.105209815288094 
1690	 0.105223149685038 
1691	 0.105234469449452 
1692	 0.105249669303792 
1693	 0.105261039347745 
1694	 0.105269181880527 
1695	 0.105279937589466 
1696	 0.105292957865235 
1697	 0.1052974531292 
1698	 0.105301749668299 
1699	 0.105296709478383 
1700	 0.105268216784336 
1701	 0.105272306917388 
1702	 0.105290181361581 
1703	 0.105303088883796 
1704	 0.105343385716357 
1705	 0.105353478451282 
1706	 0.105334221738436 
1707	 0.105338843018455 
1708	 0.105349371159197 
1709	 0.105347459884174 
1710	 0.105353656738517 
1711	 0.105349038623003 
1712	 0.105313488584767 
1713	 0.105314007394454 
1714	 0.105341826674614 
1715	 0.105347910417192 
1716	 0.105363740681864 
1717	 0.105363866029269 
1718	 0.105338420135952 
1719	 0.105327214629522 
1720	 0.105315693366877 
1721	 0.105315353031256 
1722	 0.105323579921017 
1723	 0.105330325670968 
1724	 0.10534919665687 
1725	 0.105348535798202 
1726	 0.105334138593907 
1727	 0.105332139140562 
1728	 0.105330787026575 
1729	 0.105330811313672 
1730	 0.105339356691013 
1731	 0.105333458840301 
1732	 0.10531613824748 
1733	 0.105299572265159 
1734	 0.105278915601789 
1735	 0.105263277451703 
1736	 0.105251009714164 
1737	 0.105232890255259 
1738	 0.105208340558792 
1739	 0.105201930659409 
1740	 0.105198906991264 
1741	 0.105187620544388 
1742	 0.105193869331509 
1743	 0.10518191086917 
1744	 0.105145945471585 
1745	 0.105126021577001 
1746	 0.105107780765284 
1747	 0.105088538632988 
1748	 0.105096163646655 
1749	 0.105104867726187 
1750	 0.105097232409959 
1751	 0.105087947007315 
1752	 0.105081146263828 
1753	 0.105067385425671 
1754	 0.105066939263398 
1755	 0.105057768613727 
1756	 0.10502988648706 
1757	 0.105009850794691 
1758	 0.104975817437549 
1759	 0.104941566920335 
1760	 0.104920201812029 
1761	 0.104905492536375 
1762	 0.104904287725519 
1763	 0.104892820008681 
1764	 0.104884647561735 
1765	 0.104881884577407 
1766	 0.104872486376761 
1767	 0.104882245668361 
1768	 0.104898155709469 
1769	 0.104895876374227 
1770	 0.10488064578277 
1771	 0.104878165634097 
1772	 0.104878682820485 
1773	 0.104869708328981 
1774	 0.104863968675122 
1775	 0.104848855015524 
1776	 0.104837543952523 
1777	 0.104840921735662 
1778	 0.104847894955977 
1779	 0.104852738881482 
1780	 0.104837055142943 
1781	 0.10481964710054 
1782	 0.104818339072007 
1783	 0.10481528810308 
1784	 0.104805640058925 
1785	 0.104789341555936 
1786	 0.104776922123833 
1787	 0.104756319520431 
1788	 0.10475328381471 
1789	 0.104768528692771 
1790	 0.104779321089434 
1791	 0.104798863711044 
1792	 0.104805307885857 
1793	 0.104797416050199 
1794	 0.104812789839693 
1795	 0.104840433210187 
1796	 0.104851950758332 
1797	 0.104860646281007 
1798	 0.104879073095939 
1799	 0.104898761274854 
1800	 0.104906548365438 
1801	 0.101886485291086 
1802	 0.10189050755316 
1803	 0.101901787151002 
1804	 0.101907088660269 
1805	 0.101908409285515 
1806	 0.101927323615079 
1807	 0.101941616723252 
1808	 0.101959731867341 
1809	 0.101991568970204 
1810	 0.102011294799502 
1811	 0.102027165785972 
1812	 0.102038882444012 
1813	 0.102037415808158 
1814	 0.10206011307805 
1815	 0.102097090272082 
1816	 0.102142528341482 
1817	 0.102166051492325 
1818	 0.102178495148942 
1819	 0.102192184663356 
1820	 0.102199868627145 
1821	 0.102194831298913 
1822	 0.102186393979805 
1823	 0.102230711417383 
1824	 0.102238505152655 
1825	 0.102233028043632 
1826	 0.102258528822305 
1827	 0.102276854171606 
1828	 0.102275522057039 
1829	 0.102256287361963 
1830	 0.102251199150394 
1831	 0.102236984341985 
1832	 0.10221825834018 
1833	 0.102223578104759 
1834	 0.102257628663559 
1835	 0.102293460825551 
1836	 0.102319793067113 
1837	 0.102312568059918 
1838	 0.102313930284283 
1839	 0.102327598409829 
1840	 0.1023407535059 
1841	 0.102339171714562 
1842	 0.102354032445054 
1843	 0.10236390259056 
1844	 0.102363344029058 
1845	 0.102368032325203 
1846	 0.102381392743745 
1847	 0.102380186883088 
1848	 0.102367591886638 
1849	 0.102385978512144 
1850	 0.102380371645279 
1851	 0.102367800199834 
1852	 0.102359583750406 
1853	 0.102359877093848 
1854	 0.102309941317962 
1855	 0.102272108945805 
1856	 0.102276592396715 
1857	 0.102271531999961 
1858	 0.102244404774008 
1859	 0.102235341012531 
1860	 0.102210378837726 
1861	 0.102173703028645 
1862	 0.102098008495758 
1863	 0.102044900399211 
1864	 0.101997885297001 
1865	 0.101942177769447 
1866	 0.101883528468033 
1867	 0.101815476860463 
1868	 0.101769771784713 
1869	 0.10170587285722 
1870	 0.101631659278915 
1871	 0.101552523499825 
1872	 0.101490078044242 
1873	 0.101364738427391 
1874	 0.101216172530678 
1875	 0.101073229837085 
1876	 0.100912710060282 
1877	 0.100754846517444 
1878	 0.100612392559593 
1879	 0.100455362882382 
1880	 0.100269682194546 
1881	 0.100057848267899 
1882	 9.98486320802749E-02 
1883	 9.96193959995902E-02 
1884	 9.93824553123351E-02 
1885	 9.91584404518291E-02 
1886	 9.89130966799227E-02 
1887	 9.86191874370409E-02 
1888	 9.83105313790156E-02 
1889	 9.79876973412269E-02 
1890	 9.76422977846168E-02 
1891	 9.73060942214479E-02 
1892	 9.69825466372473E-02 
1893	 9.66295938474442E-02 
1894	 9.62560356422396E-02 
1895	 9.58929730269048E-02 
1896	 9.55110399066474E-02 
1897	 9.51299513727577E-02 
1898	 0.094762997489751 
1899	 9.43787669677774E-02 
1900	 9.40170890553947E-02 
1901	 9.36721276698482E-02 
1902	 9.33370167597062E-02 
1903	 9.30306947838243E-02 
1904	 9.27260459262399E-02 
1905	 9.24232765062186E-02 
1906	 9.21320307322997E-02 
1907	 0.091869115744231 
1908	 0.091592228476114 
1909	 9.13508167795028E-02 
1910	 9.11243095585025E-02 
1911	 9.08957797640133E-02 
1912	 9.07155072483813E-02 
1913	 9.05389095994589E-02 
1914	 9.03784948861097E-02 
1915	 9.02291104083688E-02 
1916	 9.01032010295238E-02 
1917	 8.99608387473925E-02 
1918	 8.98492237784411E-02 
1919	 8.97474150402007E-02 
1920	 8.96478778516686E-02 
1921	 8.95600492349063E-02 
1922	 0.089474730131191 
1923	 8.93965832393618E-02 
1924	 8.93333417226455E-02 
1925	 8.92861641565171E-02 
1926	 8.92462576668617E-02 
1927	 8.92145954453849E-02 
1928	 8.91971304146798E-02 
1929	 8.91873245580859E-02 
1930	 8.91989219278328E-02 
1931	 8.92232995139974E-02 
1932	 8.92435333961874E-02 
1933	 8.92838804599157E-02 
1934	 8.93258330122677E-02 
1935	 8.93533659883119E-02 
1936	 8.93728872304608E-02 
1937	 8.94048543986274E-02 
1938	 8.94215212617795E-02 
1939	 8.94542824695303E-02 
1940	 8.94992432422276E-02 
1941	 8.95613235003809E-02 
1942	 8.96245508293382E-02 
1943	 8.96880025988458E-02 
1944	 8.97502951065261E-02 
1945	 8.98007763727126E-02 
1946	 0.089862938548743 
1947	 8.99079871986185E-02 
1948	 0.089990897762099 
1949	 9.01188271117543E-02 
1950	 0.090212256278916 
1951	 9.03136227585619E-02 
1952	 9.03983769325312E-02 
1953	 9.04579166081644E-02 
1954	 9.05041692576734E-02 
1955	 9.05651874086257E-02 
1956	 9.06583769004344E-02 
1957	 9.07543044619319E-02 
1958	 9.08739371315511E-02 
1959	 9.09789360131323E-02 
1960	 9.10793167862311E-02 
1961	 9.11894553583906E-02 
1962	 0.091306223356952 
1963	 9.14165364179306E-02 
1964	 9.15292097589236E-02 
1965	 9.16501558854053E-02 
1966	 9.17694685939694E-02 
1967	 9.18836901436414E-02 
1968	 9.20020125217419E-02 
1969	 9.21345260591913E-02 
1970	 9.22585005230575E-02 
1971	 9.23726427677159E-02 
1972	 9.24938055439387E-02 
1973	 0.092626491287192 
1974	 0.092745611541994 
1975	 9.28665473064085E-02 
1976	 9.29655277568482E-02 
1977	 9.30662250894637E-02 
1978	 9.31707736119747E-02 
1979	 9.32710699321373E-02 
1980	 9.33983149175713E-02 
1981	 9.35174529765274E-02 
1982	 9.36451032449192E-02 
1983	 9.37656250903957E-02 
1984	 9.38896064641025E-02 
1985	 9.40007233059139E-02 
1986	 9.40910850076593E-02 
1987	 9.42016949917762E-02 
1988	 9.43081500674332E-02 
1989	 0.094434853022742 
1990	 9.45667282361234E-02 
1991	 9.46910175918601E-02 
1992	 9.48205039923019E-02 
1993	 9.49499950633521E-02 
1994	 9.50738933239217E-02 
1995	 9.52079471236079E-02 
1996	 9.53273246561691E-02 
1997	 9.54256748401936E-02 
1998	 0.095533776961541 
1999	 9.56429361783206E-02 
2000	 9.57500151270325E-02 
2001	 9.58512117036639E-02 
2002	 0.095964604341934 
2003	 9.60804702584431E-02 
2004	 0.096206988454969 
2005	 9.63237103562771E-02 
2006	 9.64528163894288E-02 
2007	 9.65617640408624E-02 
2008	 9.66486374481836E-02 
2009	 9.67480857025276E-02 
2010	 9.68480373060382E-02 
2011	 9.69473530940015E-02 
2012	 9.70506920640777E-02 
2013	 9.71501563686163E-02 
2014	 9.72503841884454E-02 
2015	 9.73366939311635E-02 
2016	 9.74269214566016E-02 
2017	 9.75358848403103E-02 
2018	 9.76472283215869E-02 
2019	 9.77710334287631E-02 
2020	 0.097885500938614 
2021	 9.80142566384613E-02 
2022	 9.81195236032852E-02 
2023	 9.81968193535437E-02 
2024	 9.82992383054695E-02 
2025	 9.84012007739846E-02 
2026	 9.85043917438648E-02 
2027	 9.86224956115428E-02 
2028	 9.87456741298276E-02 
2029	 9.88472928615067E-02 
2030	 9.89415204583953E-02 
2031	 9.90209194344237E-02 
2032	 9.90758306085297E-02 
2033	 9.91523005977568E-02 
2034	 9.92232953199066E-02 
2035	 9.93039024005409E-02 
2036	 9.93969344455219E-02 
2037	 9.94908118439781E-02 
2038	 9.95901701655482E-02 
2039	 9.96813236354174E-02 
2040	 9.97709819130176E-02 
2041	 9.98702413487543E-02 
2042	 9.99610948484721E-02 
2043	 0.100047783418656 
2044	 0.100121944186399 
2045	 0.100189808188526 
2046	 0.10026154680864 
2047	 0.100316702635547 
2048	 0.100384232210605 
2049	 0.100470265933405 
2050	 0.100538642437317 
2051	 0.100590481875881 
2052	 0.100656940494216 
2053	 0.100727985402052 
2054	 0.100795025928197 
2055	 0.100871501003283 
2056	 0.100944102773041 
2057	 0.101003522761719 
2058	 0.101044467882152 
2059	 0.10110427516891 
2060	 0.10116825296032 
2061	 0.101223395581426 
2062	 0.10128275076518 
2063	 0.10134067189344 
2064	 0.101383266114327 
2065	 0.101438400340964 
2066	 0.101494994712198 
2067	 0.101566163082186 
2068	 0.101646997381156 
2069	 0.101739230868826 
2070	 0.101814140258585 
2071	 0.101904804513996 
2072	 0.101962884477472 
2073	 0.101984823755436 
2074	 0.102034620263264 
2075	 0.102076049001171 
2076	 0.102140696280814 
2077	 0.102237728794541 
2078	 0.102306642232225 
2079	 0.102374799267645 
2080	 0.102438156537822 
2081	 0.102474465567175 
2082	 0.10252979295846 
2083	 0.10259768688661 
2084	 0.102665392068052 
2085	 0.102736005499227 
2086	 0.102814061940774 
2087	 0.102888031829356 
2088	 0.102977882435191 
2089	 0.103028135809356 
2090	 0.10305268570278 
2091	 0.103091401253377 
2092	 0.103099944797856 
2093	 0.103136863725633 
2094	 0.10321109543098 
2095	 0.103258883361891 
2096	 0.103277671532034 
2097	 0.103330687759144 
2098	 0.1034003546743 
2099	 0.103462797850925 
2100	 0.10352815298654 
2101	 0.10362467249389 
2102	 0.103687281980426 
2103	 0.103720869434972 
2104	 0.1037729830767 
2105	 0.103828284260984 
2106	 0.103882396650893 
2107	 0.10392617253321 
2108	 0.103990758521064 
2109	 0.104075076318943 
2110	 0.104143682899285 
2111	 0.104217061973204 
2112	 0.104291957480635 
2113	 0.104375937717069 
2114	 0.104426317319906 
2115	 0.104479479737626 
2116	 0.104539251990786 
2117	 0.104582925227773 
2118	 0.104593657355932 
2119	 0.104638751126933 
2120	 0.10468390084238 
2121	 0.104751727335088 
2122	 0.104859152027515 
2123	 0.104931941007933 
2124	 0.105015199234384 
2125	 0.105076003679791 
2126	 0.105099499381977 
2127	 0.105134917280813 
2128	 0.105170732072217 
2129	 0.105202451330616 
2130	 0.105237181434317 
2131	 0.105256720608437 
2132	 0.105285120041449 
2133	 0.105317564168902 
2134	 0.105333498480664 
2135	 0.105344978285284 
2136	 0.105353789495068 
2137	 0.105349350292009 
2138	 0.105346921379555 
2139	 0.105337731184753 
2140	 0.10534133911693 
2141	 0.105360787645093 
2142	 0.10535359479196 
2143	 0.105354297371806 
2144	 0.105334191028854 
2145	 0.105283262573414 
2146	 0.105228371162185 
2147	 0.105144497312628 
2148	 0.105074663286499 
2149	 0.105043368640091 
2150	 0.10503054078734 
2151	 0.105004495663651 
2152	 0.105019623018466 
2153	 0.104996143507135 
2154	 0.104929861757126 
2155	 0.104892836900488 
2156	 0.104889776509952 
2157	 0.104840033317158 
2158	 0.104763439976463 
2159	 0.104697198590484 
2160	 0.104612169216187 
2161	 0.104524408755294 
2162	 0.104448523023412 
2163	 0.104359272869769 
2164	 0.104231899525386 
2165	 0.104130382183113 
2166	 0.104044885231145 
2167	 0.103974317443057 
2168	 0.103899891197255 
2169	 0.103846671354995 
2170	 0.103771840946605 
2171	 0.103677131126902 
2172	 0.10360232291353 
2173	 0.103535836021059 
2174	 0.103467321260341 
2175	 0.103414324674491 
2176	 0.103342669207571 
2177	 0.103257779136131 
2178	 0.103174720820283 
2179	 0.103076163264049 
2180	 0.102990792664413 
2181	 0.102905656139513 
2182	 0.10283261673913 
2183	 0.102760018871893 
2184	 0.102715375978021 
2185	 0.102667015988373 
2186	 0.102634093006696 
2187	 0.102584173052296 
2188	 0.102536320473601 
2189	 0.102479957725601 
2190	 0.102414763403757 
2191	 0.102348937563672 
2192	 0.102268645754646 
2193	 0.102209298357033 
2194	 0.102156433506279 
2195	 0.102103464365787 
2196	 0.10205722105156 
2197	 0.102022430847475 
2198	 0.101990670344429 
2199	 0.101963123245937 
2200	 0.101968609684352 
2201	 0.101946793235421 
2202	 0.101902515569829 
2203	 0.101866492784414 
2204	 0.101827904150039 
2205	 0.101761731596806 
2206	 0.101751797434017 
2207	 0.10178366334388 
2208	 0.101774798099269 
2209	 0.101788163697835 
2210	 0.101770453475688 
2211	 0.101685522667261 
2212	 0.10167284778216 
2213	 0.101708462113037 
2214	 0.101704657126654 
2215	 0.101703177849322 
2216	 0.101715488854693 
2217	 0.101701977331915 
2218	 0.101710115709251 
2219	 0.101769031958451 
2220	 0.101796061078237 
2221	 0.101800136875277 
2222	 0.101816106448445 
2223	 0.101829088927194 
2224	 0.101833746527514 
2225	 0.101833914663837 
2226	 0.10182809965135 
2227	 0.101835292100779 
2228	 0.101837634728418 
2229	 0.101852618807691 
2230	 0.101878331072239 
2231	 0.101910568332515 
2232	 0.101946276106048 
2233	 0.101988009613751 
2234	 0.10206034328943 
2235	 0.102098487760559 
2236	 0.102131736349172 
2237	 0.10214491711084 
2238	 0.102112112104262 
2239	 0.102115687919872 
2240	 0.102131527832914 
2241	 0.102136188366165 
2242	 0.102140873009546 
2243	 0.10216236827902 
2244	 0.102189566533806 
2245	 0.102210278572016 
2246	 0.102251910467505 
2247	 0.102270773064804 
2248	 0.10226837374991 
2249	 0.102217551343863 
2250	 0.102233353453628 
2251	 0.102258272250768 
2252	 0.102302592051658 
2253	 0.102409467717778 
2254	 0.102446739652857 
2255	 0.102456897090575 
2256	 0.102469256954049 
2257	 0.1024445107327 
2258	 0.102447695242829 
2259	 0.102464896875847 
2260	 0.102484821590969 
2261	 0.102522451210772 
2262	 0.102539326092299 
2263	 0.102542385834982 
2264	 0.102558283970155 
2265	 0.102550885897517 
2266	 0.102577821827518 
2267	 0.102650391439367 
2268	 0.102697011355051 
2269	 0.102759337722047 
2270	 0.102797194381742 
2271	 0.102816562262739 
2272	 0.102828397188176 
2273	 0.10282093744019 
2274	 0.102819827993761 
2275	 0.102816831295333 
2276	 0.102796846930621 
2277	 0.102802988048557 
2278	 0.102822481224147 
2279	 0.102845943288301 
2280	 0.102890820389227 
2281	 0.102918160369439 
2282	 0.102944423691736 
2283	 0.102961243786185 
2284	 0.102956353267508 
2285	 0.102977373881086 
2286	 0.103013464613683 
2287	 0.103038731785504 
2288	 0.103070639587351 
2289	 0.103096389121722 
2290	 0.10310926556566 
2291	 0.103126715953494 
2292	 0.103148244201151 
2293	 0.103178398256776 
2294	 0.103220185846471 
2295	 0.103242364271845 
2296	 0.103269002129509 
2297	 0.103270761310836 
2298	 0.103287083277944 
2299	 0.103297709948944 
2300	 0.103291394244239 
2301	 0.103308184565694 
2302	 0.103287926889624 
2303	 0.103290125725743 
2304	 0.103320483643353 
2305	 0.103283386670758 
2306	 0.103253541689346 
2307	 0.103188497558754 
2308	 0.103177600352045 
2309	 0.10318073125414 
2310	 0.10318615855523 
2311	 0.103242423367618 
2312	 0.103237066580082 
2313	 0.103169210910207 
2314	 0.103179847843931 
2315	 0.103211942709165 
2316	 0.103230788919981 
2317	 0.103304785989167 
2318	 0.103317654363348 
2319	 0.103262834192601 
2320	 0.103269581045528 
2321	 0.103298677549366 
2322	 0.103313725606781 
2323	 0.103353654631836 
2324	 0.103371850535956 
2325	 0.103341721448111 
2326	 0.103357010646395 
2327	 0.103405863057596 
2328	 0.103447274291801 
2329	 0.103469936248024 
2330	 0.1034753238744 
2331	 0.103448511062554 
2332	 0.103417954126211 
2333	 0.103399992037823 
2334	 0.103401054044931 
2335	 0.103437903982723 
2336	 0.103465444739946 
2337	 0.103505725422707 
2338	 0.103548435106563 
2339	 0.103514810790331 
2340	 0.103468886099435 
2341	 0.103438589080783 
2342	 0.103391993504342 
2343	 0.103382022687344 
2344	 0.103421683031355 
2345	 0.103442526606475 
2346	 0.1034838396472 
2347	 0.103479379771446 
2348	 0.103442397811135 
2349	 0.103437239191559 
2350	 0.103427923488652 
2351	 0.103405400374263 
2352	 0.103406165614507 
2353	 0.10339070827038 
2354	 0.103326898237602 
2355	 0.103301627625917 
2356	 0.103318571322336 
2357	 0.103304196405504 
2358	 0.103273074063848 
2359	 0.10323766038436 
2360	 0.103188315264544 
2361	 0.10314105677842 
2362	 0.103098818953604 
2363	 0.103073554391187 
2364	 0.103051260267479 
2365	 0.103022767955755 
2366	 0.103011710576294 
2367	 0.102961156802121 
2368	 0.102873307070693 
2369	 0.102828988977835 
2370	 0.102789734967225 
2371	 0.102727249854866 
2372	 0.102769735462543 
2373	 0.102747153892776 
2374	 0.102636148316378 
2375	 0.10260169888268 
2376	 0.102475322425083 
2377	 0.102336737355332 
2378	 0.102398969444387 
2379	 0.102422826746457 
2380	 0.102441778069136 
2381	 0.102541512969878 
2382	 0.102486047222313 
2383	 0.102369192256307 
2384	 0.10235291986946 
2385	 0.102308107106205 
2386	 0.102278207479878 
2387	 0.102266648198212 
2388	 0.102085972438469 
2389	 0.101915952065524 
2390	 0.101806658206814 
2391	 0.101698363120454 
2392	 0.10172276502066 
2393	 0.101745906010189 
2394	 0.101742343563511 
2395	 0.101773084680866 
2396	 0.101757983833178 
2397	 0.101710901991194 
2398	 0.101666148034085 
2399	 0.101593202176618 
2400	 0.101501599245113 
2401	 0.101488113824274 
2402	 0.101515970350726 
2403	 0.101438207897503 
2404	 0.101333716917648 
2405	 0.101242196112824 
2406	 0.101144430120572 
2407	 0.101143960041592 
2408	 0.101204977002295 
2409	 0.101264553617886 
2410	 0.101220961867203 
2411	 0.101158887962372 
2412	 0.101091161721418 
2413	 0.101010266145929 
2414	 0.100975110783774 
2415	 0.100904339834896 
2416	 0.100857064122093 
2417	 0.100788745228947 
2418	 0.100738645904545 
2419	 0.100753884416697 
2420	 0.100698553440088 
2421	 0.100639375156668 
2422	 0.100594482986256 
2423	 0.100505960201485 
2424	 0.10041607164009 
2425	 0.100314298948354 
2426	 0.100203618957094 
2427	 0.100073077473464 
2428	 9.99602127829153E-02 
2429	 9.98746354382248E-02 
2430	 0.099773483536762 
2431	 9.96225137458779E-02 
2432	 9.95054344717958E-02 
2433	 9.93991456830209E-02 
2434	 9.93690549739907E-02 
2435	 9.94688017486389E-02 
2436	 9.94657626123516E-02 
2437	 9.94507333442348E-02 
2438	 9.93550727739246E-02 
2439	 9.90670944553874E-02 
2440	 9.89462538709042E-02 
2441	 9.89223842595802E-02 
2442	 0.098870607292378 
2443	 9.88942571025354E-02 
2444	 9.89071176926126E-02 
2445	 9.89184473431261E-02 
2446	 9.88574896406917E-02 
2447	 9.87977171055268E-02 
2448	 9.87335924551768E-02 
2449	 9.85314739831855E-02 
2450	 9.84459400448787E-02 
2451	 9.84630587625511E-02 
2452	 9.83937039600084E-02 
2453	 9.83316881955143E-02 
2454	 9.82691956482488E-02 
2455	 9.81982892067678E-02 
2456	 9.81054354458279E-02 
2457	 0.097963713159644 
2458	 9.78334628202278E-02 
2459	 0.097707971753333 
2460	 9.75810506301035E-02 
2461	 0.09746464584597 
2462	 9.74100404564067E-02 
2463	 9.73485174442599E-02 
2464	 9.72640052622672E-02 
2465	 9.72214670781693E-02 
2466	 9.71347348310789E-02 
2467	 9.69491720361222E-02 
2468	 9.69380566710597E-02 
2469	 9.70592365369155E-02 
2470	 9.70952351484757E-02 
2471	 9.72012068872779E-02 
2472	 9.71655943063558E-02 
2473	 9.70393132076594E-02 
2474	 0.097041710467525 
2475	 9.69842662306316E-02 
2476	 9.68511749825236E-02 
2477	 9.67314890000884E-02 
2478	 9.65048337588069E-02 
2479	 9.64195509661646E-02 
2480	 9.64926879870915E-02 
2481	 9.63384983519712E-02 
2482	 9.61696818464281E-02 
2483	 9.60439709691048E-02 
2484	 9.58667322188123E-02 
2485	 9.59003730975575E-02 
2486	 9.60196635238846E-02 
2487	 9.59145523432661E-02 
2488	 0.095664941533835 
2489	 9.54552338402531E-02 
2490	 9.52928162846963E-02 
2491	 0.095213222803565 
2492	 9.52911523294438E-02 
2493	 9.54548869642765E-02 
2494	 9.55243696889287E-02 
2495	 9.56067687629328E-02 
2496	 9.57073262363386E-02 
2497	 9.56453028815482E-02 
2498	 9.55489151716626E-02 
2499	 9.54635410969637E-02 
2500	 9.54324013023135E-02 
