Wavelength	LMW_1400009.asd
350	 7.19841970219754E-02 
351	 7.44830967522615E-02 
352	 7.31134849643935E-02 
353	 6.23998202031413E-02 
354	 7.32789187910829E-02 
355	 7.73760287523873E-02 
356	 7.46963405997914E-02 
357	 7.17633942100114E-02 
358	 6.93642294529748E-02 
359	 6.80975473320072E-02 
360	 6.91004649653172E-02 
361	 7.27112459200803E-02 
362	 6.51537988223613E-02 
363	 6.59903264381281E-02 
364	 7.80996773803981E-02 
365	 0.072479579679675 
366	 6.92015198159005E-02 
367	 6.83828642069059E-02 
368	 6.66282807859491E-02 
369	 0.068995026574936 
370	 7.08255974914545E-02 
371	 7.13687963462076E-02 
372	 7.22880015787621E-02 
373	 6.88476093477736E-02 
374	 6.86475634845266E-02 
375	 7.30842819767292E-02 
376	 7.02789796840712E-02 
377	 6.83847208560375E-02 
378	 6.88003633203562E-02 
379	 7.03897925188523E-02 
380	 7.05406318154256E-02 
381	 6.90867839622963E-02 
382	 6.77617573950687E-02 
383	 6.93050576667701E-02 
384	 7.17705187199876E-02 
385	 7.15031684308649E-02 
386	 6.83121153974929E-02 
387	 6.87227583727383E-02 
388	 7.01468679633112E-02 
389	 7.11124167576996E-02 
390	 7.07088054542037E-02 
391	 6.92256664968622E-02 
392	 6.89152184594089E-02 
393	 6.95749922647322E-02 
394	 6.90829481838396E-02 
395	 7.02241458873517E-02 
396	 7.07897294172543E-02 
397	 7.00467066068374E-02 
398	 7.25263104236707E-02 
399	 7.18214628110046E-02 
400	 7.08441984326726E-02 
401	 7.38979476720766E-02 
402	 7.26082484424235E-02 
403	 7.11346585231582E-02 
404	 7.14170956021351E-02 
405	 7.23267069802563E-02 
406	 0.073128032611249 
407	 7.33866160850653E-02 
408	 7.28251278136857E-02 
409	 7.08851518707274E-02 
410	 7.05626359740883E-02 
411	 7.15219650479467E-02 
412	 7.20161830900501E-02 
413	 7.30745580099287E-02 
414	 7.31181032210515E-02 
415	 7.19871562884907E-02 
416	 7.14958890000193E-02 
417	 7.20333875487841E-02 
418	 0.072839948760174 
419	 7.30942502366932E-02 
420	 7.28695481877824E-02 
421	 7.26745028135651E-02 
422	 7.26924020123631E-02 
423	 7.28404917174501E-02 
424	 7.26491817367402E-02 
425	 7.28163726459401E-02 
426	 7.34092748522373E-02 
427	 7.30750859327795E-02 
428	 7.28344335968863E-02 
429	 7.32530897091773E-02 
430	 7.43263191589638E-02 
431	 7.41198537403712E-02 
432	 7.36666796353459E-02 
433	 7.35440513739644E-02 
434	 7.37236815921755E-02 
435	 7.39821683553314E-02 
436	 7.42596339999107E-02 
437	 7.44557469437588E-02 
438	 7.42014324254187E-02 
439	 7.41391669947656E-02 
440	 7.45079826300032E-02 
441	 7.52040397783637E-02 
442	 7.52646187614694E-02 
443	 7.52913561867843E-02 
444	 7.55339460114413E-02 
445	 7.54626304960037E-02 
446	 7.55508449812719E-02 
447	 0.075863615448891 
448	 7.62495534462631E-02 
449	 7.61734623429855E-02 
450	 7.62705862254978E-02 
451	 7.66565075358288E-02 
452	 7.69679979339788E-02 
453	 7.69945491945919E-02 
454	 7.68656926833164E-02 
455	 0.07685485626799 
456	 7.74714576204079E-02 
457	 7.78813638372088E-02 
458	 7.79064043621727E-02 
459	 7.77575993751293E-02 
460	 7.79946287460809E-02 
461	 0.078098044081705 
462	 7.80892284072869E-02 
463	 7.88924554717064E-02 
464	 7.93223254982191E-02 
465	 7.94875034387142E-02 
466	 0.079750869557939 
467	 7.99337177283309E-02 
468	 7.99796361029433E-02 
469	 8.00440627134415E-02 
470	 8.04169891355457E-02 
471	 8.07589011489684E-02 
472	 8.10230390751441E-02 
473	 0.081194248200053 
474	 8.11581320670664E-02 
475	 8.13478769116379E-02 
476	 8.16786734893662E-02 
477	 8.18878009156185E-02 
478	 8.23298440302871E-02 
479	 8.25950181796827E-02 
480	 8.26158854310505E-02 
481	 8.28697303316101E-02 
482	 8.33958898282098E-02 
483	 8.37933351991367E-02 
484	 8.37557870564039E-02 
485	 8.38821001847192E-02 
486	 8.40829915344901E-02 
487	 8.43126799632613E-02 
488	 8.45686170092748E-02 
489	 8.47278593214763E-02 
490	 8.49095094387843E-02 
491	 8.52019231285276E-02 
492	 8.55499463811011E-02 
493	 8.56317398003483E-02 
494	 0.085573521579023 
495	 8.57050428620461E-02 
496	 8.60658778582487E-02 
497	 8.63237303288455E-02 
498	 8.63936183795544E-02 
499	 8.66034834199798E-02 
500	 0.086824096405265 
501	 8.70212027072571E-02 
502	 8.71826721287857E-02 
503	 8.72995071820839E-02 
504	 8.73368331118996E-02 
505	 8.73805622077855E-02 
506	 8.76129613568577E-02 
507	 8.79185053590419E-02 
508	 8.80961346102101E-02 
509	 8.80763295360631E-02 
510	 8.81631777196465E-02 
511	 8.82711267459215E-02 
512	 8.83355799027467E-02 
513	 8.83303027303083E-02 
514	 8.84993548866461E-02 
515	 8.87341058375528E-02 
516	 8.89166774102647E-02 
517	 8.89780051519448E-02 
518	 8.90618246247639E-02 
519	 8.91875918711994E-02 
520	 0.089326679959734 
521	 8.94485539711119E-02 
522	 8.95419430673596E-02 
523	 8.96294829836766E-02 
524	 8.97646207779502E-02 
525	 8.98077162507031E-02 
526	 8.98556293651642E-02 
527	 8.99790111464403E-02 
528	 8.99815814497695E-02 
529	 9.00494794047786E-02 
530	 9.02091231084294E-02 
531	 9.03734614260983E-02 
532	 9.04611524478785E-02 
533	 9.05560081908009E-02 
534	 9.06930239530891E-02 
535	 9.07538716004923E-02 
536	 9.07665615106879E-02 
537	 9.08499522022758E-02 
538	 9.10931024967184E-02 
539	 0.091131785877371 
540	 9.10759129160565E-02 
541	 9.10802612455631E-02 
542	 0.091310603171632 
543	 0.091340081446818 
544	 9.13225549813247E-02 
545	 9.14864988747792E-02 
546	 9.16865730067382E-02 
547	 9.17557071220083E-02 
548	 9.17536130484127E-02 
549	 9.19146972526547E-02 
550	 0.091972989082926 
551	 9.19894222332894E-02 
552	 9.20638578813465E-02 
553	 9.22552999382854E-02 
554	 9.23599757019598E-02 
555	 0.092397671190468 
556	 9.24951173542359E-02 
557	 9.25534682155313E-02 
558	 9.26348159348242E-02 
559	 9.27718533956885E-02 
560	 0.092927752339836 
561	 0.092963571637587 
562	 9.29801835389944E-02 
563	 9.31158807965511E-02 
564	 9.32005519361606E-02 
565	 9.32402376344622E-02 
566	 9.32775653296769E-02 
567	 9.33820464820562E-02 
568	 9.35017259207634E-02 
569	 9.35943106118505E-02 
570	 9.36352846235051E-02 
571	 9.36411187042358E-02 
572	 0.093687540086014 
573	 9.37503212819453E-02 
574	 9.37437017166983E-02 
575	 9.37748658116047E-02 
576	 0.093855351501441 
577	 9.39636740842842E-02 
578	 9.40444260571737E-02 
579	 9.40998005585487E-02 
580	 9.41647854209121E-02 
581	 9.42666885069452E-02 
582	 0.094254569990256 
583	 9.42369398730784E-02 
584	 9.42527622212868E-02 
585	 9.42053530399548E-02 
586	 9.42870237035937E-02 
587	 9.43891478443952E-02 
588	 9.43813617842376E-02 
589	 0.094451356261822 
590	 9.45317449827739E-02 
591	 9.45616380352636E-02 
592	 9.45002701772833E-02 
593	 9.44259020998339E-02 
594	 9.43571413380158E-02 
595	 9.43141826697993E-02 
596	 9.43610843243686E-02 
597	 9.44433119374232E-02 
598	 9.45029234699657E-02 
599	 9.44973232506196E-02 
600	 9.45392932674842E-02 
601	 9.46061999968593E-02 
602	 9.46735736470902E-02 
603	 9.47494554432568E-02 
604	 9.47594546908246E-02 
605	 9.47699944078441E-02 
606	 9.48740031764619E-02 
607	 9.50117589841672E-02 
608	 0.095105695319486 
609	 9.51379126501244E-02 
610	 9.51595338128713E-02 
611	 0.09515780162788 
612	 9.51646264807159E-02 
613	 9.52046853871819E-02 
614	 9.52510047690823E-02 
615	 0.09528209191875 
616	 9.52993354901955E-02 
617	 9.53207711369121E-02 
618	 9.53549279831342E-02 
619	 9.53695574142081E-02 
620	 9.53544246313587E-02 
621	 0.095350359124328 
622	 9.54270061321712E-02 
623	 9.55272518694225E-02 
624	 9.55531070128836E-02 
625	 9.55408885811044E-02 
626	 9.55356194625647E-02 
627	 9.55644968968268E-02 
628	 9.56300627078147E-02 
629	 9.57087831419139E-02 
630	 0.09574963860876 
631	 9.57343180469583E-02 
632	 0.095791494483816 
633	 9.58491241208971E-02 
634	 9.58881957198723E-02 
635	 9.59370374358259E-02 
636	 9.60047578770822E-02 
637	 9.60847491546415E-02 
638	 9.61440763766364E-02 
639	 9.60747114267368E-02 
640	 9.61157272558343E-02 
641	 9.62383961322032E-02 
642	 9.62983378543927E-02 
643	 9.63366774497148E-02 
644	 9.64194943489091E-02 
645	 9.65360894418243E-02 
646	 9.65612715348834E-02 
647	 9.65513804606226E-02 
648	 9.65698812159749E-02 
649	 0.096656930870824 
650	 9.67455285763421E-02 
651	 9.68148526537009E-02 
652	 9.68606857818156E-02 
653	 9.68960970135199E-02 
654	 9.69859042835001E-02 
655	 9.70658747407271E-02 
656	 9.70915138011669E-02 
657	 9.71209365941719E-02 
658	 9.72017629463875E-02 
659	 9.73072291974199E-02 
660	 9.73775387513532E-02 
661	 9.74306133425071E-02 
662	 9.74727197929268E-02 
663	 9.75185759895621E-02 
664	 9.75959609777963E-02 
665	 9.76773727468627E-02 
666	 9.77185681586887E-02 
667	 9.77135803886618E-02 
668	 9.78323578057248E-02 
669	 9.79067023098102E-02 
670	 9.79224212351675E-02 
671	 9.79943444001582E-02 
672	 0.098035600560658 
673	 9.80963038787103E-02 
674	 9.82055903208793E-02 
675	 0.098298924800388 
676	 9.83238967933038E-02 
677	 9.83242161901651E-02 
678	 9.83770983879312E-02 
679	 9.84364077942907E-02 
680	 9.85152325027933E-02 
681	 9.86024457890661E-02 
682	 9.86505881022167E-02 
683	 9.87018087252858E-02 
684	 9.87689061106645E-02 
685	 9.88433914732525E-02 
686	 9.88718930331507E-02 
687	 9.88823279815882E-02 
688	 9.89041735413876E-02 
689	 9.89605983654641E-02 
690	 9.89991961445137E-02 
691	 9.90278888803014E-02 
692	 9.90578087901345E-02 
693	 9.90859347108608E-02 
694	 9.91332165086238E-02 
695	 9.91772133455211E-02 
696	 9.91915416067219E-02 
697	 9.92216070389633E-02 
698	 9.92641191569737E-02 
699	 0.099307912139875 
700	 9.93379585442239E-02 
701	 9.93809950408249E-02 
702	 9.94232131886354E-02 
703	 0.09944631791358 
704	 9.94407379469905E-02 
705	 9.94450688280591E-02 
706	 9.94744880354262E-02 
707	 9.95232826601978E-02 
708	 9.95384458367891E-02 
709	 9.95505259995763E-02 
710	 9.95759517366402E-02 
711	 9.95980666534112E-02 
712	 9.95978937875398E-02 
713	 9.95870302314754E-02 
714	 0.09958486057903 
715	 9.95983093395392E-02 
716	 9.96423280617563E-02 
717	 9.96815433400101E-02 
718	 9.96523096364934E-02 
719	 9.96077539342661E-02 
720	 9.96024590394897E-02 
721	 9.96297643554584E-02 
722	 9.95591014994778E-02 
723	 9.95758422318083E-02 
724	 9.96256852306739E-02 
725	 9.96003740183529E-02 
726	 9.95739673972402E-02 
727	 9.95274957442498E-02 
728	 9.94762985924993E-02 
729	 9.94661616174559E-02 
730	 0.099436669280428 
731	 9.94191307167756E-02 
732	 9.94231282738565E-02 
733	 9.93587161107403E-02 
734	 9.93504700346398E-02 
735	 9.93550256912059E-02 
736	 9.92839291071003E-02 
737	 9.92313437975982E-02 
738	 0.099222909695125 
739	 9.92197448266272E-02 
740	 9.91249217619491E-02 
741	 9.90941793885235E-02 
742	 0.099066374988284 
743	 9.89838737860266E-02 
744	 9.89281067646577E-02 
745	 9.88729549466777E-02 
746	 9.88368107351233E-02 
747	 9.88391315293295E-02 
748	 9.87654034695983E-02 
749	 9.86836326071619E-02 
750	 9.86287738809371E-02 
751	 9.85756677899584E-02 
752	 9.85689675721884E-02 
753	 9.85576160528561E-02 
754	 9.84996365998945E-02 
755	 9.84448765211859E-02 
756	 9.83848804625255E-02 
757	 9.83194494591305E-02 
758	 9.82567958520904E-02 
759	 9.82430501237681E-02 
760	 9.81898981503272E-02 
761	 9.80952631874899E-02 
762	 9.80769002410305E-02 
763	 9.80403634258855E-02 
764	 9.79955962405541E-02 
765	 9.79621697832861E-02 
766	 9.79174192259994E-02 
767	 9.78476316627227E-02 
768	 9.77696530455299E-02 
769	 9.77111307476248E-02 
770	 9.76482429934852E-02 
771	 9.76052252390999E-02 
772	 9.75680313000437E-02 
773	 9.74758310173329E-02 
774	 0.097424070257643 
775	 9.73926037652098E-02 
776	 9.73489966357479E-02 
777	 9.73062204009863E-02 
778	 9.72328119490352E-02 
779	 9.71601629077945E-02 
780	 9.71325078363646E-02 
781	 9.70756512678747E-02 
782	 9.70211304692331E-02 
783	 9.69831846597694E-02 
784	 9.69479308232819E-02 
785	 9.68793709484196E-02 
786	 9.67986886329393E-02 
787	 9.67296338115935E-02 
788	 9.66703271527307E-02 
789	 9.66441542515235E-02 
790	 9.65988758102052E-02 
791	 9.64838437365392E-02 
792	 9.64111656371362E-02 
793	 9.63611405179811E-02 
794	 9.63240829571665E-02 
795	 9.63005774697236E-02 
796	 9.62350497250202E-02 
797	 9.61551076416047E-02 
798	 9.60903458856783E-02 
799	 9.60483350262317E-02 
800	 9.60040545586068E-02 
801	 9.59193074124449E-02 
802	 9.57903860541969E-02 
803	 9.57506637446923E-02 
804	 9.57221634085098E-02 
805	 9.56644405649838E-02 
806	 9.55760403169419E-02 
807	 0.095538905649183 
808	 9.54840409746606E-02 
809	 9.53973300849092E-02 
810	 9.53554015168138E-02 
811	 9.53127281743415E-02 
812	 9.52537402623558E-02 
813	 9.51819425990887E-02 
814	 9.51327066311951E-02 
815	 9.50928786253445E-02 
816	 0.095041197369618 
817	 9.49671491775619E-02 
818	 9.49413191611937E-02 
819	 9.48816675660908E-02 
820	 9.47753224619871E-02 
821	 9.46766650372016E-02 
822	 9.46014545806427E-02 
823	 0.09454663754977 
824	 9.45017826854228E-02 
825	 9.44528557969087E-02 
826	 9.43897227513073E-02 
827	 0.094307951864855 
828	 9.42284077500902E-02 
829	 9.42497778749846E-02 
830	 9.42129789029266E-02 
831	 9.41286935050527E-02 
832	 9.40843250060742E-02 
833	 9.40628275783979E-02 
834	 9.40030401849964E-02 
835	 9.39032016716112E-02 
836	 9.38234411708941E-02 
837	 9.38246337998974E-02 
838	 9.38206395412002E-02 
839	 0.093758414069593 
840	 9.36850160519714E-02 
841	 9.36101930431781E-02 
842	 9.35425243534318E-02 
843	 9.34912773992425E-02 
844	 9.34776686201754E-02 
845	 9.34646256553782E-02 
846	 9.34195957360609E-02 
847	 9.33347507570557E-02 
848	 9.33115562654807E-02 
849	 9.32827051354807E-02 
850	 9.32250654509311E-02 
851	 0.093164506995291 
852	 0.093126876258036 
853	 9.30626513518883E-02 
854	 9.29672094040385E-02 
855	 9.29144246581765E-02 
856	 9.29053686809697E-02 
857	 9.29207410283749E-02 
858	 9.29160343277314E-02 
859	 9.27914813174013E-02 
860	 9.27261938350755E-02 
861	 9.27186855908439E-02 
862	 9.27018344597604E-02 
863	 9.26444667776339E-02 
864	 0.092622309524964 
865	 9.26274705345629E-02 
866	 0.092597893287484 
867	 9.25068628707792E-02 
868	 9.24232141618895E-02 
869	 9.23690948804441E-02 
870	 9.23112622423776E-02 
871	 9.22740175404817E-02 
872	 9.22813363090079E-02 
873	 9.23075606039777E-02 
874	 9.22531744468386E-02 
875	 0.092211588321261 
876	 9.21774482784724E-02 
877	 9.21276134278566E-02 
878	 9.20526501521275E-02 
879	 9.20304012277866E-02 
880	 9.20280039794338E-02 
881	 9.19917159633195E-02 
882	 9.19667716912915E-02 
883	 9.19284987995648E-02 
884	 9.18715329698328E-02 
885	 9.18100956682982E-02 
886	 9.17925008187721E-02 
887	 9.18005938535087E-02 
888	 9.18005505874853E-02 
889	 9.17615958062888E-02 
890	 9.17675231828401E-02 
891	 9.17273518448871E-02 
892	 9.16361471279161E-02 
893	 9.16158559232478E-02 
894	 9.15882330783236E-02 
895	 0.091589939799199 
896	 9.16342339966418E-02 
897	 9.16594905373597E-02 
898	 9.15448897807652E-02 
899	 9.14754082984935E-02 
900	 9.15704595753491E-02 
901	 9.15597061354094E-02 
902	 9.15125621602785E-02 
903	 9.14804870776082E-02 
904	 0.09148577122003 
905	 9.14477628605921E-02 
906	 9.13974622101675E-02 
907	 9.13600988280664E-02 
908	 9.13489655734321E-02 
909	 9.13398758543273E-02 
910	 0.091319104369621 
911	 9.13028356592328E-02 
912	 9.13148230272672E-02 
913	 9.12881692739597E-02 
914	 9.12836430411312E-02 
915	 9.13107244945781E-02 
916	 9.13222500502877E-02 
917	 9.12902125392197E-02 
918	 9.12339091475095E-02 
919	 9.11837768542527E-02 
920	 9.11718349715144E-02 
921	 9.12295762361389E-02 
922	 9.12119351217995E-02 
923	 0.091112216294499 
924	 9.11524722838015E-02 
925	 9.11211752862748E-02 
926	 9.10733068660209E-02 
927	 9.10554979797362E-02 
928	 9.09940491055554E-02 
929	 9.11019683737808E-02 
930	 9.11757060818024E-02 
931	 9.10672861760292E-02 
932	 9.09995797424972E-02 
933	 9.10319790420027E-02 
934	 9.10614702869964E-02 
935	 9.10115281844916E-02 
936	 9.10514247644829E-02 
937	 9.09899499302584E-02 
938	 9.09134815838671E-02 
939	 9.09529949044937E-02 
940	 9.10640771321581E-02 
941	 9.10470727824794E-02 
942	 9.09834638762881E-02 
943	 9.10121747263861E-02 
944	 9.10011519534944E-02 
945	 9.09387399502618E-02 
946	 9.09047093366347E-02 
947	 9.09528179643481E-02 
948	 9.08307921068573E-02 
949	 9.07800920510199E-02 
950	 9.08055113687226E-02 
951	 9.08061033132102E-02 
952	 0.090873667729787 
953	 0.090918448032134 
954	 9.09129472049343E-02 
955	 9.08883444488015E-02 
956	 9.09373209950304E-02 
957	 9.09884499852892E-02 
958	 9.09449196457094E-02 
959	 9.07722354650431E-02 
960	 9.07864276561719E-02 
961	 9.08282922332076E-02 
962	 9.08318170255251E-02 
963	 9.08290309927316E-02 
964	 9.09146340116091E-02 
965	 9.09264108179965E-02 
966	 9.08403300169576E-02 
967	 9.07636243517978E-02 
968	 9.08864697616177E-02 
969	 9.09297702343332E-02 
970	 9.08291790928168E-02 
971	 9.07086554115651E-02 
972	 9.06590696663152E-02 
973	 9.07271711028027E-02 
974	 0.090760287111574 
975	 9.05940282976778E-02 
976	 9.07645860512672E-02 
977	 9.08816051968483E-02 
978	 9.07966042907011E-02 
979	 0.090620294167592 
980	 9.06245995483468E-02 
981	 9.07022789180692E-02 
982	 9.07133277317668E-02 
983	 9.05947667345158E-02 
984	 9.06666212356553E-02 
985	 9.07366188142602E-02 
986	 9.06751500903918E-02 
987	 9.04839946177592E-02 
988	 9.04492611888411E-02 
989	 9.06052672270274E-02 
990	 9.06917734563113E-02 
991	 9.04940293961884E-02 
992	 9.06692484612452E-02 
993	 9.05762560346016E-02 
994	 9.04543565032064E-02 
995	 9.07118379287908E-02 
996	 9.06465224984357E-02 
997	 9.05653636215971E-02 
998	 9.05010459519153E-02 
999	 0.090432980308493 
1000	 9.05756158786237E-02 
1001	 8.73639317519148E-02 
1002	 8.73719465232255E-02 
1003	 8.73229145634014E-02 
1004	 8.73073989784405E-02 
1005	 8.73560446715617E-02 
1006	 8.73309565088338E-02 
1007	 8.72353435904029E-02 
1008	 8.72540260614209E-02 
1009	 8.72456538365442E-02 
1010	 8.71303207104966E-02 
1011	 8.71311377574977E-02 
1012	 8.70898486921754E-02 
1013	 8.69800892416042E-02 
1014	 8.69435486755445E-02 
1015	 8.69007570321638E-02 
1016	 8.68729349231542E-02 
1017	 8.68782641442448E-02 
1018	 8.69465484158124E-02 
1019	 8.69847298435001E-02 
1020	 8.69858286133137E-02 
1021	 8.69740050456396E-02 
1022	 8.69327072896386E-02 
1023	 8.68825379858047E-02 
1024	 8.68654943272211E-02 
1025	 8.68426428208078E-02 
1026	 8.68149086096728E-02 
1027	 8.68106546502923E-02 
1028	 8.67856625053524E-02 
1029	 8.67536657241313E-02 
1030	 8.67234302034855E-02 
1031	 8.66827656024259E-02 
1032	 8.66213548401818E-02 
1033	 8.65686574034274E-02 
1034	 8.65290910068849E-02 
1035	 8.65012836991487E-02 
1036	 8.65030661006024E-02 
1037	 8.64745753995239E-02 
1038	 0.086452127184508 
1039	 8.64707236365656E-02 
1040	 0.086460058119713 
1041	 8.64489229119868E-02 
1042	 0.086429740315606 
1043	 8.63615116432394E-02 
1044	 8.63328907174696E-02 
1045	 8.63068487555339E-02 
1046	 8.63192408497582E-02 
1047	 8.63277366700086E-02 
1048	 8.63551504663743E-02 
1049	 8.63823995694545E-02 
1050	 8.63936393210408E-02 
1051	 8.63928972832414E-02 
1052	 8.63524493527317E-02 
1053	 8.62818091065966E-02 
1054	 8.62227100313996E-02 
1055	 8.61983352974317E-02 
1056	 8.61990690715662E-02 
1057	 8.62028952443641E-02 
1058	 8.62316558118845E-02 
1059	 8.62605735626213E-02 
1060	 8.62938953789172E-02 
1061	 8.63297967777086E-02 
1062	 8.63477422772646E-02 
1063	 8.63417444663434E-02 
1064	 8.63646939499721E-02 
1065	 8.63953430106552E-02 
1066	 8.63947548926268E-02 
1067	 8.64398372016053E-02 
1068	 8.64280212755118E-02 
1069	 8.63516331739828E-02 
1070	 8.63167137565775E-02 
1071	 8.62862347368338E-02 
1072	 8.62811786410314E-02 
1073	 8.62926460638846E-02 
1074	 8.63193071403525E-02 
1075	 8.63976904370327E-02 
1076	 8.64260135693276E-02 
1077	 8.64025637957923E-02 
1078	 8.64303273524805E-02 
1079	 8.64391572210199E-02 
1080	 0.086439516831301 
1081	 8.64677469251617E-02 
1082	 8.64457166321301E-02 
1083	 8.64386041609404E-02 
1084	 8.64082537624842E-02 
1085	 0.086416831431882 
1086	 0.086474272648779 
1087	 0.086466673565534 
1088	 8.64431479053805E-02 
1089	 8.63937720096449E-02 
1090	 8.63524175572787E-02 
1091	 8.63569884268232E-02 
1092	 8.63697950161496E-02 
1093	 8.63778671205271E-02 
1094	 8.63936096743033E-02 
1095	 8.63668969447104E-02 
1096	 8.63034760808907E-02 
1097	 0.086290528332861 
1098	 8.62890134457647E-02 
1099	 8.62791404641468E-02 
1100	 0.086284493257776 
1101	 8.63486223704197E-02 
1102	 8.63623694351036E-02 
1103	 8.63576028773396E-02 
1104	 8.63308093730708E-02 
1105	 8.62982213967194E-02 
1106	 8.62714889562314E-02 
1107	 8.62508635491234E-02 
1108	 8.62409135408832E-02 
1109	 8.62210287667312E-02 
1110	 8.61988224441751E-02 
1111	 8.61944076584119E-02 
1112	 0.086204013473993 
1113	 8.61867855478948E-02 
1114	 8.61635166332264E-02 
1115	 8.61566610214527E-02 
1116	 8.61385329192719E-02 
1117	 8.61135526839132E-02 
1118	 8.60869279652922E-02 
1119	 0.086100633640453 
1120	 8.60825009149614E-02 
1121	 8.60772754672198E-02 
1122	 8.61066993092212E-02 
1123	 8.61247691859094E-02 
1124	 8.61217206060607E-02 
1125	 8.61002997590565E-02 
1126	 8.60794898575809E-02 
1127	 8.60344293375526E-02 
1128	 8.60202828798915E-02 
1129	 8.60302578436392E-02 
1130	 8.60156570470175E-02 
1131	 8.60015049256886E-02 
1132	 8.59883816875932E-02 
1133	 8.59482077550711E-02 
1134	 8.59282669494338E-02 
1135	 8.59251880014943E-02 
1136	 8.59255759124369E-02 
1137	 8.59238786316144E-02 
1138	 8.59310106868081E-02 
1139	 8.59332305699438E-02 
1140	 8.59411064267611E-02 
1141	 8.59394723658707E-02 
1142	 0.085920588592637 
1143	 8.59282364130934E-02 
1144	 8.59561466672098E-02 
1145	 8.59608347750951E-02 
1146	 8.59686990946066E-02 
1147	 8.59713796325964E-02 
1148	 8.59563546238706E-02 
1149	 8.59449248528187E-02 
1150	 8.59249432944597E-02 
1151	 8.59301751311539E-02 
1152	 8.59450213152442E-02 
1153	 8.59402859970619E-02 
1154	 8.59439464594899E-02 
1155	 8.59685419497928E-02 
1156	 8.59693039437476E-02 
1157	 0.085940861776504 
1158	 8.59441866189533E-02 
1159	 0.085963217726003 
1160	 8.59653193867155E-02 
1161	 8.59751610940701E-02 
1162	 8.59825217260368E-02 
1163	 8.59756881658013E-02 
1164	 8.59725878216372E-02 
1165	 8.59787482391343E-02 
1166	 8.59750921620142E-02 
1167	 8.59714937859302E-02 
1168	 8.59758227159878E-02 
1169	 8.59838159030348E-02 
1170	 8.59970539302356E-02 
1171	 8.60187080940121E-02 
1172	 8.60530646306309E-02 
1173	 8.60715214190603E-02 
1174	 8.60956027786878E-02 
1175	 8.61099501653849E-02 
1176	 8.60923702796788E-02 
1177	 8.61092671214557E-02 
1178	 8.61577882440125E-02 
1179	 8.61801301228198E-02 
1180	 8.62034558852938E-02 
1181	 8.62260479687236E-02 
1182	 8.62385208465282E-02 
1183	 8.62365091980773E-02 
1184	 8.62475375454135E-02 
1185	 8.62639705240024E-02 
1186	 8.62903422745595E-02 
1187	 8.63240841640155E-02 
1188	 8.63475315938063E-02 
1189	 8.63788573337487E-02 
1190	 8.64056531542029E-02 
1191	 8.64183465791229E-02 
1192	 8.64392179172094E-02 
1193	 8.64701249539672E-02 
1194	 8.64961665886669E-02 
1195	 8.65111628946397E-02 
1196	 8.65384096200557E-02 
1197	 8.65841305249185E-02 
1198	 0.086613278202228 
1199	 8.66380829149507E-02 
1200	 8.66607803497542E-02 
1201	 8.66888893971816E-02 
1202	 8.67027870453094E-02 
1203	 8.67383248790985E-02 
1204	 8.67976541521169E-02 
1205	 8.68360956898845E-02 
1206	 8.68721670808786E-02 
1207	 8.69063081208374E-02 
1208	 0.086932746280119 
1209	 8.69601724187319E-02 
1210	 8.69878035398993E-02 
1211	 8.70152310375398E-02 
1212	 8.70431931459993E-02 
1213	 8.70653210350724E-02 
1214	 8.70752826294605E-02 
1215	 8.71000137102688E-02 
1216	 8.71293533051158E-02 
1217	 0.087158428840289 
1218	 8.71914065530769E-02 
1219	 8.72422607465319E-02 
1220	 8.72736948545246E-02 
1221	 0.08729461954588 
1222	 8.73190008429079E-02 
1223	 0.087332147407467 
1224	 8.73623343899445E-02 
1225	 8.74030804285458E-02 
1226	 8.74374841475174E-02 
1227	 0.087487745317506 
1228	 8.75196901647118E-02 
1229	 8.75318360824257E-02 
1230	 8.75543663667855E-02 
1231	 8.75645221818698E-02 
1232	 8.75899155747381E-02 
1233	 8.76242325896695E-02 
1234	 8.76726411869495E-02 
1235	 8.77123706052133E-02 
1236	 8.77567487948223E-02 
1237	 0.087803203366092 
1238	 8.78553862616031E-02 
1239	 8.78927452870251E-02 
1240	 0.087929364809558 
1241	 8.79621837361806E-02 
1242	 8.79714345446798E-02 
1243	 8.80010319585163E-02 
1244	 8.80439299775209E-02 
1245	 8.80835304544221E-02 
1246	 8.81417090236561E-02 
1247	 8.81779900909536E-02 
1248	 8.82032194900882E-02 
1249	 8.82184492199198E-02 
1250	 8.82415985985066E-02 
1251	 8.82700541121498E-02 
1252	 8.83047298013339E-02 
1253	 8.83619558026022E-02 
1254	 8.83971894639276E-02 
1255	 8.84156959897676E-02 
1256	 8.84534017689781E-02 
1257	 8.84955459444959E-02 
1258	 8.85366661769112E-02 
1259	 8.85980629614827E-02 
1260	 8.86354610925907E-02 
1261	 8.86579594782304E-02 
1262	 8.86813532460016E-02 
1263	 8.86836015063261E-02 
1264	 0.088704495287951 
1265	 8.87355698583078E-02 
1266	 8.87661322691078E-02 
1267	 0.088810807866258 
1268	 8.88466926268839E-02 
1269	 8.88790270163432E-02 
1270	 8.89031420284641E-02 
1271	 8.89342874391766E-02 
1272	 8.89647548700552E-02 
1273	 8.89985777095694E-02 
1274	 8.90346532443375E-02 
1275	 8.90751642189819E-02 
1276	 8.91181278870425E-02 
1277	 0.089163525402563 
1278	 8.92101939294779E-02 
1279	 8.92636071684468E-02 
1280	 8.93239324300367E-02 
1281	 8.93814637999983E-02 
1282	 8.94388480585036E-02 
1283	 8.95061061921623E-02 
1284	 8.95847991060504E-02 
1285	 8.96478944365124E-02 
1286	 8.97123437053012E-02 
1287	 8.97996910661105E-02 
1288	 8.98744835146701E-02 
1289	 8.99450139645793E-02 
1290	 9.00129909285569E-02 
1291	 9.00776745029477E-02 
1292	 9.01483797517865E-02 
1293	 9.02142628840456E-02 
1294	 0.090284977780293 
1295	 9.03678521533245E-02 
1296	 9.04453987861353E-02 
1297	 9.05124354593303E-02 
1298	 9.05914790194932E-02 
1299	 9.06923739557868E-02 
1300	 9.07669836488907E-02 
1301	 9.08356528613775E-02 
1302	 9.09002764319506E-02 
1303	 9.09525966995022E-02 
1304	 9.09910111982159E-02 
1305	 9.10337522876653E-02 
1306	 9.10678664654404E-02 
1307	 9.11082801851546E-02 
1308	 9.11390739573109E-02 
1309	 9.11879540119489E-02 
1310	 9.12546461581079E-02 
1311	 0.091308891415508 
1312	 9.13722153135208E-02 
1313	 9.14176425566734E-02 
1314	 9.14515726003078E-02 
1315	 9.14813847449138E-02 
1316	 9.15003933546165E-02 
1317	 9.15201372706833E-02 
1318	 0.091531431487962 
1319	 9.15504073100758E-02 
1320	 9.15675540485327E-02 
1321	 9.15900150173739E-02 
1322	 9.16144234735902E-02 
1323	 9.16443741807847E-02 
1324	 9.16974898901072E-02 
1325	 9.17485344231612E-02 
1326	 9.17802296843823E-02 
1327	 9.18192316636526E-02 
1328	 9.18291783674982E-02 
1329	 9.18375519070668E-02 
1330	 9.18664450813085E-02 
1331	 9.19163847503097E-02 
1332	 9.19408006381555E-02 
1333	 9.19648508879591E-02 
1334	 9.19861313365856E-02 
1335	 9.19825701590784E-02 
1336	 9.20071068263759E-02 
1337	 9.20607093283793E-02 
1338	 9.20877106633806E-02 
1339	 9.21146745705875E-02 
1340	 9.21324093469736E-02 
1341	 9.21271032942757E-02 
1342	 9.21331808383449E-02 
1343	 9.21414109529211E-02 
1344	 9.21507880963237E-02 
1345	 0.092167273993953 
1346	 9.21758087521867E-02 
1347	 9.21699170381247E-02 
1348	 0.092174613997337 
1349	 9.21792901173821E-02 
1350	 9.21565336875815E-02 
1351	 9.21460845036795E-02 
1352	 9.21374444742425E-02 
1353	 9.21303268293419E-02 
1354	 0.092130569319777 
1355	 0.092119984966371 
1356	 0.092101317868647 
1357	 9.20859960029956E-02 
1358	 9.20528980467734E-02 
1359	 9.20419462728333E-02 
1360	 9.20439489515618E-02 
1361	 9.20564897696404E-02 
1362	 9.20811148593714E-02 
1363	 9.21102941191076E-02 
1364	 0.092154270338887 
1365	 9.21920500019425E-02 
1366	 9.22225720549904E-02 
1367	 9.22701678456063E-02 
1368	 9.23353398210076E-02 
1369	 9.23926701866049E-02 
1370	 9.24573930397236E-02 
1371	 9.25188701624679E-02 
1372	 9.25699375835868E-02 
1373	 0.092617887866782 
1374	 9.26498708315648E-02 
1375	 9.26825576546478E-02 
1376	 9.26943797635627E-02 
1377	 9.26796600929696E-02 
1378	 9.26687233355662E-02 
1379	 9.26430923452365E-02 
1380	 0.09263073722351 
1381	 9.26061474919207E-02 
1382	 9.26117988808021E-02 
1383	 9.26386439018985E-02 
1384	 9.26632715311013E-02 
1385	 9.27042898155976E-02 
1386	 0.092744802696295 
1387	 9.27908425401992E-02 
1388	 9.28334511132774E-02 
1389	 9.28908726342152E-02 
1390	 9.29267899676726E-02 
1391	 9.29439316327469E-02 
1392	 9.29439652097407E-02 
1393	 9.29231268204156E-02 
1394	 9.29180118370493E-02 
1395	 9.29210308061431E-02 
1396	 9.29277565688371E-02 
1397	 9.29502017346063E-02 
1398	 9.29977088403687E-02 
1399	 9.30130061430146E-02 
1400	 9.30289324231298E-02 
1401	 9.30387935594596E-02 
1402	 9.30206107118653E-02 
1403	 9.30285299749804E-02 
1404	 9.30406937793851E-02 
1405	 9.30668982360371E-02 
1406	 9.31192291722606E-02 
1407	 9.31508297943753E-02 
1408	 9.31833133195959E-02 
1409	 9.32156050860282E-02 
1410	 9.32270068428374E-02 
1411	 9.32544244607799E-02 
1412	 9.32940173842888E-02 
1413	 0.093336865296781 
1414	 9.33811813570215E-02 
1415	 9.34286519206562E-02 
1416	 0.093460209197233 
1417	 0.093490552083758 
1418	 9.35199502310088E-02 
1419	 9.35614832995652E-02 
1420	 9.36287464689975E-02 
1421	 0.093684799118642 
1422	 9.37290122949818E-02 
1423	 9.37711118254001E-02 
1424	 9.38046919865927E-02 
1425	 9.38197748308317E-02 
1426	 9.38511637030542E-02 
1427	 9.38767911285227E-02 
1428	 9.39194772285747E-02 
1429	 9.39780042923128E-02 
1430	 9.40312731536338E-02 
1431	 9.41010157823859E-02 
1432	 0.0941519642037 
1433	 9.41931264324055E-02 
1434	 9.42291373626916E-02 
1435	 9.42447463194608E-02 
1436	 9.42819733415015E-02 
1437	 9.43326712641543E-02 
1438	 9.43709818725009E-02 
1439	 9.44112292657352E-02 
1440	 9.44591195482668E-02 
1441	 9.44750105945031E-02 
1442	 9.44905016894863E-02 
1443	 9.45351199441835E-02 
1444	 0.094570448579557 
1445	 9.46220951876536E-02 
1446	 0.094665789403737 
1447	 9.46842499171928E-02 
1448	 9.47209588134592E-02 
1449	 9.47526979876581E-02 
1450	 9.47774808144651E-02 
1451	 9.48079920380818E-02 
1452	 9.48427901603844E-02 
1453	 9.48719445138359E-02 
1454	 9.48958579798892E-02 
1455	 9.49300125634068E-02 
1456	 9.49660452910632E-02 
1457	 0.09500073507152 
1458	 9.50461201954264E-02 
1459	 9.50823903635402E-02 
1460	 9.51098922753082E-02 
1461	 9.51432036142415E-02 
1462	 9.51743445287196E-02 
1463	 9.52100906657199E-02 
1464	 9.52512346094399E-02 
1465	 9.52908647816044E-02 
1466	 9.53409685460979E-02 
1467	 9.53726878220084E-02 
1468	 0.09539167037951 
1469	 0.095418074486863 
1470	 9.54393140579131E-02 
1471	 9.54521648220057E-02 
1472	 9.54933871999493E-02 
1473	 0.095510458074285 
1474	 9.55094383977989E-02 
1475	 9.55293384060967E-02 
1476	 9.55333290173365E-02 
1477	 9.55487023288275E-02 
1478	 9.56055135360401E-02 
1479	 9.56548479603389E-02 
1480	 9.56955404265582E-02 
1481	 9.57424530015996E-02 
1482	 9.57761140045603E-02 
1483	 9.57853932885026E-02 
1484	 9.58127753491084E-02 
1485	 9.58506555078362E-02 
1486	 9.58778712091029E-02 
1487	 9.58961809312054E-02 
1488	 9.59236415462572E-02 
1489	 9.59567562896165E-02 
1490	 9.59823237642641E-02 
1491	 9.60091723329711E-02 
1492	 9.60369033712149E-02 
1493	 9.60579847874276E-02 
1494	 9.60790268959184E-02 
1495	 9.61038842737613E-02 
1496	 9.61285213209204E-02 
1497	 9.61527659832468E-02 
1498	 0.096171607782552 
1499	 9.61879739892855E-02 
1500	 9.62066563779217E-02 
1501	 9.62117760609825E-02 
1502	 9.62323905509128E-02 
1503	 9.62683966718269E-02 
1504	 0.096302734531716 
1505	 9.63240349797918E-02 
1506	 9.63479763562726E-02 
1507	 9.63566284963072E-02 
1508	 9.63543940292907E-02 
1509	 0.09635998021306 
1510	 9.63715292913338E-02 
1511	 9.63910199700555E-02 
1512	 9.64123107659191E-02 
1513	 9.64238355558424E-02 
1514	 9.64377936400065E-02 
1515	 9.64735088462678E-02 
1516	 9.64951298469883E-02 
1517	 9.65037846634848E-02 
1518	 0.096513003994042 
1519	 9.65263463478969E-02 
1520	 9.65147514623607E-02 
1521	 9.65314863567141E-02 
1522	 9.65783757310901E-02 
1523	 9.65997933334189E-02 
1524	 9.66102714371848E-02 
1525	 9.66297880522626E-02 
1526	 0.096651701798215 
1527	 9.66683500904915E-02 
1528	 9.66852918072122E-02 
1529	 0.096702961290376 
1530	 9.67156819716099E-02 
1531	 9.67299950625529E-02 
1532	 9.67512837164475E-02 
1533	 9.67641185852774E-02 
1534	 0.096770414505243 
1535	 9.67761447993377E-02 
1536	 0.096768745376719 
1537	 9.67801081185825E-02 
1538	 9.68105007820843E-02 
1539	 9.68231102956553E-02 
1540	 0.096836571909318 
1541	 9.68502766363972E-02 
1542	 9.68411209392356E-02 
1543	 9.68501594878796E-02 
1544	 9.68879842493213E-02 
1545	 9.69045603116086E-02 
1546	 9.69155147475374E-02 
1547	 9.69225616094221E-02 
1548	 9.69241021771535E-02 
1549	 9.69154343355637E-02 
1550	 9.69247933526451E-02 
1551	 9.69332295621511E-02 
1552	 9.69395108077177E-02 
1553	 9.69635648326211E-02 
1554	 9.69894124094372E-02 
1555	 9.70095135263172E-02 
1556	 9.70279109189994E-02 
1557	 9.70382439722191E-02 
1558	 9.70368844895083E-02 
1559	 9.70450182717051E-02 
1560	 9.70514688016474E-02 
1561	 9.70581818535011E-02 
1562	 9.70596830952856E-02 
1563	 9.70549907499844E-02 
1564	 0.097066414502337 
1565	 9.70867569369669E-02 
1566	 9.70962892701905E-02 
1567	 9.71131376722712E-02 
1568	 9.71231492125714E-02 
1569	 9.71139545402359E-02 
1570	 0.097123582922113 
1571	 9.71535310349637E-02 
1572	 9.71581971946306E-02 
1573	 9.71560371068493E-02 
1574	 9.71541576569943E-02 
1575	 9.71326329766804E-02 
1576	 9.71301465264276E-02 
1577	 9.71378255839102E-02 
1578	 9.71451643391765E-02 
1579	 9.71658270690111E-02 
1580	 9.71711957482796E-02 
1581	 9.71728837335991E-02 
1582	 9.71701904822402E-02 
1583	 9.71486803606817E-02 
1584	 9.71447886296907E-02 
1585	 9.71421923962151E-02 
1586	 9.71505772009993E-02 
1587	 0.097177305458419 
1588	 9.71940102020345E-02 
1589	 9.72212132648601E-02 
1590	 9.72356400053797E-02 
1591	 9.72364844264877E-02 
1592	 0.097241213391168 
1593	 9.72434818810423E-02 
1594	 9.72417157573765E-02 
1595	 9.72376718649748E-02 
1596	 9.72334230690187E-02 
1597	 9.72239194029064E-02 
1598	 9.72148575845303E-02 
1599	 9.72060006658399E-02 
1600	 9.72003514216172E-02 
1601	 9.71902920849791E-02 
1602	 9.71886126869157E-02 
1603	 9.71969231811904E-02 
1604	 9.72023560011229E-02 
1605	 9.72071814868993E-02 
1606	 9.72195035037404E-02 
1607	 9.72446323588218E-02 
1608	 9.72509554001836E-02 
1609	 9.72693304845144E-02 
1610	 9.72769126496364E-02 
1611	 9.72736627833096E-02 
1612	 9.72796062378227E-02 
1613	 9.72756743054949E-02 
1614	 9.72814403923551E-02 
1615	 9.72735864759878E-02 
1616	 9.72565686479215E-02 
1617	 9.72704067260597E-02 
1618	 9.72858585904595E-02 
1619	 9.72950305228586E-02 
1620	 9.73089559732737E-02 
1621	 9.73153349409036E-02 
1622	 9.73049025174922E-02 
1623	 9.72991558219582E-02 
1624	 9.73014355842384E-02 
1625	 9.72955403634485E-02 
1626	 9.72735571612837E-02 
1627	 9.72715314910041E-02 
1628	 9.72792124950829E-02 
1629	 9.72829638202777E-02 
1630	 9.72944587141129E-02 
1631	 9.72966473957376E-02 
1632	 9.72909854111102E-02 
1633	 9.72976769523103E-02 
1634	 9.73090590644312E-02 
1635	 9.73105887633155E-02 
1636	 9.73159598503293E-02 
1637	 9.73174826900197E-02 
1638	 9.73065274541495E-02 
1639	 9.73069827079912E-02 
1640	 9.73190975015376E-02 
1641	 0.097315705607216 
1642	 9.73026996785194E-02 
1643	 9.73020704092808E-02 
1644	 9.72970862895659E-02 
1645	 9.73027936111332E-02 
1646	 9.73235539441241E-02 
1647	 9.73342494173238E-02 
1648	 9.73508586916537E-02 
1649	 9.73492696872328E-02 
1650	 9.73382767568404E-02 
1651	 9.73260187355373E-02 
1652	 9.72911536648178E-02 
1653	 9.72839695110908E-02 
1654	 9.72957845398414E-02 
1655	 9.72898037480935E-02 
1656	 0.097285658055496 
1657	 9.72831325840573E-02 
1658	 9.72696152001606E-02 
1659	 9.72636742730956E-02 
1660	 9.72650952450443E-02 
1661	 9.72712165878728E-02 
1662	 9.72786912006052E-02 
1663	 9.72849001365422E-02 
1664	 9.73024894593499E-02 
1665	 9.73102589236037E-02 
1666	 9.73093002249767E-02 
1667	 9.73092134379502E-02 
1668	 9.73116029928014E-02 
1669	 9.73065496981562E-02 
1670	 9.72943680916741E-02 
1671	 9.72824107890933E-02 
1672	 9.72587661211466E-02 
1673	 9.72546552116279E-02 
1674	 9.72563730112632E-02 
1675	 9.72641749771578E-02 
1676	 9.72955054792706E-02 
1677	 9.73037574620636E-02 
1678	 9.73025549180399E-02 
1679	 0.097304078270819 
1680	 0.097297194555413 
1681	 9.72931221928591E-02 
1682	 9.72910131101082E-02 
1683	 9.72895099670788E-02 
1684	 9.72854013745945E-02 
1685	 9.72838365929876E-02 
1686	 9.72782773506255E-02 
1687	 9.72901989207025E-02 
1688	 9.73121529203997E-02 
1689	 9.73314703092164E-02 
1690	 9.73820963034306E-02 
1691	 9.73858475959687E-02 
1692	 9.73525776149247E-02 
1693	 9.73426759395699E-02 
1694	 9.73140741992956E-02 
1695	 9.73053981256969E-02 
1696	 9.73276084082728E-02 
1697	 9.73276375036172E-02 
1698	 9.73130483070356E-02 
1699	 9.73119592955033E-02 
1700	 9.73079207183366E-02 
1701	 9.73147858763377E-02 
1702	 9.73430541096044E-02 
1703	 9.73494743769388E-02 
1704	 0.097351268829415 
1705	 9.73505697572868E-02 
1706	 9.73359118209715E-02 
1707	 9.73285400932318E-02 
1708	 9.73140844256864E-02 
1709	 9.73191734929827E-02 
1710	 9.73382343662528E-02 
1711	 9.73522738959701E-02 
1712	 9.73880189964374E-02 
1713	 9.73995273131347E-02 
1714	 9.73935633484874E-02 
1715	 9.73851088233319E-02 
1716	 9.73571113942594E-02 
1717	 9.73549293495067E-02 
1718	 9.73640859298194E-02 
1719	 9.73633989567784E-02 
1720	 9.73801632873703E-02 
1721	 9.73763994317594E-02 
1722	 9.73452746990665E-02 
1723	 9.73384480625667E-02 
1724	 9.73439971260902E-02 
1725	 9.73323813049192E-02 
1726	 9.73150203869567E-02 
1727	 9.73118838508382E-02 
1728	 9.73075510885054E-02 
1729	 9.72994012657854E-02 
1730	 9.73036084900333E-02 
1731	 9.73003021863061E-02 
1732	 0.097278691899393 
1733	 9.72725742585626E-02 
1734	 9.72880008387206E-02 
1735	 0.097279025148316 
1736	 0.097264320165583 
1737	 9.72374618564673E-02 
1738	 9.71917258985892E-02 
1739	 9.71577798062133E-02 
1740	 9.71063707407656E-02 
1741	 9.70942713483734E-02 
1742	 9.71051918915163E-02 
1743	 9.71052390217001E-02 
1744	 9.71276350425642E-02 
1745	 9.71350484759755E-02 
1746	 0.097131133830093 
1747	 9.71283992757589E-02 
1748	 9.71359092760484E-02 
1749	 9.71371404876842E-02 
1750	 9.71284378893817E-02 
1751	 9.71396197380473E-02 
1752	 9.71288552528329E-02 
1753	 0.097108579469244 
1754	 9.71039600056266E-02 
1755	 0.097085233655982 
1756	 9.70670039766596E-02 
1757	 0.097078902987093 
1758	 9.70913781449655E-02 
1759	 9.70748105230851E-02 
1760	 9.70712340737113E-02 
1761	 9.70816123589781E-02 
1762	 9.70609541962013E-02 
1763	 9.70620813526921E-02 
1764	 9.70994999680844E-02 
1765	 9.71091491411177E-02 
1766	 0.097107524815939 
1767	 0.09712380524631 
1768	 9.71102021194651E-02 
1769	 9.70827249971895E-02 
1770	 0.097091622947491 
1771	 9.70982195682141E-02 
1772	 9.70988243559645E-02 
1773	 9.71042388965513E-02 
1774	 0.097090180264261 
1775	 9.70733207785035E-02 
1776	 9.70597126002289E-02 
1777	 9.70491994376978E-02 
1778	 9.70525393257893E-02 
1779	 9.70332153000909E-02 
1780	 9.70079732890559E-02 
1781	 9.69911344033967E-02 
1782	 9.69560351790691E-02 
1783	 9.69792654131933E-02 
1784	 9.69891962367467E-02 
1785	 9.70168699134115E-02 
1786	 9.70237836675944E-02 
1787	 9.70031421136141E-02 
1788	 9.69849918664002E-02 
1789	 9.69487019938666E-02 
1790	 9.69379111836583E-02 
1791	 9.69482455353073E-02 
1792	 9.69524261195192E-02 
1793	 9.69776186921613E-02 
1794	 9.69692120698503E-02 
1795	 9.69225124205337E-02 
1796	 9.69157403503345E-02 
1797	 9.69151312046647E-02 
1798	 0.096915043242842 
1799	 9.69482396158722E-02 
1800	 0.096952706389814 
1801	 9.39887299982926E-02 
1802	 9.41242037376685E-02 
1803	 9.42525595104513E-02 
1804	 9.44016744648907E-02 
1805	 9.45290025364221E-02 
1806	 9.46369351434642E-02 
1807	 9.47485708050702E-02 
1808	 9.48352057096738E-02 
1809	 9.49281976809826E-02 
1810	 9.49765276992018E-02 
1811	 0.094982784748018 
1812	 9.49885935485955E-02 
1813	 9.49935574370622E-02 
1814	 9.49892809316425E-02 
1815	 9.49933536340765E-02 
1816	 9.50014988714493E-02 
1817	 9.50153929636296E-02 
1818	 9.50128191672319E-02 
1819	 9.50342241727168E-02 
1820	 9.50831005790955E-02 
1821	 0.095122244564398 
1822	 9.51309804010109E-02 
1823	 9.51588562481341E-02 
1824	 9.51635173850358E-02 
1825	 9.51594240448344E-02 
1826	 9.51572488135118E-02 
1827	 9.51332957054187E-02 
1828	 9.51170028386522E-02 
1829	 9.50956131049153E-02 
1830	 9.50731769761052E-02 
1831	 9.50417447993822E-02 
1832	 0.09503130604393 
1833	 9.50292862336076E-02 
1834	 9.50267356012847E-02 
1835	 9.50449776259839E-02 
1836	 9.50645408237209E-02 
1837	 9.50826224669706E-02 
1838	 9.50785691378734E-02 
1839	 9.50893788540995E-02 
1840	 9.50961362874174E-02 
1841	 9.51340223886794E-02 
1842	 9.51658322998471E-02 
1843	 9.52124010373413E-02 
1844	 9.52640302819662E-02 
1845	 9.52788229642727E-02 
1846	 9.53001173534044E-02 
1847	 0.095336252712326 
1848	 0.095351908031806 
1849	 9.53807293471942E-02 
1850	 9.54188785088891E-02 
1851	 9.54644154931671E-02 
1852	 9.54989205916985E-02 
1853	 9.55570139246309E-02 
1854	 9.56239272812811E-02 
1855	 9.56736482954137E-02 
1856	 9.57049099289009E-02 
1857	 9.57332384347047E-02 
1858	 9.57558952118003E-02 
1859	 9.57710299776423E-02 
1860	 9.57852743188718E-02 
1861	 9.58091215335272E-02 
1862	 9.58189711951536E-02 
1863	 0.095788659661306 
1864	 0.095737796088759 
1865	 9.56852718685077E-02 
1866	 9.56160080955814E-02 
1867	 9.55645451102528E-02 
1868	 9.55273436696094E-02 
1869	 9.54920701916415E-02 
1870	 9.54525662872649E-02 
1871	 9.54407776963501E-02 
1872	 9.54386251791345E-02 
1873	 9.54844547222092E-02 
1874	 9.55200258780514E-02 
1875	 9.55814981196608E-02 
1876	 9.56590067430613E-02 
1877	 9.57090103066581E-02 
1878	 9.57584736305631E-02 
1879	 9.58127712691902E-02 
1880	 9.58465752521018E-02 
1881	 9.58562376113988E-02 
1882	 0.095861331927769 
1883	 9.58618999586547E-02 
1884	 9.58497240955494E-02 
1885	 9.58125150653117E-02 
1886	 9.57920264755105E-02 
1887	 9.57633247836522E-02 
1888	 9.57075450456474E-02 
1889	 9.56582181717283E-02 
1890	 9.56091294776083E-02 
1891	 9.55658301290318E-02 
1892	 0.095537581681489 
1893	 9.54903879495334E-02 
1894	 9.54424623061183E-02 
1895	 9.53851392309048E-02 
1896	 9.53153346560751E-02 
1897	 9.52044542490405E-02 
1898	 9.50997843613339E-02 
1899	 9.50028143781144E-02 
1900	 9.48919748174704E-02 
1901	 9.48159400671767E-02 
1902	 0.094752230109001 
1903	 9.47084920726953E-02 
1904	 9.46656393083869E-02 
1905	 9.46374446748072E-02 
1906	 9.46216159722064E-02 
1907	 9.45904315496168E-02 
1908	 9.45600051731896E-02 
1909	 9.45339675447949E-02 
1910	 9.44770464235592E-02 
1911	 0.094427801947484 
1912	 9.43816044903306E-02 
1913	 9.43391107613268E-02 
1914	 9.42999019285308E-02 
1915	 9.42647097696585E-02 
1916	 9.42295024334761E-02 
1917	 9.42040324496236E-02 
1918	 9.41872335485875E-02 
1919	 9.41597592351574E-02 
1920	 9.41383070713203E-02 
1921	 9.41278683893529E-02 
1922	 9.41236408896529E-02 
1923	 9.41346876504721E-02 
1924	 9.41376722415676E-02 
1925	 9.41483255630701E-02 
1926	 9.41530244734026E-02 
1927	 9.41521201189342E-02 
1928	 9.41450695568079E-02 
1929	 9.41555636889206E-02 
1930	 9.41804193363865E-02 
1931	 9.41931229775377E-02 
1932	 9.41915318815592E-02 
1933	 9.41900993827328E-02 
1934	 9.41879077033129E-02 
1935	 9.41900967629212E-02 
1936	 9.42019295928805E-02 
1937	 9.42097049738604E-02 
1938	 9.42126619524895E-02 
1939	 0.094216796716063 
1940	 0.094214837659324 
1941	 9.42308985191199E-02 
1942	 9.42384168220078E-02 
1943	 0.094264000423593 
1944	 9.42952196611765E-02 
1945	 9.43096861144721E-02 
1946	 9.43314893653192E-02 
1947	 9.43643137875146E-02 
1948	 9.43722182350717E-02 
1949	 9.43607917866549E-02 
1950	 9.43731253417385E-02 
1951	 9.43816336169414E-02 
1952	 9.43866936490836E-02 
1953	 9.44332603003272E-02 
1954	 9.44560568611483E-02 
1955	 9.44741634063817E-02 
1956	 9.45133163025492E-02 
1957	 9.45472649843183E-02 
1958	 9.45892729739814E-02 
1959	 9.46238967692981E-02 
1960	 9.46508211185105E-02 
1961	 9.46868710348428E-02 
1962	 9.47212271702126E-02 
1963	 9.47616499174547E-02 
1964	 9.48087196051002E-02 
1965	 9.48673130628317E-02 
1966	 9.49148579876304E-02 
1967	 9.49518192267958E-02 
1968	 9.49879913312526E-02 
1969	 9.50051021425413E-02 
1970	 9.50436483000717E-02 
1971	 9.50959903842004E-02 
1972	 9.51433803149482E-02 
1973	 9.52122354964664E-02 
1974	 9.52563149132976E-02 
1975	 9.52920513813351E-02 
1976	 9.53010346202348E-02 
1977	 9.53246230033872E-02 
1978	 9.53449616959113E-02 
1979	 9.53755899347354E-02 
1980	 9.54284342647447E-02 
1981	 0.095483268168221 
1982	 9.55536742693582E-02 
1983	 9.56099490844688E-02 
1984	 9.56765583318646E-02 
1985	 9.57258782155048E-02 
1986	 9.57585472591261E-02 
1987	 9.57926552930796E-02 
1988	 9.58254516074496E-02 
1989	 9.58443321307564E-02 
1990	 0.095873153167152 
1991	 9.59125739214902E-02 
1992	 9.59353599663136E-02 
1993	 9.59486894942694E-02 
1994	 9.59814608723944E-02 
1995	 9.60049880895247E-02 
1996	 9.60400401417498E-02 
1997	 0.096113438087741 
1998	 9.61555878563078E-02 
1999	 9.61717916323111E-02 
2000	 9.62092298219527E-02 
2001	 9.62558087858542E-02 
2002	 9.62769291296063E-02 
2003	 9.63340846099625E-02 
2004	 9.63863650147531E-02 
2005	 9.64409818160496E-02 
2006	 9.65031835317889E-02 
2007	 0.096555157558842 
2008	 9.66004244343315E-02 
2009	 9.66551017833431E-02 
2010	 9.67087762240609E-02 
2011	 9.67596069798738E-02 
2012	 9.68173762090392E-02 
2013	 9.68712309884581E-02 
2014	 9.69165924002228E-02 
2015	 9.69640439527463E-02 
2016	 9.70236403989196E-02 
2017	 9.70741080612545E-02 
2018	 9.71315611644152E-02 
2019	 9.72049922286538E-02 
2020	 9.72497215949355E-02 
2021	 9.72781753119436E-02 
2022	 9.73175401870493E-02 
2023	 9.73354558482148E-02 
2024	 9.73715923250487E-02 
2025	 9.74292506538928E-02 
2026	 0.097478724043356 
2027	 9.75138667279334E-02 
2028	 9.75814439734962E-02 
2029	 0.097634249966852 
2030	 9.76828645146748E-02 
2031	 0.097733792350371 
2032	 9.77926792450056E-02 
2033	 9.78372207323306E-02 
2034	 9.78767574183439E-02 
2035	 9.79166744321038E-02 
2036	 9.79463428067183E-02 
2037	 9.79784889909744E-02 
2038	 9.80148954906254E-02 
2039	 9.80452484481613E-02 
2040	 9.80603159960311E-02 
2041	 9.80968156116818E-02 
2042	 9.81282032049285E-02 
2043	 9.81572438095561E-02 
2044	 9.81906257787702E-02 
2045	 9.82276807085244E-02 
2046	 9.82657379827514E-02 
2047	 9.83134973040206E-02 
2048	 9.83455698006225E-02 
2049	 9.83724043592068E-02 
2050	 9.84003693509726E-02 
2051	 9.84057509922037E-02 
2052	 9.84332249794827E-02 
2053	 9.84779243183785E-02 
2054	 9.85214846263896E-02 
2055	 9.85841235935133E-02 
2056	 9.86323442843851E-02 
2057	 9.86675841760466E-02 
2058	 9.86910822045175E-02 
2059	 9.87165914857795E-02 
2060	 0.098728273805631 
2061	 9.87479172196757E-02 
2062	 9.87684030851143E-02 
2063	 9.87961946772855E-02 
2064	 0.09883110977503 
2065	 9.88561568219612E-02 
2066	 9.88784586753405E-02 
2067	 0.098907407611509 
2068	 9.89319509193193E-02 
2069	 9.89561186382973E-02 
2070	 9.89905200075749E-02 
2071	 9.90461137516097E-02 
2072	 9.90754316428779E-02 
2073	 9.90879004896799E-02 
2074	 9.91199410945776E-02 
2075	 9.91501713393093E-02 
2076	 9.91850846829529E-02 
2077	 9.92432400504717E-02 
2078	 9.92818305276903E-02 
2079	 0.099303691150624 
2080	 9.93328978156949E-02 
2081	 9.93654425069478E-02 
2082	 9.93888592190099E-02 
2083	 9.93943603348091E-02 
2084	 9.94279951382212E-02 
2085	 0.09945469890611 
2086	 0.099474381015594 
2087	 9.95047350066254E-02 
2088	 9.95526377754409E-02 
2089	 9.95848989373046E-02 
2090	 9.96015515143353E-02 
2091	 9.96407150008163E-02 
2092	 0.099697504067318 
2093	 9.97349798772644E-02 
2094	 0.099775050591049 
2095	 9.98135155908954E-02 
2096	 9.98306953843691E-02 
2097	 9.98606928907289E-02 
2098	 9.99064548551758E-02 
2099	 9.99476080103142E-02 
2100	 9.99834296814077E-02 
2101	 0.100013363624329 
2102	 0.100051099673257 
2103	 0.100090940384852 
2104	 0.100126581316663 
2105	 0.100160787369927 
2106	 0.100202874506183 
2107	 0.100238706086083 
2108	 0.100285920469203 
2109	 0.100353498863616 
2110	 0.100409392046994 
2111	 0.100454070828497 
2112	 0.100515030397198 
2113	 0.100591604530406 
2114	 0.100655036584216 
2115	 0.100713987070719 
2116	 0.100779209545261 
2117	 0.100833248593839 
2118	 0.10086878081915 
2119	 0.100915849667473 
2120	 0.100970783500046 
2121	 0.101018471536787 
2122	 0.101069802458439 
2123	 0.101104123049081 
2124	 0.101139146464624 
2125	 0.101151096899126 
2126	 0.101115455417935 
2127	 0.101118661507172 
2128	 0.101124998753875 
2129	 0.101139135836229 
2130	 0.101181271819877 
2131	 0.101228032126395 
2132	 0.101252875171537 
2133	 0.101260451613741 
2134	 0.101282872456357 
2135	 0.101308247639572 
2136	 0.101321987417211 
2137	 0.101350038342037 
2138	 0.101344688205499 
2139	 0.101302002468598 
2140	 0.101280617824215 
2141	 0.101257253239788 
2142	 0.101226960101553 
2143	 0.101196895713269 
2144	 0.101170771860521 
2145	 0.101137206152372 
2146	 0.101103637109562 
2147	 0.101086342473748 
2148	 0.101055106299029 
2149	 0.101016000056077 
2150	 0.100967813536827 
2151	 0.100913607699864 
2152	 0.100843844360885 
2153	 0.100788018962465 
2154	 0.100729115940671 
2155	 0.100672911666578 
2156	 0.100626266408371 
2157	 0.100576310363488 
2158	 0.100527049824763 
2159	 0.100471227469641 
2160	 0.100422960601021 
2161	 0.100358656831646 
2162	 0.100274936878316 
2163	 0.100195753208016 
2164	 0.100126167608446 
2165	 0.10002374372841 
2166	 9.99326612322632E-02 
2167	 9.98448985010356E-02 
2168	 9.97487901886599E-02 
2169	 9.96337491278368E-02 
2170	 9.95459479503997E-02 
2171	 9.94613795594144E-02 
2172	 9.93889044306294E-02 
2173	 9.93472800177895E-02 
2174	 9.92806458053171E-02 
2175	 0.099203825710809 
2176	 9.91367133751483E-02 
2177	 9.90625478498302E-02 
2178	 9.89951040901612E-02 
2179	 9.89288835395254E-02 
2180	 9.88776563636955E-02 
2181	 9.88511099394557E-02 
2182	 9.88006889356215E-02 
2183	 9.87455779331144E-02 
2184	 9.87003137685047E-02 
2185	 9.86403024037483E-02 
2186	 9.85529171367865E-02 
2187	 9.84878811632422E-02 
2188	 9.84360268200202E-02 
2189	 9.83731789883227E-02 
2190	 9.82952723272909E-02 
2191	 9.82437668186618E-02 
2192	 9.82147089496781E-02 
2193	 9.81622167490489E-02 
2194	 9.81146732518615E-02 
2195	 9.80641814404037E-02 
2196	 9.79832609875886E-02 
2197	 9.79274230477529E-02 
2198	 9.78907824608935E-02 
2199	 9.78530993511945E-02 
2200	 9.78071853188172E-02 
2201	 9.77892574927483E-02 
2202	 9.78062561476816E-02 
2203	 9.78061770022548E-02 
2204	 9.77995565402101E-02 
2205	 0.097800764980809 
2206	 9.78006449618159E-02 
2207	 9.77908704876325E-02 
2208	 9.77721888521245E-02 
2209	 9.77666169937369E-02 
2210	 9.77428750284416E-02 
2211	 9.76778865069429E-02 
2212	 9.76437741338647E-02 
2213	 9.76212840322734E-02 
2214	 9.76039330049297E-02 
2215	 0.097592259269799 
2216	 9.75912505396499E-02 
2217	 9.76148843152155E-02 
2218	 9.76167426324262E-02 
2219	 9.76105569961612E-02 
2220	 9.76125335885581E-02 
2221	 9.76226097438323E-02 
2222	 9.75963756508522E-02 
2223	 0.097619872559352 
2224	 0.097627131434108 
2225	 9.76358313429378E-02 
2226	 9.76448959477367E-02 
2227	 9.76599134602111E-02 
2228	 9.76769697979531E-02 
2229	 9.76883494651242E-02 
2230	 9.77088268730578E-02 
2231	 0.097708775624355 
2232	 9.76736469701166E-02 
2233	 9.76835516307631E-02 
2234	 0.097719258633715 
2235	 9.77301141815301E-02 
2236	 9.77505304256319E-02 
2237	 9.77706598209679E-02 
2238	 9.77666848155293E-02 
2239	 9.77776273506104E-02 
2240	 0.097807090210496 
2241	 9.78351806907551E-02 
2242	 9.78567812100585E-02 
2243	 9.78869260321403E-02 
2244	 9.79227702299221E-02 
2245	 9.79827776955084E-02 
2246	 9.80208722591774E-02 
2247	 9.80252157121529E-02 
2248	 9.80372708262643E-02 
2249	 9.80247891416921E-02 
2250	 9.80403366752444E-02 
2251	 9.80683796692993E-02 
2252	 9.80889506025207E-02 
2253	 9.81173506725063E-02 
2254	 9.81450920932676E-02 
2255	 9.81773491117858E-02 
2256	 9.81915206669208E-02 
2257	 9.81940454506744E-02 
2258	 9.82067903368229E-02 
2259	 9.82161472903874E-02 
2260	 0.098214190210676 
2261	 9.82166059180223E-02 
2262	 9.82161838326926E-02 
2263	 0.098165753876244 
2264	 9.81813357102073E-02 
2265	 9.82523214769003E-02 
2266	 9.83003010207543E-02 
2267	 9.83895142522624E-02 
2268	 9.84490603842139E-02 
2269	 9.84904070327106E-02 
2270	 9.85032987371317E-02 
2271	 9.85391045400494E-02 
2272	 9.85464960709971E-02 
2273	 9.85443302834448E-02 
2274	 9.85694815327154E-02 
2275	 9.85920014769641E-02 
2276	 9.86308395035836E-02 
2277	 0.098627508610258 
2278	 9.86014453420462E-02 
2279	 9.85991428881301E-02 
2280	 0.098570258375488 
2281	 9.85765511303341E-02 
2282	 9.86339596577372E-02 
2283	 9.86563576170492E-02 
2284	 9.86537970221048E-02 
2285	 9.86771318714347E-02 
2286	 9.87135170671417E-02 
2287	 9.87330654175196E-02 
2288	 9.87526183835527E-02 
2289	 9.87851637692321E-02 
2290	 9.88066230760147E-02 
2291	 9.88473622568823E-02 
2292	 9.89369066608131E-02 
2293	 9.89793440199714E-02 
2294	 9.89838865297244E-02 
2295	 9.90109993463547E-02 
2296	 9.90353305600774E-02 
2297	 9.90502586033897E-02 
2298	 9.90900248277929E-02 
2299	 9.91093511851368E-02 
2300	 9.90615837044267E-02 
2301	 9.90601559780408E-02 
2302	 9.90685031768866E-02 
2303	 9.90389023892207E-02 
2304	 9.90729087485527E-02 
2305	 9.91319182807245E-02 
2306	 9.91495484264028E-02 
2307	 9.91607937025602E-02 
2308	 9.91728518173259E-02 
2309	 9.91502390928829E-02 
2310	 9.91539561088862E-02 
2311	 9.91769495022801E-02 
2312	 9.92041204799631E-02 
2313	 0.099227204200697 
2314	 9.92671136234125E-02 
2315	 9.93332069897638E-02 
2316	 9.93895401730775E-02 
2317	 9.94642235323858E-02 
2318	 9.95131135706886E-02 
2319	 9.95394420091376E-02 
2320	 9.95717808378156E-02 
2321	 9.95734274177294E-02 
2322	 9.96232299851743E-02 
2323	 9.97347010466688E-02 
2324	 9.97817717746104E-02 
2325	 0.099813796260163 
2326	 9.98411636183647E-02 
2327	 9.98183481167598E-02 
2328	 9.98214032772899E-02 
2329	 9.98363845850483E-02 
2330	 9.98694687843708E-02 
2331	 9.98913367704153E-02 
2332	 9.98804293886916E-02 
2333	 9.98785689875781E-02 
2334	 9.98928965263245E-02 
2335	 0.099915933488548 
2336	 9.99563593851763E-02 
2337	 0.100000645849057 
2338	 0.100056749479009 
2339	 0.100100156138799 
2340	 0.100128683673657 
2341	 0.100186617245939 
2342	 0.100228226835622 
2343	 0.100294530430053 
2344	 0.100374335204152 
2345	 0.100399749090846 
2346	 0.100391923504645 
2347	 0.100411791890242 
2348	 0.100391174515218 
2349	 0.10041710537979 
2350	 0.100511144589533 
2351	 0.10053169469435 
2352	 0.100516960977901 
2353	 0.100516546061109 
2354	 0.100475342475062 
2355	 0.100476772090743 
2356	 0.100544702553158 
2357	 0.100539792878335 
2358	 0.100481092106218 
2359	 0.100482925714445 
2360	 0.100463184238157 
2361	 0.100456583695817 
2362	 0.100543126930897 
2363	 0.100562228198741 
2364	 0.100514841785905 
2365	 0.100512974346515 
2366	 0.100489936223865 
2367	 0.100501349308853 
2368	 0.100579819855097 
2369	 0.100602370567901 
2370	 0.100603707063615 
2371	 0.100641942140077 
2372	 0.100619167263905 
2373	 0.100585194918688 
2374	 0.100630954857251 
2375	 0.100643488993206 
2376	 0.100656890524712 
2377	 0.100732357683374 
2378	 0.100730875598248 
2379	 0.100671113097784 
2380	 0.100634898895057 
2381	 0.100587966901816 
2382	 0.100510457654534 
2383	 0.100443550387002 
2384	 0.100415056159608 
2385	 0.10037070027014 
2386	 0.100391436947057 
2387	 0.100469490006018 
2388	 0.100526749049216 
2389	 0.100566230925797 
2390	 0.100572768387482 
2391	 0.100608992217917 
2392	 0.100669369819199 
2393	 0.100740376137894 
2394	 0.100804910719809 
2395	 0.100827971428623 
2396	 0.100853048421189 
2397	 0.100832048361988 
2398	 0.100742781732758 
2399	 0.100705583068456 
2400	 0.100665120943886 
2401	 0.100594771819071 
2402	 0.100618588431143 
2403	 0.100650786913695 
2404	 0.100624270906925 
2405	 0.10054295735632 
2406	 0.100483443676971 
2407	 0.100508198640007 
2408	 0.100491246789355 
2409	 0.100469783036793 
2410	 0.100409194274209 
2411	 0.100300882219268 
2412	 0.100368987468025 
2413	 0.100448753117958 
2414	 0.10044989925783 
2415	 0.100565875999094 
2416	 0.100622123961893 
2417	 0.100580745599098 
2418	 0.100557078125611 
2419	 0.100561527742947 
2420	 0.100504994444786 
2421	 0.100366925228457 
2422	 0.100324267357345 
2423	 0.100347420392278 
2424	 0.100324199128242 
2425	 0.10027079587972 
2426	 0.10028804221173 
2427	 0.100340747957035 
2428	 0.100351300281252 
2429	 0.100395071443686 
2430	 0.100380344130057 
2431	 0.100309163721445 
2432	 0.100265170084758 
2433	 0.100198512659769 
2434	 0.100212748729957 
2435	 0.100299254638186 
2436	 0.100234952146483 
2437	 0.100178727063395 
2438	 0.100114085663867 
2439	 9.98581775318579E-02 
2440	 9.97803034178269E-02 
2441	 9.98209620656647E-02 
2442	 9.97530498620014E-02 
2443	 9.97253285613955E-02 
2444	 9.96639464394956E-02 
2445	 9.95345712738149E-02 
2446	 9.95326240532416E-02 
2447	 9.95830164390504E-02 
2448	 0.099594106020436 
2449	 9.96508548801079E-02 
2450	 9.96040245237498E-02 
2451	 9.94776603156325E-02 
2452	 9.94678417360389E-02 
2453	 9.94926258023518E-02 
2454	 9.95353560332716E-02 
2455	 9.96367470784083E-02 
2456	 9.96537614021811E-02 
2457	 9.96358817620181E-02 
2458	 9.95952598090529E-02 
2459	 9.95066636288135E-02 
2460	 9.93913804998717E-02 
2461	 9.92377624518982E-02 
2462	 9.91311272618679E-02 
2463	 9.90232761296287E-02 
2464	 9.90128972862908E-02 
2465	 9.89917861433721E-02 
2466	 9.90768113360468E-02 
2467	 0.099355251739226 
2468	 0.099452404733019 
2469	 9.96248803854998E-02 
2470	 9.94672184507566E-02 
2471	 9.92857343426102E-02 
2472	 9.92921729963503E-02 
2473	 9.91881110717437E-02 
2474	 9.92647349312229E-02 
2475	 9.93648606700588E-02 
2476	 9.93155008740226E-02 
2477	 9.93520879523279E-02 
2478	 9.92401401645249E-02 
2479	 9.89620816371136E-02 
2480	 9.87310152199906E-02 
2481	 0.098646197616015 
2482	 9.85861760308019E-02 
2483	 9.86090402448706E-02 
2484	 9.87146528734291E-02 
2485	 9.85896740052677E-02 
2486	 9.85209046390364E-02 
2487	 9.85695754432129E-02 
2488	 9.84668602286251E-02 
2489	 9.84341228668851E-02 
2490	 9.84088094231159E-02 
2491	 9.83294839723978E-02 
2492	 9.83687013539582E-02 
2493	 9.83564979514618E-02 
2494	 9.82884425866205E-02 
2495	 9.83891673864465E-02 
2496	 0.098608545034293 
2497	 9.87403689842587E-02 
2498	 9.87814894025724E-02 
2499	 9.86507527621882E-02 
2500	 9.82395404924067E-02 
