Wavelength	LMW_2400005.asd
350	 4.76136202596677E-02 
351	 5.47165788870163E-02 
352	 4.86997366100114E-02 
353	 3.81413157370298E-02 
354	 4.30658424009657E-02 
355	 4.34320112253534E-02 
356	 4.08565159038786E-02 
357	 4.13913481810091E-02 
358	 4.59895639256202E-02 
359	 4.52393231118634E-02 
360	 0.042929262661174 
361	 4.92956375114216E-02 
362	 0.045137132064838 
363	 4.23761817660541E-02 
364	 4.56550636085417E-02 
365	 4.21548217415276E-02 
366	 4.16503142097858E-02 
367	 4.44335457324463E-02 
368	 0.047758531411396 
369	 4.85060170285268E-02 
370	 4.53631961200643E-02 
371	 4.18750565577214E-02 
372	 4.41705404232169E-02 
373	 4.76069292281666E-02 
374	 4.86957931641752E-02 
375	 4.70428383573801E-02 
376	 4.71161333146337E-02 
377	 4.56644044636235E-02 
378	 4.44053111038794E-02 
379	 4.56947342599433E-02 
380	 4.88002488081491E-02 
381	 4.81375163113401E-02 
382	 4.57932418708992E-02 
383	 4.89775675287332E-02 
384	 5.16237431408398E-02 
385	 5.03653299299376E-02 
386	 4.64408059247322E-02 
387	 4.89593879541788E-02 
388	 5.11750640002204E-02 
389	 5.07394114336295E-02 
390	 4.78701548524021E-02 
391	 4.74190685042916E-02 
392	 4.83839559562336E-02 
393	 4.98485377969224E-02 
394	 5.11908673059258E-02 
395	 5.04534935753674E-02 
396	 5.06006337021897E-02 
397	 5.28578779068327E-02 
398	 5.30749170083714E-02 
399	 5.29891293718613E-02 
400	 5.35483537233908E-02 
401	 5.49352408754337E-02 
402	 5.46626183505437E-02 
403	 5.40099555329977E-02 
404	 5.39761379781771E-02 
405	 5.49457704170697E-02 
406	 5.53714823311291E-02 
407	 5.54856034137805E-02 
408	 5.55420332579044E-02 
409	 5.46857058876486E-02 
410	 5.46254428231801E-02 
411	 5.50938585711947E-02 
412	 5.50802521577776E-02 
413	 5.57110172249009E-02 
414	 5.59668386088006E-02 
415	 5.55376810578153E-02 
416	 5.52090030291428E-02 
417	 5.50638244111289E-02 
418	 0.055666405512889 
419	 5.70110618770526E-02 
420	 5.70965572273909E-02 
421	 5.61814477010635E-02 
422	 5.55889567827602E-02 
423	 5.68715265441876E-02 
424	 5.65220211407106E-02 
425	 5.60905303172439E-02 
426	 5.64779648180298E-02 
427	 5.62136249903298E-02 
428	 5.59772518629664E-02 
429	 5.58824020218204E-02 
430	 5.58939942362107E-02 
431	 5.61752798708925E-02 
432	 5.59582753256637E-02 
433	 5.54757081983019E-02 
434	 5.58736154090516E-02 
435	 0.055958527822673 
436	 5.57743398100639E-02 
437	 0.055604685360118 
438	 5.56942119547163E-02 
439	 5.58466740258794E-02 
440	 5.59641463329061E-02 
441	 5.60153240679136E-02 
442	 5.60752965785055E-02 
443	 0.056151715584965 
444	 5.62623876250577E-02 
445	 5.64660770393795E-02 
446	 5.63841549098742E-02 
447	 5.63462323135614E-02 
448	 5.67230444774147E-02 
449	 5.71956913622488E-02 
450	 0.05732611597624 
451	 5.71838833238411E-02 
452	 5.72500577164748E-02 
453	 5.73349213067888E-02 
454	 5.73136521196161E-02 
455	 5.72556171949138E-02 
456	 5.77432911146611E-02 
457	 5.79268317763794E-02 
458	 5.77444050601996E-02 
459	 5.75431920614962E-02 
460	 5.77049722914173E-02 
461	 5.77273533239455E-02 
462	 5.75630188040074E-02 
463	 5.79148888573182E-02 
464	 5.81339726643734E-02 
465	 5.81010470273577E-02 
466	 5.79438752394169E-02 
467	 0.058136505862682 
468	 5.82251029660256E-02 
469	 5.81274599606379E-02 
470	 5.80865288807716E-02 
471	 5.82539562790867E-02 
472	 5.83518902280477E-02 
473	 5.82389460401887E-02 
474	 5.82567838397461E-02 
475	 5.83743366104413E-02 
476	 5.84628032077437E-02 
477	 5.83972876628069E-02 
478	 5.84877778566688E-02 
479	 5.86141641203547E-02 
480	 5.86465701446035E-02 
481	 5.84843936977229E-02 
482	 5.86948511762354E-02 
483	 5.90520180816353E-02 
484	 5.91688381811764E-02 
485	 5.90031051765591E-02 
486	 5.87823886731455E-02 
487	 5.86798363956748E-02 
488	 5.87888143514929E-02 
489	 5.88147460254522E-02 
490	 5.89327593065596E-02 
491	 5.91963786675184E-02 
492	 5.91448630216304E-02 
493	 5.91233991789725E-02 
494	 5.91258062358213E-02 
495	 5.90435822209196E-02 
496	 5.93283909953261E-02 
497	 0.059437342595609 
498	 5.92659691755532E-02 
499	 5.95000403907196E-02 
500	 5.94947100398717E-02 
501	 5.93394222298724E-02 
502	 5.93163819727247E-02 
503	 0.059576339937585 
504	 5.96447628614542E-02 
505	 5.95172916645189E-02 
506	 0.059616742323663 
507	 5.96911515661189E-02 
508	 5.98105914571925E-02 
509	 5.99688840928095E-02 
510	 5.97601280109728E-02 
511	 5.97845153071362E-02 
512	 5.99294300871106E-02 
513	 5.97733461164718E-02 
514	 5.98546219211884E-02 
515	 5.99550813151567E-02 
516	 5.99569820597874E-02 
517	 6.00658507860301E-02 
518	 6.00772365256906E-02 
519	 6.00246015214711E-02 
520	 6.00247597371862E-02 
521	 6.01962678257918E-02 
522	 6.03151752080613E-02 
523	 6.02864596970606E-02 
524	 6.01725901940306E-02 
525	 6.01530389154983E-02 
526	 6.02398766377735E-02 
527	 6.03671978065301E-02 
528	 6.03763058710865E-02 
529	 6.03748864031399E-02 
530	 6.04299464203525E-02 
531	 6.05608515237464E-02 
532	 0.060568713453551 
533	 6.05850744616779E-02 
534	 6.06807616809102E-02 
535	 6.07037785208474E-02 
536	 6.06721595961188E-02 
537	 6.06910550798878E-02 
538	 6.08543192454591E-02 
539	 6.09129218584138E-02 
540	 6.09283006833781E-02 
541	 6.09747601824935E-02 
542	 6.11096893793755E-02 
543	 6.11993492663901E-02 
544	 6.12844848744673E-02 
545	 6.14138737037361E-02 
546	 6.14593830768054E-02 
547	 6.15130487435114E-02 
548	 0.061610540692839 
549	 6.17301118473289E-02 
550	 6.17743543155326E-02 
551	 6.18768099178859E-02 
552	 6.21042134730717E-02 
553	 6.22472509918355E-02 
554	 6.23314190547734E-02 
555	 6.24502603773721E-02 
556	 6.27014820674824E-02 
557	 6.28272154519106E-02 
558	 0.062940302063208 
559	 6.31113772019817E-02 
560	 6.32618621139412E-02 
561	 0.063420157274346 
562	 6.36177762890555E-02 
563	 0.063881190053707 
564	 0.06420420119273 
565	 0.06449737246011 
566	 0.064769180541692 
567	 6.51387465911504E-02 
568	 6.54401328145647E-02 
569	 6.56963180179424E-02 
570	 6.59533580629146E-02 
571	 6.61602388803684E-02 
572	 6.64243432745938E-02 
573	 6.67610182890615E-02 
574	 6.71126057640605E-02 
575	 6.73974832125751E-02 
576	 6.77822044981351E-02 
577	 6.83334230650301E-02 
578	 6.88143356934425E-02 
579	 6.93479015112704E-02 
580	 6.98941020029719E-02 
581	 7.03692218771646E-02 
582	 7.08777086829425E-02 
583	 7.13473814601192E-02 
584	 7.17843001573313E-02 
585	 7.23274630840412E-02 
586	 7.29222115653452E-02 
587	 0.073541206301133 
588	 7.41517973900963E-02 
589	 7.46976635956702E-02 
590	 7.51576604156478E-02 
591	 7.55707127061178E-02 
592	 7.60220543854886E-02 
593	 7.63511651678574E-02 
594	 0.076661134513491 
595	 7.70719988591587E-02 
596	 7.76156990323733E-02 
597	 7.82044795939137E-02 
598	 7.88265058215264E-02 
599	 7.95057698290546E-02 
600	 8.01799414031486E-02 
601	 8.07497628279823E-02 
602	 8.11883061718791E-02 
603	 8.15972044764528E-02 
604	 8.20045396583052E-02 
605	 8.24573709217811E-02 
606	 0.082963548372124 
607	 8.33238193240704E-02 
608	 8.36326761501444E-02 
609	 8.39704388263405E-02 
610	 8.43782808355195E-02 
611	 8.47438547787554E-02 
612	 8.51113884404372E-02 
613	 0.085507817997186 
614	 8.57701314776924E-02 
615	 8.60139709556149E-02 
616	 8.62722154648213E-02 
617	 8.65156886887136E-02 
618	 8.67423729540599E-02 
619	 0.086944093139042 
620	 0.08713284003436 
621	 8.73694229504873E-02 
622	 8.75744828830529E-02 
623	 8.77555422845754E-02 
624	 8.79451589209086E-02 
625	 8.80848383575323E-02 
626	 8.82276039962426E-02 
627	 8.83915403579966E-02 
628	 8.85370038981176E-02 
629	 8.86949045556104E-02 
630	 8.88633521415582E-02 
631	 8.90184974604998E-02 
632	 8.90770319032372E-02 
633	 8.91921372978617E-02 
634	 8.93794481781393E-02 
635	 8.95376587530225E-02 
636	 8.96537745851992E-02 
637	 8.97809715256676E-02 
638	 8.99370000818951E-02 
639	 9.00133019006838E-02 
640	 9.01416613645553E-02 
641	 9.02972365335197E-02 
642	 9.04026488199496E-02 
643	 9.05895318717624E-02 
644	 9.07493091440412E-02 
645	 9.08441854077346E-02 
646	 9.09705122727491E-02 
647	 9.10744014846726E-02 
648	 9.11739502604362E-02 
649	 9.13093813068238E-02 
650	 9.15393889699954E-02 
651	 9.16910973841819E-02 
652	 0.091772557656884 
653	 9.19490785247486E-02 
654	 9.21848214188522E-02 
655	 9.23629321975833E-02 
656	 9.24519134437049E-02 
657	 9.26732166545961E-02 
658	 9.28924584769897E-02 
659	 9.30864485938963E-02 
660	 0.093281022268674 
661	 9.34653662438552E-02 
662	 9.36757711910857E-02 
663	 9.39040954919551E-02 
664	 9.40714033839587E-02 
665	 9.42778285327411E-02 
666	 9.44946814393216E-02 
667	 9.46853554491205E-02 
668	 9.49466110427122E-02 
669	 9.51837518360256E-02 
670	 9.53895238638904E-02 
671	 9.56299112364725E-02 
672	 9.58625751817896E-02 
673	 9.61294139101772E-02 
674	 9.64409315434034E-02 
675	 9.67054126229158E-02 
676	 9.69381981787024E-02 
677	 9.71859690753704E-02 
678	 9.74944586231594E-02 
679	 9.77776455547622E-02 
680	 9.80550374779614E-02 
681	 9.83493625189432E-02 
682	 9.86758890182449E-02 
683	 9.89473145189498E-02 
684	 9.92377412129415E-02 
685	 9.96055984003358E-02 
686	 9.98940052694927E-02 
687	 0.100165625636846 
688	 0.100480792267289 
689	 0.100877506014144 
690	 0.101176723680051 
691	 0.101474414806882 
692	 0.101841701671544 
693	 0.102225201851828 
694	 0.102552250366094 
695	 0.102862059000106 
696	 0.103222323920274 
697	 0.103588998893619 
698	 0.103947310307087 
699	 0.10430797062831 
700	 0.104703977503124 
701	 0.105032663171318 
702	 0.105376479325524 
703	 0.105796637613385 
704	 0.106185509688904 
705	 0.106543681961231 
706	 0.10689861154305 
707	 0.107281761429359 
708	 0.107611055951607 
709	 0.107979032928947 
710	 0.108403062161982 
711	 0.108769629252534 
712	 0.109131794582679 
713	 0.109477730150346 
714	 0.109801331768992 
715	 0.110178221755295 
716	 0.110543596017643 
717	 0.110877840089809 
718	 0.111199715299132 
719	 0.111547948334888 
720	 0.111887722499969 
721	 0.112194007436262 
722	 0.112479183005816 
723	 0.112783558684785 
724	 0.11309762530624 
725	 0.113395272410371 
726	 0.113675814077762 
727	 0.113907484390294 
728	 0.114110921110699 
729	 0.114351419298728 
730	 0.114586247267671 
731	 0.114812796911731 
732	 0.115025322035814 
733	 0.115192522968117 
734	 0.115339150248577 
735	 0.115490380192665 
736	 0.115659287843835 
737	 0.115785512516711 
738	 0.115905368632365 
739	 0.11602493114297 
740	 0.116110874384878 
741	 0.116197318237502 
742	 0.116265166316806 
743	 0.116298356305399 
744	 0.116316296068626 
745	 0.116342875422503 
746	 0.116371933166127 
747	 0.116379899847797 
748	 0.116346531177203 
749	 0.116281638995311 
750	 0.116216567614189 
751	 0.116201822149753 
752	 0.116142465905384 
753	 0.116063962117939 
754	 0.115997235859169 
755	 0.115902685746956 
756	 0.11578391974599 
757	 0.115665012893578 
758	 0.115570199958487 
759	 0.115445186302317 
760	 0.115265388724742 
761	 0.115056791863571 
762	 0.114900906895383 
763	 0.114758460811017 
764	 0.114605063240372 
765	 0.114426967265611 
766	 0.114231726170965 
767	 0.114030694485022 
768	 0.113834894854899 
769	 0.113652666758401 
770	 0.113487100059276 
771	 0.113297287770089 
772	 0.11307260219644 
773	 0.112843004862807 
774	 0.112619234776122 
775	 0.112410956409007 
776	 0.112210793523917 
777	 0.111967635960057 
778	 0.111749148402478 
779	 0.111541151950412 
780	 0.111300506572155 
781	 0.111060312678924 
782	 0.110843776060184 
783	 0.110634766685971 
784	 0.110381440419762 
785	 0.110158549807733 
786	 0.109945027696076 
787	 0.109719794445252 
788	 0.109508774568861 
789	 0.109294994674658 
790	 0.109063632869659 
791	 0.108806686137168 
792	 0.108542620937702 
793	 0.108302313741775 
794	 0.108091047881433 
795	 0.107889952404934 
796	 0.107667483630935 
797	 0.107447180354933 
798	 0.107248433818399 
799	 0.10706733904859 
800	 0.106862799095132 
801	 0.106630135238906 
802	 0.106389219418169 
803	 0.106198570438241 
804	 0.106007598975703 
805	 0.105803605500992 
806	 0.105603041249778 
807	 0.105432396238584 
808	 0.105264201273226 
809	 0.105080126860414 
810	 0.104882501604773 
811	 0.104722008187642 
812	 0.104545660998072 
813	 0.104329039868283 
814	 0.104192385494835 
815	 0.104044014644122 
816	 0.103878692642931 
817	 0.103724960165582 
818	 0.103587617745594 
819	 0.103435881144727 
820	 0.103264800578106 
821	 0.103096043689443 
822	 0.102961151025635 
823	 0.102843717546576 
824	 0.102718421427203 
825	 0.102559205195075 
826	 0.102443018582021 
827	 0.102335261489018 
828	 0.102199495076493 
829	 0.102097843555993 
830	 0.10199719717984 
831	 0.101898180640376 
832	 0.101812163626444 
833	 0.101710004247528 
834	 0.101624231388302 
835	 0.101526955355267 
836	 0.101349677541717 
837	 0.101313531937586 
838	 0.101329637435444 
839	 0.10129458853267 
840	 0.101173910006618 
841	 0.101057185379656 
842	 0.100967332069494 
843	 0.100911263135122 
844	 0.100925051075928 
845	 0.10087208480311 
846	 0.100763653069656 
847	 0.100681891927503 
848	 0.100649771059537 
849	 0.100612674386634 
850	 0.100567905131961 
851	 0.100555050837054 
852	 0.100513684118096 
853	 0.100477393635431 
854	 0.100454515785912 
855	 0.100399396866647 
856	 0.10041772084728 
857	 0.100455662317072 
858	 0.100451193513123 
859	 0.100417864244619 
860	 0.100424601391018 
861	 0.100464727158839 
862	 0.100499451601608 
863	 0.100500707086946 
864	 0.100463137110189 
865	 0.100440548027127 
866	 0.100497410420814 
867	 0.100513004605807 
868	 0.100524520478051 
869	 0.100556104874822 
870	 0.100601984838919 
871	 0.10063684594635 
872	 0.100730063249454 
873	 0.100867975911492 
874	 0.100885999680321 
875	 0.100900566859924 
876	 0.100889762849574 
877	 0.100860687127315 
878	 0.100985664121005 
879	 0.101119641986484 
880	 0.1011940459108 
881	 0.101207344261303 
882	 0.101299111504687 
883	 0.101393183615253 
884	 0.10147338374479 
885	 0.101563815602989 
886	 0.101696941875337 
887	 0.101815876618453 
888	 0.101906015443954 
889	 0.101996652904027 
890	 0.102103609849973 
891	 0.102226759653373 
892	 0.102358650729839 
893	 0.102485030337587 
894	 0.102550542644659 
895	 0.102638048940666 
896	 0.102795285800623 
897	 0.102957614228246 
898	 0.103134750337791 
899	 0.103301404204152 
900	 0.103434156385822 
901	 0.103522152041966 
902	 0.103700375070089 
903	 0.103918581682751 
904	 0.10407951211238 
905	 0.104181741512055 
906	 0.104314660383223 
907	 0.104516925489206 
908	 0.104770542057363 
909	 0.104948544653514 
910	 0.105102029388028 
911	 0.105286965107145 
912	 0.105536910330864 
913	 0.105768320887724 
914	 0.10600477791133 
915	 0.106242579416211 
916	 0.106450379206706 
917	 0.106642359143269 
918	 0.106837495033427 
919	 0.107043991062207 
920	 0.107258163991377 
921	 0.107520322006298 
922	 0.107786481195509 
923	 0.108037672971569 
924	 0.108312510698688 
925	 0.108578047782337 
926	 0.108856078035134 
927	 0.109131538360355 
928	 0.109304796052739 
929	 0.109529852193665 
930	 0.109831230815152 
931	 0.110182096916703 
932	 0.110528931791938 
933	 0.110886694950346 
934	 0.111183033279947 
935	 0.111393052572768 
936	 0.11168865925714 
937	 0.111974552628618 
938	 0.11231096855365 
939	 0.112740134227223 
940	 0.113082419309999 
941	 0.113378894784902 
942	 0.113666687953926 
943	 0.113977273438863 
944	 0.114316841390347 
945	 0.114614832889454 
946	 0.114941501637654 
947	 0.115369045625197 
948	 0.115685970387331 
949	 0.115980130920868 
950	 0.116303545317312 
951	 0.116668987497317 
952	 0.117022912839963 
953	 0.117424084177225 
954	 0.117825121240438 
955	 0.118157740818165 
956	 0.118590448617888 
957	 0.119039753222844 
958	 0.119435750322631 
959	 0.119764724448425 
960	 0.12020913971382 
961	 0.120588017336448 
962	 0.120947057511099 
963	 0.121417444746612 
964	 0.121624052083569 
965	 0.121957671878655 
966	 0.122449423767456 
967	 0.122888359793426 
968	 0.123439720421741 
969	 0.123860474394396 
970	 0.124186069922328 
971	 0.124621345122469 
972	 0.125056538960377 
973	 0.125427118211608 
974	 0.125760420916626 
975	 0.12614105718374 
976	 0.126588777042639 
977	 0.127043144331687 
978	 0.127462973456151 
979	 0.127844243268263 
980	 0.128271983572223 
981	 0.128691526406663 
982	 0.129092155589398 
983	 0.129512909788606 
984	 0.130068525461822 
985	 0.130508911452548 
986	 0.130785619828686 
987	 0.131048890752668 
988	 0.131697641732743 
989	 0.132088452626909 
990	 0.132314789270891 
991	 0.132778968516415 
992	 0.133264529623119 
993	 0.133544725540585 
994	 0.133807996765952 
995	 0.134306795736911 
996	 0.134731181224358 
997	 0.135005835124288 
998	 0.135378534573328 
999	 0.136042350905805 
1000	 0.136561587018323 
1001	 0.134220730393369 
1002	 0.134540323005626 
1003	 0.13485726609397 
1004	 0.135188811523312 
1005	 0.135492175723345 
1006	 0.13576758325605 
1007	 0.136037039654279 
1008	 0.136375890186961 
1009	 0.13661745454048 
1010	 0.136883177607415 
1011	 0.137168668466495 
1012	 0.137384198143103 
1013	 0.13761612778475 
1014	 0.137871807908988 
1015	 0.138109320323895 
1016	 0.138375650223348 
1017	 0.138641002392578 
1018	 0.138906823665894 
1019	 0.139125895231719 
1020	 0.139380290345075 
1021	 0.139600984593665 
1022	 0.139760842857911 
1023	 0.140019571929002 
1024	 0.140280599293459 
1025	 0.140540703129175 
1026	 0.140842715313158 
1027	 0.141061316070763 
1028	 0.141230826636545 
1029	 0.141425011020683 
1030	 0.141597387989016 
1031	 0.141781794688812 
1032	 0.141970026322648 
1033	 0.142216711373757 
1034	 0.142430131160041 
1035	 0.142602391821372 
1036	 0.142799105358418 
1037	 0.142981587571898 
1038	 0.143115545245374 
1039	 0.143294076970766 
1040	 0.143499980242694 
1041	 0.143677467161768 
1042	 0.143880041503205 
1043	 0.144050423638076 
1044	 0.144215752431293 
1045	 0.144337811401295 
1046	 0.144524421129072 
1047	 0.144731441876443 
1048	 0.144932875355622 
1049	 0.145159640694279 
1050	 0.145344774759643 
1051	 0.145499249618362 
1052	 0.14566751893683 
1053	 0.145852039650299 
1054	 0.146008135411374 
1055	 0.146134100662979 
1056	 0.146309111327725 
1057	 0.146474821625185 
1058	 0.146626198235302 
1059	 0.146790034200936 
1060	 0.146979215825004 
1061	 0.147147984278799 
1062	 0.147290544871161 
1063	 0.147432960156365 
1064	 0.147554451888326 
1065	 0.147627680828574 
1066	 0.14769201287703 
1067	 0.147786540311348 
1068	 0.14789646181388 
1069	 0.148013759745545 
1070	 0.148113677866864 
1071	 0.148198669024696 
1072	 0.148300006115653 
1073	 0.148401420973827 
1074	 0.148512349865582 
1075	 0.148656577501035 
1076	 0.148777896746164 
1077	 0.148823056344091 
1078	 0.148835592495838 
1079	 0.148863250656698 
1080	 0.148908064657708 
1081	 0.149006709144132 
1082	 0.149111578410525 
1083	 0.149187479095992 
1084	 0.149242272302566 
1085	 0.149296898573293 
1086	 0.149346353034567 
1087	 0.149377017260307 
1088	 0.149373021945321 
1089	 0.149422065913275 
1090	 0.149457878716704 
1091	 0.149524468398162 
1092	 0.149645018282624 
1093	 0.149717841468741 
1094	 0.1497678834877 
1095	 0.149834586300301 
1096	 0.149895720741162 
1097	 0.149941015157414 
1098	 0.150022663553084 
1099	 0.150150628011734 
1100	 0.150249340231024 
1101	 0.150360159209567 
1102	 0.150443779793072 
1103	 0.150517321941562 
1104	 0.150558221912251 
1105	 0.15058798190184 
1106	 0.150665671038183 
1107	 0.150773446668115 
1108	 0.150868566255279 
1109	 0.150998888135966 
1110	 0.151126056191801 
1111	 0.151231675690936 
1112	 0.151315278416657 
1113	 0.151430825883013 
1114	 0.151538397125353 
1115	 0.15166814399451 
1116	 0.151840391011128 
1117	 0.151980620462313 
1118	 0.152107220840925 
1119	 0.152242410439877 
1120	 0.152379399818998 
1121	 0.152489187959629 
1122	 0.152638811428215 
1123	 0.152795769820293 
1124	 0.152942247797068 
1125	 0.153099971491004 
1126	 0.153247082840361 
1127	 0.153374232181128 
1128	 0.153516721673057 
1129	 0.15366136256178 
1130	 0.153807598768843 
1131	 0.153965432874207 
1132	 0.154121764856609 
1133	 0.154287637448503 
1134	 0.154437427438889 
1135	 0.154598053235773 
1136	 0.154707205560933 
1137	 0.154829729551284 
1138	 0.154961911640624 
1139	 0.155078655850433 
1140	 0.15518712247808 
1141	 0.15530440024333 
1142	 0.155413582520681 
1143	 0.155532488698874 
1144	 0.155676265942019 
1145	 0.155800005361292 
1146	 0.155917610708563 
1147	 0.156017868748211 
1148	 0.156098362402536 
1149	 0.15618336556093 
1150	 0.156247504510944 
1151	 0.156338333203718 
1152	 0.156432982968191 
1153	 0.15654062431811 
1154	 0.156633714995282 
1155	 0.156732407990725 
1156	 0.156818268014475 
1157	 0.156890902084342 
1158	 0.156963584297869 
1159	 0.157029996201799 
1160	 0.157102901953272 
1161	 0.15717864936124 
1162	 0.157247205527569 
1163	 0.157324936408577 
1164	 0.157386059108957 
1165	 0.157425374575483 
1166	 0.157470126725101 
1167	 0.157530976667183 
1168	 0.157596184437403 
1169	 0.157666157563768 
1170	 0.157756977526045 
1171	 0.157830401622702 
1172	 0.157902437455475 
1173	 0.157963814468178 
1174	 0.158017809444307 
1175	 0.158070541826205 
1176	 0.158115985625793 
1177	 0.158157043711872 
1178	 0.15819851001751 
1179	 0.158234605582042 
1180	 0.158234571987107 
1181	 0.158277624375916 
1182	 0.15835317829366 
1183	 0.158421316433822 
1184	 0.158473052980254 
1185	 0.158544466136058 
1186	 0.158589479589924 
1187	 0.158591305521605 
1188	 0.158629406605536 
1189	 0.158687071466476 
1190	 0.158732630622062 
1191	 0.15878639174438 
1192	 0.158824405673806 
1193	 0.15883982263256 
1194	 0.158877911861047 
1195	 0.158919310899023 
1196	 0.15896123361027 
1197	 0.159032174485313 
1198	 0.159078914829005 
1199	 0.159114322406592 
1200	 0.159129526581055 
1201	 0.159164227445934 
1202	 0.159190847397101 
1203	 0.159231985990471 
1204	 0.159299847627497 
1205	 0.159335687888882 
1206	 0.159357824364062 
1207	 0.159385890970001 
1208	 0.159389858736734 
1209	 0.159421639593319 
1210	 0.15948305793292 
1211	 0.159522485787377 
1212	 0.159565103393348 
1213	 0.15960096199304 
1214	 0.159615117785127 
1215	 0.159639769589292 
1216	 0.1596677644977 
1217	 0.159705048761929 
1218	 0.159727294644931 
1219	 0.159740778962247 
1220	 0.159768880032551 
1221	 0.159791593647715 
1222	 0.159826075695345 
1223	 0.159881607740821 
1224	 0.159923898455627 
1225	 0.159963679433398 
1226	 0.160002165177635 
1227	 0.160044387248541 
1228	 0.160075090693019 
1229	 0.160088897245264 
1230	 0.160116693221044 
1231	 0.160141859653198 
1232	 0.160172184917582 
1233	 0.160208749245196 
1234	 0.160266416553605 
1235	 0.160295087707958 
1236	 0.16031845646725 
1237	 0.160329504145388 
1238	 0.160309701004587 
1239	 0.160325791086048 
1240	 0.160352998557515 
1241	 0.160374460945477 
1242	 0.160416122957933 
1243	 0.160442273292271 
1244	 0.160445248789514 
1245	 0.160466978083211 
1246	 0.160500914233274 
1247	 0.160530067109527 
1248	 0.160560723023057 
1249	 0.160599544490172 
1250	 0.160625990927934 
1251	 0.160637353596121 
1252	 0.16066614573388 
1253	 0.160702295112464 
1254	 0.160725001990618 
1255	 0.160749862220011 
1256	 0.160772084070261 
1257	 0.160783096494893 
1258	 0.160794511398849 
1259	 0.160810824868416 
1260	 0.160823352130145 
1261	 0.160812800701863 
1262	 0.160829523160334 
1263	 0.160873989619842 
1264	 0.16089954137974 
1265	 0.160926519566828 
1266	 0.160956595907303 
1267	 0.160983506975491 
1268	 0.160989483695966 
1269	 0.161027314287884 
1270	 0.161089693990237 
1271	 0.16112951204941 
1272	 0.161173762639089 
1273	 0.161209531700403 
1274	 0.161223935098904 
1275	 0.161261972482113 
1276	 0.161309917502277 
1277	 0.161358060736852 
1278	 0.161412323367799 
1279	 0.16146968948941 
1280	 0.161533688479611 
1281	 0.161593111378378 
1282	 0.161660902132323 
1283	 0.161720983324432 
1284	 0.161783102233371 
1285	 0.161821079280571 
1286	 0.161862113019253 
1287	 0.161918229329905 
1288	 0.16196862992082 
1289	 0.162028803577269 
1290	 0.16206419651195 
1291	 0.162091830876428 
1292	 0.16210572363286 
1293	 0.162094028940451 
1294	 0.16209698044641 
1295	 0.162106882442516 
1296	 0.16209891723105 
1297	 0.162085956977488 
1298	 0.162065460439659 
1299	 0.162025397914273 
1300	 0.161991229367806 
1301	 0.161966741698538 
1302	 0.161925343360348 
1303	 0.161863132961059 
1304	 0.16181916471086 
1305	 0.16177334805148 
1306	 0.161696008774406 
1307	 0.161623345196037 
1308	 0.161547645507804 
1309	 0.161474755363123 
1310	 0.161391489546221 
1311	 0.161325083655918 
1312	 0.161274278155224 
1313	 0.161206390050452 
1314	 0.161137429414222 
1315	 0.161068049727242 
1316	 0.160977631508957 
1317	 0.160917258866129 
1318	 0.160874417400472 
1319	 0.160829319860109 
1320	 0.160791623514811 
1321	 0.160767697477933 
1322	 0.160753819593853 
1323	 0.16073592045645 
1324	 0.160743741953663 
1325	 0.160734731075271 
1326	 0.160718479982116 
1327	 0.160724792168599 
1328	 0.160724810792553 
1329	 0.160747728484522 
1330	 0.16078538980391 
1331	 0.16084330265884 
1332	 0.160894756774164 
1333	 0.160958745958903 
1334	 0.16102136761979 
1335	 0.161079663289179 
1336	 0.161149710783438 
1337	 0.16122987513649 
1338	 0.161312682644397 
1339	 0.161410131108359 
1340	 0.161490608925804 
1341	 0.161565533707605 
1342	 0.161642198646154 
1343	 0.161711866395653 
1344	 0.161779257905398 
1345	 0.161859108081157 
1346	 0.161921957803483 
1347	 0.16198085166961 
1348	 0.162045179066185 
1349	 0.162106824792451 
1350	 0.162165774023027 
1351	 0.162210095337996 
1352	 0.16224506017873 
1353	 0.162276883578547 
1354	 0.162292478641349 
1355	 0.162316516098846 
1356	 0.162338530851118 
1357	 0.16237144618082 
1358	 0.162395457898908 
1359	 0.162451343181697 
1360	 0.162526360328981 
1361	 0.16260284460734 
1362	 0.162695619629729 
1363	 0.162800461256418 
1364	 0.162915892557243 
1365	 0.163033544399808 
1366	 0.163166203896146 
1367	 0.163295145842041 
1368	 0.163433585886669 
1369	 0.163573373517624 
1370	 0.163706451025214 
1371	 0.163832426540815 
1372	 0.163931268895573 
1373	 0.164007244532971 
1374	 0.164071812298369 
1375	 0.16413396984449 
1376	 0.16415264861675 
1377	 0.16414361066636 
1378	 0.164117190663907 
1379	 0.164035019264297 
1380	 0.16399333071014 
1381	 0.163933741763945 
1382	 0.163917964906063 
1383	 0.163940848901739 
1384	 0.163960238594154 
1385	 0.164017355861378 
1386	 0.164043234419613 
1387	 0.164061080549342 
1388	 0.164068594272463 
1389	 0.16406641017647 
1390	 0.164053016558711 
1391	 0.164013337288528 
1392	 0.163961971870709 
1393	 0.163878349109601 
1394	 0.163779625035945 
1395	 0.163683305946268 
1396	 0.163580829431227 
1397	 0.163504281631516 
1398	 0.163440894043805 
1399	 0.163375035987732 
1400	 0.163339416395388 
1401	 0.163264645449371 
1402	 0.163164743660165 
1403	 0.163076030477948 
1404	 0.162965460753266 
1405	 0.162883196357617 
1406	 0.162814140185923 
1407	 0.162750760126949 
1408	 0.162711717075746 
1409	 0.162656160606955 
1410	 0.162590344814513 
1411	 0.162539557176276 
1412	 0.162491884501418 
1413	 0.162439293737078 
1414	 0.162409551519901 
1415	 0.162388082607921 
1416	 0.162334981780027 
1417	 0.162277656669868 
1418	 0.162222679116441 
1419	 0.162163560539281 
1420	 0.162155258650267 
1421	 0.162167360121896 
1422	 0.1621766057241 
1423	 0.162185340207739 
1424	 0.162175298034992 
1425	 0.162149557924487 
1426	 0.162123344274255 
1427	 0.162072757478735 
1428	 0.162054359973309 
1429	 0.16204390374501 
1430	 0.162036815791355 
1431	 0.16206089443147 
1432	 0.162059510393315 
1433	 0.162037542587316 
1434	 0.162031167158163 
1435	 0.162013839835307 
1436	 0.162018712868036 
1437	 0.162054756154467 
1438	 0.162069776305468 
1439	 0.162087478994549 
1440	 0.162100786756633 
1441	 0.162082149823569 
1442	 0.16206704255979 
1443	 0.162069750271972 
1444	 0.162068628653376 
1445	 0.162089030684438 
1446	 0.162113951291361 
1447	 0.162126111175467 
1448	 0.162143208120637 
1449	 0.162151054839632 
1450	 0.16217061193705 
1451	 0.162174901131639 
1452	 0.162160193994737 
1453	 0.162174433771911 
1454	 0.162194109239464 
1455	 0.162206638744317 
1456	 0.162243930445533 
1457	 0.162259511003216 
1458	 0.162243655760483 
1459	 0.162261570853887 
1460	 0.162288799135065 
1461	 0.162320930461123 
1462	 0.162371879609297 
1463	 0.16241744263352 
1464	 0.16247838526204 
1465	 0.162513448965442 
1466	 0.162535868911187 
1467	 0.162556934984061 
1468	 0.162543210072457 
1469	 0.162558909000423 
1470	 0.162584904159907 
1471	 0.162631335833875 
1472	 0.162680166892266 
1473	 0.162719474202788 
1474	 0.162732575837409 
1475	 0.162737697834681 
1476	 0.162751913429224 
1477	 0.162780272339126 
1478	 0.162833860578065 
1479	 0.162883238629287 
1480	 0.162934004399413 
1481	 0.16298627187854 
1482	 0.163024016229732 
1483	 0.163053241481866 
1484	 0.16309181160625 
1485	 0.1631143227583 
1486	 0.163157400758627 
1487	 0.163223488377792 
1488	 0.163270204445072 
1489	 0.163315807391976 
1490	 0.163361917949546 
1491	 0.163406943984821 
1492	 0.163439500832118 
1493	 0.163460912211888 
1494	 0.163495193971033 
1495	 0.163519333267683 
1496	 0.163553354072472 
1497	 0.16361299764729 
1498	 0.163652832542681 
1499	 0.163681586257256 
1500	 0.163715117834812 
1501	 0.163741620377537 
1502	 0.163771573079382 
1503	 0.163802422147053 
1504	 0.16383765666599 
1505	 0.163878402933984 
1506	 0.163915749098149 
1507	 0.163959666993169 
1508	 0.163991943422863 
1509	 0.163997970276019 
1510	 0.164003988253798 
1511	 0.164006257971111 
1512	 0.1640068085598 
1513	 0.164020842483998 
1514	 0.164043664446328 
1515	 0.164074244070575 
1516	 0.164106153407047 
1517	 0.164145644649768 
1518	 0.164203836681743 
1519	 0.164239120713223 
1520	 0.164265748309127 
1521	 0.164299048684553 
1522	 0.164323271998671 
1523	 0.164353596532942 
1524	 0.164395333757792 
1525	 0.164424845823541 
1526	 0.164449414836553 
1527	 0.164468906554662 
1528	 0.164483110813068 
1529	 0.164497344000313 
1530	 0.164504650905599 
1531	 0.164516981413022 
1532	 0.164530696381137 
1533	 0.164542183082816 
1534	 0.164546897995208 
1535	 0.164565458824868 
1536	 0.16459753680789 
1537	 0.164616805955603 
1538	 0.164640090628729 
1539	 0.164658327219462 
1540	 0.16465223953858 
1541	 0.16467243295796 
1542	 0.16471106949902 
1543	 0.164745412433622 
1544	 0.164802992232167 
1545	 0.164833197626483 
1546	 0.164847088612066 
1547	 0.164857457304351 
1548	 0.164861144184523 
1549	 0.164871736543218 
1550	 0.164890891115461 
1551	 0.164923446082638 
1552	 0.164937833160208 
1553	 0.164935534771408 
1554	 0.164945959271218 
1555	 0.16493517588972 
1556	 0.164920373844342 
1557	 0.164932237311709 
1558	 0.164932694208316 
1559	 0.164921428308179 
1560	 0.164924724120065 
1561	 0.164939273515596 
1562	 0.164945007934804 
1563	 0.164952041094318 
1564	 0.164961142796076 
1565	 0.164966626142388 
1566	 0.164976602577541 
1567	 0.164988282597065 
1568	 0.165003633580341 
1569	 0.165027124728956 
1570	 0.165039748982726 
1571	 0.165056115985742 
1572	 0.16506066252828 
1573	 0.165052523153461 
1574	 0.165044026368305 
1575	 0.165023444934987 
1576	 0.165017557343165 
1577	 0.165011516629892 
1578	 0.165015527984533 
1579	 0.165032941465393 
1580	 0.165048944886653 
1581	 0.165080179085833 
1582	 0.165086035690138 
1583	 0.165069999634179 
1584	 0.165079363230242 
1585	 0.16509033301787 
1586	 0.165096101569331 
1587	 0.16512058146815 
1588	 0.165133708583381 
1589	 0.165124790904976 
1590	 0.165127818948051 
1591	 0.165146181977641 
1592	 0.165154336677068 
1593	 0.165165428616009 
1594	 0.165159059984886 
1595	 0.165132466687828 
1596	 0.165117296140523 
1597	 0.165087588556008 
1598	 0.165073050475942 
1599	 0.165081129722173 
1600	 0.165077750855247 
1601	 0.165061716055309 
1602	 0.16506479200892 
1603	 0.165085536290132 
1604	 0.165094677055674 
1605	 0.165103932588953 
1606	 0.165122740093463 
1607	 0.165151845149635 
1608	 0.165150540162662 
1609	 0.165168050920811 
1610	 0.165189139669495 
1611	 0.165167014847498 
1612	 0.165144791200044 
1613	 0.165144758098737 
1614	 0.165139570330877 
1615	 0.165147257178215 
1616	 0.165166955005909 
1617	 0.165162340382052 
1618	 0.165158401001674 
1619	 0.165167207392096 
1620	 0.165175446931156 
1621	 0.165195986605982 
1622	 0.165235921212231 
1623	 0.165249611473024 
1624	 0.165264158576505 
1625	 0.165259653829629 
1626	 0.165231734335243 
1627	 0.165218875989126 
1628	 0.165198009829929 
1629	 0.16519341265948 
1630	 0.165196785313874 
1631	 0.165204681973013 
1632	 0.165230488957367 
1633	 0.165229868420254 
1634	 0.165221304919625 
1635	 0.165215666240443 
1636	 0.165190787358819 
1637	 0.165187671117559 
1638	 0.165203173072992 
1639	 0.165202809327928 
1640	 0.165202236204315 
1641	 0.165198589526908 
1642	 0.165187072262454 
1643	 0.165180061198358 
1644	 0.165176751619807 
1645	 0.165166158672918 
1646	 0.165147935679594 
1647	 0.165140470532411 
1648	 0.165132444425839 
1649	 0.165130843330226 
1650	 0.165146017429135 
1651	 0.165140868614128 
1652	 0.165128063351375 
1653	 0.165113956739712 
1654	 0.165082383104004 
1655	 0.1650735845229 
1656	 0.165078563485517 
1657	 0.165073816200712 
1658	 0.165079720068541 
1659	 0.165070237330443 
1660	 0.165042496906256 
1661	 0.165029700102376 
1662	 0.165013595276633 
1663	 0.165011770006808 
1664	 0.165032446932613 
1665	 0.165027573113967 
1666	 0.165020976755985 
1667	 0.165006384998986 
1668	 0.164959569088358 
1669	 0.164950320610465 
1670	 0.164953616192231 
1671	 0.164966990444115 
1672	 0.165013947201281 
1673	 0.165030544043087 
1674	 0.165044420805265 
1675	 0.165047099264613 
1676	 0.165024197888999 
1677	 0.165021113415968 
1678	 0.165030066514666 
1679	 0.165020600955377 
1680	 0.164998855538912 
1681	 0.164996849436492 
1682	 0.164989398633776 
1683	 0.164993388692375 
1684	 0.165017895327705 
1685	 0.165041440060292 
1686	 0.165069535079951 
1687	 0.165088575850537 
1688	 0.165120276696709 
1689	 0.165133142793614 
1690	 0.16512143122421 
1691	 0.165122051378689 
1692	 0.1651270410257 
1693	 0.165122412038521 
1694	 0.165117155118382 
1695	 0.165103971483459 
1696	 0.1650759965909 
1697	 0.165059049178651 
1698	 0.165034363011957 
1699	 0.16503263442587 
1700	 0.165044244272144 
1701	 0.165059921203732 
1702	 0.165100568671772 
1703	 0.165116739248083 
1704	 0.165124476346159 
1705	 0.165133769579674 
1706	 0.165133551578622 
1707	 0.165138565935954 
1708	 0.165151419364512 
1709	 0.165152970476616 
1710	 0.165146628538336 
1711	 0.165137655102438 
1712	 0.165125480583561 
1713	 0.165109578216874 
1714	 0.165078647428744 
1715	 0.165075017227365 
1716	 0.165079971845492 
1717	 0.165086041198344 
1718	 0.165120110312719 
1719	 0.165122363731241 
1720	 0.165105780279561 
1721	 0.165096412678482 
1722	 0.165079003087529 
1723	 0.165062731606126 
1724	 0.165051732827501 
1725	 0.165030341535155 
1726	 0.164999858935432 
1727	 0.164974173684168 
1728	 0.164939603206483 
1729	 0.164922445196893 
1730	 0.164909052325354 
1731	 0.164905440769422 
1732	 0.164922590724201 
1733	 0.164923454116615 
1734	 0.164924559161932 
1735	 0.164921905297351 
1736	 0.164921181041487 
1737	 0.164893369482744 
1738	 0.164857589637089 
1739	 0.164810947857136 
1740	 0.164716811459582 
1741	 0.16468451948019 
1742	 0.164677684511469 
1743	 0.164662920396794 
1744	 0.164682348982851 
1745	 0.16467382220768 
1746	 0.164650535544815 
1747	 0.164630871858755 
1748	 0.164589285393548 
1749	 0.164551082660167 
1750	 0.164522138502078 
1751	 0.164507193963252 
1752	 0.164479726075879 
1753	 0.164445587728645 
1754	 0.164421577857299 
1755	 0.16439502998174 
1756	 0.164381292028029 
1757	 0.164377127757459 
1758	 0.164361297458051 
1759	 0.164341546111653 
1760	 0.164327512555701 
1761	 0.164302441438655 
1762	 0.164284336952732 
1763	 0.164277749450352 
1764	 0.164284727818497 
1765	 0.164304333228564 
1766	 0.164295655657023 
1767	 0.164265221786925 
1768	 0.164227329059335 
1769	 0.164196879600224 
1770	 0.164186308844211 
1771	 0.164196266794913 
1772	 0.164200403023459 
1773	 0.164196437699763 
1774	 0.164202998243757 
1775	 0.16420489750042 
1776	 0.164204627099137 
1777	 0.164186797046486 
1778	 0.164181767972875 
1779	 0.164183875441377 
1780	 0.164177512830661 
1781	 0.164188497848863 
1782	 0.164173941534997 
1783	 0.164157197264607 
1784	 0.164151830215229 
1785	 0.164165774025488 
1786	 0.16416974523384 
1787	 0.164169241009253 
1788	 0.164149646678913 
1789	 0.164106180695206 
1790	 0.164088643535134 
1791	 0.164068064316935 
1792	 0.164068998065723 
1793	 0.164114036334376 
1794	 0.164119698443143 
1795	 0.164105025027483 
1796	 0.164093545608819 
1797	 0.164062272623589 
1798	 0.164053954791039 
1799	 0.164061995693135 
1800	 0.164060676271801 
1801	 0.162190062599553 
1802	 0.162369275466212 
1803	 0.162589929697021 
1804	 0.162844691949963 
1805	 0.163073825468072 
1806	 0.163299151146658 
1807	 0.163525782406718 
1808	 0.163691393780462 
1809	 0.163813122388961 
1810	 0.163911867364755 
1811	 0.16397992241305 
1812	 0.164008754257751 
1813	 0.16401335378934 
1814	 0.164038710755193 
1815	 0.164080034070255 
1816	 0.164115720944024 
1817	 0.164141260118253 
1818	 0.164180244933227 
1819	 0.164196680772593 
1820	 0.164193819073899 
1821	 0.16418056245447 
1822	 0.164177464849631 
1823	 0.16417295269208 
1824	 0.164167562735824 
1825	 0.164160011150116 
1826	 0.164164645273546 
1827	 0.164169600875163 
1828	 0.1641522969961 
1829	 0.164111210607669 
1830	 0.164085450790872 
1831	 0.164051977171216 
1832	 0.164026612824206 
1833	 0.16398466222271 
1834	 0.163976143331076 
1835	 0.163975128218312 
1836	 0.16395426885045 
1837	 0.163967239649767 
1838	 0.164002400278498 
1839	 0.164053010257583 
1840	 0.164131436998172 
1841	 0.1641912197937 
1842	 0.164225067561345 
1843	 0.164272219334859 
1844	 0.164292727410671 
1845	 0.164290412592025 
1846	 0.164321566464759 
1847	 0.164381275232047 
1848	 0.164417351454348 
1849	 0.164468659280523 
1850	 0.164527558776753 
1851	 0.164607592899837 
1852	 0.16466318200228 
1853	 0.164706955495902 
1854	 0.164728275364875 
1855	 0.16472885499745 
1856	 0.164734882113104 
1857	 0.164755671812409 
1858	 0.164785799997128 
1859	 0.164835200617127 
1860	 0.164833788520783 
1861	 0.164805050004271 
1862	 0.164736206396454 
1863	 0.164656865619681 
1864	 0.164528957496001 
1865	 0.164403973858248 
1866	 0.164260774886147 
1867	 0.164112816027538 
1868	 0.16397775293045 
1869	 0.163867176480395 
1870	 0.163794672358954 
1871	 0.163740401141347 
1872	 0.163706734525048 
1873	 0.163723181503084 
1874	 0.163745082978366 
1875	 0.163777835597118 
1876	 0.163831874589193 
1877	 0.163861464799204 
1878	 0.163859650106128 
1879	 0.163840428700472 
1880	 0.163771168251674 
1881	 0.16366605441429 
1882	 0.163511010842812 
1883	 0.163312459591638 
1884	 0.163059237839915 
1885	 0.162797987549037 
1886	 0.162529155130264 
1887	 0.162237853816708 
1888	 0.161948891326952 
1889	 0.161641827872918 
1890	 0.161322831380954 
1891	 0.160988164924789 
1892	 0.160653910339068 
1893	 0.160287469906645 
1894	 0.159900591477584 
1895	 0.159479336823062 
1896	 0.159043860970207 
1897	 0.15859427210836 
1898	 0.158134606227302 
1899	 0.157670818377931 
1900	 0.15723000773299 
1901	 0.156822230845002 
1902	 0.156450289732392 
1903	 0.156135183464843 
1904	 0.155822348163257 
1905	 0.155534430498133 
1906	 0.155256470133146 
1907	 0.155008678989893 
1908	 0.154729062668556 
1909	 0.15448282615976 
1910	 0.15427545701386 
1911	 0.154042662912225 
1912	 0.15382984942874 
1913	 0.153615586903651 
1914	 0.153381376286689 
1915	 0.153180545176871 
1916	 0.15299522891184 
1917	 0.152824252266491 
1918	 0.152673690730746 
1919	 0.15255869740295 
1920	 0.152452125650254 
1921	 0.152357331599739 
1922	 0.152293416344957 
1923	 0.152249993143575 
1924	 0.152205611829698 
1925	 0.152173847103666 
1926	 0.152150945749473 
1927	 0.152140702511148 
1928	 0.152119683138077 
1929	 0.152104648283663 
1930	 0.152107589062521 
1931	 0.15211408820996 
1932	 0.152131976015488 
1933	 0.152173874277143 
1934	 0.152213850306685 
1935	 0.152243759020569 
1936	 0.152264011756594 
1937	 0.152291552964619 
1938	 0.15229651566118 
1939	 0.152342950182413 
1940	 0.152419229861499 
1941	 0.152493809914693 
1942	 0.152560123282336 
1943	 0.152640210286374 
1944	 0.152711155123647 
1945	 0.152763426826266 
1946	 0.152840170474267 
1947	 0.152949286733664 
1948	 0.153028128207856 
1949	 0.153092941024943 
1950	 0.153173705150955 
1951	 0.153243380377838 
1952	 0.153331356290145 
1953	 0.153443833629555 
1954	 0.15355778502078 
1955	 0.153675246313888 
1956	 0.153779796485798 
1957	 0.153888053154161 
1958	 0.153989606157879 
1959	 0.154101071245377 
1960	 0.154216798361029 
1961	 0.154335569603562 
1962	 0.154455575889377 
1963	 0.154576765695483 
1964	 0.154694017559957 
1965	 0.154829246118174 
1966	 0.154972882772547 
1967	 0.155120391108294 
1968	 0.155266724323831 
1969	 0.155426676369005 
1970	 0.15557631083326 
1971	 0.155724260029774 
1972	 0.155863546874341 
1973	 0.15599995749942 
1974	 0.156124528724306 
1975	 0.156235141710421 
1976	 0.156345315209035 
1977	 0.156444480473336 
1978	 0.156570377052311 
1979	 0.156704574739895 
1980	 0.156831006541039 
1981	 0.15696063429619 
1982	 0.157090644036291 
1983	 0.157233575295241 
1984	 0.157381469368691 
1985	 0.157533420445943 
1986	 0.157713145986168 
1987	 0.157863911772792 
1988	 0.158002000126096 
1989	 0.158134281157438 
1990	 0.158260492518156 
1991	 0.158379860968801 
1992	 0.158496543821028 
1993	 0.158610913933001 
1994	 0.15872277470135 
1995	 0.158822236031986 
1996	 0.15893410674143 
1997	 0.159055397200562 
1998	 0.159169385892884 
1999	 0.15928248795647 
2000	 0.159396232168335 
2001	 0.159511536324861 
2002	 0.159613388794985 
2003	 0.159718795299527 
2004	 0.159853964994721 
2005	 0.159990676277836 
2006	 0.160147081057793 
2007	 0.160285366320407 
2008	 0.160423619526727 
2009	 0.160562943153154 
2010	 0.1606932524777 
2011	 0.160828064821751 
2012	 0.160970313753987 
2013	 0.161109894463624 
2014	 0.161241620643065 
2015	 0.161386155846068 
2016	 0.161518921382062 
2017	 0.161660704719635 
2018	 0.161785480715464 
2019	 0.161901290781 
2020	 0.162007551269397 
2021	 0.162094783050877 
2022	 0.162196330099722 
2023	 0.162290283889549 
2024	 0.162394715289499 
2025	 0.162512566188537 
2026	 0.162626977251253 
2027	 0.162741371454335 
2028	 0.162865016892432 
2029	 0.162973647245465 
2030	 0.163080982532238 
2031	 0.163184203825583 
2032	 0.163274870817353 
2033	 0.163370757722714 
2034	 0.163469359744425 
2035	 0.163559369716154 
2036	 0.163642981819808 
2037	 0.16373333490474 
2038	 0.16381111520033 
2039	 0.163907448302463 
2040	 0.164032805474034 
2041	 0.164132735786066 
2042	 0.164218128837264 
2043	 0.164326176006304 
2044	 0.164422873107445 
2045	 0.164504156434976 
2046	 0.164594066451972 
2047	 0.16470643065505 
2048	 0.164787485599193 
2049	 0.164841525986814 
2050	 0.164911492174169 
2051	 0.164968649650553 
2052	 0.165037739154821 
2053	 0.165116479087417 
2054	 0.165202124131017 
2055	 0.165298195283896 
2056	 0.16539247563349 
2057	 0.165480910509803 
2058	 0.165579405623744 
2059	 0.165658819360809 
2060	 0.165724126150387 
2061	 0.165786325329934 
2062	 0.165831458139073 
2063	 0.165894626730467 
2064	 0.165959600090751 
2065	 0.16602399188508 
2066	 0.166100824692241 
2067	 0.166172343989527 
2068	 0.1662276909877 
2069	 0.166305203818533 
2070	 0.166373212175103 
2071	 0.166442476868528 
2072	 0.166510951691292 
2073	 0.166577956511934 
2074	 0.166646996951856 
2075	 0.166719953225062 
2076	 0.166790126438302 
2077	 0.16685910086543 
2078	 0.166926288819238 
2079	 0.166994277665849 
2080	 0.167057821756464 
2081	 0.167111619483239 
2082	 0.167175730080927 
2083	 0.167252341173439 
2084	 0.167315322552475 
2085	 0.167370701271414 
2086	 0.167426031558275 
2087	 0.167478916220132 
2088	 0.167513222502228 
2089	 0.167561982807776 
2090	 0.167623052153024 
2091	 0.167675454031257 
2092	 0.167710793237719 
2093	 0.167773368316919 
2094	 0.167851859749118 
2095	 0.167927260450308 
2096	 0.168019988389827 
2097	 0.168109058631878 
2098	 0.168208603058246 
2099	 0.168282205079532 
2100	 0.168356183855589 
2101	 0.168422907116779 
2102	 0.168501665362393 
2103	 0.168572166903217 
2104	 0.168651035291735 
2105	 0.168749124513168 
2106	 0.168833949404742 
2107	 0.168911043967897 
2108	 0.168988857236133 
2109	 0.16905978547747 
2110	 0.169142108719719 
2111	 0.169234712647205 
2112	 0.169316975174793 
2113	 0.169409732672035 
2114	 0.16948214367034 
2115	 0.169567014936395 
2116	 0.169640444420907 
2117	 0.169726267817742 
2118	 0.169832745251858 
2119	 0.169915945887414 
2120	 0.169991567965835 
2121	 0.170062421354828 
2122	 0.17011680454432 
2123	 0.17018350057106 
2124	 0.170262644805486 
2125	 0.170320617961817 
2126	 0.170382630337916 
2127	 0.17042313722359 
2128	 0.170420017385572 
2129	 0.170442820787988 
2130	 0.170465551821413 
2131	 0.170494132771513 
2132	 0.170531963037312 
2133	 0.170595458151537 
2134	 0.170630088257815 
2135	 0.170661965361329 
2136	 0.170681149608578 
2137	 0.170686666608106 
2138	 0.170687940674129 
2139	 0.170687461336256 
2140	 0.17066686795357 
2141	 0.170634163961726 
2142	 0.170589108993224 
2143	 0.170502183667476 
2144	 0.170449773696035 
2145	 0.170407311547805 
2146	 0.17036349957267 
2147	 0.170335194019927 
2148	 0.170322023156615 
2149	 0.170273722368083 
2150	 0.170208830914952 
2151	 0.170141656427297 
2152	 0.17006084680866 
2153	 0.169972993000345 
2154	 0.169878771121758 
2155	 0.169777112650239 
2156	 0.169658864065487 
2157	 0.169547166784467 
2158	 0.169434199947289 
2159	 0.169316824726281 
2160	 0.169203715953284 
2161	 0.169078090355916 
2162	 0.168940722794264 
2163	 0.168805708204657 
2164	 0.1686694954303 
2165	 0.168516262042364 
2166	 0.168380600617187 
2167	 0.168255017475538 
2168	 0.168115659770333 
2169	 0.167967003457932 
2170	 0.167838078305807 
2171	 0.167699741238715 
2172	 0.167589794885843 
2173	 0.167521973169756 
2174	 0.167422606935009 
2175	 0.167312151311075 
2176	 0.167216872225309 
2177	 0.167134064683176 
2178	 0.167025578491199 
2179	 0.166903456759946 
2180	 0.166798324139326 
2181	 0.166670078557399 
2182	 0.166559671379691 
2183	 0.166486201413347 
2184	 0.166411802494927 
2185	 0.166309488646582 
2186	 0.166188907985868 
2187	 0.166076714532698 
2188	 0.165947871322474 
2189	 0.165834879929944 
2190	 0.165725046085989 
2191	 0.165630132275457 
2192	 0.165533410906471 
2193	 0.165461031879029 
2194	 0.165425377560165 
2195	 0.165368075331632 
2196	 0.165313942567367 
2197	 0.165261830140216 
2198	 0.165186891800812 
2199	 0.165140442304672 
2200	 0.165123189236032 
2201	 0.165097817196626 
2202	 0.165084124892437 
2203	 0.1650727008843 
2204	 0.165045874112775 
2205	 0.165002923281029 
2206	 0.164974390330922 
2207	 0.164940556050068 
2208	 0.16492128314863 
2209	 0.164912126458478 
2210	 0.164907387071563 
2211	 0.164913863350715 
2212	 0.164915524537316 
2213	 0.164928855295439 
2214	 0.1649261674722 
2215	 0.16489943915861 
2216	 0.164900423873863 
2217	 0.164910134336759 
2218	 0.164918262159525 
2219	 0.164954659549789 
2220	 0.16496948962366 
2221	 0.164974088360707 
2222	 0.164966186788158 
2223	 0.164948154354684 
2224	 0.16493882846689 
2225	 0.164915020198618 
2226	 0.164870679837072 
2227	 0.164860657122343 
2228	 0.164849317807115 
2229	 0.164864177148448 
2230	 0.164922682253756 
2231	 0.164940747973516 
2232	 0.164944643196488 
2233	 0.164972119519699 
2234	 0.165002746937181 
2235	 0.165022429369097 
2236	 0.165071097567932 
2237	 0.165080747126362 
2238	 0.165039208785324 
2239	 0.165029861356691 
2240	 0.165024781460668 
2241	 0.165018353007934 
2242	 0.165030202586057 
2243	 0.165024934058975 
2244	 0.165005006947196 
2245	 0.164984821662086 
2246	 0.164973188206239 
2247	 0.164969539121033 
2248	 0.164944086271159 
2249	 0.164917808526213 
2250	 0.164883909773416 
2251	 0.164811937659757 
2252	 0.164793682883354 
2253	 0.164803740972202 
2254	 0.164806747536947 
2255	 0.164828954743098 
2256	 0.164850369218228 
2257	 0.16486677939527 
2258	 0.164892914560124 
2259	 0.164952593016308 
2260	 0.164972528167751 
2261	 0.164978751874471 
2262	 0.164977836706538 
2263	 0.164924734170568 
2264	 0.16492154631053 
2265	 0.164924414783095 
2266	 0.164957327509016 
2267	 0.165043073058514 
2268	 0.165115531252386 
2269	 0.16521920999137 
2270	 0.165296907301911 
2271	 0.165330859251288 
2272	 0.165368792677923 
2273	 0.165404369589154 
2274	 0.165434177025947 
2275	 0.165459400930092 
2276	 0.165504880953832 
2277	 0.165517829240962 
2278	 0.165494169160262 
2279	 0.165498943947558 
2280	 0.165496302306267 
2281	 0.165515290490247 
2282	 0.165552495364389 
2283	 0.165581850598382 
2284	 0.165621775481975 
2285	 0.165662012927063 
2286	 0.165702025093788 
2287	 0.165748089245681 
2288	 0.165809571756695 
2289	 0.165855024651374 
2290	 0.165900286934168 
2291	 0.165926753747539 
2292	 0.165918292018664 
2293	 0.165935965448961 
2294	 0.165935514356028 
2295	 0.165975036714312 
2296	 0.166051130920043 
2297	 0.166150917305037 
2298	 0.166226496406633 
2299	 0.166280616712191 
2300	 0.166278461378086 
2301	 0.166264092146144 
2302	 0.166299027016461 
2303	 0.166332938930583 
2304	 0.16635497528538 
2305	 0.166381609052475 
2306	 0.166364004589284 
2307	 0.166279731751955 
2308	 0.166256726022051 
2309	 0.166211966798017 
2310	 0.166230898247899 
2311	 0.166324521742861 
2312	 0.166352454785991 
2313	 0.166393009975891 
2314	 0.166432160970443 
2315	 0.1664385307227 
2316	 0.166450328797705 
2317	 0.166477324420144 
2318	 0.166487716089571 
2319	 0.166450289235275 
2320	 0.166462377715729 
2321	 0.166524086171068 
2322	 0.166555330728923 
2323	 0.166586871773397 
2324	 0.166628821374445 
2325	 0.166632432921304 
2326	 0.166685498588763 
2327	 0.16678592380317 
2328	 0.166881093001598 
2329	 0.166969913164992 
2330	 0.167059928637736 
2331	 0.167138090527478 
2332	 0.167173292213907 
2333	 0.167218472833179 
2334	 0.167268050398358 
2335	 0.167255019336938 
2336	 0.167271026778152 
2337	 0.167305122112915 
2338	 0.167289230850953 
2339	 0.167321538767138 
2340	 0.167383391980782 
2341	 0.167438657482757 
2342	 0.167520729370693 
2343	 0.167579693977559 
2344	 0.16760054572045 
2345	 0.167631671792573 
2346	 0.167663890381389 
2347	 0.167643929287304 
2348	 0.167581802365278 
2349	 0.167576254501618 
2350	 0.167562677395518 
2351	 0.167531068049245 
2352	 0.167531681952223 
2353	 0.167501145847606 
2354	 0.167382873182488 
2355	 0.167362384010678 
2356	 0.167448681652442 
2357	 0.167452608522708 
2358	 0.167444643252949 
2359	 0.167433967156813 
2360	 0.167348421726965 
2361	 0.167325234098571 
2362	 0.167380536028974 
2363	 0.167377413060077 
2364	 0.167357741962826 
2365	 0.167318158365287 
2366	 0.16723593832016 
2367	 0.167158871963626 
2368	 0.167069527329493 
2369	 0.167027271654839 
2370	 0.167010803166817 
2371	 0.166989949208713 
2372	 0.16691758653422 
2373	 0.166859053507774 
2374	 0.166772762461222 
2375	 0.16666573821036 
2376	 0.166697767463437 
2377	 0.166699992479414 
2378	 0.166700801176859 
2379	 0.166712535516406 
2380	 0.166655059090664 
2381	 0.166589164141737 
2382	 0.166539176881763 
2383	 0.166555288181487 
2384	 0.166562304468335 
2385	 0.166544796139809 
2386	 0.166476231506162 
2387	 0.166337340524179 
2388	 0.166227902054542 
2389	 0.166175256864117 
2390	 0.166164113057308 
2391	 0.16614823895833 
2392	 0.166144321576277 
2393	 0.166143504768549 
2394	 0.166143467325563 
2395	 0.166169502004843 
2396	 0.166135447760496 
2397	 0.166073844943273 
2398	 0.166028679115718 
2399	 0.165948516442265 
2400	 0.165919296678675 
2401	 0.165884088009005 
2402	 0.165744105221727 
2403	 0.165654336371318 
2404	 0.165603116618456 
2405	 0.165501031598837 
2406	 0.16549589113346 
2407	 0.165530587655409 
2408	 0.165442250714828 
2409	 0.165354776800731 
2410	 0.165343937311585 
2411	 0.165254915587118 
2412	 0.165146457828172 
2413	 0.16506993899308 
2414	 0.164850845245424 
2415	 0.164649361379947 
2416	 0.164579211611775 
2417	 0.164625849939829 
2418	 0.164596379043323 
2419	 0.164678501210714 
2420	 0.164647999471479 
2421	 0.16450337742498 
2422	 0.164417115287531 
2423	 0.16432253931686 
2424	 0.164230751029743 
2425	 0.164119077361284 
2426	 0.164050635149477 
2427	 0.163994321093137 
2428	 0.164012652813666 
2429	 0.164152468361452 
2430	 0.164168345281219 
2431	 0.164162976248506 
2432	 0.164101294729599 
2433	 0.163925063350324 
2434	 0.163776428459504 
2435	 0.163651946302075 
2436	 0.163515169532287 
2437	 0.163309702509605 
2438	 0.163253296143974 
2439	 0.163334747173713 
2440	 0.163254131481246 
2441	 0.163166367637613 
2442	 0.163052987375158 
2443	 0.162748591054973 
2444	 0.162591537690084 
2445	 0.162561965334855 
2446	 0.162529758494447 
2447	 0.162572736448324 
2448	 0.162521047737418 
2449	 0.162430892320402 
2450	 0.162314151905856 
2451	 0.162077771908876 
2452	 0.161945071933687 
2453	 0.161906854576311 
2454	 0.161854667947384 
2455	 0.16185808891575 
2456	 0.161806471794674 
2457	 0.161718388606037 
2458	 0.161648855110965 
2459	 0.161544534966819 
2460	 0.161396044620819 
2461	 0.161239523714387 
2462	 0.161083447213238 
2463	 0.160863811987672 
2464	 0.160776122380944 
2465	 0.160736944281183 
2466	 0.160672863886431 
2467	 0.160744809781407 
2468	 0.160715410040407 
2469	 0.160645514326925 
2470	 0.160504290336413 
2471	 0.160267392182585 
2472	 0.160055749593051 
2473	 0.159953245385843 
2474	 0.160085408208265 
2475	 0.160104137206138 
2476	 0.160008415803934 
2477	 0.159966339064438 
2478	 0.159800212852609 
2479	 0.159730679795463 
2480	 0.159839809279824 
2481	 0.159876813028624 
2482	 0.159849080899068 
2483	 0.159738118480072 
2484	 0.159587764197567 
2485	 0.159538224337743 
2486	 0.15949022373156 
2487	 0.15955968464228 
2488	 0.15966834501087 
2489	 0.159610785181015 
2490	 0.159502791930986 
2491	 0.159279155082557 
2492	 0.159061169477445 
2493	 0.158880876088725 
2494	 0.158822680772334 
2495	 0.158928830475849 
2496	 0.158874046907362 
2497	 0.158867598941024 
2498	 0.158911800671858 
2499	 0.159059874610974 
2500	 0.159205589845539 
