Wavelength	LMW_2000008.asd
350	 4.35490595963561E-02 
351	 4.45479995534571E-02 
352	 3.84536502789935E-02 
353	 3.16782991818453E-02 
354	 3.95743362120614E-02 
355	 0.040669500845609 
356	 3.72022841191027E-02 
357	 3.71925983074862E-02 
358	 4.61254649438735E-02 
359	 5.01534202519989E-02 
360	 4.72697042091356E-02 
361	 4.37520160414227E-02 
362	 0.043393101356592 
363	 4.52707250530176E-02 
364	 4.73314133671123E-02 
365	 4.72244064297023E-02 
366	 4.27882366965976E-02 
367	 4.09795414040847E-02 
368	 0.046526522601484 
369	 0.046395567505566 
370	 0.045673140799159 
371	 4.54318717914498E-02 
372	 4.40352676395001E-02 
373	 4.52969667860884E-02 
374	 4.90267917256161E-02 
375	 5.26001198019283E-02 
376	 4.98360496069239E-02 
377	 5.08129717094754E-02 
378	 5.30628408843758E-02 
379	 5.23247671125024E-02 
380	 5.42543479134286E-02 
381	 5.36572911003731E-02 
382	 5.14032463133983E-02 
383	 5.28081856416621E-02 
384	 0.055664314062297 
385	 5.61952125386631E-02 
386	 5.45007899196367E-02 
387	 5.85716144827106E-02 
388	 6.10501415993534E-02 
389	 6.12164997428771E-02 
390	 6.05911464917708E-02 
391	 6.01015439700253E-02 
392	 6.18615975140828E-02 
393	 6.50158881046767E-02 
394	 6.63888752029521E-02 
395	 6.62411306577452E-02 
396	 6.64386206650688E-02 
397	 6.82719470798457E-02 
398	 7.16879100071218E-02 
399	 7.26256733160303E-02 
400	 7.25680213954415E-02 
401	 7.43265549253944E-02 
402	 7.51656850564323E-02 
403	 0.075699331370536 
404	 7.62929297946136E-02 
405	 7.68572397352807E-02 
406	 7.77841940120101E-02 
407	 0.079032622858072 
408	 0.080068256942953 
409	 7.91661774683237E-02 
410	 7.89733884705174E-02 
411	 8.02386825466417E-02 
412	 8.23152004750743E-02 
413	 8.19513297653723E-02 
414	 8.16510452402301E-02 
415	 8.26717139905111E-02 
416	 8.40866383181291E-02 
417	 8.37202141787707E-02 
418	 8.28142269479438E-02 
419	 8.29228294367326E-02 
420	 8.37027902085396E-02 
421	 8.30131961789001E-02 
422	 8.19731311813836E-02 
423	 8.33087021767632E-02 
424	 0.082876385130181 
425	 8.17828880931606E-02 
426	 8.12540153439336E-02 
427	 8.15484479254616E-02 
428	 0.081283784881935 
429	 8.08751017760766E-02 
430	 8.10152841266081E-02 
431	 8.05762246301664E-02 
432	 8.02162373198017E-02 
433	 8.01181852024692E-02 
434	 7.99336350458691E-02 
435	 7.94909649462372E-02 
436	 7.95331161242451E-02 
437	 8.02930583757128E-02 
438	 8.01972416926659E-02 
439	 8.04082350488424E-02 
440	 8.10392252959067E-02 
441	 0.081687039968373 
442	 8.23709646582967E-02 
443	 8.29697728860452E-02 
444	 8.34199789198241E-02 
445	 8.37325167133568E-02 
446	 8.42977913110073E-02 
447	 8.48806887475169E-02 
448	 8.52316413290367E-02 
449	 8.58991539235137E-02 
450	 8.64936827888173E-02 
451	 8.69410224970137E-02 
452	 0.087449606534179 
453	 0.087874790908361 
454	 8.82570547162765E-02 
455	 8.86577817297641E-02 
456	 8.91610020258241E-02 
457	 0.089240162746026 
458	 8.92235471994053E-02 
459	 0.089700025436764 
460	 9.00164056454395E-02 
461	 8.99388264870106E-02 
462	 0.089702088532318 
463	 9.01169875036433E-02 
464	 0.090798357699066 
465	 9.12039175305282E-02 
466	 9.10207945372923E-02 
467	 9.09915604407139E-02 
468	 9.11754341886902E-02 
469	 9.14202928367893E-02 
470	 9.14507843864632E-02 
471	 0.091754896157286 
472	 0.09190317609386 
473	 9.17073622761031E-02 
474	 9.18884839714583E-02 
475	 9.22133770639822E-02 
476	 9.23402961441227E-02 
477	 9.20151464503526E-02 
478	 9.20610559885124E-02 
479	 9.21798779001047E-02 
480	 9.22215662290559E-02 
481	 9.23799259071266E-02 
482	 9.26709512085534E-02 
483	 9.28909195352912E-02 
484	 9.28522490318941E-02 
485	 9.26615902860235E-02 
486	 9.26157133248611E-02 
487	 0.092717777796369 
488	 9.27350461311464E-02 
489	 9.28543462104262E-02 
490	 9.29271023802737E-02 
491	 9.29172512252625E-02 
492	 9.32501955374665E-02 
493	 9.32305387470518E-02 
494	 0.093009733829012 
495	 9.30873075449234E-02 
496	 0.093270822587922 
497	 9.32791122959974E-02 
498	 9.31337967926521E-02 
499	 9.33171918062595E-02 
500	 9.33741461614353E-02 
501	 9.33382294323765E-02 
502	 9.33467046359011E-02 
503	 9.33252460153907E-02 
504	 9.32957804496969E-02 
505	 9.32795545125046E-02 
506	 9.32922432659653E-02 
507	 9.32743539897723E-02 
508	 9.34116489888299E-02 
509	 9.37194646515966E-02 
510	 9.36434743499211E-02 
511	 0.093487983008414 
512	 0.093393026339541 
513	 9.34024450338712E-02 
514	 9.34916708982496E-02 
515	 0.093581829027753 
516	 9.36722565323233E-02 
517	 9.39365834973764E-02 
518	 9.38077641900562E-02 
519	 9.35825902654969E-02 
520	 9.37013184456018E-02 
521	 9.37216941504445E-02 
522	 9.37265229867204E-02 
523	 9.37480490064371E-02 
524	 9.37378116364608E-02 
525	 0.093762303205618 
526	 0.093759163651966 
527	 9.36960311444956E-02 
528	 9.37229749801635E-02 
529	 9.37787510633961E-02 
530	 9.38086129203905E-02 
531	 9.37730029861669E-02 
532	 9.37358237320611E-02 
533	 9.38087197534697E-02 
534	 0.093966577087782 
535	 9.38779562675688E-02 
536	 9.38503388379075E-02 
537	 9.38856112794203E-02 
538	 9.38830144448074E-02 
539	 9.39074123671813E-02 
540	 0.093930590451086 
541	 9.39748917412209E-02 
542	 9.41439086118759E-02 
543	 9.41336102787788E-02 
544	 9.40250397344267E-02 
545	 9.39918734070914E-02 
546	 9.41142146614373E-02 
547	 9.41816250659722E-02 
548	 0.094164792224555 
549	 9.41913425840956E-02 
550	 9.41969057657315E-02 
551	 9.42101076321793E-02 
552	 9.42640783956888E-02 
553	 9.43744336055921E-02 
554	 9.44387291552991E-02 
555	 9.44725116116804E-02 
556	 0.094552610504944 
557	 9.46789081268133E-02 
558	 9.48108469441984E-02 
559	 9.49272232802964E-02 
560	 9.50526331225873E-02 
561	 9.51159286139819E-02 
562	 0.095198875908566 
563	 9.53811168742372E-02 
564	 0.095429171723427 
565	 0.095434099266097 
566	 9.54374347482473E-02 
567	 9.54052560381927E-02 
568	 9.55404190870296E-02 
569	 9.58095753008463E-02 
570	 9.61098323174049E-02 
571	 9.63391705974583E-02 
572	 9.64878882051078E-02 
573	 9.66161706848467E-02 
574	 9.68268066803885E-02 
575	 9.70870323682274E-02 
576	 0.097308473155416 
577	 9.74502385344277E-02 
578	 9.75909539256226E-02 
579	 9.77234619198091E-02 
580	 9.78406409888774E-02 
581	 9.79425502233399E-02 
582	 9.80980183914017E-02 
583	 9.82341900798039E-02 
584	 9.83504880039538E-02 
585	 9.85664031585424E-02 
586	 9.88162922040192E-02 
587	 9.90158653683146E-02 
588	 9.91343432064211E-02 
589	 9.94011228400303E-02 
590	 9.96441793183028E-02 
591	 9.98361472265974E-02 
592	 0.100091087304298 
593	 0.100366060422272 
594	 0.100631464604004 
595	 0.100868375346989 
596	 0.101086598591902 
597	 0.101252455451644 
598	 0.101364045418238 
599	 0.101442491350061 
600	 0.101525877503902 
601	 0.101615330190359 
602	 0.101704503914897 
603	 0.101782106246889 
604	 0.10188710447725 
605	 0.102010161069663 
606	 0.1021280912173 
607	 0.102249183159176 
608	 0.102375280830052 
609	 0.102514172703527 
610	 0.102678998941996 
611	 0.102742705982926 
612	 0.102801886330104 
613	 0.102933857916797 
614	 0.10295678750664 
615	 0.102958487368342 
616	 0.102987014965906 
617	 0.103055826544128 
618	 0.103129751972428 
619	 0.103171922097959 
620	 0.103173278392696 
621	 0.103175261917565 
622	 0.103216905958412 
623	 0.103273159501178 
624	 0.10330048706277 
625	 0.103345219622788 
626	 0.103393513033934 
627	 0.10342639451314 
628	 0.103424395835316 
629	 0.103415648936157 
630	 0.103420041298419 
631	 0.103440852226047 
632	 0.103428460581512 
633	 0.10341754521055 
634	 0.103441579821408 
635	 0.103519709472283 
636	 0.103481706614104 
637	 0.103454632023149 
638	 0.103516491517312 
639	 0.103486490441429 
640	 0.103528387512742 
641	 0.103579716053355 
642	 0.103510608433221 
643	 0.103527379827389 
644	 0.10357377110963 
645	 0.103598983716554 
646	 0.103597679076818 
647	 0.103577894031695 
648	 0.103563656593037 
649	 0.1035740461494 
650	 0.103593160093724 
651	 0.10357028569165 
652	 0.103543630129944 
653	 0.103616718746972 
654	 0.103624690323109 
655	 0.103589366544659 
656	 0.103564514277072 
657	 0.103591592110492 
658	 0.103656080608174 
659	 0.103699378572678 
660	 0.103661921901114 
661	 0.103659019421536 
662	 0.103646819876176 
663	 0.103623771513242 
664	 0.103673185321775 
665	 0.103690540909974 
666	 0.10368689431188 
667	 0.103699613587625 
668	 0.103718471493761 
669	 0.103796964378608 
670	 0.103876442230753 
671	 0.103822006247872 
672	 0.103847048559509 
673	 0.103899663456768 
674	 0.103926213505528 
675	 0.103988352272359 
676	 0.104012433071382 
677	 0.104014938621869 
678	 0.104043531483219 
679	 0.104059493798959 
680	 0.104070939812596 
681	 0.104099692057645 
682	 0.104180331940202 
683	 0.104231468672885 
684	 0.104251970894458 
685	 0.104266135001277 
686	 0.10429730547211 
687	 0.104366185831282 
688	 0.104444657620762 
689	 0.104474953938148 
690	 0.104489454178623 
691	 0.10450699330153 
692	 0.104535518955861 
693	 0.10456551496313 
694	 0.10459885239672 
695	 0.104633123259804 
696	 0.104666822421186 
697	 0.104713542021193 
698	 0.10474084689978 
699	 0.104754130895434 
700	 0.10479910098863 
701	 0.104842308507121 
702	 0.10488956600371 
703	 0.104941464883128 
704	 0.104960360547241 
705	 0.104977147905943 
706	 0.105001536474956 
707	 0.1050285053958 
708	 0.105029569219139 
709	 0.105047106978149 
710	 0.105098452858887 
711	 0.105156163619199 
712	 0.105170141469381 
713	 0.105163635708592 
714	 0.105179227652884 
715	 0.105243726588729 
716	 0.105288637811969 
717	 0.105304536529429 
718	 0.105324822218048 
719	 0.105321095557773 
720	 0.105308917256453 
721	 0.105304770201019 
722	 0.105317010303259 
723	 0.10531023422168 
724	 0.105314067945601 
725	 0.105354042140178 
726	 0.10531035209117 
727	 0.105318184948127 
728	 0.105375609951344 
729	 0.105350460291176 
730	 0.105339765243144 
731	 0.105330130957739 
732	 0.105309986868028 
733	 0.105321792564412 
734	 0.105323907529056 
735	 0.105297118449595 
736	 0.105243089162854 
737	 0.105223577352473 
738	 0.105200735929018 
739	 0.105172919613892 
740	 0.105183749574463 
741	 0.105179722308398 
742	 0.105143197722541 
743	 0.105081473077448 
744	 0.105042012094796 
745	 0.105016599784136 
746	 0.105000096262063 
747	 0.104984333527886 
748	 0.104943285188619 
749	 0.104887314348966 
750	 0.104828747708843 
751	 0.10477718504406 
752	 0.104707865622157 
753	 0.104644740918135 
754	 0.10460576311351 
755	 0.104558182094656 
756	 0.104512900504307 
757	 0.104471606511023 
758	 0.104429242962605 
759	 0.104371149196853 
760	 0.104279308712221 
761	 0.10418159205697 
762	 0.104159374256677 
763	 0.104115305684702 
764	 0.104050334832335 
765	 0.103983249978064 
766	 0.103908487016452 
767	 0.103858283886664 
768	 0.103809643673963 
769	 0.103720387775315 
770	 0.103630582197023 
771	 0.103559097469642 
772	 0.103500543252858 
773	 0.103424168105771 
774	 0.103340928154468 
775	 0.103263057012314 
776	 0.103195284518331 
777	 0.103123360838789 
778	 0.103016716967093 
779	 0.102939238424767 
780	 0.102959551191565 
781	 0.102886750693452 
782	 0.102800187997825 
783	 0.102734008115657 
784	 0.1026530103082 
785	 0.102566462517479 
786	 0.102491267785186 
787	 0.102428063352752 
788	 0.10232948193965 
789	 0.102281368791566 
790	 0.102233098367842 
791	 0.102114084953009 
792	 0.102041602968023 
793	 0.101965040183378 
794	 0.10188110391891 
795	 0.10182803110922 
796	 0.101733864437236 
797	 0.101641396330434 
798	 0.101583490524658 
799	 0.101544239881482 
800	 0.101453237157542 
801	 0.101355187658727 
802	 0.101302577597247 
803	 0.101224967443341 
804	 0.101153483211168 
805	 0.101085535983824 
806	 0.10100212303149 
807	 0.100944468620257 
808	 0.100879252390835 
809	 0.100791104304832 
810	 0.100699035929109 
811	 0.100644870039539 
812	 0.100586369704687 
813	 0.100493611639245 
814	 0.100423101268041 
815	 0.100368717758344 
816	 0.100306823604622 
817	 0.100222058573084 
818	 0.100192781833636 
819	 0.100143887815268 
820	 0.100057974392078 
821	 0.099977653915165 
822	 0.099947760443246 
823	 9.99184439379277E-02 
824	 0.099860974309721 
825	 9.98076432121329E-02 
826	 9.97121666475968E-02 
827	 9.96130899785044E-02 
828	 9.95519693758253E-02 
829	 9.95029715926568E-02 
830	 9.94570466945954E-02 
831	 9.94192584686455E-02 
832	 9.93915952294446E-02 
833	 9.93077283017541E-02 
834	 9.92440494661742E-02 
835	 9.92229201650651E-02 
836	 9.92052596016861E-02 
837	 9.91875068219436E-02 
838	 9.91341237718333E-02 
839	 9.90370159528531E-02 
840	 9.89377522974555E-02 
841	 9.89058533252573E-02 
842	 9.88960542280877E-02 
843	 9.88491130781415E-02 
844	 0.098771831478594 
845	 9.87400623547407E-02 
846	 9.87328897562127E-02 
847	 9.86927092889088E-02 
848	 9.86514724645984E-02 
849	 0.098593108340807 
850	 9.85335523299832E-02 
851	 9.85124555995816E-02 
852	 9.85046649045183E-02 
853	 9.84910032953437E-02 
854	 9.84495147037355E-02 
855	 9.83559778327335E-02 
856	 9.83194538336418E-02 
857	 9.83274615170075E-02 
858	 9.83323725403439E-02 
859	 9.82774699667354E-02 
860	 9.82481117337354E-02 
861	 9.82225440172464E-02 
862	 9.81556042468953E-02 
863	 9.80745626842573E-02 
864	 9.80451640108331E-02 
865	 9.80541911993868E-02 
866	 9.80452402206174E-02 
867	 0.098050942300044 
868	 9.80591176797477E-02 
869	 9.80364075870794E-02 
870	 9.79454180885605E-02 
871	 9.79288541601436E-02 
872	 9.79247967290165E-02 
873	 9.78945836373845E-02 
874	 9.78937719983554E-02 
875	 9.78718237496336E-02 
876	 9.78146781663088E-02 
877	 9.77404964347577E-02 
878	 9.77213995647454E-02 
879	 9.77325561499702E-02 
880	 9.77588842264683E-02 
881	 9.77819033275324E-02 
882	 9.77640918576032E-02 
883	 9.77604586451826E-02 
884	 9.77516461830978E-02 
885	 9.76980148696545E-02 
886	 9.77125112281397E-02 
887	 9.77349005672908E-02 
888	 9.77354144196751E-02 
889	 0.097725972036781 
890	 9.77457651723223E-02 
891	 9.77263919756455E-02 
892	 9.76769190513054E-02 
893	 9.77083447634698E-02 
894	 9.76710961075986E-02 
895	 9.76197457317802E-02 
896	 9.76129978329049E-02 
897	 9.76430899258971E-02 
898	 9.76191656733516E-02 
899	 9.76078442219256E-02 
900	 9.76582848750623E-02 
901	 0.097655782514918 
902	 9.76698582670545E-02 
903	 9.76948623626799E-02 
904	 9.77132030884921E-02 
905	 9.77669169304498E-02 
906	 9.77613515496976E-02 
907	 0.097726824786006 
908	 9.77392152190651E-02 
909	 9.77614061407496E-02 
910	 0.097767571208306 
911	 9.77759085975661E-02 
912	 0.097815371661538 
913	 0.097773416210505 
914	 9.77704979273922E-02 
915	 9.78153787072681E-02 
916	 9.78096979255951E-02 
917	 9.77997670843061E-02 
918	 9.78191935115657E-02 
919	 9.78599631272492E-02 
920	 9.78743599287349E-02 
921	 9.79320145609087E-02 
922	 9.79957796605813E-02 
923	 9.80293690337987E-02 
924	 9.80282525686092E-02 
925	 9.80212383832004E-02 
926	 9.80748481887717E-02 
927	 9.81615489614417E-02 
928	 9.80805400914256E-02 
929	 9.80461190779202E-02 
930	 9.80953968637349E-02 
931	 9.81699136670277E-02 
932	 9.81060136858185E-02 
933	 9.81736722637994E-02 
934	 9.82504844930224E-02 
935	 9.82093540581455E-02 
936	 9.82605587057013E-02 
937	 9.82946084072077E-02 
938	 9.83022523399669E-02 
939	 9.83150097076323E-02 
940	 9.83850022685409E-02 
941	 9.84456319258517E-02 
942	 9.85340212143055E-02 
943	 9.86680382090746E-02 
944	 0.098627031261312 
945	 9.85962820374851E-02 
946	 9.86211212295562E-02 
947	 9.86634699837044E-02 
948	 9.86544003751272E-02 
949	 9.87121787020376E-02 
950	 9.87933620900193E-02 
951	 9.88034511802701E-02 
952	 9.88576828195654E-02 
953	 0.09888972618814 
954	 9.89030910445425E-02 
955	 9.89403609946483E-02 
956	 9.90103460313643E-02 
957	 9.89736738855824E-02 
958	 9.89392359421078E-02 
959	 9.90908268630877E-02 
960	 9.91033018351785E-02 
961	 0.099175861533454 
962	 9.92711010311971E-02 
963	 9.92202348338359E-02 
964	 9.91398171921374E-02 
965	 9.92283708949089E-02 
966	 0.099361439755094 
967	 0.099292338245107 
968	 9.94552956620172E-02 
969	 9.95257100576366E-02 
970	 9.94467578566396E-02 
971	 9.93903858671986E-02 
972	 9.94644596710346E-02 
973	 9.95078051212847E-02 
974	 9.94898331370201E-02 
975	 9.95017878990368E-02 
976	 9.96903876530918E-02 
977	 9.97699798991908E-02 
978	 9.97220077070597E-02 
979	 9.97214320143803E-02 
980	 9.98283949895903E-02 
981	 9.97987610674444E-02 
982	 9.96847465241558E-02 
983	 9.97145195099295E-02 
984	 9.99241408428012E-02 
985	 9.99718695556772E-02 
986	 9.99321266320956E-02 
987	 0.100066394273953 
988	 0.100225881530755 
989	 0.100121572692917 
990	 9.99726837422436E-02 
991	 0.100134640989739 
992	 0.100295907012634 
993	 0.100297026255887 
994	 0.10026738742673 
995	 0.100364161302375 
996	 0.100260735377567 
997	 0.100300133921314 
998	 0.100406768333416 
999	 0.100384129359652 
1000	 0.100254850880634 
1001	 9.84417787912196E-02 
1002	 9.83759766915503E-02 
1003	 9.83469047898789E-02 
1004	 9.83529692231368E-02 
1005	 9.84129953278554E-02 
1006	 9.84192522536173E-02 
1007	 9.84188063524212E-02 
1008	 9.84279775738718E-02 
1009	 9.84466523782239E-02 
1010	 9.84749814014615E-02 
1011	 9.84717184146136E-02 
1012	 9.84748602042699E-02 
1013	 9.84403758960903E-02 
1014	 9.83913029195944E-02 
1015	 9.83905523100108E-02 
1016	 9.83888027311043E-02 
1017	 9.84085969945797E-02 
1018	 9.84507781089216E-02 
1019	 9.84798158608626E-02 
1020	 9.85265760645884E-02 
1021	 9.85830350064825E-02 
1022	 9.85801796103222E-02 
1023	 0.098609960874651 
1024	 0.098578403186987 
1025	 9.85282101968713E-02 
1026	 9.85827313707353E-02 
1027	 9.85716656792109E-02 
1028	 9.85259012437339E-02 
1029	 0.098517478604622 
1030	 9.84915648624208E-02 
1031	 9.84733670212692E-02 
1032	 9.84390371478625E-02 
1033	 9.84853944538158E-02 
1034	 9.85549470249687E-02 
1035	 9.85525990981043E-02 
1036	 9.85427858572411E-02 
1037	 9.85218277087556E-02 
1038	 9.85032379776845E-02 
1039	 0.098497739667747 
1040	 9.85039470110526E-02 
1041	 9.85099908471436E-02 
1042	 9.84659513748601E-02 
1043	 0.09846008824299 
1044	 9.84372832145543E-02 
1045	 9.84100548749409E-02 
1046	 9.83742557744375E-02 
1047	 9.83925101157008E-02 
1048	 9.83694432013596E-02 
1049	 9.83601657513626E-02 
1050	 9.83719784802922E-02 
1051	 0.09836726889245 
1052	 9.83804114777219E-02 
1053	 9.83936575879489E-02 
1054	 9.84332640882362E-02 
1055	 9.84621991914329E-02 
1056	 9.84635475471173E-02 
1057	 0.098485063023589 
1058	 9.85213788992564E-02 
1059	 9.85481921350697E-02 
1060	 9.85849180108897E-02 
1061	 9.86067392886912E-02 
1062	 9.85946888188563E-02 
1063	 9.85982741044436E-02 
1064	 9.85834684409807E-02 
1065	 9.85463448328462E-02 
1066	 9.86067712430827E-02 
1067	 9.86811945423079E-02 
1068	 9.87166860282338E-02 
1069	 9.87761891040954E-02 
1070	 9.88096732246883E-02 
1071	 0.098800805424623 
1072	 9.87969662696624E-02 
1073	 9.87947571641124E-02 
1074	 9.87789467475444E-02 
1075	 9.87468852205602E-02 
1076	 9.86978662548145E-02 
1077	 0.09867149932666 
1078	 9.86903376097377E-02 
1079	 9.86779825584325E-02 
1080	 9.86771378520918E-02 
1081	 9.86733633463767E-02 
1082	 9.86297359063199E-02 
1083	 9.86250783054433E-02 
1084	 9.86564683019488E-02 
1085	 9.86590264683186E-02 
1086	 9.86669376769612E-02 
1087	 9.86545908210054E-02 
1088	 9.86297613802588E-02 
1089	 9.85912939696148E-02 
1090	 9.85465257179139E-02 
1091	 9.85434040739695E-02 
1092	 9.85442321041049E-02 
1093	 9.85391448021471E-02 
1094	 9.85576137788748E-02 
1095	 9.85653961903631E-02 
1096	 9.85539810514041E-02 
1097	 9.85506841242951E-02 
1098	 9.85363867244976E-02 
1099	 9.84959511884164E-02 
1100	 9.84692939984636E-02 
1101	 9.84331112719791E-02 
1102	 9.84259052778894E-02 
1103	 9.84319301338136E-02 
1104	 9.84488181016303E-02 
1105	 9.84528910081371E-02 
1106	 9.84558736854422E-02 
1107	 0.098432719466721 
1108	 9.83581221694711E-02 
1109	 0.098306694283783 
1110	 9.82924222693292E-02 
1111	 9.82770871083635E-02 
1112	 9.82815588206511E-02 
1113	 9.82692313591895E-02 
1114	 9.82618862874322E-02 
1115	 0.098244358962126 
1116	 9.81938994255393E-02 
1117	 9.81742424494671E-02 
1118	 9.81781052544339E-02 
1119	 9.81696630149621E-02 
1120	 9.81456874058193E-02 
1121	 9.81712810984798E-02 
1122	 9.81741098847332E-02 
1123	 9.81412340475498E-02 
1124	 9.81227427484052E-02 
1125	 9.80958813806128E-02 
1126	 9.80876869777868E-02 
1127	 9.80937005500493E-02 
1128	 9.80867714947316E-02 
1129	 9.80891912933357E-02 
1130	 9.80804476646384E-02 
1131	 9.80349576988937E-02 
1132	 9.80305200462167E-02 
1133	 9.80646415768104E-02 
1134	 9.80677803905396E-02 
1135	 9.80787376105691E-02 
1136	 9.80854998342279E-02 
1137	 9.80340533807259E-02 
1138	 9.79903327284126E-02 
1139	 9.79765547987844E-02 
1140	 0.097971171376811 
1141	 9.79656531147437E-02 
1142	 9.80008021524613E-02 
1143	 0.097990223393976 
1144	 9.79455519268264E-02 
1145	 9.79203892275311E-02 
1146	 9.78867886132783E-02 
1147	 9.78595075607758E-02 
1148	 9.78352045989573E-02 
1149	 9.78207609521623E-02 
1150	 9.78219287674022E-02 
1151	 9.78095359037891E-02 
1152	 9.77705868520072E-02 
1153	 9.77607456748063E-02 
1154	 9.77401745905486E-02 
1155	 9.76986238193655E-02 
1156	 9.76727901048782E-02 
1157	 9.76732919492706E-02 
1158	 0.097644178513655 
1159	 9.75941502753327E-02 
1160	 9.75625504165993E-02 
1161	 9.75193423754137E-02 
1162	 9.74929693273428E-02 
1163	 9.75008934270877E-02 
1164	 9.74784203610105E-02 
1165	 9.74375813387772E-02 
1166	 9.74120173550322E-02 
1167	 0.097387945926126 
1168	 9.73404408641159E-02 
1169	 0.097323135680519 
1170	 9.73353541267305E-02 
1171	 9.73251391797237E-02 
1172	 9.73084953049724E-02 
1173	 9.72999611525677E-02 
1174	 9.72923304092277E-02 
1175	 9.72784452342648E-02 
1176	 9.72641247921526E-02 
1177	 9.72565908762959E-02 
1178	 9.72467603675272E-02 
1179	 9.72374425130846E-02 
1180	 0.097241453735926 
1181	 9.72346260267039E-02 
1182	 9.72201964182961E-02 
1183	 0.097199293295097 
1184	 9.71849228541951E-02 
1185	 9.71667475595267E-02 
1186	 9.71599935777189E-02 
1187	 9.71643193463158E-02 
1188	 9.71575127822409E-02 
1189	 9.71527506031405E-02 
1190	 9.71437201843128E-02 
1191	 9.71229316186289E-02 
1192	 9.71117912746696E-02 
1193	 9.71087318829709E-02 
1194	 9.70997734242865E-02 
1195	 9.70913886747144E-02 
1196	 9.70804192538439E-02 
1197	 9.70586907422228E-02 
1198	 9.70478019238119E-02 
1199	 9.70410642652243E-02 
1200	 9.70384484799964E-02 
1201	 9.70333366566755E-02 
1202	 9.70330686510264E-02 
1203	 9.70322944456394E-02 
1204	 9.70350923942162E-02 
1205	 9.70252511770465E-02 
1206	 9.70094742021171E-02 
1207	 9.69994472515144E-02 
1208	 9.69832589003137E-02 
1209	 9.69669707473457E-02 
1210	 0.096952021133009 
1211	 9.69434876190594E-02 
1212	 9.69287869725821E-02 
1213	 9.69224575973195E-02 
1214	 9.69424081991081E-02 
1215	 9.69423819883635E-02 
1216	 9.69348694394853E-02 
1217	 9.69165461909456E-02 
1218	 9.69091133468041E-02 
1219	 9.68968445394928E-02 
1220	 9.68845912330798E-02 
1221	 9.68785769695762E-02 
1222	 9.68709352737891E-02 
1223	 9.68550021423718E-02 
1224	 9.68453015682801E-02 
1225	 9.68460130896712E-02 
1226	 0.096839387446941 
1227	 9.68353425754157E-02 
1228	 9.68189960644547E-02 
1229	 9.67887722862334E-02 
1230	 9.67675850640557E-02 
1231	 9.67318840215589E-02 
1232	 9.67127071965919E-02 
1233	 9.67035422704995E-02 
1234	 9.67144692513036E-02 
1235	 9.67050300411872E-02 
1236	 9.66981467383311E-02 
1237	 0.096685237394985 
1238	 9.66564511247914E-02 
1239	 0.096642287010938 
1240	 9.66340303436924E-02 
1241	 9.66261644530776E-02 
1242	 9.66295921666871E-02 
1243	 9.66187060190343E-02 
1244	 9.66004752819512E-02 
1245	 9.65851775641557E-02 
1246	 9.65628026092864E-02 
1247	 9.65418414188781E-02 
1248	 9.65223654234984E-02 
1249	 9.65073051444621E-02 
1250	 9.64878836436363E-02 
1251	 9.64601990215078E-02 
1252	 9.64286559634064E-02 
1253	 9.63834533137455E-02 
1254	 9.63635204333162E-02 
1255	 9.63527398744448E-02 
1256	 9.63332143427585E-02 
1257	 9.63367996864716E-02 
1258	 9.63128847826276E-02 
1259	 9.62521490562419E-02 
1260	 9.62221455251706E-02 
1261	 9.62035512555952E-02 
1262	 9.61772367013023E-02 
1263	 9.61614682320317E-02 
1264	 0.096141289410123 
1265	 9.61095763773358E-02 
1266	 9.60827347202141E-02 
1267	 9.60578610914714E-02 
1268	 9.60435397283553E-02 
1269	 9.60140993537109E-02 
1270	 9.59770945006084E-02 
1271	 9.59424871080223E-02 
1272	 9.58955127914229E-02 
1273	 9.58681312142725E-02 
1274	 9.58506211857707E-02 
1275	 9.58352552331327E-02 
1276	 9.58322664949512E-02 
1277	 9.58241217276716E-02 
1278	 9.58109387416526E-02 
1279	 9.58052771470504E-02 
1280	 0.09580529463069 
1281	 9.58059339604069E-02 
1282	 9.58120275613287E-02 
1283	 9.58176656250088E-02 
1284	 9.58157837147525E-02 
1285	 9.58281973295665E-02 
1286	 9.58528162654166E-02 
1287	 9.58760714957601E-02 
1288	 9.59030186582116E-02 
1289	 9.59431160329732E-02 
1290	 9.59701105162705E-02 
1291	 9.59939381973469E-02 
1292	 9.60145859607849E-02 
1293	 9.60342653392324E-02 
1294	 9.60465327917696E-02 
1295	 0.096042618382703 
1296	 9.60565261805972E-02 
1297	 9.60816114896604E-02 
1298	 9.60919886639435E-02 
1299	 9.61117704025422E-02 
1300	 9.61184618255782E-02 
1301	 9.60999612988422E-02 
1302	 0.096093665931885 
1303	 9.61105360318671E-02 
1304	 9.60819510528424E-02 
1305	 9.60541126269855E-02 
1306	 9.60571098137662E-02 
1307	 9.60292724331017E-02 
1308	 9.60125904869821E-02 
1309	 9.59910194025119E-02 
1310	 9.59666858240933E-02 
1311	 9.59395092202727E-02 
1312	 9.59073779850041E-02 
1313	 9.58832775346273E-02 
1314	 9.58702544263256E-02 
1315	 9.58410988395255E-02 
1316	 9.58003511544243E-02 
1317	 9.57734548307953E-02 
1318	 0.095747074861413 
1319	 9.57106741661218E-02 
1320	 9.56838815133154E-02 
1321	 9.56530329131779E-02 
1322	 9.55979987673379E-02 
1323	 9.55643221287245E-02 
1324	 9.55534093154951E-02 
1325	 9.55262366819879E-02 
1326	 9.55027018290536E-02 
1327	 9.54644423590583E-02 
1328	 9.54206024936152E-02 
1329	 9.53841364876643E-02 
1330	 0.095346289925297 
1331	 9.53095159273961E-02 
1332	 9.52777989140398E-02 
1333	 9.52494950707969E-02 
1334	 9.52160124635481E-02 
1335	 9.51866096962286E-02 
1336	 9.51555378883803E-02 
1337	 9.51164393162275E-02 
1338	 9.50837810663239E-02 
1339	 9.50591882791686E-02 
1340	 9.50243969355673E-02 
1341	 9.49835048858916E-02 
1342	 9.49484763931789E-02 
1343	 9.49073390426643E-02 
1344	 9.48773462700498E-02 
1345	 9.48460717359859E-02 
1346	 9.48198218660693E-02 
1347	 9.48147004089345E-02 
1348	 9.48011374144487E-02 
1349	 0.094776503651245 
1350	 9.47545877668339E-02 
1351	 9.47329372742966E-02 
1352	 9.46948386075778E-02 
1353	 9.46703898976855E-02 
1354	 9.46638535624271E-02 
1355	 0.094645079281097 
1356	 9.46180422611389E-02 
1357	 9.45935679304652E-02 
1358	 9.45666539408598E-02 
1359	 9.45449970864799E-02 
1360	 9.45268695456918E-02 
1361	 9.45068421352424E-02 
1362	 9.44949669421721E-02 
1363	 9.44716832892963E-02 
1364	 9.44416572078376E-02 
1365	 0.094406832189295 
1366	 9.43563147167542E-02 
1367	 0.094325224273214 
1368	 9.42866552449467E-02 
1369	 9.42566806358544E-02 
1370	 9.42318376508389E-02 
1371	 9.41920952549901E-02 
1372	 9.41580345764953E-02 
1373	 9.40970215425303E-02 
1374	 9.40382170934036E-02 
1375	 9.39688602250509E-02 
1376	 9.39105627299892E-02 
1377	 9.38505168689753E-02 
1378	 9.37943049703005E-02 
1379	 9.37497522687004E-02 
1380	 9.36907628209798E-02 
1381	 9.36265828080405E-02 
1382	 9.35566120744636E-02 
1383	 9.34715891053791E-02 
1384	 9.33998050334853E-02 
1385	 9.33416853969664E-02 
1386	 9.32622356549151E-02 
1387	 9.31785735524224E-02 
1388	 9.30945229057561E-02 
1389	 9.29945239623207E-02 
1390	 9.28935430805444E-02 
1391	 9.28092933690314E-02 
1392	 9.27210083331482E-02 
1393	 9.26342208860761E-02 
1394	 9.25251036583576E-02 
1395	 9.23890338247513E-02 
1396	 9.22637897788946E-02 
1397	 9.21345406841791E-02 
1398	 9.19838900680147E-02 
1399	 9.18602072411043E-02 
1400	 9.17641713968668E-02 
1401	 9.16365120196928E-02 
1402	 9.15062594849821E-02 
1403	 9.13620812061104E-02 
1404	 9.11867766883831E-02 
1405	 9.10376763939841E-02 
1406	 0.090892238582545 
1407	 9.07571435759041E-02 
1408	 9.06434662413893E-02 
1409	 9.05142374971586E-02 
1410	 9.03726691447309E-02 
1411	 9.02444972792951E-02 
1412	 0.090114159051506 
1413	 8.99947249098798E-02 
1414	 8.98874858276591E-02 
1415	 8.98028822508016E-02 
1416	 8.97408318176094E-02 
1417	 8.96760562335741E-02 
1418	 8.96032414568374E-02 
1419	 8.95435324490535E-02 
1420	 8.94790026593187E-02 
1421	 0.089407848823449 
1422	 8.93507914058392E-02 
1423	 8.92855934697296E-02 
1424	 8.92252929895744E-02 
1425	 8.91548287949937E-02 
1426	 8.91084858796251E-02 
1427	 8.90833402958641E-02 
1428	 8.90448296744121E-02 
1429	 8.90103534131642E-02 
1430	 8.89718243880256E-02 
1431	 8.89173980100055E-02 
1432	 0.088881510395425 
1433	 8.88664212045644E-02 
1434	 8.88360520234338E-02 
1435	 8.87962290222813E-02 
1436	 8.87738733245658E-02 
1437	 0.088750192572275 
1438	 8.87304139498294E-02 
1439	 8.87249079017314E-02 
1440	 8.87256237787326E-02 
1441	 8.87077577492764E-02 
1442	 8.86914110711301E-02 
1443	 8.86716386468145E-02 
1444	 8.86443713702012E-02 
1445	 8.86328757083793E-02 
1446	 8.86198071103989E-02 
1447	 8.86140473157063E-02 
1448	 8.86269611828162E-02 
1449	 8.86147911364328E-02 
1450	 8.86008349541895E-02 
1451	 8.85949230297368E-02 
1452	 8.85872876675175E-02 
1453	 0.088578266734165 
1454	 8.85796670173636E-02 
1455	 8.85680806649724E-02 
1456	 8.85420234554911E-02 
1457	 8.85279283592052E-02 
1458	 8.85154963270494E-02 
1459	 0.088507749879966 
1460	 0.088508976626852 
1461	 8.85038525287368E-02 
1462	 8.84949271113012E-02 
1463	 8.84889697487523E-02 
1464	 8.84776066629079E-02 
1465	 8.84755788306672E-02 
1466	 0.088481462261235 
1467	 8.84882039535343E-02 
1468	 8.85019552034129E-02 
1469	 8.85169032270589E-02 
1470	 8.85376038920388E-02 
1471	 8.85476729206715E-02 
1472	 8.85672822621356E-02 
1473	 8.85810350024661E-02 
1474	 8.85805279775106E-02 
1475	 8.85911212569777E-02 
1476	 8.86213521993586E-02 
1477	 8.86415129372562E-02 
1478	 0.088662087953321 
1479	 8.86919029931827E-02 
1480	 8.87057718015891E-02 
1481	 8.87103770586584E-02 
1482	 8.87202782861994E-02 
1483	 8.87346195275596E-02 
1484	 8.87493154280471E-02 
1485	 8.87581286825229E-02 
1486	 8.87762070348266E-02 
1487	 8.88039995927622E-02 
1488	 8.88226124800671E-02 
1489	 8.88429190196314E-02 
1490	 8.88578306448906E-02 
1491	 8.88635309845583E-02 
1492	 8.88810671954269E-02 
1493	 8.89018416251453E-02 
1494	 0.088918537101608 
1495	 0.088941449965013 
1496	 8.89583904776338E-02 
1497	 8.89710273522993E-02 
1498	 8.89831883721607E-02 
1499	 0.088995219792053 
1500	 8.90021248251333E-02 
1501	 8.89944077034107E-02 
1502	 8.90025303685895E-02 
1503	 8.90168953271689E-02 
1504	 8.90344348423984E-02 
1505	 8.90575143076235E-02 
1506	 8.90870347640609E-02 
1507	 8.91064066561996E-02 
1508	 8.91211956733551E-02 
1509	 0.089138886142678 
1510	 8.91403775155156E-02 
1511	 0.089136742129289 
1512	 8.91423569707683E-02 
1513	 8.91413922197952E-02 
1514	 8.91466055014832E-02 
1515	 8.91577845926349E-02 
1516	 0.089165911427868 
1517	 8.91708805263835E-02 
1518	 8.91778107482127E-02 
1519	 8.91772451186625E-02 
1520	 0.08916684863743 
1521	 8.91588364081714E-02 
1522	 8.91464032687709E-02 
1523	 0.089141607133565 
1524	 8.91423744270483E-02 
1525	 8.91434763463414E-02 
1526	 8.91485771938364E-02 
1527	 8.91511094298015E-02 
1528	 0.089151606110496 
1529	 8.91505565845904E-02 
1530	 8.91453507141239E-02 
1531	 8.91482480668007E-02 
1532	 8.91554816201112E-02 
1533	 8.91615307931148E-02 
1534	 8.91732760277566E-02 
1535	 0.089184139613464 
1536	 8.91960543669367E-02 
1537	 8.91989707244969E-02 
1538	 8.92009852499629E-02 
1539	 8.91991305621008E-02 
1540	 8.91865346766849E-02 
1541	 8.91770742308322E-02 
1542	 8.91572821735385E-02 
1543	 8.91588102658985E-02 
1544	 8.91786674522484E-02 
1545	 8.91849980533079E-02 
1546	 8.92024762446866E-02 
1547	 8.92131499182255E-02 
1548	 0.089194567217648 
1549	 8.91833173025822E-02 
1550	 8.91714093241143E-02 
1551	 8.91460896085624E-02 
1552	 8.91374115195337E-02 
1553	 8.91288197082192E-02 
1554	 8.91320919882587E-02 
1555	 8.91554512259979E-02 
1556	 8.91646736880082E-02 
1557	 0.08917719989621 
1558	 8.91801617575723E-02 
1559	 8.91719233281061E-02 
1560	 8.91692475942806E-02 
1561	 8.91637577075066E-02 
1562	 8.91554186530011E-02 
1563	 8.91477351642815E-02 
1564	 8.91387771813731E-02 
1565	 8.91277416855339E-02 
1566	 8.91117075878975E-02 
1567	 8.90890372825782E-02 
1568	 8.90819757012938E-02 
1569	 8.90759137373393E-02 
1570	 8.90705712606179E-02 
1571	 8.90837118428063E-02 
1572	 8.90745754462039E-02 
1573	 8.90506352846686E-02 
1574	 8.90320224330954E-02 
1575	 8.90061101201392E-02 
1576	 8.89902133926817E-02 
1577	 8.89762016780853E-02 
1578	 8.89659032177469E-02 
1579	 8.89606876486231E-02 
1580	 8.89545032247993E-02 
1581	 8.89591037834747E-02 
1582	 0.088946922068606 
1583	 8.89198710272106E-02 
1584	 8.89108376178346E-02 
1585	 8.89027996901544E-02 
1586	 8.88914760498848E-02 
1587	 8.88936896787772E-02 
1588	 8.88872022962646E-02 
1589	 8.88607784936558E-02 
1590	 8.88500460298256E-02 
1591	 8.88551502975798E-02 
1592	 8.88489686360104E-02 
1593	 8.88433258969016E-02 
1594	 8.88373063008612E-02 
1595	 8.88254471763878E-02 
1596	 8.88127141759729E-02 
1597	 8.88002395210063E-02 
1598	 8.87873574282495E-02 
1599	 8.87725309012603E-02 
1600	 0.088755802167023 
1601	 8.87337625949771E-02 
1602	 0.088719518408114 
1603	 8.87151041105489E-02 
1604	 8.86987171109102E-02 
1605	 0.088682461222268 
1606	 8.86624828483639E-02 
1607	 8.86320729994814E-02 
1608	 8.85963395158623E-02 
1609	 8.85617631831951E-02 
1610	 8.85408561666334E-02 
1611	 8.85197535647417E-02 
1612	 8.85017115867807E-02 
1613	 8.84854188776203E-02 
1614	 8.84730574798626E-02 
1615	 0.088459832567244 
1616	 0.08843155639464 
1617	 8.84001843680026E-02 
1618	 8.83809030103254E-02 
1619	 8.83729553121282E-02 
1620	 8.83695071134039E-02 
1621	 8.83681072648862E-02 
1622	 8.83845609564138E-02 
1623	 0.088378784166744 
1624	 8.83637478804868E-02 
1625	 8.83454274172169E-02 
1626	 8.83203556049674E-02 
1627	 8.82940606403842E-02 
1628	 8.82572635499736E-02 
1629	 8.82389086576736E-02 
1630	 8.82232757593374E-02 
1631	 8.82145960927196E-02 
1632	 8.82255425795856E-02 
1633	 8.82112737157218E-02 
1634	 8.81866991365499E-02 
1635	 0.088170794306541 
1636	 8.81483573363929E-02 
1637	 8.81293751526069E-02 
1638	 8.81184586902803E-02 
1639	 8.81001791597388E-02 
1640	 8.80698801734511E-02 
1641	 8.80561959354745E-02 
1642	 8.80552503413621E-02 
1643	 0.088042021391071 
1644	 8.80331849066679E-02 
1645	 8.80129551586886E-02 
1646	 8.79766692453963E-02 
1647	 8.79535849257274E-02 
1648	 0.087936067291818 
1649	 8.79109191698508E-02 
1650	 8.78820509599139E-02 
1651	 8.78618297563007E-02 
1652	 8.78377625469919E-02 
1653	 8.78216821619227E-02 
1654	 8.78228418869845E-02 
1655	 8.78086794815195E-02 
1656	 0.087793601263234 
1657	 8.77661671732003E-02 
1658	 8.77261323652516E-02 
1659	 8.76908913015768E-02 
1660	 0.087639523221063 
1661	 8.76125025711024E-02 
1662	 8.76041608492962E-02 
1663	 8.75824483900196E-02 
1664	 8.75646344560114E-02 
1665	 8.75483103296195E-02 
1666	 8.75313281379743E-02 
1667	 8.75035378981419E-02 
1668	 8.74761112358082E-02 
1669	 8.74473602062273E-02 
1670	 8.73935128934018E-02 
1671	 8.73717498502816E-02 
1672	 8.73736802430774E-02 
1673	 8.73665580676965E-02 
1674	 8.73733007674509E-02 
1675	 8.73658438597683E-02 
1676	 8.73533896985537E-02 
1677	 8.73335063851072E-02 
1678	 8.73041647942813E-02 
1679	 8.72774876649308E-02 
1680	 8.72356811832367E-02 
1681	 8.72170604576441E-02 
1682	 8.72160815553117E-02 
1683	 8.72024147130058E-02 
1684	 8.71967821730082E-02 
1685	 8.71839975223404E-02 
1686	 8.71606033642684E-02 
1687	 0.08713817755708 
1688	 8.71144356182729E-02 
1689	 8.70964493569754E-02 
1690	 8.70779529163009E-02 
1691	 8.70564992456494E-02 
1692	 0.087043577494576 
1693	 8.70209156932077E-02 
1694	 8.69858686432388E-02 
1695	 8.69574032345598E-02 
1696	 8.69289867173901E-02 
1697	 8.69024610711176E-02 
1698	 8.68758585594642E-02 
1699	 8.68524467368666E-02 
1700	 8.68375461127245E-02 
1701	 8.68118323127364E-02 
1702	 8.67757424089256E-02 
1703	 8.67539510552717E-02 
1704	 8.67421630733145E-02 
1705	 8.67092633430722E-02 
1706	 8.66761509786832E-02 
1707	 8.66425676341829E-02 
1708	 8.65844750407897E-02 
1709	 8.65489109943168E-02 
1710	 8.65299806339811E-02 
1711	 0.086504417501239 
1712	 8.64804287986031E-02 
1713	 8.64585113541949E-02 
1714	 8.64397529141014E-02 
1715	 8.64203085834367E-02 
1716	 8.64056923684194E-02 
1717	 8.63800727839445E-02 
1718	 8.63504675427368E-02 
1719	 8.63168462472242E-02 
1720	 8.62711076522357E-02 
1721	 8.62402089814955E-02 
1722	 8.62112570550708E-02 
1723	 8.61869321657281E-02 
1724	 8.61724110774645E-02 
1725	 8.61511363743687E-02 
1726	 8.61377145506997E-02 
1727	 8.61057781755556E-02 
1728	 8.60574515883833E-02 
1729	 8.60255616151043E-02 
1730	 8.59874642851565E-02 
1731	 8.59544693543431E-02 
1732	 8.59391592643974E-02 
1733	 8.59109929800335E-02 
1734	 8.58724017660201E-02 
1735	 8.58379643143623E-02 
1736	 8.58062625865513E-02 
1737	 0.08577135935734 
1738	 8.57329287767492E-02 
1739	 8.56940757733825E-02 
1740	 8.56544069698704E-02 
1741	 8.56187734225678E-02 
1742	 8.55804140734281E-02 
1743	 8.55533425656043E-02 
1744	 0.085537608519618 
1745	 8.55047874616881E-02 
1746	 8.54748287929353E-02 
1747	 8.54045750391926E-02 
1748	 8.53412513038514E-02 
1749	 8.53197154332055E-02 
1750	 8.53040021822054E-02 
1751	 8.52974762007618E-02 
1752	 8.52999818963885E-02 
1753	 8.52461777860524E-02 
1754	 8.51978158655118E-02 
1755	 8.51678036792441E-02 
1756	 8.51154802006978E-02 
1757	 8.50733689272454E-02 
1758	 8.50242558540496E-02 
1759	 8.49579602891715E-02 
1760	 8.49096930630754E-02 
1761	 8.48801328746778E-02 
1762	 8.48445162074155E-02 
1763	 8.48104852314994E-02 
1764	 8.47779928605591E-02 
1765	 8.47283639035958E-02 
1766	 0.084680275847881 
1767	 8.46448438044772E-02 
1768	 8.46072988380986E-02 
1769	 8.45893098957577E-02 
1770	 8.45698240502658E-02 
1771	 8.45350071831542E-02 
1772	 8.45138345019339E-02 
1773	 8.44751538109888E-02 
1774	 8.44266890856692E-02 
1775	 8.43886000321203E-02 
1776	 8.43519902797198E-02 
1777	 8.43180825696085E-02 
1778	 8.42760559744994E-02 
1779	 8.42383875808603E-02 
1780	 8.42131856036991E-02 
1781	 8.41900807840586E-02 
1782	 8.41814108658382E-02 
1783	 8.41715224337946E-02 
1784	 8.41544873245276E-02 
1785	 8.41395606988658E-02 
1786	 8.41193117227715E-02 
1787	 8.41053285701383E-02 
1788	 8.40634409717972E-02 
1789	 8.39753197863612E-02 
1790	 8.39482938051119E-02 
1791	 8.39450380346506E-02 
1792	 8.39318919567212E-02 
1793	 8.39542767075611E-02 
1794	 8.39453685225857E-02 
1795	 0.083903823908538 
1796	 8.38773642959818E-02 
1797	 8.38670379611182E-02 
1798	 8.38421182203901E-02 
1799	 0.083802756242514 
1800	 8.37693818444976E-02 
1801	 8.03176560300145E-02 
1802	 8.02870945929238E-02 
1803	 8.02893041951721E-02 
1804	 8.03185382726553E-02 
1805	 0.080329166213096 
1806	 8.03499867736639E-02 
1807	 8.03850579180242E-02 
1808	 8.04108816597858E-02 
1809	 8.04444193203269E-02 
1810	 8.04605449017343E-02 
1811	 8.04797256428332E-02 
1812	 8.04653302922286E-02 
1813	 8.04429222396023E-02 
1814	 8.04176091538197E-02 
1815	 8.04094337951218E-02 
1816	 8.04078392698682E-02 
1817	 8.04025155019563E-02 
1818	 8.04129263976524E-02 
1819	 8.04101988673248E-02 
1820	 8.03999645262511E-02 
1821	 8.03781839094486E-02 
1822	 0.080376202907252 
1823	 8.03540265802057E-02 
1824	 8.03136369868497E-02 
1825	 8.03163414857895E-02 
1826	 8.03361144948298E-02 
1827	 8.03374923439912E-02 
1828	 8.03386348739669E-02 
1829	 8.03600300578983E-02 
1830	 8.03522960810724E-02 
1831	 8.03185220183932E-02 
1832	 8.02963482297428E-02 
1833	 0.080270371544589 
1834	 8.02384073266281E-02 
1835	 8.02134389306284E-02 
1836	 8.01913232781271E-02 
1837	 8.01666441036703E-02 
1838	 0.080142608627141 
1839	 8.01296761350872E-02 
1840	 8.01287761773846E-02 
1841	 8.01266833767946E-02 
1842	 8.00811195013535E-02 
1843	 8.00156641406257E-02 
1844	 7.99636384882493E-02 
1845	 7.98971132887932E-02 
1846	 0.079883680183691 
1847	 7.99034872712723E-02 
1848	 7.98660423558108E-02 
1849	 7.98314433926955E-02 
1850	 7.98016676843412E-02 
1851	 7.97636934550413E-02 
1852	 7.97130945699549E-02 
1853	 7.96799801900939E-02 
1854	 0.079638110856884 
1855	 7.96022424426774E-02 
1856	 7.95721590242642E-02 
1857	 7.95483309179834E-02 
1858	 7.95519198562664E-02 
1859	 7.95417617178169E-02 
1860	 7.95008910923751E-02 
1861	 7.94428707860791E-02 
1862	 7.93738976688765E-02 
1863	 7.93002553150126E-02 
1864	 7.92205260434393E-02 
1865	 7.91530348211294E-02 
1866	 7.91221072840751E-02 
1867	 0.079075966651351 
1868	 7.89902154830216E-02 
1869	 7.89125896900075E-02 
1870	 7.88390513835986E-02 
1871	 7.87364056168797E-02 
1872	 7.86065772635316E-02 
1873	 7.84897770087898E-02 
1874	 7.83738753679873E-02 
1875	 7.82110759913507E-02 
1876	 7.80344656815544E-02 
1877	 0.07785917977214 
1878	 7.76726505856767E-02 
1879	 7.74908053440435E-02 
1880	 7.72919647393008E-02 
1881	 0.077100535228746 
1882	 7.68781115818989E-02 
1883	 7.66346838379362E-02 
1884	 7.63610584243199E-02 
1885	 7.60902698505098E-02 
1886	 7.58180822593969E-02 
1887	 7.55066746796527E-02 
1888	 7.51950915169653E-02 
1889	 7.48513471416234E-02 
1890	 7.44919687161023E-02 
1891	 7.41361235572921E-02 
1892	 7.37666108068108E-02 
1893	 7.33975186519811E-02 
1894	 7.30359315324758E-02 
1895	 7.26583700967472E-02 
1896	 7.22504591660305E-02 
1897	 7.18519878346766E-02 
1898	 7.14399407479652E-02 
1899	 7.10201011315068E-02 
1900	 7.06229654656019E-02 
1901	 7.02515170612446E-02 
1902	 6.98827326254831E-02 
1903	 6.95234120687897E-02 
1904	 6.91737904170826E-02 
1905	 6.88337677406409E-02 
1906	 6.85063496747639E-02 
1907	 6.81888788301634E-02 
1908	 6.78909559612658E-02 
1909	 6.76282103596059E-02 
1910	 6.73621492200582E-02 
1911	 6.71054319239328E-02 
1912	 0.066867401715444 
1913	 6.66321248871787E-02 
1914	 6.63899296599118E-02 
1915	 0.066175608957991 
1916	 6.59734133727624E-02 
1917	 6.58008352686861E-02 
1918	 6.56255370571292E-02 
1919	 6.54559171154741E-02 
1920	 6.53082878842344E-02 
1921	 6.51643440252885E-02 
1922	 6.50406496017169E-02 
1923	 6.49549657749696E-02 
1924	 0.06486891579303 
1925	 6.47932088585573E-02 
1926	 6.47273778032778E-02 
1927	 6.46816195830383E-02 
1928	 6.46255160122756E-02 
1929	 6.45731854281992E-02 
1930	 6.45228013183166E-02 
1931	 6.44579048164453E-02 
1932	 6.43953984332023E-02 
1933	 6.43741763647323E-02 
1934	 6.43671114803765E-02 
1935	 6.43446885239001E-02 
1936	 6.43312189756227E-02 
1937	 6.43248505098501E-02 
1938	 6.42987723441826E-02 
1939	 6.42913620338952E-02 
1940	 6.43121726238189E-02 
1941	 6.43198069232527E-02 
1942	 6.43292291114477E-02 
1943	 6.43442071171294E-02 
1944	 0.064350064364924 
1945	 6.43848346449793E-02 
1946	 6.44238105367368E-02 
1947	 6.44730388807469E-02 
1948	 6.45236569735001E-02 
1949	 6.45923186538996E-02 
1950	 6.46519209319023E-02 
1951	 0.064714648571559 
1952	 6.47685136697976E-02 
1953	 6.48121418865681E-02 
1954	 6.48498637190674E-02 
1955	 6.48809201452563E-02 
1956	 6.49210953413632E-02 
1957	 6.49869970374724E-02 
1958	 6.50814726318688E-02 
1959	 6.51603912814498E-02 
1960	 6.52545932100502E-02 
1961	 6.53397625498872E-02 
1962	 6.54201064710426E-02 
1963	 0.065498201034284 
1964	 6.55693649811502E-02 
1965	 0.065649988023015 
1966	 6.57395719182084E-02 
1967	 0.06581249746292 
1968	 6.59031651882221E-02 
1969	 6.60153667458221E-02 
1970	 6.61095795336855E-02 
1971	 6.62026519756097E-02 
1972	 6.62935737816951E-02 
1973	 6.63661371213851E-02 
1974	 6.64589101654394E-02 
1975	 6.65611428772185E-02 
1976	 6.66661718561224E-02 
1977	 6.67689626279806E-02 
1978	 6.68822921602703E-02 
1979	 6.69862852091528E-02 
1980	 6.70661650791519E-02 
1981	 6.71579265620043E-02 
1982	 6.72476458097619E-02 
1983	 6.73454042622295E-02 
1984	 6.74414666551239E-02 
1985	 0.067548190512603 
1986	 0.067683765961028 
1987	 0.067785572782089 
1988	 6.78689844889552E-02 
1989	 6.79614897389964E-02 
1990	 6.80485106248191E-02 
1991	 6.81309816171725E-02 
1992	 6.82268457291824E-02 
1993	 6.83522362786245E-02 
1994	 6.84459931831961E-02 
1995	 6.85223130890576E-02 
1996	 6.86098623302006E-02 
1997	 6.86911958300108E-02 
1998	 6.87757153044657E-02 
1999	 0.068857943366884 
2000	 6.89520335544575E-02 
2001	 6.90494991427347E-02 
2002	 0.06915384014618 
2003	 6.92730539552864E-02 
2004	 6.93847947782638E-02 
2005	 0.069478955287561 
2006	 6.95559282583215E-02 
2007	 6.96431621209644E-02 
2008	 6.97198894746544E-02 
2009	 6.98017092386702E-02 
2010	 6.98887263379934E-02 
2011	 6.99781574474342E-02 
2012	 7.00683157582477E-02 
2013	 7.01548633015419E-02 
2014	 7.02502585460561E-02 
2015	 7.03324601190148E-02 
2016	 7.04072558560677E-02 
2017	 7.04909489760202E-02 
2018	 7.05815642976095E-02 
2019	 7.06880565883926E-02 
2020	 7.07737858952595E-02 
2021	 7.08545799014712E-02 
2022	 7.09381890530587E-02 
2023	 7.10086449000632E-02 
2024	 0.071089284205029 
2025	 7.11846852214441E-02 
2026	 0.071269726879094 
2027	 7.13528895958972E-02 
2028	 7.14313842035418E-02 
2029	 7.15036673469225E-02 
2030	 0.07156333423105 
2031	 7.16343901460816E-02 
2032	 7.17054919685017E-02 
2033	 7.17772542320468E-02 
2034	 7.18629621331857E-02 
2035	 7.19316220420502E-02 
2036	 7.19861341116785E-02 
2037	 7.20481392872258E-02 
2038	 7.21008434908422E-02 
2039	 0.072160018540224 
2040	 7.22294665448375E-02 
2041	 7.22952125161808E-02 
2042	 7.23467014999918E-02 
2043	 7.24250507355294E-02 
2044	 7.24797677245274E-02 
2045	 7.25218924365386E-02 
2046	 7.25737084103536E-02 
2047	 7.26244500276044E-02 
2048	 7.26715455453366E-02 
2049	 7.27278276190386E-02 
2050	 7.27697844319053E-02 
2051	 7.27926478152074E-02 
2052	 7.28276250896035E-02 
2053	 7.28708614575102E-02 
2054	 7.29029060936982E-02 
2055	 7.29418981577085E-02 
2056	 7.29558051895867E-02 
2057	 7.29865450310295E-02 
2058	 7.30037905571141E-02 
2059	 7.30439604198598E-02 
2060	 7.31084501473867E-02 
2061	 7.31556245666447E-02 
2062	 7.32009388960382E-02 
2063	 7.32473831547608E-02 
2064	 7.32899778482012E-02 
2065	 7.33345423296059E-02 
2066	 7.33829748797863E-02 
2067	 0.073430054268312 
2068	 7.34787945897366E-02 
2069	 7.35219157645056E-02 
2070	 7.35603980736494E-02 
2071	 7.35967930216831E-02 
2072	 7.36333498415569E-02 
2073	 7.36600015401326E-02 
2074	 0.07369683814281 
2075	 7.37390057646394E-02 
2076	 7.37810820694497E-02 
2077	 7.38280181400945E-02 
2078	 0.073869949244025 
2079	 7.39072430152358E-02 
2080	 7.39527998376846E-02 
2081	 7.40022703027631E-02 
2082	 7.40490970845773E-02 
2083	 7.41045863780073E-02 
2084	 7.41552626227666E-02 
2085	 0.074193880024372 
2086	 7.42202683503241E-02 
2087	 7.42512969942981E-02 
2088	 7.42762868901241E-02 
2089	 7.43018478018011E-02 
2090	 7.43270952449616E-02 
2091	 7.43546641726941E-02 
2092	 7.43670831060181E-02 
2093	 7.44055970971728E-02 
2094	 7.44637772002391E-02 
2095	 7.45159927761322E-02 
2096	 7.46057634729907E-02 
2097	 7.46543376877674E-02 
2098	 7.46764103959816E-02 
2099	 7.46859600538419E-02 
2100	 0.07471560018561 
2101	 7.47280830071407E-02 
2102	 7.47600888878511E-02 
2103	 7.48135546634844E-02 
2104	 7.48649090246132E-02 
2105	 7.49278954188721E-02 
2106	 7.49670290708029E-02 
2107	 7.50130737589854E-02 
2108	 0.075040052909392 
2109	 7.50147616397667E-02 
2110	 7.50318016710396E-02 
2111	 0.07507020020126 
2112	 7.51042012531095E-02 
2113	 7.51471803593345E-02 
2114	 7.52012430560659E-02 
2115	 7.52531527763435E-02 
2116	 7.53051094062049E-02 
2117	 7.53473824064979E-02 
2118	 7.53947614140258E-02 
2119	 7.54343166951327E-02 
2120	 7.54586653620789E-02 
2121	 7.54893663531952E-02 
2122	 7.55257880971118E-02 
2123	 7.55564044440114E-02 
2124	 7.55848976341832E-02 
2125	 7.56049267493918E-02 
2126	 7.56102926730898E-02 
2127	 7.56311317816007E-02 
2128	 7.56653438427728E-02 
2129	 7.56806448841204E-02 
2130	 7.56879958945435E-02 
2131	 7.57067647639352E-02 
2132	 7.57190798597084E-02 
2133	 7.57136391121028E-02 
2134	 0.075715663576139 
2135	 7.57369176337523E-02 
2136	 7.57314796719867E-02 
2137	 7.57032722757797E-02 
2138	 7.56860670685175E-02 
2139	 0.075673083729181 
2140	 7.56428939018028E-02 
2141	 7.56035494231685E-02 
2142	 7.55647076294431E-02 
2143	 7.55064695890474E-02 
2144	 0.075460010853491 
2145	 7.54292579355899E-02 
2146	 7.53859476803743E-02 
2147	 7.53223244843351E-02 
2148	 7.52787570406958E-02 
2149	 7.52513376282519E-02 
2150	 7.52378701681985E-02 
2151	 7.52034580816949E-02 
2152	 7.51897054904395E-02 
2153	 7.51492460802476E-02 
2154	 7.50683732266184E-02 
2155	 7.50167441435523E-02 
2156	 7.49828227221196E-02 
2157	 7.49316295207282E-02 
2158	 7.48759418899144E-02 
2159	 7.48209054883782E-02 
2160	 7.47614276687563E-02 
2161	 7.46968861654044E-02 
2162	 7.46278977284451E-02 
2163	 7.45628537036081E-02 
2164	 7.44937084343689E-02 
2165	 7.44217537844751E-02 
2166	 7.43581731213039E-02 
2167	 7.43040604402741E-02 
2168	 7.42455572290061E-02 
2169	 7.41979449375316E-02 
2170	 7.41217692356305E-02 
2171	 7.40247890292838E-02 
2172	 0.073947561988632 
2173	 7.38584246899214E-02 
2174	 7.37791463817855E-02 
2175	 7.37099099854531E-02 
2176	 7.36530132159477E-02 
2177	 7.36109694155123E-02 
2178	 7.35512673660905E-02 
2179	 7.35035607456663E-02 
2180	 7.34458547019548E-02 
2181	 7.33604465260409E-02 
2182	 7.32859388830835E-02 
2183	 7.32180739806659E-02 
2184	 0.073154676888164 
2185	 7.30827808487641E-02 
2186	 7.30029244314864E-02 
2187	 7.29318454915333E-02 
2188	 7.28583170955618E-02 
2189	 7.27939033375822E-02 
2190	 7.27378107860196E-02 
2191	 7.26820905404715E-02 
2192	 0.072634328745028 
2193	 7.25793802265462E-02 
2194	 7.25281453741577E-02 
2195	 7.24663813490837E-02 
2196	 7.23757410832885E-02 
2197	 7.23237160084612E-02 
2198	 7.22910613061159E-02 
2199	 7.22525225309102E-02 
2200	 7.22351223889948E-02 
2201	 7.22162725167645E-02 
2202	 0.072188352893182 
2203	 7.21734237102606E-02 
2204	 7.21375638771071E-02 
2205	 0.072097595013501 
2206	 7.20745313932087E-02 
2207	 7.20411543373592E-02 
2208	 7.20155916654172E-02 
2209	 7.20157084508167E-02 
2210	 7.19995253410648E-02 
2211	 7.19573265264288E-02 
2212	 0.071945338812288 
2213	 7.19718405446177E-02 
2214	 7.19576557777876E-02 
2215	 7.19278362789578E-02 
2216	 7.19039695758534E-02 
2217	 7.18437738529207E-02 
2218	 7.18186836749094E-02 
2219	 7.18229713003287E-02 
2220	 7.18249489419674E-02 
2221	 7.18468535908609E-02 
2222	 0.0718553829656 
2223	 7.18657669900313E-02 
2224	 7.18757624870089E-02 
2225	 7.18647281176193E-02 
2226	 7.18332164013873E-02 
2227	 7.18245442623246E-02 
2228	 7.18027214486417E-02 
2229	 7.18095794532005E-02 
2230	 7.18543612163049E-02 
2231	 7.18682652903375E-02 
2232	 7.18837110308784E-02 
2233	 7.18788260228281E-02 
2234	 7.18453156554375E-02 
2235	 7.18319195758435E-02 
2236	 7.18168622004282E-02 
2237	 7.18083509534024E-02 
2238	 0.071813687714141 
2239	 0.071809041435468 
2240	 7.17975536084321E-02 
2241	 0.071790768844494 
2242	 7.17982871705912E-02 
2243	 7.17844358295269E-02 
2244	 7.17540205160582E-02 
2245	 7.17302959554117E-02 
2246	 7.16969157750333E-02 
2247	 7.16621085873525E-02 
2248	 7.16424231557737E-02 
2249	 0.071642763551765 
2250	 7.16221595676555E-02 
2251	 7.15935691606417E-02 
2252	 7.15776628736751E-02 
2253	 7.15644435319093E-02 
2254	 7.15429725308645E-02 
2255	 7.15203325449282E-02 
2256	 7.15100849722906E-02 
2257	 7.15020220927391E-02 
2258	 7.14848879131652E-02 
2259	 7.14786018255581E-02 
2260	 0.071466728599347 
2261	 7.14382005712416E-02 
2262	 7.14116375238178E-02 
2263	 7.13759918719205E-02 
2264	 7.13688619746452E-02 
2265	 7.13676388164097E-02 
2266	 7.13750758349891E-02 
2267	 7.14257620839261E-02 
2268	 7.14528684297779E-02 
2269	 7.14763529584685E-02 
2270	 7.14756745707169E-02 
2271	 7.14819198477048E-02 
2272	 7.15022827203881E-02 
2273	 7.14871182496608E-02 
2274	 7.14876847645518E-02 
2275	 7.14884030567007E-02 
2276	 7.14737640099193E-02 
2277	 7.14839327469217E-02 
2278	 7.15204198637596E-02 
2279	 0.071541015612107 
2280	 7.15703551905156E-02 
2281	 7.15815406973267E-02 
2282	 7.15650200905576E-02 
2283	 7.15837905840264E-02 
2284	 7.16228847896945E-02 
2285	 7.16413430240875E-02 
2286	 7.16697152968256E-02 
2287	 7.16840786729313E-02 
2288	 7.16876014701853E-02 
2289	 7.16754118366195E-02 
2290	 7.16456160436817E-02 
2291	 7.16350900360175E-02 
2292	 7.15929654052387E-02 
2293	 7.15835464761817E-02 
2294	 7.16312654770608E-02 
2295	 7.16457590661052E-02 
2296	 7.16483366596265E-02 
2297	 7.16626108297575E-02 
2298	 7.16708153572382E-02 
2299	 7.16552080993731E-02 
2300	 7.16639938591513E-02 
2301	 7.16639822697705E-02 
2302	 7.16314181741089E-02 
2303	 7.15811050117402E-02 
2304	 7.15368144210616E-02 
2305	 7.14979609474041E-02 
2306	 7.14496346255951E-02 
2307	 7.14002886256948E-02 
2308	 7.13646048313368E-02 
2309	 7.13118248811375E-02 
2310	 7.12963395220672E-02 
2311	 7.13204101045396E-02 
2312	 7.13284905066683E-02 
2313	 7.13465201911388E-02 
2314	 7.13528297678875E-02 
2315	 7.13593081897213E-02 
2316	 0.071349634354529 
2317	 7.13440009717146E-02 
2318	 7.13122667369354E-02 
2319	 7.12178846292716E-02 
2320	 7.11975656389335E-02 
2321	 0.071191040742309 
2322	 7.11998102487347E-02 
2323	 7.13163699448746E-02 
2324	 7.13280691025922E-02 
2325	 7.12777796885187E-02 
2326	 7.12464033512415E-02 
2327	 7.11867393319314E-02 
2328	 7.10836298794791E-02 
2329	 7.10518377825963E-02 
2330	 7.10281858701413E-02 
2331	 7.09838673567169E-02 
2332	 7.09584106214332E-02 
2333	 7.09596126426802E-02 
2334	 0.070936653764537 
2335	 7.09328440636311E-02 
2336	 7.10004531178426E-02 
2337	 7.10466290846466E-02 
2338	 7.10833913330668E-02 
2339	 7.10836809448903E-02 
2340	 0.07103742592844 
2341	 7.10349860779738E-02 
2342	 7.10195817658444E-02 
2343	 7.10010041882662E-02 
2344	 0.071021075829207 
2345	 7.09974519408873E-02 
2346	 7.09140358653773E-02 
2347	 7.08801913254181E-02 
2348	 7.08582778594638E-02 
2349	 7.08462778995814E-02 
2350	 7.08765108595231E-02 
2351	 7.08505216930771E-02 
2352	 7.08069875409791E-02 
2353	 7.07621693132336E-02 
2354	 7.06627853074339E-02 
2355	 7.06280729741392E-02 
2356	 7.06599887897579E-02 
2357	 7.06082770413126E-02 
2358	 7.05339080006993E-02 
2359	 7.04491524274486E-02 
2360	 7.02828370088649E-02 
2361	 7.01982751753283E-02 
2362	 7.01712266762005E-02 
2363	 7.01304926596742E-02 
2364	 7.01192417819643E-02 
2365	 7.00864653245705E-02 
2366	 7.00300514955244E-02 
2367	 6.99966094220064E-02 
2368	 6.99781055999683E-02 
2369	 6.99399088862614E-02 
2370	 6.99212672509771E-02 
2371	 6.98558884655786E-02 
2372	 0.069742544937283 
2373	 6.97119525750431E-02 
2374	 6.96217664584373E-02 
2375	 6.95593389308145E-02 
2376	 6.95724455306679E-02 
2377	 6.94816274455911E-02 
2378	 6.93963518784858E-02 
2379	 6.93189769091634E-02 
2380	 6.92075298442135E-02 
2381	 6.91564335339299E-02 
2382	 6.91034748353124E-02 
2383	 6.90631777392122E-02 
2384	 6.90070490803739E-02 
2385	 6.89034863928242E-02 
2386	 0.068859223236189 
2387	 6.88059220121943E-02 
2388	 6.87556655896246E-02 
2389	 6.87047247438731E-02 
2390	 6.85634955725142E-02 
2391	 6.84517598609972E-02 
2392	 6.83574106254481E-02 
2393	 0.068258770154171 
2394	 6.82114195483225E-02 
2395	 6.81214153890768E-02 
2396	 6.80329552669213E-02 
2397	 6.79843271489741E-02 
2398	 6.79157754218861E-02 
2399	 6.78656475227543E-02 
2400	 6.77994308441928E-02 
2401	 6.76868572041744E-02 
2402	 6.75524744671395E-02 
2403	 6.74769226937914E-02 
2404	 6.75046827662605E-02 
2405	 0.067496095346445 
2406	 0.067494806975856 
2407	 6.75073050440263E-02 
2408	 6.74865113652103E-02 
2409	 6.74172552185804E-02 
2410	 6.72175567052809E-02 
2411	 6.70771739551708E-02 
2412	 6.69869264089098E-02 
2413	 0.066813987040836 
2414	 6.67122596809534E-02 
2415	 6.67256948014746E-02 
2416	 6.66797517500171E-02 
2417	 6.65714735749196E-02 
2418	 6.64682909478621E-02 
2419	 0.066385607487708 
2420	 6.62550823968805E-02 
2421	 6.60397624201079E-02 
2422	 6.59266062937791E-02 
2423	 6.58522711226618E-02 
2424	 6.58213165460607E-02 
2425	 6.58571284556736E-02 
2426	 0.065837052920733 
2427	 6.58539364262731E-02 
2428	 0.065842789983531 
2429	 0.065816420142982 
2430	 0.065732368916249 
2431	 6.55965943675024E-02 
2432	 6.54575145145124E-02 
2433	 6.52336352032958E-02 
2434	 6.50902530830212E-02 
2435	 6.49966786647374E-02 
2436	 6.49395675392194E-02 
2437	 6.49297163218502E-02 
2438	 6.48713437099699E-02 
2439	 6.48469425125765E-02 
2440	 6.47283435486105E-02 
2441	 6.45125195182433E-02 
2442	 6.44088361772394E-02 
2443	 6.43155827751236E-02 
2444	 6.42375306926112E-02 
2445	 6.42554052568921E-02 
2446	 6.41825632195188E-02 
2447	 6.40079640608602E-02 
2448	 6.39476785246465E-02 
2449	 6.39664120856714E-02 
2450	 6.38876336918305E-02 
2451	 6.38366764806006E-02 
2452	 6.36882564312737E-02 
2453	 0.063343352683296 
2454	 0.063178206746318 
2455	 6.31019530166551E-02 
2456	 0.063007512319339 
2457	 6.29956622713198E-02 
2458	 0.062941806882833 
2459	 6.28638018195391E-02 
2460	 6.27082959584573E-02 
2461	 6.25386680821982E-02 
2462	 6.24180783501862E-02 
2463	 6.21782057818528E-02 
2464	 6.20965955523331E-02 
2465	 6.21322935506268E-02 
2466	 6.20509936418111E-02 
2467	 6.20047524531571E-02 
2468	 6.19650015216761E-02 
2469	 0.061931122864871 
2470	 6.17854043288387E-02 
2471	 6.17396234840753E-02 
2472	 6.15475495069156E-02 
2473	 0.061336511130489 
2474	 6.14132879918636E-02 
2475	 6.14080443348425E-02 
2476	 6.13494928576793E-02 
2477	 6.13619438072152E-02 
2478	 6.13635246286515E-02 
2479	 6.14022958334795E-02 
2480	 6.14935950309076E-02 
2481	 6.14452545938556E-02 
2482	 6.13211293369361E-02 
2483	 6.10001884925633E-02 
2484	 6.06715494052138E-02 
2485	 6.06287838729626E-02 
2486	 6.04422085617964E-02 
2487	 6.04016105805128E-02 
2488	 6.03923079191518E-02 
2489	 6.02740998003764E-02 
2490	 6.02853536419913E-02 
2491	 6.02570674523663E-02 
2492	 6.02917312838672E-02 
2493	 6.01276583660642E-02 
2494	 5.98624283204066E-02 
2495	 5.96840797487539E-02 
2496	 5.93958157609658E-02 
2497	 5.94339650795245E-02 
2498	 0.059608078595338 
2499	 5.95296299854809E-02 
2500	 0.059725457723577 
