Wavelength	LMW_12_00005.asd
350	 0.122760610863531 
351	 0.115028453299467 
352	 0.107666438790337 
353	 0.109335321232066 
354	 0.115526031066591 
355	 0.110989465614524 
356	 0.104282844266725 
357	 0.106544492544426 
358	 0.114934903959561 
359	 0.110996580564128 
360	 0.103527718150756 
361	 0.114865092115342 
362	 0.110343882349921 
363	 0.106049714179291 
364	 0.110790837996424 
365	 0.112204245291688 
366	 0.117442090146823 
367	 0.119327534576137 
368	 0.112856371254426 
369	 0.11538621828184 
370	 0.119165922448909 
371	 0.121135147326061 
372	 0.12195191134431 
373	 0.123074674540717 
374	 0.122790541423246 
375	 0.12193875766022 
376	 0.12679088888749 
377	 0.127979903747018 
378	 0.127020648133402 
379	 0.127907782271825 
380	 0.130188919334189 
381	 0.130673217504642 
382	 0.131060284110932 
383	 0.135994376218197 
384	 0.137898157787374 
385	 0.137419498275472 
386	 0.136803897356948 
387	 0.138969423100343 
388	 0.14098529141677 
389	 0.142629061810949 
390	 0.144315885607993 
391	 0.145071144764552 
392	 0.146470205583374 
393	 0.149117732776892 
394	 0.152575596142985 
395	 0.154577010315243 
396	 0.155759511113191 
397	 0.157055828117413 
398	 0.158982835183617 
399	 0.159826482597659 
400	 0.161224434727458 
401	 0.164978191164462 
402	 0.166953821266933 
403	 0.167244318629379 
404	 0.167350581431415 
405	 0.169708177465467 
406	 0.171626800750869 
407	 0.173009342903879 
408	 0.173998384354874 
409	 0.173662496856028 
410	 0.174343447257416 
411	 0.176015347650978 
412	 0.177500392237533 
413	 0.17843028084803 
414	 0.179302742486634 
415	 0.180178626581074 
416	 0.180439810661814 
417	 0.180691112933388 
418	 0.181525795136362 
419	 0.182823009098087 
420	 0.182133897080928 
421	 0.181587939974263 
422	 0.181938219732009 
423	 0.182833444713802 
424	 0.182890884042001 
425	 0.18260432217004 
426	 0.182485510370358 
427	 0.182636836025007 
428	 0.182443650285746 
429	 0.181969257677037 
430	 0.181611322276328 
431	 0.182301194166394 
432	 0.182037719642833 
433	 0.181013438141956 
434	 0.181510967183597 
435	 0.181672976652757 
436	 0.181957951574682 
437	 0.18278113416636 
438	 0.183284689783067 
439	 0.183814794307758 
440	 0.184540435272173 
441	 0.185491009099409 
442	 0.186241268009761 
443	 0.187358968229546 
444	 0.188727429909807 
445	 0.189032303145472 
446	 0.190028054652364 
447	 0.191379464042282 
448	 0.192349392171523 
449	 0.193236874897364 
450	 0.19428960909069 
451	 0.195490929322002 
452	 0.196598648861476 
453	 0.197428527568245 
454	 0.198154019176111 
455	 0.198986524513731 
456	 0.200142111761503 
457	 0.200737907402022 
458	 0.201148805374432 
459	 0.202163167925184 
460	 0.202871314733736 
461	 0.203457023184006 
462	 0.20409766438752 
463	 0.204824074748036 
464	 0.205325845251365 
465	 0.205862688360584 
466	 0.206663366340246 
467	 0.207154107352817 
468	 0.207735360114832 
469	 0.208294228670691 
470	 0.208356676898398 
471	 0.208846033951235 
472	 0.20933635928565 
473	 0.209505805405655 
474	 0.209782435391351 
475	 0.210387376052793 
476	 0.211123643400967 
477	 0.211630660384075 
478	 0.211993034970184 
479	 0.212422110586357 
480	 0.212960267826949 
481	 0.213405614609731 
482	 0.213762218126978 
483	 0.214277316138313 
484	 0.215070200750321 
485	 0.215494409501645 
486	 0.215790952100555 
487	 0.216152711589617 
488	 0.216687875582835 
489	 0.217044096973504 
490	 0.217504232369343 
491	 0.218196773673849 
492	 0.218594810667206 
493	 0.219019999312976 
494	 0.219474653424388 
495	 0.219854456672422 
496	 0.220428803466292 
497	 0.220905365620969 
498	 0.221253825981338 
499	 0.221917392513971 
500	 0.222374156904496 
501	 0.222699121410937 
502	 0.22311723086368 
503	 0.223688864801904 
504	 0.22417656677929 
505	 0.224595309693173 
506	 0.22518253934847 
507	 0.225647960390341 
508	 0.226124989955204 
509	 0.226688368366184 
510	 0.227019463107082 
511	 0.227424919368285 
512	 0.227973837151212 
513	 0.228589436777774 
514	 0.229145011862543 
515	 0.22963725107784 
516	 0.230091815463097 
517	 0.23055552362715 
518	 0.230957640517938 
519	 0.231313895172279 
520	 0.23168122300248 
521	 0.232154809784874 
522	 0.232704979000846 
523	 0.233230907060966 
524	 0.233574559478153 
525	 0.234045714186209 
526	 0.234568313689193 
527	 0.235029996826572 
528	 0.235489016356416 
529	 0.236011860260707 
530	 0.236535879756428 
531	 0.236930406135806 
532	 0.23732320608858 
533	 0.237800037490118 
534	 0.238366887059864 
535	 0.238889820612791 
536	 0.239382293348227 
537	 0.239887598934466 
538	 0.240433524183256 
539	 0.240815490604858 
540	 0.241249398782281 
541	 0.241815688769046 
542	 0.242376783372725 
543	 0.242806253916059 
544	 0.243270556962381 
545	 0.243906850677022 
546	 0.244368914666284 
547	 0.244922527416177 
548	 0.245603991283704 
549	 0.246244333263064 
550	 0.246843872886154 
551	 0.247420418137344 
552	 0.247999291827327 
553	 0.248605374710302 
554	 0.249223532589789 
555	 0.249845191542243 
556	 0.250463239709685 
557	 0.251065144685026 
558	 0.251618087655066 
559	 0.252136658079615 
560	 0.252713869720332 
561	 0.253372750468653 
562	 0.254126194494344 
563	 0.254960791817557 
564	 0.255771696073204 
565	 0.25667475406007 
566	 0.257753702418269 
567	 0.259036489500645 
568	 0.260215901892108 
569	 0.261091213902438 
570	 0.261631779678722 
571	 0.262183117450716 
572	 0.26287844726276 
573	 0.263751430193448 
574	 0.264731662776254 
575	 0.265499964265181 
576	 0.266224038919805 
577	 0.267060159945456 
578	 0.267929431324766 
579	 0.26909691288133 
580	 0.270507070313866 
581	 0.27195984799526 
582	 0.273409110139874 
583	 0.274745604927081 
584	 0.27583832616163 
585	 0.276519097789858 
586	 0.277313974317485 
587	 0.278140082577651 
588	 0.278806880967085 
589	 0.279530454330791 
590	 0.280243883878864 
591	 0.280928932696832 
592	 0.281617946610771 
593	 0.282179218743695 
594	 0.282768203849326 
595	 0.283593690305869 
596	 0.284874134838263 
597	 0.286343242869855 
598	 0.287857655792342 
599	 0.289347136654693 
600	 0.290757461602027 
601	 0.291878438770187 
602	 0.292690476678273 
603	 0.293531814859764 
604	 0.294365387268329 
605	 0.295188108341595 
606	 0.296012728521304 
607	 0.296950489908636 
608	 0.297815467035472 
609	 0.298569878343776 
610	 0.299365104938506 
611	 0.300229911626555 
612	 0.30120370795762 
613	 0.302243463655718 
614	 0.303058183915741 
615	 0.303899130090581 
616	 0.304758984063797 
617	 0.305464582327594 
618	 0.30626165697613 
619	 0.306994721476522 
620	 0.307597822342361 
621	 0.30832504318715 
622	 0.309041565043929 
623	 0.309747012217118 
624	 0.310475219198478 
625	 0.311137491538063 
626	 0.311798888495424 
627	 0.312478215201955 
628	 0.313114842465346 
629	 0.313787254521069 
630	 0.314462443330074 
631	 0.315104329250329 
632	 0.315788049316868 
633	 0.316458671503421 
634	 0.317106936104367 
635	 0.317764996906418 
636	 0.318442890367152 
637	 0.319141158240033 
638	 0.319824692223438 
639	 0.320366689413328 
640	 0.320988422121829 
641	 0.321688228031733 
642	 0.322363795952191 
643	 0.32304165520201 
644	 0.323710668250027 
645	 0.324366889021846 
646	 0.32501996941752 
647	 0.325619812911509 
648	 0.326222370557682 
649	 0.326899944365382 
650	 0.327661967302771 
651	 0.32837838240907 
652	 0.329025710770072 
653	 0.329680175065384 
654	 0.330373931831233 
655	 0.331078982803417 
656	 0.331765259629463 
657	 0.332421176703142 
658	 0.33312571847859 
659	 0.333881172597549 
660	 0.334633954516259 
661	 0.335240165055646 
662	 0.335857645486721 
663	 0.336590405985078 
664	 0.337424065746351 
665	 0.338239204994772 
666	 0.338957520986601 
667	 0.339578766828107 
668	 0.340324744676918 
669	 0.341143888615953 
670	 0.34193460433818 
671	 0.342580525136564 
672	 0.343346744581541 
673	 0.344171418945728 
674	 0.344970360009341 
675	 0.345757219947052 
676	 0.34647261455342 
677	 0.34719433539357 
678	 0.348033889328423 
679	 0.348872059155128 
680	 0.349653434375559 
681	 0.350407948085069 
682	 0.351268088340035 
683	 0.352041346390235 
684	 0.352786369566965 
685	 0.353603456982988 
686	 0.354499545916829 
687	 0.35534631812026 
688	 0.356124161177439 
689	 0.356899351051428 
690	 0.357755149096485 
691	 0.358561236509992 
692	 0.359291162661289 
693	 0.360203626454474 
694	 0.36101450751067 
695	 0.361773852853331 
696	 0.36262929908564 
697	 0.363548282036266 
698	 0.364413923753118 
699	 0.365221454719411 
700	 0.366084185729109 
701	 0.366815146353302 
702	 0.367579106471334 
703	 0.368489512052357 
704	 0.369303397807611 
705	 0.370147749830227 
706	 0.370979004826057 
707	 0.371696473917842 
708	 0.372499660763021 
709	 0.373314792238178 
710	 0.374109053503197 
711	 0.374957481990257 
712	 0.375737098679792 
713	 0.376474439449954 
714	 0.377225774310375 
715	 0.377978070220539 
716	 0.378710721024343 
717	 0.379459192438778 
718	 0.380276704758923 
719	 0.38092920371621 
720	 0.38154994662282 
721	 0.382230668024322 
722	 0.382870652079672 
723	 0.38358414873661 
724	 0.384354253849084 
725	 0.38511212539245 
726	 0.385803641332703 
727	 0.386334870944254 
728	 0.386796606452586 
729	 0.387430785071547 
730	 0.388028236584153 
731	 0.388634480939774 
732	 0.389260710398392 
733	 0.389718425652205 
734	 0.390179675096308 
735	 0.390682296787305 
736	 0.391199606715454 
737	 0.391679117140242 
738	 0.392152801103767 
739	 0.392625650159284 
740	 0.393066948931979 
741	 0.393498344163467 
742	 0.393882331096841 
743	 0.394203626221633 
744	 0.394534702282528 
745	 0.39486923910752 
746	 0.395217925286342 
747	 0.395579637375119 
748	 0.395836676533148 
749	 0.396078409343806 
750	 0.396330941280149 
751	 0.396522784812219 
752	 0.396776089182086 
753	 0.397055094477679 
754	 0.397299029310794 
755	 0.397489393797699 
756	 0.397663174418979 
757	 0.397839273278664 
758	 0.398019249860248 
759	 0.398173528273434 
760	 0.398225577026563 
761	 0.398223707267671 
762	 0.398368721129492 
763	 0.398516975258462 
764	 0.398626745895867 
765	 0.398698445188299 
766	 0.398793520664572 
767	 0.398781756755717 
768	 0.398763424319817 
769	 0.398903576338401 
770	 0.398930939643708 
771	 0.398906045879087 
772	 0.39887438886282 
773	 0.398826980227919 
774	 0.398808556993583 
775	 0.398814744375439 
776	 0.398827844790397 
777	 0.398833140455789 
778	 0.3988136884289 
779	 0.39876301199549 
780	 0.398696779872205 
781	 0.398729892191646 
782	 0.398685654172658 
783	 0.398561734636528 
784	 0.398552836152187 
785	 0.39850381878318 
786	 0.398392243006801 
787	 0.398257350647518 
788	 0.398217923061832 
789	 0.398234278994832 
790	 0.398232197695974 
791	 0.398139118516779 
792	 0.397968986247849 
793	 0.397886216614602 
794	 0.397904003441712 
795	 0.39789530737665 
796	 0.39781333492569 
797	 0.397668950661137 
798	 0.397513979958938 
799	 0.397448857107707 
800	 0.397403239206486 
801	 0.397298495736054 
802	 0.397121379651949 
803	 0.397108807305009 
804	 0.397127412496124 
805	 0.397084024224738 
806	 0.396946487762209 
807	 0.396908021079706 
808	 0.396833353289821 
809	 0.396685623563546 
810	 0.396600662411207 
811	 0.396587881795153 
812	 0.396547520503258 
813	 0.396424072300213 
814	 0.396353000793061 
815	 0.396260822538043 
816	 0.396218490802805 
817	 0.396291166576876 
818	 0.39619801564132 
819	 0.396117114169807 
820	 0.396079539850992 
821	 0.395984441620346 
822	 0.396004696281478 
823	 0.396001110391657 
824	 0.395900262154406 
825	 0.395811941642594 
826	 0.395746321770641 
827	 0.39569033478722 
828	 0.395644813678698 
829	 0.395706709117076 
830	 0.395607350963172 
831	 0.395474887302788 
832	 0.395575001581884 
833	 0.395712836015688 
834	 0.395705502769916 
835	 0.395570152689633 
836	 0.395511033471814 
837	 0.395594602373364 
838	 0.395670839861584 
839	 0.395657535308097 
840	 0.39565548513191 
841	 0.395665722562859 
842	 0.39564495775973 
843	 0.395569660815312 
844	 0.395509105257717 
845	 0.395570777688943 
846	 0.395646454535851 
847	 0.395579754170312 
848	 0.39556400802271 
849	 0.39566987679303 
850	 0.395842168799391 
851	 0.395931855333603 
852	 0.3959278076303 
853	 0.39593655964815 
854	 0.396007049597148 
855	 0.396076902336119 
856	 0.396147562959939 
857	 0.396274792600518 
858	 0.396430277092017 
859	 0.396321528182017 
860	 0.396329965782142 
861	 0.396513251400163 
862	 0.396758728722558 
863	 0.396811671727354 
864	 0.396859559639127 
865	 0.396994870983947 
866	 0.397210854828407 
867	 0.397360836322378 
868	 0.397364176824725 
869	 0.39732717560138 
870	 0.397505744600644 
871	 0.397679066163292 
872	 0.397905927302077 
873	 0.398193182009935 
874	 0.398399346392416 
875	 0.398397486451684 
876	 0.398339709696857 
877	 0.398411394956387 
878	 0.398686279677733 
879	 0.398998061850743 
880	 0.399187650118211 
881	 0.399221190478994 
882	 0.399512915227711 
883	 0.399783190427745 
884	 0.399971992281091 
885	 0.400171110791244 
886	 0.400518131814494 
887	 0.400796131435964 
888	 0.400983202681871 
889	 0.40123465793978 
890	 0.401475749827465 
891	 0.401736825789242 
892	 0.401987149041036 
893	 0.402119543179953 
894	 0.402303979110378 
895	 0.402538707850145 
896	 0.402827315358258 
897	 0.403247185190699 
898	 0.403588536477333 
899	 0.403846221453381 
900	 0.404078303007314 
901	 0.40433956257297 
902	 0.404599451000709 
903	 0.404857515338858 
904	 0.405138829807375 
905	 0.405526206302006 
906	 0.405926934677503 
907	 0.406236797892458 
908	 0.406432158396262 
909	 0.40686685368935 
910	 0.407296886954435 
911	 0.407687944765949 
912	 0.408127451926278 
913	 0.408370527003249 
914	 0.408636411541826 
915	 0.409026137297793 
916	 0.409490042739784 
917	 0.410013859566602 
918	 0.410438612458993 
919	 0.41073229769482 
920	 0.411032047287788 
921	 0.411483842422933 
922	 0.411902402553047 
923	 0.412255577489734 
924	 0.412805265723237 
925	 0.413253351616402 
926	 0.413610901537298 
927	 0.413981783343719 
928	 0.414500866240551 
929	 0.41498198237437 
930	 0.415442794458304 
931	 0.415934309169089 
932	 0.416455937946944 
933	 0.417028370546173 
934	 0.41746460660369 
935	 0.417708165502815 
936	 0.41823067599998 
937	 0.418767390651992 
938	 0.419331528456907 
939	 0.419986628754523 
940	 0.420667011304527 
941	 0.421264110144893 
942	 0.421754677163383 
943	 0.422174013171791 
944	 0.422576851890209 
945	 0.423123220608463 
946	 0.423746908331683 
947	 0.424291043126748 
948	 0.424732496700347 
949	 0.425197299991664 
950	 0.425710825566333 
951	 0.426256843083329 
952	 0.426929054230845 
953	 0.427591653037256 
954	 0.428174248207695 
955	 0.428667224997548 
956	 0.429089929707621 
957	 0.429634341700484 
958	 0.430259789622864 
959	 0.430789379151872 
960	 0.431197816118902 
961	 0.43172732853481 
962	 0.432506519826619 
963	 0.433456264945808 
964	 0.433952585012078 
965	 0.434470625624433 
966	 0.435149248292009 
967	 0.435855191276852 
968	 0.436673375250828 
969	 0.437448231945002 
970	 0.438053058706503 
971	 0.438483122824011 
972	 0.439176983642686 
973	 0.439894029781753 
974	 0.440562689527813 
975	 0.441265640086597 
976	 0.442039647019951 
977	 0.442809474313794 
978	 0.443474091361771 
979	 0.443978585212559 
980	 0.444560700164185 
981	 0.444984026636222 
982	 0.445429427559497 
983	 0.446222156473362 
984	 0.446930881910838 
985	 0.447694046428523 
986	 0.448425684388023 
987	 0.448979655564885 
988	 0.449620475045487 
989	 0.450334753234461 
990	 0.451037412270069 
991	 0.451667583741884 
992	 0.452434720922781 
993	 0.453003350193361 
994	 0.45353135127921 
995	 0.45426028511186 
996	 0.45478499457586 
997	 0.455090028031498 
998	 0.455678603085283 
999	 0.45681774504116 
1000	 0.45730115295332 
1001	 0.461496632681986 
1002	 0.46197517330314 
1003	 0.462399763133785 
1004	 0.462898750454595 
1005	 0.463393716590682 
1006	 0.463903464917431 
1007	 0.464449708849919 
1008	 0.465090406225432 
1009	 0.465596242447782 
1010	 0.466009025058991 
1011	 0.466453732581616 
1012	 0.466865683201474 
1013	 0.467329792224043 
1014	 0.467804896135863 
1015	 0.468269891073567 
1016	 0.468778101172941 
1017	 0.469264333086756 
1018	 0.46972156217507 
1019	 0.470195654909866 
1020	 0.470691770226091 
1021	 0.47111292269454 
1022	 0.471472058433902 
1023	 0.471870949979944 
1024	 0.472274404682333 
1025	 0.472645813761411 
1026	 0.47307696110908 
1027	 0.473536895306621 
1028	 0.473966893733232 
1029	 0.474370736854793 
1030	 0.474800087316698 
1031	 0.475207249104424 
1032	 0.475583222069502 
1033	 0.475934501320781 
1034	 0.47635565116365 
1035	 0.476727829263677 
1036	 0.477087174842929 
1037	 0.477482088757504 
1038	 0.477797924908429 
1039	 0.478134318069213 
1040	 0.478512425130555 
1041	 0.478878643896933 
1042	 0.479282029643124 
1043	 0.479655694102623 
1044	 0.480007603861888 
1045	 0.480312652306123 
1046	 0.480638850679967 
1047	 0.481016964865113 
1048	 0.481437873267247 
1049	 0.48179836308285 
1050	 0.482139215469979 
1051	 0.482476193350908 
1052	 0.482742843947652 
1053	 0.483139823768652 
1054	 0.483562572389495 
1055	 0.483836423239197 
1056	 0.484149575942086 
1057	 0.484478066897022 
1058	 0.484734438833654 
1059	 0.485054481015421 
1060	 0.485442548354517 
1061	 0.485846250314125 
1062	 0.486209765305792 
1063	 0.486550954354243 
1064	 0.486825494276522 
1065	 0.487115237892996 
1066	 0.487413187186693 
1067	 0.487683477300101 
1068	 0.487995813419039 
1069	 0.488274934270183 
1070	 0.488559558202539 
1071	 0.488821506423626 
1072	 0.489084832603136 
1073	 0.489365930207253 
1074	 0.489638018045954 
1075	 0.489897585964179 
1076	 0.490123198181468 
1077	 0.490352484171879 
1078	 0.49055972623107 
1079	 0.490781908473995 
1080	 0.491056189094537 
1081	 0.491302458127197 
1082	 0.491531794771334 
1083	 0.491759377120783 
1084	 0.491943018116137 
1085	 0.492140187228053 
1086	 0.492357315217336 
1087	 0.492572809966086 
1088	 0.492777137808768 
1089	 0.492971692733366 
1090	 0.493215974568253 
1091	 0.493423409030261 
1092	 0.493628396270095 
1093	 0.493825917216292 
1094	 0.493992950705714 
1095	 0.494181836453315 
1096	 0.494319900853262 
1097	 0.494452438061958 
1098	 0.494615170139637 
1099	 0.494771819643018 
1100	 0.494951392948622 
1101	 0.495183711959106 
1102	 0.495373873604335 
1103	 0.495546178068846 
1104	 0.495714226959758 
1105	 0.49592302183063 
1106	 0.496162590466765 
1107	 0.496403942554458 
1108	 0.496642347695128 
1109	 0.496863031584654 
1110	 0.497069641330993 
1111	 0.497289008397877 
1112	 0.497538313982668 
1113	 0.497752706279254 
1114	 0.49792752111024 
1115	 0.498142251227112 
1116	 0.498365747551591 
1117	 0.498593235047793 
1118	 0.498839313165057 
1119	 0.499085601989467 
1120	 0.499334989138268 
1121	 0.4995843451035 
1122	 0.499859811432851 
1123	 0.500148850411786 
1124	 0.500405999458327 
1125	 0.50066004716433 
1126	 0.500894101535759 
1127	 0.50109506322422 
1128	 0.501318325858196 
1129	 0.501525317975918 
1130	 0.501759748976152 
1131	 0.502021368446386 
1132	 0.50226812417925 
1133	 0.502535163763404 
1134	 0.50278260396063 
1135	 0.503009668900559 
1136	 0.50323706429616 
1137	 0.503475308326681 
1138	 0.503699166073007 
1139	 0.503904393090538 
1140	 0.504103905896696 
1141	 0.504283972102878 
1142	 0.504434253147229 
1143	 0.504599408004042 
1144	 0.504751995893072 
1145	 0.50492778015183 
1146	 0.505111791237046 
1147	 0.505291059512456 
1148	 0.505532946827548 
1149	 0.505688300202383 
1150	 0.505777961995162 
1151	 0.505888973084351 
1152	 0.505980471131498 
1153	 0.506047692075758 
1154	 0.506162709579037 
1155	 0.506321889005594 
1156	 0.506461416041986 
1157	 0.506604849565703 
1158	 0.506748163078377 
1159	 0.506910272137651 
1160	 0.507045421934619 
1161	 0.507148788760439 
1162	 0.507284552167669 
1163	 0.507442524903659 
1164	 0.507567223348376 
1165	 0.507692889445697 
1166	 0.507825178224515 
1167	 0.507888203197381 
1168	 0.507947090196918 
1169	 0.508071082710022 
1170	 0.508219162157166 
1171	 0.508373989261597 
1172	 0.508603132747414 
1173	 0.508754170940296 
1174	 0.508869859830555 
1175	 0.508995401674736 
1176	 0.509104509785811 
1177	 0.50920087285443 
1178	 0.509285316080502 
1179	 0.509381855584539 
1180	 0.509447785139432 
1181	 0.509544893004866 
1182	 0.509690299041013 
1183	 0.509806627721245 
1184	 0.509918775954177 
1185	 0.510030140204738 
1186	 0.510146474138739 
1187	 0.510258563213345 
1188	 0.510361614771195 
1189	 0.510478827219202 
1190	 0.510568812606948 
1191	 0.510620525372669 
1192	 0.510696430696795 
1193	 0.510759280207402 
1194	 0.510852642221762 
1195	 0.510982704875335 
1196	 0.511090811886295 
1197	 0.511219472784621 
1198	 0.511321429066966 
1199	 0.511407069108469 
1200	 0.511465212983995 
1201	 0.511537829572014 
1202	 0.511594433763383 
1203	 0.511675744551702 
1204	 0.511764679174605 
1205	 0.511860725086615 
1206	 0.511981998317557 
1207	 0.512078626671181 
1208	 0.512167800449846 
1209	 0.512259543032501 
1210	 0.512337287679243 
1211	 0.512424516344947 
1212	 0.51252383922197 
1213	 0.51261539751157 
1214	 0.512707936452201 
1215	 0.51279433531334 
1216	 0.5128765238226 
1217	 0.512957796597405 
1218	 0.513025248265748 
1219	 0.513080385553078 
1220	 0.513142220925328 
1221	 0.513188577267837 
1222	 0.513257589859442 
1223	 0.513345813044001 
1224	 0.51341932439467 
1225	 0.513483664231235 
1226	 0.513570359263312 
1227	 0.513681208073336 
1228	 0.513760147198502 
1229	 0.513836540777825 
1230	 0.513915185258362 
1231	 0.513953438770359 
1232	 0.514018145224565 
1233	 0.514097576425376 
1234	 0.514212228610874 
1235	 0.51428925428487 
1236	 0.514369311756707 
1237	 0.514426492862487 
1238	 0.514451943484328 
1239	 0.514499292493567 
1240	 0.514555953224604 
1241	 0.514591345297665 
1242	 0.51461933543604 
1243	 0.514650863312822 
1244	 0.514652069838511 
1245	 0.514679848904223 
1246	 0.514730824056139 
1247	 0.514780536168937 
1248	 0.51482692556043 
1249	 0.514901994267242 
1250	 0.514955921662891 
1251	 0.515013387170107 
1252	 0.515080985993611 
1253	 0.515152930229224 
1254	 0.515220020711633 
1255	 0.515294378086465 
1256	 0.515366342351389 
1257	 0.515433515128436 
1258	 0.515503339650131 
1259	 0.515591723067856 
1260	 0.515652251435097 
1261	 0.515694701943415 
1262	 0.515738818780407 
1263	 0.515756216629928 
1264	 0.515797010487955 
1265	 0.515850479556629 
1266	 0.51590113248967 
1267	 0.515956965311454 
1268	 0.516021331951417 
1269	 0.51608625358324 
1270	 0.516155157629754 
1271	 0.516214982601498 
1272	 0.516277452106076 
1273	 0.516336070506583 
1274	 0.516380003415314 
1275	 0.516441153925455 
1276	 0.516509317997677 
1277	 0.516580388577673 
1278	 0.516671228059363 
1279	 0.516734849075685 
1280	 0.516798315399306 
1281	 0.516844271579119 
1282	 0.516844971436681 
1283	 0.516879741308815 
1284	 0.516919212302206 
1285	 0.51696379026984 
1286	 0.517036728635637 
1287	 0.517121237506281 
1288	 0.517211212046955 
1289	 0.517320492102791 
1290	 0.517407865922977 
1291	 0.517490167716062 
1292	 0.517582746546005 
1293	 0.517682861529973 
1294	 0.517751483596194 
1295	 0.517822272549458 
1296	 0.517873087556499 
1297	 0.517884947108072 
1298	 0.517909446177174 
1299	 0.517943038633365 
1300	 0.517958676384559 
1301	 0.517959322555538 
1302	 0.517954357175729 
1303	 0.517925658878127 
1304	 0.517917350787122 
1305	 0.517926639203121 
1306	 0.517913254677957 
1307	 0.517888652941422 
1308	 0.517842558488898 
1309	 0.51778455980458 
1310	 0.51769145520516 
1311	 0.517610746639987 
1312	 0.517528844383872 
1313	 0.517447550171582 
1314	 0.517352380961687 
1315	 0.51727176687682 
1316	 0.517181280613652 
1317	 0.517128447490937 
1318	 0.517120670825133 
1319	 0.51707627775638 
1320	 0.517053015169036 
1321	 0.517002523389122 
1322	 0.516918236159772 
1323	 0.516816141452707 
1324	 0.516752813896409 
1325	 0.51671129033845 
1326	 0.516655626008362 
1327	 0.516607361295104 
1328	 0.51655634655596 
1329	 0.516464553303566 
1330	 0.516419997943668 
1331	 0.516387300241348 
1332	 0.516380821950141 
1333	 0.516407603665477 
1334	 0.51642585790379 
1335	 0.516452765235927 
1336	 0.516490324788096 
1337	 0.516531412346953 
1338	 0.516578660762952 
1339	 0.516657155691958 
1340	 0.516705438016578 
1341	 0.516741192754316 
1342	 0.516777400040841 
1343	 0.516807529005626 
1344	 0.516819593347887 
1345	 0.516847674752391 
1346	 0.516879689539706 
1347	 0.516889487920381 
1348	 0.516889427865245 
1349	 0.516881112343846 
1350	 0.51683826538421 
1351	 0.51682128347284 
1352	 0.516817293897277 
1353	 0.51679101787238 
1354	 0.516781598120591 
1355	 0.516729473151652 
1356	 0.516620726473997 
1357	 0.516559786667921 
1358	 0.516480004618134 
1359	 0.516434977014624 
1360	 0.51643156077249 
1361	 0.516425158255074 
1362	 0.51643095945347 
1363	 0.516443295230332 
1364	 0.516457747112854 
1365	 0.51648852711768 
1366	 0.516532178750987 
1367	 0.516586704373187 
1368	 0.516653599684265 
1369	 0.516705707829596 
1370	 0.516694963068889 
1371	 0.516655401332324 
1372	 0.516590468849194 
1373	 0.516484977308251 
1374	 0.516346752492183 
1375	 0.516212950516686 
1376	 0.515968042730806 
1377	 0.515655489414735 
1378	 0.515290497134107 
1379	 0.514810576935963 
1380	 0.514386257476276 
1381	 0.513941344418838 
1382	 0.513486462379496 
1383	 0.513088977379854 
1384	 0.512579115005355 
1385	 0.51205497472418 
1386	 0.511415714386414 
1387	 0.510724941437536 
1388	 0.509899371020598 
1389	 0.509000353974368 
1390	 0.507942717545274 
1391	 0.506710975428108 
1392	 0.50533793623638 
1393	 0.503798358100397 
1394	 0.502161014089257 
1395	 0.500433063679851 
1396	 0.498669828247605 
1397	 0.496915515767774 
1398	 0.495074423068091 
1399	 0.493351297136957 
1400	 0.491638851766481 
1401	 0.49002268251213 
1402	 0.488441699329441 
1403	 0.487008731475615 
1404	 0.48565146334655 
1405	 0.484424265892202 
1406	 0.483319035077793 
1407	 0.482316103556647 
1408	 0.481313985556094 
1409	 0.480629588860863 
1410	 0.480026019868195 
1411	 0.479802366270591 
1412	 0.47987713368462 
1413	 0.480227808443911 
1414	 0.480865949388263 
1415	 0.481767901531121 
1416	 0.482912292373371 
1417	 0.484211364913469 
1418	 0.485637289999165 
1419	 0.487085680088125 
1420	 0.488496023995953 
1421	 0.489830902437015 
1422	 0.491012225923454 
1423	 0.492090993680335 
1424	 0.493000938980906 
1425	 0.493736858698803 
1426	 0.494402017320317 
1427	 0.49490140407103 
1428	 0.495398708213359 
1429	 0.495829371752668 
1430	 0.49618987098572 
1431	 0.496502475920754 
1432	 0.49674256287304 
1433	 0.49687077269675 
1434	 0.497012268032607 
1435	 0.497093236960235 
1436	 0.497188516725234 
1437	 0.497295865974109 
1438	 0.497356934875854 
1439	 0.497385166881478 
1440	 0.497419737663377 
1441	 0.497412789064641 
1442	 0.497398005483168 
1443	 0.497426431195341 
1444	 0.497432516411776 
1445	 0.497453110702356 
1446	 0.497481294292777 
1447	 0.49745493521423 
1448	 0.497430167692813 
1449	 0.497387721831051 
1450	 0.49730355622534 
1451	 0.49726211735851 
1452	 0.497235658738567 
1453	 0.497212957888946 
1454	 0.497230063204206 
1455	 0.497189072758077 
1456	 0.497122490813337 
1457	 0.497048777734706 
1458	 0.49691667334421 
1459	 0.496855394062188 
1460	 0.496810072423658 
1461	 0.496795241969013 
1462	 0.496843733943903 
1463	 0.496852021803785 
1464	 0.496856648925116 
1465	 0.496873500376604 
1466	 0.496868201850933 
1467	 0.496893522110433 
1468	 0.496934164118789 
1469	 0.496996895826201 
1470	 0.49708632297596 
1471	 0.497183383925185 
1472	 0.497286488169873 
1473	 0.497405104659447 
1474	 0.497464633941995 
1475	 0.497556463828407 
1476	 0.497686718819901 
1477	 0.497810245582853 
1478	 0.498021920322427 
1479	 0.498227021744701 
1480	 0.498382153549215 
1481	 0.498558710478844 
1482	 0.498699270849386 
1483	 0.498788641043043 
1484	 0.498917809826734 
1485	 0.499050041924253 
1486	 0.499189441137363 
1487	 0.499341560477912 
1488	 0.499490944242936 
1489	 0.499653387666251 
1490	 0.499793804418812 
1491	 0.499935156516052 
1492	 0.500058925850315 
1493	 0.500144812476156 
1494	 0.500261261000461 
1495	 0.500382881472307 
1496	 0.500502462548617 
1497	 0.500660183242252 
1498	 0.500769891539564 
1499	 0.500850397127289 
1500	 0.500931879137033 
1501	 0.50096961728505 
1502	 0.501040795610962 
1503	 0.501131368883274 
1504	 0.501212992728569 
1505	 0.501309815743431 
1506	 0.501408431745936 
1507	 0.501476077384677 
1508	 0.501554822079676 
1509	 0.501639956412974 
1510	 0.501698181145328 
1511	 0.501764752126552 
1512	 0.50183774601269 
1513	 0.501895037759196 
1514	 0.501954245509006 
1515	 0.502041247179567 
1516	 0.502116883940137 
1517	 0.502189832433305 
1518	 0.50226920863983 
1519	 0.502346079810067 
1520	 0.502415525799725 
1521	 0.502480950987993 
1522	 0.502547336143171 
1523	 0.502608451040648 
1524	 0.502657976273949 
1525	 0.502715818715297 
1526	 0.502773936795907 
1527	 0.502837518578078 
1528	 0.50291931491149 
1529	 0.502966844678844 
1530	 0.503003379283977 
1531	 0.503036960780912 
1532	 0.503036160558053 
1533	 0.503057820358702 
1534	 0.503087149020147 
1535	 0.503129625481032 
1536	 0.50317930470143 
1537	 0.503237655987342 
1538	 0.503311639978549 
1539	 0.503382449611748 
1540	 0.503465491378284 
1541	 0.50353431943264 
1542	 0.503600778401311 
1543	 0.503665275606701 
1544	 0.503718823279524 
1545	 0.503774033750446 
1546	 0.503827383500928 
1547	 0.503885210205168 
1548	 0.503943494710348 
1549	 0.503981521614244 
1550	 0.504041735492259 
1551	 0.504108990810156 
1552	 0.504154372496219 
1553	 0.504199210648742 
1554	 0.50422580069969 
1555	 0.50423025299884 
1556	 0.504236190952555 
1557	 0.504274994047369 
1558	 0.50432996740275 
1559	 0.504382144952682 
1560	 0.504426481601939 
1561	 0.504483691079019 
1562	 0.50450950566032 
1563	 0.504496602896153 
1564	 0.504537348835404 
1565	 0.504592795958961 
1566	 0.50464770644906 
1567	 0.504734133235807 
1568	 0.504792715269367 
1569	 0.504838444333513 
1570	 0.50487267467866 
1571	 0.504907553769809 
1572	 0.50492410079549 
1573	 0.504910564683969 
1574	 0.504914407007236 
1575	 0.504911847306838 
1576	 0.504919899756977 
1577	 0.504934738433542 
1578	 0.504954324362648 
1579	 0.504974509219784 
1580	 0.505009859810662 
1581	 0.50507202811131 
1582	 0.505104750350065 
1583	 0.505135237081158 
1584	 0.505156152354928 
1585	 0.505154427185181 
1586	 0.505154336267943 
1587	 0.505160986795618 
1588	 0.505158310095527 
1589	 0.505140471234878 
1590	 0.505124103928634 
1591	 0.505093116777527 
1592	 0.50508016661718 
1593	 0.50508225121661 
1594	 0.50507479468321 
1595	 0.505078799650184 
1596	 0.505069348341444 
1597	 0.505047261142083 
1598	 0.505018864494829 
1599	 0.504977638161607 
1600	 0.504950621119811 
1601	 0.504905857742748 
1602	 0.504889086049596 
1603	 0.50489982706815 
1604	 0.504910264943084 
1605	 0.504945307180586 
1606	 0.504968560970895 
1607	 0.505003532150191 
1608	 0.505005255870595 
1609	 0.505005232787364 
1610	 0.505008827378019 
1611	 0.505006364354256 
1612	 0.505000497868637 
1613	 0.504989561858416 
1614	 0.504968523689739 
1615	 0.504915597247437 
1616	 0.50487945019933 
1617	 0.504884091459583 
1618	 0.504869165523311 
1619	 0.504855261655649 
1620	 0.504853585667471 
1621	 0.504824873686917 
1622	 0.504757634514365 
1623	 0.504723035477959 
1624	 0.504705177747965 
1625	 0.50466178206145 
1626	 0.50461346990024 
1627	 0.504563969805556 
1628	 0.504494268635865 
1629	 0.504447006915277 
1630	 0.504415386365047 
1631	 0.504368776351051 
1632	 0.504310621021496 
1633	 0.504286992791348 
1634	 0.504271850171597 
1635	 0.504259185249808 
1636	 0.504282962318339 
1637	 0.504269749999688 
1638	 0.504235627934221 
1639	 0.504206292503235 
1640	 0.504168976885152 
1641	 0.504134717045121 
1642	 0.504100242625652 
1643	 0.504060532236266 
1644	 0.504026378298069 
1645	 0.503970985577964 
1646	 0.503888813667947 
1647	 0.503839684323017 
1648	 0.503795655221564 
1649	 0.503747417612278 
1650	 0.503725432056007 
1651	 0.503673284254484 
1652	 0.50358942192815 
1653	 0.50353225587211 
1654	 0.503468864257417 
1655	 0.503435186783964 
1656	 0.503443297835057 
1657	 0.503402153383614 
1658	 0.503361327132817 
1659	 0.503301678673736 
1660	 0.503195322962575 
1661	 0.503119812144554 
1662	 0.503043133031783 
1663	 0.502993893268533 
1664	 0.502980194365551 
1665	 0.502923088141288 
1666	 0.502876516336062 
1667	 0.50279928418729 
1668	 0.502661142161976 
1669	 0.502571565264709 
1670	 0.502481449078792 
1671	 0.502428681392611 
1672	 0.502405480661953 
1673	 0.502389634763529 
1674	 0.50242128692726 
1675	 0.502408361988951 
1676	 0.502407731683884 
1677	 0.502349245369637 
1678	 0.502236305459965 
1679	 0.50213957847753 
1680	 0.502000793854946 
1681	 0.501899605158561 
1682	 0.501812282771646 
1683	 0.501739761164649 
1684	 0.501690116206978 
1685	 0.501628773126211 
1686	 0.501583602205496 
1687	 0.501519439777953 
1688	 0.501432907038929 
1689	 0.501366980943056 
1690	 0.501308934251939 
1691	 0.501242724805601 
1692	 0.501186573310358 
1693	 0.501117472837077 
1694	 0.501040851273701 
1695	 0.500953307094414 
1696	 0.500833333697814 
1697	 0.50076255265704 
1698	 0.50070885069448 
1699	 0.500653398790866 
1700	 0.500634851712735 
1701	 0.50059843429967 
1702	 0.500548349340127 
1703	 0.500490768630746 
1704	 0.500441668670823 
1705	 0.500375614083098 
1706	 0.500278773561624 
1707	 0.500209089797184 
1708	 0.500158013564404 
1709	 0.500077478880594 
1710	 0.499985489035544 
1711	 0.49990552319183 
1712	 0.499812641036299 
1713	 0.499728279862492 
1714	 0.499662225683418 
1715	 0.499583547359958 
1716	 0.499478951986885 
1717	 0.499411797474171 
1718	 0.499397678978751 
1719	 0.499302600962235 
1720	 0.499180549337987 
1721	 0.499067929006972 
1722	 0.49889477724068 
1723	 0.498772065213749 
1724	 0.498703083220726 
1725	 0.498590799460851 
1726	 0.498460157040522 
1727	 0.498339728438924 
1728	 0.498215462272988 
1729	 0.498081895430502 
1730	 0.497934819713782 
1731	 0.497817262634178 
1732	 0.497715320089434 
1733	 0.49759235986004 
1734	 0.497487823947445 
1735	 0.497357594834658 
1736	 0.497194188815202 
1737	 0.497038677214454 
1738	 0.496884982836226 
1739	 0.496724732903935 
1740	 0.496539399231523 
1741	 0.496390679129492 
1742	 0.496258084914517 
1743	 0.49613579392388 
1744	 0.496035979805065 
1745	 0.495933653504491 
1746	 0.495848343705996 
1747	 0.495731328592224 
1748	 0.495595001213104 
1749	 0.495398413714865 
1750	 0.495193218567394 
1751	 0.495004409000014 
1752	 0.494817500653707 
1753	 0.494680488593166 
1754	 0.494583911828846 
1755	 0.494481800647476 
1756	 0.494374853781836 
1757	 0.494263912269184 
1758	 0.494115224897733 
1759	 0.493983044155654 
1760	 0.493887570009495 
1761	 0.493776066799308 
1762	 0.493662646198997 
1763	 0.493529696110694 
1764	 0.493376090853908 
1765	 0.493241632110009 
1766	 0.493110178058308 
1767	 0.492962858212615 
1768	 0.492823242884955 
1769	 0.49268236882291 
1770	 0.492547715697028 
1771	 0.492452547930808 
1772	 0.492369938478857 
1773	 0.492281700089397 
1774	 0.492170272289052 
1775	 0.492045912602418 
1776	 0.491923085959686 
1777	 0.491799914316942 
1778	 0.491714435356848 
1779	 0.491624775510796 
1780	 0.491529116423994 
1781	 0.491441766501634 
1782	 0.491334785474448 
1783	 0.491239453466669 
1784	 0.491166737190911 
1785	 0.491113785759701 
1786	 0.491053376215856 
1787	 0.491018099863317 
1788	 0.490950514452988 
1789	 0.490843291677011 
1790	 0.490772869611716 
1791	 0.490708243349659 
1792	 0.490650832567282 
1793	 0.4906244457051 
1794	 0.490565950504787 
1795	 0.490493856448585 
1796	 0.490420847261884 
1797	 0.490333254568743 
1798	 0.490256286532333 
1799	 0.49017053996506 
1800	 0.490111921021958 
1801	 0.489897338646763 
1802	 0.49010932219988 
1803	 0.49035614998731 
1804	 0.490626963077429 
1805	 0.490849179222199 
1806	 0.491038898979186 
1807	 0.491224602636524 
1808	 0.491345317532016 
1809	 0.49140013921192 
1810	 0.491453191852614 
1811	 0.491483072829458 
1812	 0.491467185007421 
1813	 0.491457009223773 
1814	 0.491434683421194 
1815	 0.491370619393091 
1816	 0.491303331116746 
1817	 0.491239900643823 
1818	 0.491139848600853 
1819	 0.491075533842314 
1820	 0.491040800740619 
1821	 0.490991320242823 
1822	 0.490911843503943 
1823	 0.490857562958266 
1824	 0.490783868445317 
1825	 0.490696724039369 
1826	 0.490604566027809 
1827	 0.490486827562458 
1828	 0.490354063641435 
1829	 0.490176730981638 
1830	 0.49002578265174 
1831	 0.489883990445723 
1832	 0.489723578718134 
1833	 0.489554116721149 
1834	 0.489383701167924 
1835	 0.489204637515996 
1836	 0.489051257897862 
1837	 0.488904487942858 
1838	 0.488749690394881 
1839	 0.488630330925785 
1840	 0.488524987815466 
1841	 0.48843648176982 
1842	 0.488386478168524 
1843	 0.488382957655397 
1844	 0.488422147616346 
1845	 0.488454128001335 
1846	 0.4884471045803 
1847	 0.488446871923215 
1848	 0.48839802231681 
1849	 0.48831950239586 
1850	 0.488265941724738 
1851	 0.488229900804257 
1852	 0.488180656803336 
1853	 0.488112888858375 
1854	 0.488053635887805 
1855	 0.487987606805871 
1856	 0.487896731583728 
1857	 0.487847072706167 
1858	 0.487807574306679 
1859	 0.487709142783569 
1860	 0.487552038171603 
1861	 0.487366286115509 
1862	 0.487114495466897 
1863	 0.486760979101068 
1864	 0.486375787217559 
1865	 0.485998882095663 
1866	 0.485530533736764 
1867	 0.485075269975218 
1868	 0.484638264304012 
1869	 0.484167282918021 
1870	 0.483705605964964 
1871	 0.483244311050833 
1872	 0.482783964610405 
1873	 0.482340056560488 
1874	 0.48186279519388 
1875	 0.481406826472524 
1876	 0.480936302699121 
1877	 0.480382540418348 
1878	 0.479744362407233 
1879	 0.478998971528464 
1880	 0.478132946804515 
1881	 0.477142570507866 
1882	 0.476042430273315 
1883	 0.474843345408903 
1884	 0.47350654912514 
1885	 0.472052106976368 
1886	 0.470514146689478 
1887	 0.468834425072823 
1888	 0.467057195532096 
1889	 0.465163706320934 
1890	 0.463143975502616 
1891	 0.461129522577802 
1892	 0.459044100669062 
1893	 0.456920587013317 
1894	 0.454743345743897 
1895	 0.452584848616815 
1896	 0.450358980717539 
1897	 0.448156603741824 
1898	 0.445983417041594 
1899	 0.443869936210004 
1900	 0.441882659880162 
1901	 0.439979830675858 
1902	 0.438219190843229 
1903	 0.436641597641835 
1904	 0.435130235408862 
1905	 0.433704586051045 
1906	 0.432410814461846 
1907	 0.431230788725312 
1908	 0.430122339661182 
1909	 0.429086641669755 
1910	 0.428099021702729 
1911	 0.427176113128061 
1912	 0.426271665165044 
1913	 0.425419355282796 
1914	 0.424599232695064 
1915	 0.423864492333093 
1916	 0.423183059372547 
1917	 0.422560029962966 
1918	 0.422023299333358 
1919	 0.421536761772386 
1920	 0.421105907910877 
1921	 0.420725254216542 
1922	 0.420362863579027 
1923	 0.420077065260134 
1924	 0.419821938343059 
1925	 0.419600025728582 
1926	 0.419424842887132 
1927	 0.419313246271931 
1928	 0.419207451792795 
1929	 0.419146271376363 
1930	 0.419088088860972 
1931	 0.419051081677079 
1932	 0.419069638591581 
1933	 0.419086004382022 
1934	 0.419112021846357 
1935	 0.419165482235731 
1936	 0.419222455192451 
1937	 0.419319956829461 
1938	 0.419453695998313 
1939	 0.419610231543235 
1940	 0.419786809175486 
1941	 0.420017392485602 
1942	 0.420255848756751 
1943	 0.420504089288189 
1944	 0.420790732534529 
1945	 0.421057322344242 
1946	 0.421327230094294 
1947	 0.421611532683512 
1948	 0.421878430773329 
1949	 0.422113469094085 
1950	 0.422382086403127 
1951	 0.42266358670358 
1952	 0.422937991567916 
1953	 0.423210215098258 
1954	 0.423546645554487 
1955	 0.423869345456539 
1956	 0.424172951915085 
1957	 0.424522486858696 
1958	 0.424904972292749 
1959	 0.425292165229255 
1960	 0.425721982003201 
1961	 0.426118862147529 
1962	 0.426508076011179 
1963	 0.42690464612273 
1964	 0.427277900174177 
1965	 0.42767751958732 
1966	 0.428114836360867 
1967	 0.428538657077474 
1968	 0.428952324245521 
1969	 0.429359561423829 
1970	 0.429777071581038 
1971	 0.430187963005513 
1972	 0.430606444500418 
1973	 0.431040799514513 
1974	 0.431469483498084 
1975	 0.431904288177764 
1976	 0.43230907812298 
1977	 0.43273368696271 
1978	 0.433182186534569 
1979	 0.433633516092034 
1980	 0.434124475233 
1981	 0.434591198711575 
1982	 0.435066937521663 
1983	 0.435527646523016 
1984	 0.435976615903771 
1985	 0.436420329340391 
1986	 0.436860635844242 
1987	 0.437297815436406 
1988	 0.437721061554435 
1989	 0.438153242241658 
1990	 0.438584131457167 
1991	 0.43900254855476 
1992	 0.439427725449953 
1993	 0.439856848647054 
1994	 0.44027211357653 
1995	 0.44066623901688 
1996	 0.441096826567567 
1997	 0.441543633482727 
1998	 0.441980620274649 
1999	 0.44244071527057 
2000	 0.442886770925981 
2001	 0.443320884118062 
2002	 0.443732974538448 
2003	 0.444172963271905 
2004	 0.444654349787283 
2005	 0.445113183389672 
2006	 0.445583016445644 
2007	 0.44604171125378 
2008	 0.44649589276115 
2009	 0.44693937660501 
2010	 0.447373972836116 
2011	 0.447812871384039 
2012	 0.448234163524469 
2013	 0.448671852230454 
2014	 0.449113281278981 
2015	 0.449582261093159 
2016	 0.45003919028941 
2017	 0.450477127901541 
2018	 0.450890112739718 
2019	 0.451277515622683 
2020	 0.451658050073473 
2021	 0.4520077444323 
2022	 0.452371174679209 
2023	 0.452718884892755 
2024	 0.4530917226383 
2025	 0.453479725636628 
2026	 0.453865471995324 
2027	 0.454269654878276 
2028	 0.454670530307845 
2029	 0.45504578593673 
2030	 0.455417535546347 
2031	 0.455750712279328 
2032	 0.456061293950984 
2033	 0.456347828237309 
2034	 0.45657619043124 
2035	 0.456851283445353 
2036	 0.457118346384447 
2037	 0.457401785018566 
2038	 0.457711970805136 
2039	 0.458019854701537 
2040	 0.458326477609045 
2041	 0.458657959671043 
2042	 0.458949291908932 
2043	 0.459228680891873 
2044	 0.459489524576258 
2045	 0.459706187180488 
2046	 0.459937243450782 
2047	 0.460177145447032 
2048	 0.460397692869719 
2049	 0.460602347444784 
2050	 0.460803910408438 
2051	 0.460980949574056 
2052	 0.461174271746387 
2053	 0.461355928408889 
2054	 0.461564396354994 
2055	 0.461803056177976 
2056	 0.462039979580129 
2057	 0.462262256434525 
2058	 0.462507628408526 
2059	 0.462698175195698 
2060	 0.462856616136453 
2061	 0.463005913147487 
2062	 0.463127069782018 
2063	 0.463241526285039 
2064	 0.463331212245836 
2065	 0.463429987041945 
2066	 0.463486140823522 
2067	 0.463599184079083 
2068	 0.463736155975334 
2069	 0.463908151360485 
2070	 0.464054812421302 
2071	 0.46423323921891 
2072	 0.464377860694912 
2073	 0.464488489413534 
2074	 0.464619358021237 
2075	 0.464763108806671 
2076	 0.464891822159518 
2077	 0.465007447416145 
2078	 0.46513541385257 
2079	 0.465272999640078 
2080	 0.465394211334093 
2081	 0.465523822295378 
2082	 0.465630977815251 
2083	 0.465712228611281 
2084	 0.465790376817765 
2085	 0.465869878103757 
2086	 0.465940549897712 
2087	 0.46601776789754 
2088	 0.466101336261116 
2089	 0.466171997632671 
2090	 0.466234143604026 
2091	 0.466301099676705 
2092	 0.466357669554994 
2093	 0.466426368638744 
2094	 0.466502180463699 
2095	 0.466579748728131 
2096	 0.466665836101618 
2097	 0.466749482185221 
2098	 0.466832909537374 
2099	 0.466929520181488 
2100	 0.466995094061798 
2101	 0.467042199032637 
2102	 0.467105743902313 
2103	 0.467130185050103 
2104	 0.467227963753608 
2105	 0.467378021457591 
2106	 0.467509861034693 
2107	 0.467667578748393 
2108	 0.467827992890998 
2109	 0.467984826304046 
2110	 0.468146551717019 
2111	 0.468329496537597 
2112	 0.468509684108773 
2113	 0.468685473326873 
2114	 0.468861243807724 
2115	 0.469045573035024 
2116	 0.469247388499259 
2117	 0.469419888222087 
2118	 0.46958216514209 
2119	 0.46974870886528 
2120	 0.469899562949077 
2121	 0.470060300021378 
2122	 0.470234603078765 
2123	 0.470393632434085 
2124	 0.470546612775532 
2125	 0.470697291091743 
2126	 0.470839629988641 
2127	 0.470982432368312 
2128	 0.471148147007961 
2129	 0.471270532345196 
2130	 0.47137643963175 
2131	 0.47147107342784 
2132	 0.471513012955158 
2133	 0.471499394831252 
2134	 0.47149428288487 
2135	 0.471457273946262 
2136	 0.471425342146375 
2137	 0.471413150640882 
2138	 0.471337044003429 
2139	 0.471243963277489 
2140	 0.471099882996214 
2141	 0.470886311607539 
2142	 0.470674112752467 
2143	 0.47044668200591 
2144	 0.470179511408702 
2145	 0.469880852990738 
2146	 0.469565388312809 
2147	 0.469204688762738 
2148	 0.468847102703075 
2149	 0.468451640321195 
2150	 0.468058162843553 
2151	 0.467589367777501 
2152	 0.467066206620542 
2153	 0.466518974671406 
2154	 0.465921047115973 
2155	 0.465301663366911 
2156	 0.464656700394039 
2157	 0.463981111856488 
2158	 0.463263470858361 
2159	 0.462533711340398 
2160	 0.461793852361703 
2161	 0.461009195412773 
2162	 0.460206433888407 
2163	 0.459352919157538 
2164	 0.45846251302324 
2165	 0.457510140995583 
2166	 0.456534381480078 
2167	 0.455510078344873 
2168	 0.454476234799257 
2169	 0.453416758823141 
2170	 0.452321331507126 
2171	 0.451221053548232 
2172	 0.450042391603271 
2173	 0.448799799818959 
2174	 0.44753170773092 
2175	 0.44619486586239 
2176	 0.444854101724919 
2177	 0.443518001185092 
2178	 0.442107474871631 
2179	 0.440636002402654 
2180	 0.439149556250292 
2181	 0.437590350153701 
2182	 0.436036926617732 
2183	 0.434468600364893 
2184	 0.432898276289476 
2185	 0.431322769094087 
2186	 0.42971736426401 
2187	 0.428153894586651 
2188	 0.426578263557146 
2189	 0.425076857156001 
2190	 0.423567787043087 
2191	 0.422195638564853 
2192	 0.420870144204636 
2193	 0.419690036758518 
2194	 0.418600093537084 
2195	 0.41766881325951 
2196	 0.416866896188162 
2197	 0.416203598064983 
2198	 0.41569056408391 
2199	 0.415315406723868 
2200	 0.415103845251649 
2201	 0.414992154002498 
2202	 0.415020730260648 
2203	 0.415152504333227 
2204	 0.415419554832389 
2205	 0.415800267723965 
2206	 0.416311049103957 
2207	 0.416952492507468 
2208	 0.417740345833081 
2209	 0.418690801659884 
2210	 0.419693161805159 
2211	 0.420879413699481 
2212	 0.422035233604167 
2213	 0.423257312409397 
2214	 0.424466881028388 
2215	 0.425762755657492 
2216	 0.42695985146587 
2217	 0.428149236444593 
2218	 0.429261123687482 
2219	 0.430317133526986 
2220	 0.431305123156162 
2221	 0.432230934422915 
2222	 0.433091348855908 
2223	 0.433926676901216 
2224	 0.434631391094345 
2225	 0.435293820462795 
2226	 0.435898164827544 
2227	 0.436429572388263 
2228	 0.436854939099349 
2229	 0.437293992408721 
2230	 0.437687090745289 
2231	 0.438047979984495 
2232	 0.438388460955503 
2233	 0.438687067368337 
2234	 0.438943627017272 
2235	 0.43915895663878 
2236	 0.439330725380237 
2237	 0.439481662060171 
2238	 0.439598338954056 
2239	 0.439667432615692 
2240	 0.439694216232195 
2241	 0.439705664057293 
2242	 0.439645774006764 
2243	 0.439608187085422 
2244	 0.439594093614366 
2245	 0.439544876156094 
2246	 0.43945462739108 
2247	 0.439346301698053 
2248	 0.439212202895543 
2249	 0.439021384653031 
2250	 0.438872379768186 
2251	 0.438727466671959 
2252	 0.438561862407558 
2253	 0.438371209089572 
2254	 0.43824147806759 
2255	 0.438116591921698 
2256	 0.438020562802873 
2257	 0.438001084154902 
2258	 0.437930822662243 
2259	 0.437826943805417 
2260	 0.437761282048512 
2261	 0.437688054250711 
2262	 0.437649306933842 
2263	 0.437607873798132 
2264	 0.437647774690581 
2265	 0.437783374294737 
2266	 0.437876285421543 
2267	 0.438020687527093 
2268	 0.438145724274634 
2269	 0.43823115916323 
2270	 0.438320824321064 
2271	 0.438458198906024 
2272	 0.438545197260175 
2273	 0.438663405120964 
2274	 0.438802610532194 
2275	 0.438921442429528 
2276	 0.439060518344884 
2277	 0.439168490319832 
2278	 0.43924446967325 
2279	 0.439337747904106 
2280	 0.439410304689413 
2281	 0.439514624380009 
2282	 0.439664337132436 
2283	 0.43975143581868 
2284	 0.439844107495905 
2285	 0.43989829388223 
2286	 0.439894114971428 
2287	 0.439885210375532 
2288	 0.439851031469422 
2289	 0.439832255929121 
2290	 0.43982350528659 
2291	 0.439767158119534 
2292	 0.439690783996279 
2293	 0.439602109554262 
2294	 0.439461592500639 
2295	 0.439327967234779 
2296	 0.439191522162511 
2297	 0.439078870181168 
2298	 0.438922098777835 
2299	 0.438746142847956 
2300	 0.438541612763398 
2301	 0.438333297995026 
2302	 0.43811576965479 
2303	 0.437889000772552 
2304	 0.437706153791518 
2305	 0.437507193970834 
2306	 0.437258259048635 
2307	 0.436964147854169 
2308	 0.436721901880674 
2309	 0.436448722548328 
2310	 0.436207428923354 
2311	 0.436060065390653 
2312	 0.43580319290083 
2313	 0.435479449413293 
2314	 0.435166518921506 
2315	 0.434825242406077 
2316	 0.434472451431449 
2317	 0.434081363440619 
2318	 0.433755709694236 
2319	 0.433436722038601 
2320	 0.433120425357388 
2321	 0.432889782294131 
2322	 0.432571120034687 
2323	 0.432201041207848 
2324	 0.43183150026011 
2325	 0.431397931999263 
2326	 0.431009130352337 
2327	 0.430661702001056 
2328	 0.430263007423968 
2329	 0.429831373233166 
2330	 0.429462698836277 
2331	 0.429076429436064 
2332	 0.428653484384831 
2333	 0.428285754416782 
2334	 0.427944014081895 
2335	 0.427517290001148 
2336	 0.427027361235104 
2337	 0.42658666344027 
2338	 0.426102454227256 
2339	 0.425649595825245 
2340	 0.425319664340093 
2341	 0.424940625809857 
2342	 0.424560109748078 
2343	 0.424310993742712 
2344	 0.424087023162916 
2345	 0.423822929476755 
2346	 0.423609783966576 
2347	 0.423369203383998 
2348	 0.423018275365691 
2349	 0.422837149700494 
2350	 0.422736535729726 
2351	 0.422647005344728 
2352	 0.422659245521393 
2353	 0.422609550339818 
2354	 0.422563305121536 
2355	 0.422534138036674 
2356	 0.422488778652824 
2357	 0.422486360500516 
2358	 0.42250592065042 
2359	 0.42256915137038 
2360	 0.422745475445558 
2361	 0.422759710125612 
2362	 0.422697141161812 
2363	 0.4226654402278 
2364	 0.422555542939695 
2365	 0.422462031843167 
2366	 0.422457569102837 
2367	 0.42234685228479 
2368	 0.422139563143679 
2369	 0.421913729332874 
2370	 0.421598860230966 
2371	 0.421392107196219 
2372	 0.421155470225967 
2373	 0.420905493780616 
2374	 0.420751966250162 
2375	 0.420472554006342 
2376	 0.420156255706966 
2377	 0.419891113512332 
2378	 0.419612525186153 
2379	 0.419359073349367 
2380	 0.419050331461897 
2381	 0.418682086476261 
2382	 0.418258627119994 
2383	 0.417839693167214 
2384	 0.417460501246926 
2385	 0.417123215775416 
2386	 0.416884588526907 
2387	 0.41662882033327 
2388	 0.41635018247497 
2389	 0.416100666484466 
2390	 0.415816390299106 
2391	 0.415496982215735 
2392	 0.415253390459452 
2393	 0.415045827303469 
2394	 0.414738514268507 
2395	 0.414369369784795 
2396	 0.413908215594865 
2397	 0.413446456978223 
2398	 0.412990837712228 
2399	 0.412575007361172 
2400	 0.412270626619066 
2401	 0.411792525513886 
2402	 0.411217177627609 
2403	 0.410643639716066 
2404	 0.409967136661757 
2405	 0.4093486929839 
2406	 0.408797844745813 
2407	 0.408235107445125 
2408	 0.407615993002618 
2409	 0.406880510022387 
2410	 0.406194241885912 
2411	 0.405523080950551 
2412	 0.404851954684221 
2413	 0.404283156880367 
2414	 0.40363258694761 
2415	 0.402907933175825 
2416	 0.402205366869844 
2417	 0.401434824901089 
2418	 0.400815599457113 
2419	 0.400295160868249 
2420	 0.399693143145092 
2421	 0.399166626118092 
2422	 0.398523420452507 
2423	 0.397770998628073 
2424	 0.397065290919989 
2425	 0.396353334244127 
2426	 0.395633094796569 
2427	 0.394891271369417 
2428	 0.394187384040411 
2429	 0.393461710890811 
2430	 0.392786976791321 
2431	 0.392143429417991 
2432	 0.39154664067772 
2433	 0.39104482914663 
2434	 0.390529841772593 
2435	 0.390046558266488 
2436	 0.389517512164489 
2437	 0.388911612399986 
2438	 0.388406228186614 
2439	 0.387959900117368 
2440	 0.387474932851372 
2441	 0.387061786080189 
2442	 0.38666188594285 
2443	 0.386201908183231 
2444	 0.385804346851494 
2445	 0.385442633294996 
2446	 0.385072749141931 
2447	 0.384772362900083 
2448	 0.384411333287912 
2449	 0.384054314563335 
2450	 0.383633278803102 
2451	 0.383104002044968 
2452	 0.382696484858162 
2453	 0.382272060509856 
2454	 0.381974321917725 
2455	 0.381846491759433 
2456	 0.381537350305766 
2457	 0.381218010296226 
2458	 0.380967846451616 
2459	 0.38059901865105 
2460	 0.380365255500048 
2461	 0.38030891087622 
2462	 0.38011940001024 
2463	 0.379960212751154 
2464	 0.379697277955314 
2465	 0.379268454620463 
2466	 0.379006018820383 
2467	 0.378801925786576 
2468	 0.378525278833971 
2469	 0.378349017184801 
2470	 0.377964957931984 
2471	 0.377454529903792 
2472	 0.3770208944081 
2473	 0.376634798866947 
2474	 0.376255288136994 
2475	 0.376040567213752 
2476	 0.375737279340198 
2477	 0.375331463250438 
2478	 0.374996981653203 
2479	 0.374564009177762 
2480	 0.374155793416473 
2481	 0.37397340779176 
2482	 0.373785512120677 
2483	 0.373292313205649 
2484	 0.372969046626195 
2485	 0.372775856493713 
2486	 0.372275480948367 
2487	 0.372086274103022 
2488	 0.371996577086076 
2489	 0.371568865814884 
2490	 0.371239973550059 
2491	 0.370988621474369 
2492	 0.370615895661519 
2493	 0.370145350838198 
2494	 0.369849717136057 
2495	 0.369715551080002 
2496	 0.369463535932803 
2497	 0.369399463381972 
2498	 0.369382803759775 
2499	 0.369087043882404 
2500	 0.368951225182329 
