Wavelength	LMW_2100001.asd
350	 8.77862306973783E-02 
351	 9.46227748808633E-02 
352	 8.72918844740477E-02 
353	 7.93909386474086E-02 
354	 9.34909071816641E-02 
355	 0.092772567318012 
356	 9.23383154234122E-02 
357	 0.107298353223174 
358	 0.100358588416761 
359	 0.097459744734606 
360	 0.102809150219095 
361	 0.105614917824914 
362	 0.105749615771586 
363	 0.106432233287731 
364	 0.109014736454353 
365	 0.111545565160071 
366	 0.11109736612915 
367	 0.109605467623132 
368	 0.110077542497954 
369	 0.114230607511563 
370	 0.113752721193985 
371	 0.112698664324281 
372	 0.121848575123391 
373	 0.12585940530648 
374	 0.126785721402332 
375	 0.127919913424446 
376	 0.130457256059958 
377	 0.131905878848552 
378	 0.132929931959596 
379	 0.134648698172001 
380	 0.135756148022114 
381	 0.137097950358422 
382	 0.139429183438203 
383	 0.143070650293577 
384	 0.145277429599548 
385	 0.145837271314869 
386	 0.14565064963651 
387	 0.14688898314114 
388	 0.148693364499302 
389	 0.150321269319494 
390	 0.151356999422859 
391	 0.152872015320593 
392	 0.155415572015843 
393	 0.159099503775592 
394	 0.163458530056963 
395	 0.163060764635365 
396	 0.1624683822432 
397	 0.164869238123081 
398	 0.167117136357891 
399	 0.168993779131358 
400	 0.170887317509192 
401	 0.172945962215589 
402	 0.17193675659893 
403	 0.172008270066336 
404	 0.174197661878377 
405	 0.176025179725437 
406	 0.176841369337339 
407	 0.177916449103422 
408	 0.179578598322474 
409	 0.178507251324326 
410	 0.178106221327622 
411	 0.178948446401235 
412	 0.180077160502837 
413	 0.180272113906472 
414	 0.180127861664282 
415	 0.180010857775289 
416	 0.179730729717636 
417	 0.180279988371657 
418	 0.181036909951945 
419	 0.181314428359057 
420	 0.18174910276341 
421	 0.18126277805235 
422	 0.180632962009012 
423	 0.18151162551417 
424	 0.181275558533173 
425	 0.180587088069451 
426	 0.180089372320655 
427	 0.179556315104364 
428	 0.179231646597083 
429	 0.17926037283504 
430	 0.179643215813752 
431	 0.180047387415254 
432	 0.179709495594354 
433	 0.178950279818397 
434	 0.179049279380659 
435	 0.178938727405657 
436	 0.179057016293796 
437	 0.179833986643237 
438	 0.180896267485187 
439	 0.182713771293906 
440	 0.185067022126206 
441	 0.187324788371531 
442	 0.188644846339267 
443	 0.189665591909639 
444	 0.19088078761877 
445	 0.192360993205977 
446	 0.193182247858595 
447	 0.193514018422168 
448	 0.193840090275118 
449	 0.194392261998177 
450	 0.195065249266188 
451	 0.195754606123134 
452	 0.196357501297846 
453	 0.196496978855488 
454	 0.196505933757456 
455	 0.196704891166004 
456	 0.197100099051964 
457	 0.197307235045794 
458	 0.197385537008825 
459	 0.197575629914846 
460	 0.197745139783683 
461	 0.197917741291483 
462	 0.198073452189526 
463	 0.198106454982437 
464	 0.198409582901043 
465	 0.198633260415608 
466	 0.198493907511292 
467	 0.198865809195079 
468	 0.199015852669217 
469	 0.198963209759073 
470	 0.199308694273316 
471	 0.199349136727438 
472	 0.199306510305232 
473	 0.19942263810673 
474	 0.199635066842051 
475	 0.199787672581697 
476	 0.199697843028959 
477	 0.199326101744031 
478	 0.199648405873709 
479	 0.199852166856336 
480	 0.199638288900674 
481	 0.19962226054139 
482	 0.199723001779692 
483	 0.199835521166556 
484	 0.199865221428531 
485	 0.199857250479258 
486	 0.199821175708561 
487	 0.199692783415856 
488	 0.199386904240642 
489	 0.199554412710757 
490	 0.199805745192626 
491	 0.199785220776259 
492	 0.199676115654366 
493	 0.199543258879342 
494	 0.19940926568831 
495	 0.199290385442916 
496	 0.199378775103435 
497	 0.199387271453091 
498	 0.199296838900312 
499	 0.199568650513679 
500	 0.199445277470033 
501	 0.199105055172591 
502	 0.198936325073518 
503	 0.198927886022069 
504	 0.19882375206208 
505	 0.19862186968419 
506	 0.198547062350181 
507	 0.198392822093086 
508	 0.198321685836584 
509	 0.198389114709734 
510	 0.198152897486652 
511	 0.198134525895903 
512	 0.198188170136726 
513	 0.197877243130813 
514	 0.197589335088931 
515	 0.197453055443056 
516	 0.197447430086875 
517	 0.197377042038472 
518	 0.197056798015939 
519	 0.196770257987043 
520	 0.19682235831514 
521	 0.196736527185666 
522	 0.196622470016256 
523	 0.196514981209344 
524	 0.196338843876262 
525	 0.196180747392818 
526	 0.196043774556983 
527	 0.195902789013691 
528	 0.195699551953603 
529	 0.195559500280705 
530	 0.195428504900785 
531	 0.195158853858845 
532	 0.194989264418964 
533	 0.194912527939907 
534	 0.194856894801848 
535	 0.194691716123153 
536	 0.194531580038232 
537	 0.19439003574219 
538	 0.194239236486704 
539	 0.194052159473102 
540	 0.193853705587479 
541	 0.193678229993412 
542	 0.193567261247041 
543	 0.193480321097224 
544	 0.193320315583208 
545	 0.193051642029811 
546	 0.192933862696576 
547	 0.192814748722993 
548	 0.192639921314042 
549	 0.192448024471011 
550	 0.192220812270247 
551	 0.19203875197039 
552	 0.191939297536146 
553	 0.191811427471375 
554	 0.19167885548787 
555	 0.191572766180397 
556	 0.191514798427758 
557	 0.191382707290604 
558	 0.191232546211965 
559	 0.191118723841355 
560	 0.191060963378757 
561	 0.190971450581793 
562	 0.190890823926665 
563	 0.190869503617537 
564	 0.190752610887742 
565	 0.190593380796332 
566	 0.190442197133243 
567	 0.190330364590051 
568	 0.190238545181841 
569	 0.19004146984963 
570	 0.189688341665428 
571	 0.189437613540351 
572	 0.18926206498341 
573	 0.189125268863039 
574	 0.18898613662985 
575	 0.188863014215635 
576	 0.188720445923171 
577	 0.18855060372504 
578	 0.18842537026842 
579	 0.188283619009619 
580	 0.18808327483752 
581	 0.187815268232074 
582	 0.187637278920097 
583	 0.187442592003366 
584	 0.187237177169582 
585	 0.18721947882999 
586	 0.187259011556958 
587	 0.187264215698816 
588	 0.187190610474077 
589	 0.187146412657289 
590	 0.187122506520663 
591	 0.187078256687686 
592	 0.186953142227712 
593	 0.186798635313105 
594	 0.186728023174456 
595	 0.186775840200078 
596	 0.186757379786058 
597	 0.186649706316102 
598	 0.186488977432214 
599	 0.186340074004293 
600	 0.186153579221882 
601	 0.185984966225198 
602	 0.185860277203344 
603	 0.185724844829482 
604	 0.185729560966539 
605	 0.185764412529361 
606	 0.185660443568137 
607	 0.185484185879841 
608	 0.185348044016959 
609	 0.185281573393572 
610	 0.185216563989172 
611	 0.185113992547089 
612	 0.184986557849615 
613	 0.184855956489132 
614	 0.184701207642814 
615	 0.184663360832605 
616	 0.184663886380173 
617	 0.184496534906663 
618	 0.184414371299591 
619	 0.184352080290118 
620	 0.184254283312797 
621	 0.184196136057841 
622	 0.184104987295082 
623	 0.183986337459627 
624	 0.183878537427702 
625	 0.183810732020625 
626	 0.183725837502595 
627	 0.183623422050922 
628	 0.183586661558256 
629	 0.183530136175993 
630	 0.183450192645763 
631	 0.18336360853719 
632	 0.18327380728208 
633	 0.183170484843542 
634	 0.183078793262739 
635	 0.183047428831505 
636	 0.183024867968559 
637	 0.182998310800626 
638	 0.182948621873469 
639	 0.182812500209699 
640	 0.182713981583609 
641	 0.182661159167351 
642	 0.182609827691538 
643	 0.182594854886472 
644	 0.182485663582086 
645	 0.182299388863326 
646	 0.182285908734998 
647	 0.182273936992981 
648	 0.182225872582729 
649	 0.182143218618898 
650	 0.182018087679534 
651	 0.18194752973183 
652	 0.181926054188608 
653	 0.181859435883584 
654	 0.181769097758133 
655	 0.181663022240767 
656	 0.181566741000138 
657	 0.181560601773485 
658	 0.181523464635754 
659	 0.181446736964599 
660	 0.181371698670919 
661	 0.181261207597104 
662	 0.181168696094001 
663	 0.181114997992914 
664	 0.181063226163437 
665	 0.181016949226654 
666	 0.180954328748157 
667	 0.180860544496869 
668	 0.180773746112067 
669	 0.180671135269932 
670	 0.180577677582345 
671	 0.180550966958862 
672	 0.180490847279453 
673	 0.180427841718026 
674	 0.180387300108435 
675	 0.180331730447574 
676	 0.180224918789159 
677	 0.18010064783575 
678	 0.180016902072366 
679	 0.179949517732706 
680	 0.179863159408444 
681	 0.17976717696433 
682	 0.17972980739752 
683	 0.179665747553237 
684	 0.17955332061948 
685	 0.179414969175995 
686	 0.179359666353914 
687	 0.179318658467912 
688	 0.179250652878686 
689	 0.179141158017606 
690	 0.179014882380521 
691	 0.178925725769005 
692	 0.17887921807319 
693	 0.178779330676211 
694	 0.178667720130556 
695	 0.178583886317384 
696	 0.178545614167135 
697	 0.178449899364259 
698	 0.178342546932986 
699	 0.178258035760525 
700	 0.178206535902813 
701	 0.178125595874895 
702	 0.178032975946515 
703	 0.177955931507048 
704	 0.177897716529884 
705	 0.177834087722103 
706	 0.177733503722546 
707	 0.177578944970571 
708	 0.177484065251156 
709	 0.177410859037356 
710	 0.177326154979242 
711	 0.177227870718339 
712	 0.177150624173158 
713	 0.177070691466816 
714	 0.176969374118891 
715	 0.176915336464709 
716	 0.176857221933259 
717	 0.176762536746125 
718	 0.176624494683727 
719	 0.176537962647729 
720	 0.17646726521728 
721	 0.176380005949781 
722	 0.176289803762101 
723	 0.176191865811588 
724	 0.176100082110467 
725	 0.176024324678093 
726	 0.175920183885376 
727	 0.175847171808737 
728	 0.175787710029757 
729	 0.175658086054123 
730	 0.175595542461075 
731	 0.175556436395738 
732	 0.175486766323544 
733	 0.175385016266854 
734	 0.175308740313814 
735	 0.175243298957426 
736	 0.17515028443557 
737	 0.175054231914555 
738	 0.174966390780118 
739	 0.17488900336858 
740	 0.174815264647195 
741	 0.174747082275505 
742	 0.174656971421739 
743	 0.174529949077173 
744	 0.174386179359066 
745	 0.174334758258714 
746	 0.174341191533782 
747	 0.174301228013984 
748	 0.174188596485145 
749	 0.174055815955804 
750	 0.173957723239748 
751	 0.1739375574099 
752	 0.173832306571427 
753	 0.173682590920739 
754	 0.173568747589605 
755	 0.173536594813282 
756	 0.173507988578751 
757	 0.173459520733863 
758	 0.173398434285821 
759	 0.173326724686891 
760	 0.173215058846559 
761	 0.173090450176737 
762	 0.173049602281878 
763	 0.172989912125327 
764	 0.172893008926383 
765	 0.172779882295067 
766	 0.172718031211027 
767	 0.172706189355169 
768	 0.172672044442007 
769	 0.172533265631771 
770	 0.172408128992234 
771	 0.172335164646282 
772	 0.172293641483607 
773	 0.172205580951119 
774	 0.172178072952171 
775	 0.172127176836812 
776	 0.172004724236004 
777	 0.171984346170417 
778	 0.171902648152436 
779	 0.171795511903015 
780	 0.171764314498059 
781	 0.171700789533435 
782	 0.171621285412841 
783	 0.171535527707461 
784	 0.171439262846679 
785	 0.171393287643935 
786	 0.171365476479522 
787	 0.171309543943758 
788	 0.171180287464579 
789	 0.171130882115955 
790	 0.171105589713213 
791	 0.17100259558472 
792	 0.17094246310971 
793	 0.170884677316372 
794	 0.170822223239506 
795	 0.170779877761346 
796	 0.170719288783307 
797	 0.170640300540894 
798	 0.170559944822783 
799	 0.1705154453046 
800	 0.170446636583563 
801	 0.170356741046551 
802	 0.170275514722827 
803	 0.1702502157645 
804	 0.170235343050465 
805	 0.170182010568001 
806	 0.170060555104193 
807	 0.169986966908092 
808	 0.169939195694874 
809	 0.169886044516608 
810	 0.169808085645315 
811	 0.169788660645127 
812	 0.169768166452868 
813	 0.169692504825539 
814	 0.169610322635229 
815	 0.169544061723157 
816	 0.169482826177672 
817	 0.16941231687364 
818	 0.169393272309925 
819	 0.169362261430293 
820	 0.169309918678494 
821	 0.169274655277572 
822	 0.169210811966339 
823	 0.169129099954812 
824	 0.169056424998383 
825	 0.169031379543815 
826	 0.168991566963027 
827	 0.168920790238039 
828	 0.168833867883171 
829	 0.168796819733429 
830	 0.168753845353526 
831	 0.168682325924101 
832	 0.168592023799466 
833	 0.168576102641564 
834	 0.168505345984274 
835	 0.168403089682109 
836	 0.168431237156151 
837	 0.168414031251781 
838	 0.168380670610875 
839	 0.168337165181582 
840	 0.168191807190308 
841	 0.168109631609242 
842	 0.168092201008118 
843	 0.168084258446898 
844	 0.168011653599893 
845	 0.167977056484234 
846	 0.167952245941852 
847	 0.167871974099364 
848	 0.167838073495427 
849	 0.167825293572285 
850	 0.167790821456079 
851	 0.167696261328952 
852	 0.167636351415553 
853	 0.167571989104657 
854	 0.167497416883933 
855	 0.167480566652974 
856	 0.16743224422738 
857	 0.167406344246472 
858	 0.167423798385065 
859	 0.167328532842731 
860	 0.167285423511261 
861	 0.167247075476004 
862	 0.167134917023978 
863	 0.167084349517 
864	 0.167024444659713 
865	 0.166951929266186 
866	 0.166905242823292 
867	 0.166874651544282 
868	 0.16685817188018 
869	 0.166847912577826 
870	 0.166827848054103 
871	 0.166749703999726 
872	 0.166669549274819 
873	 0.166612016723905 
874	 0.166522867795398 
875	 0.166478060035298 
876	 0.166470189564618 
877	 0.166458391151256 
878	 0.166369981562692 
879	 0.166317562385234 
880	 0.166284376270227 
881	 0.166232796082384 
882	 0.166253579697143 
883	 0.166203250317194 
884	 0.166094752564489 
885	 0.166023242010925 
886	 0.165966753094193 
887	 0.165924795960406 
888	 0.165905519701787 
889	 0.165916755914352 
890	 0.165911510825763 
891	 0.165821049956183 
892	 0.165692012141662 
893	 0.16569624158247 
894	 0.165601921173489 
895	 0.165543847452754 
896	 0.165600378138074 
897	 0.165623995403263 
898	 0.165585688729916 
899	 0.165506711639548 
900	 0.165429995102896 
901	 0.16540650757519 
902	 0.165348397419283 
903	 0.16529085245812 
904	 0.165283055771023 
905	 0.165258966846088 
906	 0.165215183634271 
907	 0.165190549117408 
908	 0.165212974204243 
909	 0.165154309411882 
910	 0.165073787847972 
911	 0.165032418145503 
912	 0.165050319192694 
913	 0.164922700049819 
914	 0.164843704798366 
915	 0.164846253636212 
916	 0.16480222404235 
917	 0.164800507027498 
918	 0.164794802962501 
919	 0.16474792318328 
920	 0.164658948039253 
921	 0.164593023397345 
922	 0.164542494022314 
923	 0.164515906249912 
924	 0.164558122961462 
925	 0.164521895982482 
926	 0.164452148045029 
927	 0.164394829879429 
928	 0.164315385627903 
929	 0.164304359551192 
930	 0.164298052460973 
931	 0.164244990649852 
932	 0.164217129485315 
933	 0.164169895510816 
934	 0.164115991812952 
935	 0.16407260774156 
936	 0.164023855167247 
937	 0.163938216616116 
938	 0.16386649046469 
939	 0.16386081311813 
940	 0.163882682672489 
941	 0.163851455180996 
942	 0.16385993982626 
943	 0.163969172225096 
944	 0.163833144781911 
945	 0.16373587468896 
946	 0.163714558882717 
947	 0.163694396343292 
948	 0.163700049139702 
949	 0.163628299180076 
950	 0.163505115185742 
951	 0.163430495947586 
952	 0.16349482016639 
953	 0.163439309619617 
954	 0.163333488112411 
955	 0.163375657869544 
956	 0.163319703615882 
957	 0.163284488995661 
958	 0.163285326765927 
959	 0.163262255571583 
960	 0.163191602642586 
961	 0.163099384623365 
962	 0.163039741357438 
963	 0.163049967057382 
964	 0.162986465707043 
965	 0.163013603829808 
966	 0.163123405687916 
967	 0.163177784571054 
968	 0.163118395505535 
969	 0.163003788401622 
970	 0.162868459688868 
971	 0.162739915824066 
972	 0.16275573639417 
973	 0.162748135547318 
974	 0.162679367079685 
975	 0.162622743339955 
976	 0.162629316154012 
977	 0.162638914612957 
978	 0.162567829015612 
979	 0.162394392183148 
980	 0.162462284676105 
981	 0.162419287085763 
982	 0.162336662447403 
983	 0.162474241762741 
984	 0.162468914348238 
985	 0.162382135931717 
986	 0.162248367862643 
987	 0.162089860242954 
988	 0.161977496116239 
989	 0.162008825015271 
990	 0.162060147659889 
991	 0.161972582466733 
992	 0.161980569046143 
993	 0.161899485752817 
994	 0.161848529663404 
995	 0.161989188372723 
996	 0.162074918383098 
997	 0.161959824147656 
998	 0.161887911901598 
999	 0.162065924131903 
1000	 0.162003240591214 
1001	 0.157498830980126 
1002	 0.157373001383716 
1003	 0.157263356115958 
1004	 0.157196946316736 
1005	 0.157168665681644 
1006	 0.1571428598303 
1007	 0.157161988786464 
1008	 0.157139580522229 
1009	 0.157105827859721 
1010	 0.157099089270488 
1011	 0.15705105629516 
1012	 0.156985092911686 
1013	 0.156921012210269 
1014	 0.156826583353552 
1015	 0.156748426598933 
1016	 0.156750821489013 
1017	 0.156745709267993 
1018	 0.156766497908657 
1019	 0.156763576933068 
1020	 0.156738390577988 
1021	 0.156656149768182 
1022	 0.156622963970638 
1023	 0.156609753012963 
1024	 0.156570302752588 
1025	 0.156546156582694 
1026	 0.156462558998401 
1027	 0.156359116273626 
1028	 0.156319360623213 
1029	 0.156295835531628 
1030	 0.156241113904091 
1031	 0.156203283559371 
1032	 0.156174284782234 
1033	 0.156128641442866 
1034	 0.156080949315468 
1035	 0.156098153780959 
1036	 0.156070540330654 
1037	 0.15601076457026 
1038	 0.155987960496934 
1039	 0.155909843054907 
1040	 0.155816759499743 
1041	 0.155793327484825 
1042	 0.155752620312266 
1043	 0.155708813880428 
1044	 0.155683642910073 
1045	 0.155698384958226 
1046	 0.155656563067988 
1047	 0.155597789886199 
1048	 0.155551664716637 
1049	 0.155484064987755 
1050	 0.155410060978962 
1051	 0.155329576148968 
1052	 0.155258864541806 
1053	 0.15522149064781 
1054	 0.155213999628369 
1055	 0.155212102881084 
1056	 0.155208851217199 
1057	 0.155166344332282 
1058	 0.155062333052592 
1059	 0.154986710595599 
1060	 0.154904349582924 
1061	 0.154805894870727 
1062	 0.154765668856784 
1063	 0.154799274699914 
1064	 0.154810058670043 
1065	 0.154815082613579 
1066	 0.154819638122986 
1067	 0.154739412415234 
1068	 0.154624285598831 
1069	 0.154564327410691 
1070	 0.154501227623571 
1071	 0.154419641806231 
1072	 0.15434753734173 
1073	 0.154312189832375 
1074	 0.154253134599211 
1075	 0.154164402102781 
1076	 0.154117311247179 
1077	 0.154067933586247 
1078	 0.154002764918627 
1079	 0.153969620575039 
1080	 0.153933306883277 
1081	 0.153901831196077 
1082	 0.153858889304633 
1083	 0.153812752662151 
1084	 0.153742672546909 
1085	 0.153717871032253 
1086	 0.153744788033073 
1087	 0.153689079684071 
1088	 0.153603586427545 
1089	 0.153533602648263 
1090	 0.153465609917776 
1091	 0.153428739691058 
1092	 0.153435860702015 
1093	 0.153433127564117 
1094	 0.153373610914135 
1095	 0.153292138719615 
1096	 0.153260031730018 
1097	 0.153232380690742 
1098	 0.153193802516076 
1099	 0.153162184415956 
1100	 0.153124740313247 
1101	 0.15306090421245 
1102	 0.15302675129352 
1103	 0.153016582747875 
1104	 0.152987504121908 
1105	 0.152952363330609 
1106	 0.15292415653035 
1107	 0.152847966249212 
1108	 0.152767775512214 
1109	 0.152719685565541 
1110	 0.152670094764382 
1111	 0.152633801513758 
1112	 0.152632075779309 
1113	 0.152598935352373 
1114	 0.152549235773414 
1115	 0.152512393250544 
1116	 0.152461985323363 
1117	 0.152428863493539 
1118	 0.15241374915101 
1119	 0.152404380420404 
1120	 0.152358744731182 
1121	 0.152313026280609 
1122	 0.152272107279991 
1123	 0.152213605065284 
1124	 0.152167375909701 
1125	 0.152137980527106 
1126	 0.152104257829723 
1127	 0.152070838663241 
1128	 0.152024523991955 
1129	 0.151973920246276 
1130	 0.151926680334151 
1131	 0.151852530715012 
1132	 0.151810023332965 
1133	 0.151793080312735 
1134	 0.151776281584661 
1135	 0.151784510439505 
1136	 0.151775216026539 
1137	 0.151751611542919 
1138	 0.151705553301383 
1139	 0.151648041196656 
1140	 0.151550561090112 
1141	 0.151496581803953 
1142	 0.151459691317194 
1143	 0.151406167473879 
1144	 0.151358968770138 
1145	 0.15130381665971 
1146	 0.151221016905197 
1147	 0.151166389832333 
1148	 0.151128508263159 
1149	 0.151093618020342 
1150	 0.151070872836525 
1151	 0.151049089273148 
1152	 0.151037323670863 
1153	 0.151017920874931 
1154	 0.150969495149827 
1155	 0.1509051215825 
1156	 0.150843461946488 
1157	 0.150749452455787 
1158	 0.150685541933982 
1159	 0.15063521669771 
1160	 0.150586043939002 
1161	 0.150544404072792 
1162	 0.150501805741333 
1163	 0.150474756935098 
1164	 0.150432759752995 
1165	 0.150384947753653 
1166	 0.150327533165754 
1167	 0.150275551825558 
1168	 0.150219418375229 
1169	 0.15018072190996 
1170	 0.150161529969766 
1171	 0.150123162168602 
1172	 0.150085127239804 
1173	 0.150045833489407 
1174	 0.150000499561963 
1175	 0.149952380637147 
1176	 0.149892573628442 
1177	 0.149852987682615 
1178	 0.149826849132972 
1179	 0.149786449170243 
1180	 0.149754418253418 
1181	 0.14972044278607 
1182	 0.149676435552518 
1183	 0.149620379697184 
1184	 0.149582006318232 
1185	 0.149560714188855 
1186	 0.149522958547565 
1187	 0.149475552954691 
1188	 0.149442540732333 
1189	 0.149424331929249 
1190	 0.149377587034913 
1191	 0.149315122512715 
1192	 0.149272312297968 
1193	 0.149214476188928 
1194	 0.1491693584231 
1195	 0.149161584085019 
1196	 0.149128531731426 
1197	 0.149064983437172 
1198	 0.149024118098027 
1199	 0.148989552747875 
1200	 0.148962809163886 
1201	 0.148921216366152 
1202	 0.148888485199252 
1203	 0.148843394785712 
1204	 0.148774277091208 
1205	 0.14872513624652 
1206	 0.148683701350326 
1207	 0.148643852466854 
1208	 0.148611297807581 
1209	 0.148573212378858 
1210	 0.148538578183882 
1211	 0.1484993296227 
1212	 0.148456902232551 
1213	 0.148410809105646 
1214	 0.148350775130332 
1215	 0.148306218054718 
1216	 0.148267024479885 
1217	 0.148233758015353 
1218	 0.148190699117125 
1219	 0.148159182303696 
1220	 0.14810945867663 
1221	 0.148033174966154 
1222	 0.147983166638968 
1223	 0.147942580743215 
1224	 0.147898097662071 
1225	 0.147862262525651 
1226	 0.147822949692417 
1227	 0.147775557345858 
1228	 0.147736114012101 
1229	 0.147709629060978 
1230	 0.147672254241826 
1231	 0.147627282304421 
1232	 0.147587705299444 
1233	 0.147548076943044 
1234	 0.14750535090449 
1235	 0.147462456677528 
1236	 0.147418976787715 
1237	 0.147385075530377 
1238	 0.147355719741893 
1239	 0.14731834742982 
1240	 0.147295308658713 
1241	 0.147251289559949 
1242	 0.147180489850393 
1243	 0.147125685536859 
1244	 0.147076157773032 
1245	 0.147018614696413 
1246	 0.146960728097859 
1247	 0.146904253914211 
1248	 0.146847923003018 
1249	 0.146776166837902 
1250	 0.146725903395523 
1251	 0.146666080498781 
1252	 0.14661760471363 
1253	 0.146566707589193 
1254	 0.146537048919768 
1255	 0.14653667814497 
1256	 0.146500634132633 
1257	 0.146462189468599 
1258	 0.146418007534234 
1259	 0.146345909170119 
1260	 0.146288289121197 
1261	 0.14623709412667 
1262	 0.146190908782354 
1263	 0.14615275422886 
1264	 0.146102276319608 
1265	 0.146052253909743 
1266	 0.146001082939501 
1267	 0.145937388531917 
1268	 0.14587691787464 
1269	 0.14581543755689 
1270	 0.145753475551322 
1271	 0.145703590065346 
1272	 0.145655935989792 
1273	 0.145609017342953 
1274	 0.14558275776377 
1275	 0.145533951716783 
1276	 0.145464810604274 
1277	 0.145410962133751 
1278	 0.145354913719806 
1279	 0.145304321160683 
1280	 0.145260994651889 
1281	 0.145220171579283 
1282	 0.145187589440532 
1283	 0.145147342003737 
1284	 0.145106787103511 
1285	 0.14506655186891 
1286	 0.145022791217899 
1287	 0.144976742243091 
1288	 0.144932698226429 
1289	 0.14489464085854 
1290	 0.144849168374989 
1291	 0.14479753218183 
1292	 0.144748345737499 
1293	 0.144696985206785 
1294	 0.144651207361308 
1295	 0.144602789436921 
1296	 0.144562533861362 
1297	 0.144545986772726 
1298	 0.144498630996005 
1299	 0.144432320740016 
1300	 0.144380467472294 
1301	 0.144317929252874 
1302	 0.144256069034382 
1303	 0.14420076798693 
1304	 0.144155338101674 
1305	 0.144097705257318 
1306	 0.144025823420312 
1307	 0.143976189297673 
1308	 0.14393150835729 
1309	 0.143875340546137 
1310	 0.143818419769878 
1311	 0.143765184550865 
1312	 0.143700563186258 
1313	 0.143649186838728 
1314	 0.143608961445487 
1315	 0.143563740781727 
1316	 0.143524107052534 
1317	 0.143478909388437 
1318	 0.143433565637949 
1319	 0.143382491559604 
1320	 0.143326249303469 
1321	 0.143268590718578 
1322	 0.143190011932053 
1323	 0.143144981416721 
1324	 0.143119110898565 
1325	 0.143078651867229 
1326	 0.143050675122558 
1327	 0.143006234115694 
1328	 0.142924268889124 
1329	 0.142847560824392 
1330	 0.142779063169934 
1331	 0.142703802619952 
1332	 0.142644954548702 
1333	 0.142603432451803 
1334	 0.142552468727319 
1335	 0.14250546906961 
1336	 0.142458101893444 
1337	 0.142407414696604 
1338	 0.142356842929029 
1339	 0.142305568657632 
1340	 0.142261276100218 
1341	 0.142227820230097 
1342	 0.142180021582393 
1343	 0.142135284347016 
1344	 0.142076037687076 
1345	 0.142005524870751 
1346	 0.14193964953141 
1347	 0.141888298615168 
1348	 0.141843463426316 
1349	 0.141791685200063 
1350	 0.141743934243931 
1351	 0.141694904573583 
1352	 0.141643912096676 
1353	 0.141589210118864 
1354	 0.141540169727973 
1355	 0.141473578758877 
1356	 0.14138667894258 
1357	 0.141322423560295 
1358	 0.141252499842933 
1359	 0.141202450107618 
1360	 0.141178528813511 
1361	 0.141140220225261 
1362	 0.141107500682376 
1363	 0.141063412996613 
1364	 0.141015355870816 
1365	 0.140961559049395 
1366	 0.140890205175498 
1367	 0.14084107271819 
1368	 0.140781837517516 
1369	 0.140710526587594 
1370	 0.140654990813057 
1371	 0.140593542652146 
1372	 0.140522169212744 
1373	 0.140461891888891 
1374	 0.140388701590073 
1375	 0.140296270311147 
1376	 0.140220129643769 
1377	 0.140150111980441 
1378	 0.14007579030725 
1379	 0.140006872773705 
1380	 0.139938327870233 
1381	 0.139865011846129 
1382	 0.139790287851807 
1383	 0.139719013708447 
1384	 0.139646905646008 
1385	 0.139583128484312 
1386	 0.13950165634068 
1387	 0.139411756348545 
1388	 0.139318136054247 
1389	 0.139210157051287 
1390	 0.139098547289611 
1391	 0.138999361673284 
1392	 0.138894725449449 
1393	 0.138778400422383 
1394	 0.138654376651573 
1395	 0.13851917384466 
1396	 0.138385883446395 
1397	 0.138240253835976 
1398	 0.138088549242002 
1399	 0.137924676463095 
1400	 0.137750755254425 
1401	 0.13756949491365 
1402	 0.137370962720466 
1403	 0.137188543548384 
1404	 0.137002402678315 
1405	 0.13682149282405 
1406	 0.136656497139906 
1407	 0.136477262024857 
1408	 0.136289071587078 
1409	 0.136106753980328 
1410	 0.135916634239184 
1411	 0.135736583081189 
1412	 0.135556497126814 
1413	 0.135397013373133 
1414	 0.135232629296298 
1415	 0.135075148874505 
1416	 0.13495174380402 
1417	 0.134809401293014 
1418	 0.134670157363473 
1419	 0.134554590681412 
1420	 0.134414025449397 
1421	 0.134263249765884 
1422	 0.134130350734846 
1423	 0.133995566400143 
1424	 0.133856130363047 
1425	 0.133716186397995 
1426	 0.133583116229142 
1427	 0.133449172584724 
1428	 0.133311581151913 
1429	 0.133181663144394 
1430	 0.133043464228422 
1431	 0.13289241479818 
1432	 0.132748810963568 
1433	 0.132608570280107 
1434	 0.132465445428624 
1435	 0.132316789615181 
1436	 0.132179719675311 
1437	 0.132050778925995 
1438	 0.13191829606104 
1439	 0.131792048255591 
1440	 0.131661375955287 
1441	 0.131529897387225 
1442	 0.131395467756268 
1443	 0.13125897387221 
1444	 0.131130894834794 
1445	 0.13099704151282 
1446	 0.130869094477092 
1447	 0.130767032895248 
1448	 0.130662816928162 
1449	 0.130576669981617 
1450	 0.13051275374476 
1451	 0.130452123353682 
1452	 0.130399412757294 
1453	 0.13036432702348 
1454	 0.130343572369836 
1455	 0.130327044939923 
1456	 0.130328192561046 
1457	 0.130320556391476 
1458	 0.130304225987575 
1459	 0.130315211741606 
1460	 0.130336876233073 
1461	 0.130365893098119 
1462	 0.130422021508342 
1463	 0.130465860837478 
1464	 0.130503917789136 
1465	 0.130549431551074 
1466	 0.130605842573683 
1467	 0.130649806326622 
1468	 0.130692503127026 
1469	 0.13073287775846 
1470	 0.130768282818079 
1471	 0.130795391734331 
1472	 0.130828588912372 
1473	 0.130848228303754 
1474	 0.13086300971892 
1475	 0.13088316934595 
1476	 0.130901970130636 
1477	 0.1309179522291 
1478	 0.130919774867053 
1479	 0.130928548577406 
1480	 0.130945522617202 
1481	 0.130948804481651 
1482	 0.130949907001889 
1483	 0.130950862920618 
1484	 0.13095216997921 
1485	 0.130944262823676 
1486	 0.130943864145437 
1487	 0.13095779983993 
1488	 0.130956794706399 
1489	 0.13094305689859 
1490	 0.13093474653352 
1491	 0.130927631080363 
1492	 0.130915549868625 
1493	 0.130903857737554 
1494	 0.130886366448814 
1495	 0.130851380745336 
1496	 0.130838007066273 
1497	 0.130839763496326 
1498	 0.130831462289267 
1499	 0.130840573779778 
1500	 0.13082560416629 
1501	 0.130785627259026 
1502	 0.130750110535251 
1503	 0.130705130217786 
1504	 0.130663868275557 
1505	 0.130632549332598 
1506	 0.130606465020189 
1507	 0.130565577659735 
1508	 0.13052007642392 
1509	 0.130472560771208 
1510	 0.130418079294836 
1511	 0.130382670678282 
1512	 0.13036356734015 
1513	 0.130339617989549 
1514	 0.130317595710784 
1515	 0.130310482538053 
1516	 0.130296360733601 
1517	 0.130268383977297 
1518	 0.130233812884457 
1519	 0.130206135803324 
1520	 0.130166261429088 
1521	 0.130134365116893 
1522	 0.130120686887003 
1523	 0.130082038851585 
1524	 0.130023028544099 
1525	 0.129977068514807 
1526	 0.129924726312931 
1527	 0.129884054053517 
1528	 0.129857057064165 
1529	 0.129822669097315 
1530	 0.129782135896141 
1531	 0.129754930482132 
1532	 0.129736453341163 
1533	 0.129710652919512 
1534	 0.129692542584806 
1535	 0.129668853891797 
1536	 0.129628362612433 
1537	 0.12960646945507 
1538	 0.1296019213278 
1539	 0.129586391934591 
1540	 0.129580672309564 
1541	 0.129558764587108 
1542	 0.129515216652157 
1543	 0.129481355340678 
1544	 0.12944265449026 
1545	 0.129409716581131 
1546	 0.129386528992086 
1547	 0.129359812067019 
1548	 0.129325191757508 
1549	 0.129291345704007 
1550	 0.129233522441907 
1551	 0.129188878635342 
1552	 0.129167265859731 
1553	 0.129128994497369 
1554	 0.129100259624918 
1555	 0.129072302383885 
1556	 0.129027006631043 
1557	 0.128975623292773 
1558	 0.128927940569405 
1559	 0.128888909698646 
1560	 0.128842791137606 
1561	 0.128797700545241 
1562	 0.128746096232879 
1563	 0.128686603907042 
1564	 0.128631403164887 
1565	 0.128576221024204 
1566	 0.128519281766072 
1567	 0.128456528261789 
1568	 0.128409795069893 
1569	 0.12837295436315 
1570	 0.128321760917051 
1571	 0.128274676958154 
1572	 0.128228807860475 
1573	 0.128175654633978 
1574	 0.128119256558588 
1575	 0.128070972791837 
1576	 0.128010756411447 
1577	 0.12792340650535 
1578	 0.127862774579151 
1579	 0.127814361841679 
1580	 0.127769526523125 
1581	 0.127753950641842 
1582	 0.127701369459018 
1583	 0.127631889138261 
1584	 0.127560796403006 
1585	 0.127455794126581 
1586	 0.127381191758473 
1587	 0.127324820384248 
1588	 0.12726498945391 
1589	 0.127211055245056 
1590	 0.127162584642005 
1591	 0.127122759176714 
1592	 0.127072277938317 
1593	 0.127025117764619 
1594	 0.126973441361271 
1595	 0.126908006258509 
1596	 0.126849736411178 
1597	 0.126802268263927 
1598	 0.126742135711667 
1599	 0.126670392457367 
1600	 0.1266057560429 
1601	 0.126539090308271 
1602	 0.126472694110143 
1603	 0.126416905035751 
1604	 0.12635173230306 
1605	 0.126278267419954 
1606	 0.126202732651327 
1607	 0.126116661770083 
1608	 0.126037480616906 
1609	 0.125970952639908 
1610	 0.125908155626975 
1611	 0.125850683097691 
1612	 0.125785160449663 
1613	 0.125713356436116 
1614	 0.125660652871137 
1615	 0.125596610867096 
1616	 0.125532910501859 
1617	 0.125477734260934 
1618	 0.125390431771484 
1619	 0.125313799506458 
1620	 0.125260385181072 
1621	 0.12519278189078 
1622	 0.12511876401912 
1623	 0.125052648797578 
1624	 0.124984324903985 
1625	 0.124931467398246 
1626	 0.124897709151203 
1627	 0.124831896323968 
1628	 0.124760000288025 
1629	 0.1246948891006 
1630	 0.124604239809807 
1631	 0.12454502314806 
1632	 0.12452032878087 
1633	 0.124460648861063 
1634	 0.124392090797772 
1635	 0.124323831150991 
1636	 0.124242052470442 
1637	 0.124168074896867 
1638	 0.124104253052034 
1639	 0.124020492389961 
1640	 0.123921872488036 
1641	 0.123836352315969 
1642	 0.123734382197228 
1643	 0.123667710815641 
1644	 0.12363631014314 
1645	 0.123572707630686 
1646	 0.123512820017814 
1647	 0.123445126017755 
1648	 0.123353713138297 
1649	 0.123278385275885 
1650	 0.123216638184456 
1651	 0.12314424730797 
1652	 0.12306381407871 
1653	 0.122990651462445 
1654	 0.122921190636475 
1655	 0.122845675577084 
1656	 0.122766603961879 
1657	 0.122696407073659 
1658	 0.122625849823818 
1659	 0.122557671284145 
1660	 0.122498023986164 
1661	 0.122435825074066 
1662	 0.122371183082777 
1663	 0.12230745958441 
1664	 0.122247509765638 
1665	 0.122185761510827 
1666	 0.122122309791997 
1667	 0.122057244438926 
1668	 0.121994355548532 
1669	 0.121926689951309 
1670	 0.121852287167803 
1671	 0.121782575303198 
1672	 0.121712463915514 
1673	 0.121644615012178 
1674	 0.121582949560066 
1675	 0.121512527445779 
1676	 0.121439578336408 
1677	 0.121365631637644 
1678	 0.121279772827746 
1679	 0.121209248321384 
1680	 0.121148607968653 
1681	 0.121081700272288 
1682	 0.121017997316248 
1683	 0.120956822634564 
1684	 0.120891680671678 
1685	 0.120831709909951 
1686	 0.120787961404154 
1687	 0.120722575392191 
1688	 0.120647402092947 
1689	 0.120570058020862 
1690	 0.120472889917284 
1691	 0.120397223272582 
1692	 0.120323598584527 
1693	 0.120265486669974 
1694	 0.120236123456094 
1695	 0.120176871638704 
1696	 0.12011065527998 
1697	 0.120049880192533 
1698	 0.119973243943796 
1699	 0.119907613218219 
1700	 0.119856871810406 
1701	 0.119797868892561 
1702	 0.119736089610644 
1703	 0.119671595241067 
1704	 0.119606022882865 
1705	 0.119538448064507 
1706	 0.119461924372328 
1707	 0.119394557466593 
1708	 0.119335134514877 
1709	 0.119270263402541 
1710	 0.119201855677897 
1711	 0.119142214522191 
1712	 0.11908005151545 
1713	 0.11902772158385 
1714	 0.118990018453884 
1715	 0.11894469009206 
1716	 0.11890081196287 
1717	 0.118853727057323 
1718	 0.118803815341861 
1719	 0.118758201872263 
1720	 0.118719044745429 
1721	 0.118664943549454 
1722	 0.118610167700788 
1723	 0.118539323600203 
1724	 0.118443922418163 
1725	 0.11837018260791 
1726	 0.118292482349498 
1727	 0.118231104908558 
1728	 0.11818960920481 
1729	 0.118133990448804 
1730	 0.118083511658034 
1731	 0.118022382785092 
1732	 0.117959719549733 
1733	 0.117883941056074 
1734	 0.117792750157708 
1735	 0.117709709270426 
1736	 0.117615538143765 
1737	 0.117533474425297 
1738	 0.117459484691596 
1739	 0.117385602646357 
1740	 0.117317678828828 
1741	 0.117244760164825 
1742	 0.117173587298886 
1743	 0.117103334918411 
1744	 0.117025180949021 
1745	 0.116961689976468 
1746	 0.116909519880883 
1747	 0.116846078428197 
1748	 0.116781921542402 
1749	 0.116723415498912 
1750	 0.116664005485339 
1751	 0.116607569682961 
1752	 0.116567821646382 
1753	 0.116493131483555 
1754	 0.11640212447897 
1755	 0.116332905828203 
1756	 0.116243327726699 
1757	 0.11616932362079 
1758	 0.116123862355079 
1759	 0.116061763385469 
1760	 0.116003946622591 
1761	 0.11594154469122 
1762	 0.115866512275991 
1763	 0.115795790076415 
1764	 0.115705777509841 
1765	 0.115627298488056 
1766	 0.115577090070207 
1767	 0.115512257221154 
1768	 0.115468670241427 
1769	 0.115430959245164 
1770	 0.115335892184551 
1771	 0.115264987211647 
1772	 0.115225894822426 
1773	 0.115176864911394 
1774	 0.115145435541887 
1775	 0.115086362074778 
1776	 0.115021241860173 
1777	 0.114962192093058 
1778	 0.114902882361115 
1779	 0.114877424199764 
1780	 0.114829501675661 
1781	 0.114773062356167 
1782	 0.11473966749053 
1783	 0.114703730800413 
1784	 0.11464081449385 
1785	 0.114548667924983 
1786	 0.114482360283075 
1787	 0.114416990690493 
1788	 0.114347978157598 
1789	 0.114287885306902 
1790	 0.1142357626871 
1791	 0.114171801712394 
1792	 0.114129746347199 
1793	 0.114119247761375 
1794	 0.114078296926698 
1795	 0.114040079712098 
1796	 0.113979245171266 
1797	 0.113887882314846 
1798	 0.113829198874886 
1799	 0.113749390278707 
1800	 0.113713983439014 
1801	 0.11163456951208 
1802	 0.111594015353641 
1803	 0.111552475769342 
1804	 0.111515771437258 
1805	 0.111500948588992 
1806	 0.11150958209662 
1807	 0.111499912061332 
1808	 0.111476943352115 
1809	 0.111426002562964 
1810	 0.111392121416581 
1811	 0.111349751666954 
1812	 0.111326125096067 
1813	 0.111321630365193 
1814	 0.111289797477773 
1815	 0.11125483808372 
1816	 0.111224788999175 
1817	 0.111185417982094 
1818	 0.111113053758146 
1819	 0.111088960843947 
1820	 0.111091992647169 
1821	 0.111075557819728 
1822	 0.111078083956509 
1823	 0.111072982316745 
1824	 0.111028185223962 
1825	 0.11100371122186 
1826	 0.110969865576515 
1827	 0.110926968306371 
1828	 0.110878073827953 
1829	 0.110808014941939 
1830	 0.110762448864117 
1831	 0.110732314731287 
1832	 0.110675231835413 
1833	 0.110614786610654 
1834	 0.110586663417201 
1835	 0.110525604659242 
1836	 0.110475754125006 
1837	 0.110457790160682 
1838	 0.110417375946663 
1839	 0.110383262242224 
1840	 0.110344477699246 
1841	 0.110316180612741 
1842	 0.11030239473005 
1843	 0.11026511753148 
1844	 0.110207262251507 
1845	 0.110178956732765 
1846	 0.110131836707482 
1847	 0.11007170083482 
1848	 0.110031745027509 
1849	 0.109981557922415 
1850	 0.109929467959717 
1851	 0.109868427221375 
1852	 0.109830090836088 
1853	 0.109778134779503 
1854	 0.109712283568544 
1855	 0.109660645514239 
1856	 0.10960354426538 
1857	 0.10953520241001 
1858	 0.10949054912676 
1859	 0.10945138732281 
1860	 0.109387593926017 
1861	 0.109310311553801 
1862	 0.109238953619605 
1863	 0.109160277290762 
1864	 0.109073894254646 
1865	 0.108993211793307 
1866	 0.108921632051393 
1867	 0.108837563809325 
1868	 0.108702718365364 
1869	 0.108561082581362 
1870	 0.108450218444143 
1871	 0.108338761700832 
1872	 0.108233168241396 
1873	 0.108135258481002 
1874	 0.108029627252096 
1875	 0.107877501120362 
1876	 0.10768803991509 
1877	 0.107498234952508 
1878	 0.107318231568696 
1879	 0.107152365193705 
1880	 0.106977373633631 
1881	 0.10682133743314 
1882	 0.106629358850384 
1883	 0.106425104063156 
1884	 0.106187859055378 
1885	 0.105943066118267 
1886	 0.105690379686943 
1887	 0.105419517376225 
1888	 0.105136709108145 
1889	 0.104830095565238 
1890	 0.104510473197951 
1891	 0.104192767868963 
1892	 0.103882304552769 
1893	 0.103539938558196 
1894	 0.103183094865397 
1895	 0.102810432454264 
1896	 0.102419205812572 
1897	 0.102034405551393 
1898	 0.101677678093271 
1899	 0.101317769184998 
1900	 0.100942472207225 
1901	 0.100549094364928 
1902	 0.100160270566052 
1903	 9.97446936835667E-02 
1904	 9.93643936125363E-02 
1905	 9.89929801770301E-02 
1906	 9.86515931619421E-02 
1907	 9.83210763330049E-02 
1908	 9.80012774900318E-02 
1909	 9.77019381346041E-02 
1910	 9.73766630480654E-02 
1911	 9.70586125776245E-02 
1912	 9.67690368359127E-02 
1913	 9.64730023798594E-02 
1914	 0.09617562424396 
1915	 9.58964260702504E-02 
1916	 9.56298912160489E-02 
1917	 9.53520871939114E-02 
1918	 9.51007125820651E-02 
1919	 9.48583012394145E-02 
1920	 9.46496755641272E-02 
1921	 9.44465645041772E-02 
1922	 9.42227459740432E-02 
1923	 9.40161611683537E-02 
1924	 0.093813156702068 
1925	 9.35946134796608E-02 
1926	 9.34001034829207E-02 
1927	 9.32215723391676E-02 
1928	 9.30588811838933E-02 
1929	 9.29122755101806E-02 
1930	 0.092765638154735 
1931	 0.092619255358135 
1932	 0.092484816018487 
1933	 9.23438670397347E-02 
1934	 9.21943442913691E-02 
1935	 9.20421343594884E-02 
1936	 9.18904798219887E-02 
1937	 9.17390696332939E-02 
1938	 9.15712443464052E-02 
1939	 9.14191620104288E-02 
1940	 9.12851899978182E-02 
1941	 9.11444391605283E-02 
1942	 9.09875186558082E-02 
1943	 9.08366551890666E-02 
1944	 9.06812710627557E-02 
1945	 9.05354085156218E-02 
1946	 0.090397691424768 
1947	 9.02725341738925E-02 
1948	 9.01486960815692E-02 
1949	 0.090023636095348 
1950	 8.99110080945954E-02 
1951	 8.98019833932489E-02 
1952	 8.97134199433506E-02 
1953	 8.96308306883723E-02 
1954	 8.95533689821238E-02 
1955	 8.94828049571945E-02 
1956	 8.94241969430199E-02 
1957	 8.93927172838566E-02 
1958	 8.93842961144853E-02 
1959	 8.93865732066496E-02 
1960	 8.94169094148245E-02 
1961	 8.94434163179193E-02 
1962	 8.94681440944768E-02 
1963	 8.95141033233273E-02 
1964	 8.95785786718881E-02 
1965	 8.96442368522525E-02 
1966	 8.97253242981563E-02 
1967	 8.98203116929812E-02 
1968	 8.99086966409555E-02 
1969	 8.99976873764771E-02 
1970	 0.090091438072404 
1971	 9.01899575900394E-02 
1972	 9.02810351619264E-02 
1973	 9.03661708595441E-02 
1974	 9.04671059086396E-02 
1975	 9.05721171226247E-02 
1976	 9.06849935514288E-02 
1977	 9.07967630976954E-02 
1978	 0.090879993536833 
1979	 9.09609254012979E-02 
1980	 9.10541181745904E-02 
1981	 9.11588126839567E-02 
1982	 9.13025891882768E-02 
1983	 9.13984656086847E-02 
1984	 9.14796723535751E-02 
1985	 9.15553296964514E-02 
1986	 0.091599111623359 
1987	 9.16543101572731E-02 
1988	 9.17032366452058E-02 
1989	 0.091773472141154 
1990	 9.18423770087382E-02 
1991	 9.18974066995938E-02 
1992	 9.19727954216704E-02 
1993	 9.20678414460537E-02 
1994	 9.21516396335531E-02 
1995	 9.22388990163847E-02 
1996	 9.23230340191881E-02 
1997	 9.23956813553671E-02 
1998	 9.24808867758638E-02 
1999	 9.25634747932707E-02 
2000	 9.26649383543682E-02 
2001	 9.27794700220479E-02 
2002	 9.29078921022161E-02 
2003	 9.30288537124087E-02 
2004	 9.31692156898389E-02 
2005	 9.33009837235542E-02 
2006	 9.34294494837574E-02 
2007	 9.35605037122943E-02 
2008	 9.37098679371376E-02 
2009	 9.38246486754194E-02 
2010	 9.39215571884092E-02 
2011	 9.40232412856022E-02 
2012	 9.41028302416653E-02 
2013	 9.41902050697087E-02 
2014	 9.42856558574303E-02 
2015	 9.43746071749368E-02 
2016	 9.44676792998296E-02 
2017	 9.45614373946044E-02 
2018	 0.094650641148861 
2019	 9.47522719289813E-02 
2020	 9.48282970698828E-02 
2021	 9.48836392325856E-02 
2022	 9.49477045797011E-02 
2023	 9.49989993534033E-02 
2024	 9.50573514856768E-02 
2025	 9.51244886415157E-02 
2026	 9.51849056414159E-02 
2027	 9.52366313327518E-02 
2028	 9.53010915256577E-02 
2029	 9.53544744891962E-02 
2030	 9.54029407139143E-02 
2031	 9.54489428600855E-02 
2032	 9.54919489343159E-02 
2033	 9.55329218551909E-02 
2034	 9.55644240549656E-02 
2035	 0.095610223671472 
2036	 9.56674465548476E-02 
2037	 9.57094655057233E-02 
2038	 9.57501791667015E-02 
2039	 9.57917551239889E-02 
2040	 9.58221241112638E-02 
2041	 9.58629681400241E-02 
2042	 9.58783742351112E-02 
2043	 9.59015381992821E-02 
2044	 9.59242340012266E-02 
2045	 9.59283503607019E-02 
2046	 0.095948798470612 
2047	 9.59924364754098E-02 
2048	 9.60155166483942E-02 
2049	 0.096031509439628 
2050	 9.60448643249725E-02 
2051	 0.096046181276367 
2052	 9.60571756696108E-02 
2053	 9.60730701695344E-02 
2054	 9.60819447945834E-02 
2055	 9.60925488599366E-02 
2056	 9.60984738346791E-02 
2057	 9.61087468595253E-02 
2058	 0.096113413366974 
2059	 9.61256900635864E-02 
2060	 9.61493034867075E-02 
2061	 9.61615336263826E-02 
2062	 9.61774215149423E-02 
2063	 9.61756665393513E-02 
2064	 9.61469184666951E-02 
2065	 9.61468648478377E-02 
2066	 9.61528843074361E-02 
2067	 9.61540569562697E-02 
2068	 9.61754470287812E-02 
2069	 9.61852014418432E-02 
2070	 0.096193115892416 
2071	 9.61801471464141E-02 
2072	 9.61987215394359E-02 
2073	 9.62434101502958E-02 
2074	 9.62570811859085E-02 
2075	 9.62637269719656E-02 
2076	 9.62783971174087E-02 
2077	 9.62860470877459E-02 
2078	 9.62895180272929E-02 
2079	 9.62907213786699E-02 
2080	 9.63057321378164E-02 
2081	 9.63121789625187E-02 
2082	 9.63272192891675E-02 
2083	 9.63537605953367E-02 
2084	 9.64058456982717E-02 
2085	 9.64356622550039E-02 
2086	 9.64567415823677E-02 
2087	 9.64811919923708E-02 
2088	 9.65085875502477E-02 
2089	 9.65238341869598E-02 
2090	 9.65302492559055E-02 
2091	 9.65419484264612E-02 
2092	 9.65414784247099E-02 
2093	 9.65575788377839E-02 
2094	 9.65804077158705E-02 
2095	 9.66098167044338E-02 
2096	 0.096659498644661 
2097	 9.66941390153806E-02 
2098	 9.67225748625034E-02 
2099	 9.67542184418812E-02 
2100	 9.67952159228031E-02 
2101	 9.68347737561451E-02 
2102	 0.096874208496308 
2103	 9.69413263311955E-02 
2104	 9.69630732567305E-02 
2105	 0.096941440447297 
2106	 9.69584825063499E-02 
2107	 9.69697452980737E-02 
2108	 9.69919287276523E-02 
2109	 9.70482537707726E-02 
2110	 9.70839099320425E-02 
2111	 0.097107700315752 
2112	 9.71331973859873E-02 
2113	 9.71565061485549E-02 
2114	 9.71768716271154E-02 
2115	 9.72034520406917E-02 
2116	 9.72223140378705E-02 
2117	 9.72661621568988E-02 
2118	 9.73217277845636E-02 
2119	 9.73840170918126E-02 
2120	 9.74823503124482E-02 
2121	 9.75370058508313E-02 
2122	 9.75804612626916E-02 
2123	 9.76166729660648E-02 
2124	 9.76256934489563E-02 
2125	 9.76400713522731E-02 
2126	 9.76490188136602E-02 
2127	 9.76647222203048E-02 
2128	 9.76682935538445E-02 
2129	 9.76880963325904E-02 
2130	 9.77364356451285E-02 
2131	 0.097767707326438 
2132	 9.77884620772087E-02 
2133	 9.78184083461795E-02 
2134	 0.097814269933159 
2135	 9.77730447994837E-02 
2136	 9.77530808008737E-02 
2137	 9.77187566597186E-02 
2138	 9.76988609755835E-02 
2139	 9.76927921223835E-02 
2140	 9.76831389218546E-02 
2141	 9.76845329218818E-02 
2142	 9.76695742319734E-02 
2143	 9.76563712512363E-02 
2144	 9.76253031577563E-02 
2145	 9.75758199271527E-02 
2146	 0.097521474433315 
2147	 9.74548063208616E-02 
2148	 9.73769151122613E-02 
2149	 9.73141282416186E-02 
2150	 9.72508104457058E-02 
2151	 9.71888306365059E-02 
2152	 9.71408923763462E-02 
2153	 9.70754540939361E-02 
2154	 9.69894137078623E-02 
2155	 0.096928004340923 
2156	 9.68801589324786E-02 
2157	 9.68194403208168E-02 
2158	 9.67798334826603E-02 
2159	 9.67085048649111E-02 
2160	 9.65998107759126E-02 
2161	 9.65069543524248E-02 
2162	 9.64101365053546E-02 
2163	 9.63124003394495E-02 
2164	 9.62068854917528E-02 
2165	 0.096125955680647 
2166	 9.60335793810101E-02 
2167	 9.59333182037752E-02 
2168	 9.58416379068427E-02 
2169	 9.57565633127408E-02 
2170	 0.095671357241968 
2171	 0.095586965929317 
2172	 9.55051847813203E-02 
2173	 9.54276061028186E-02 
2174	 9.53490492592471E-02 
2175	 9.52732520799229E-02 
2176	 9.51921277934048E-02 
2177	 9.50922944708555E-02 
2178	 0.095025704964864 
2179	 9.49859881895865E-02 
2180	 9.49267070124091E-02 
2181	 9.48879953321802E-02 
2182	 9.48331394422533E-02 
2183	 9.47458112959006E-02 
2184	 9.46684551627918E-02 
2185	 9.45932038743854E-02 
2186	 9.45148416542188E-02 
2187	 9.44553119471842E-02 
2188	 9.44018660563727E-02 
2189	 0.094355403799874 
2190	 9.43447773113431E-02 
2191	 9.42913904989801E-02 
2192	 0.094215678244784 
2193	 9.41514313798213E-02 
2194	 9.40560769901592E-02 
2195	 9.39945072154836E-02 
2196	 9.39716535961742E-02 
2197	 9.39208509368918E-02 
2198	 9.38593299762156E-02 
2199	 9.38139260226811E-02 
2200	 0.093774664894391 
2201	 9.37217548494865E-02 
2202	 9.36728609954373E-02 
2203	 9.36206060287588E-02 
2204	 9.35808810492686E-02 
2205	 9.35242096342634E-02 
2206	 9.34917132548153E-02 
2207	 9.34920966380476E-02 
2208	 9.34714876307348E-02 
2209	 9.34389439231221E-02 
2210	 9.34220684263188E-02 
2211	 9.34197619228633E-02 
2212	 9.34015930343935E-02 
2213	 9.33830633313325E-02 
2214	 0.093360075136049 
2215	 9.33155993130291E-02 
2216	 9.32937360632235E-02 
2217	 9.33018026241075E-02 
2218	 9.32771917619142E-02 
2219	 9.32352136208968E-02 
2220	 9.32055749799505E-02 
2221	 9.31538116241955E-02 
2222	 9.31114531150718E-02 
2223	 9.31215240951123E-02 
2224	 9.31477366415608E-02 
2225	 0.093155374712817 
2226	 9.31759229116417E-02 
2227	 9.31789752580822E-02 
2228	 0.093170098138561 
2229	 9.31570755531706E-02 
2230	 9.31401933014621E-02 
2231	 9.31227524170727E-02 
2232	 9.30909193835511E-02 
2233	 9.30630466583596E-02 
2234	 9.30371161354878E-02 
2235	 9.30170251431469E-02 
2236	 0.092991471862596 
2237	 9.29799323743985E-02 
2238	 9.29921886253805E-02 
2239	 9.29802488993503E-02 
2240	 9.29520337176911E-02 
2241	 9.29395661885463E-02 
2242	 9.29257404567184E-02 
2243	 9.29147356661403E-02 
2244	 9.29188319884172E-02 
2245	 0.092925715950174 
2246	 9.29077174029871E-02 
2247	 0.092867865534123 
2248	 9.28468898799394E-02 
2249	 9.28175900547488E-02 
2250	 9.28010692995217E-02 
2251	 9.28099787140158E-02 
2252	 0.092786610758432 
2253	 9.27473373463517E-02 
2254	 9.27195142385451E-02 
2255	 9.26750904018641E-02 
2256	 9.26478981720808E-02 
2257	 9.26419311896177E-02 
2258	 9.26213895020275E-02 
2259	 9.25915560238116E-02 
2260	 9.25748144154823E-02 
2261	 9.25713845856258E-02 
2262	 9.25478592431056E-02 
2263	 9.25035869213995E-02 
2264	 9.24925648723618E-02 
2265	 9.24937576194835E-02 
2266	 9.24814724582403E-02 
2267	 9.24983601985052E-02 
2268	 9.24970923655802E-02 
2269	 0.092468632010339 
2270	 9.24381554303395E-02 
2271	 9.24201050559646E-02 
2272	 9.23931065312029E-02 
2273	 9.23504311053731E-02 
2274	 9.23024588889005E-02 
2275	 9.22755904091872E-02 
2276	 9.22639940520482E-02 
2277	 9.22335365768309E-02 
2278	 9.22119448621105E-02 
2279	 9.21742381163059E-02 
2280	 9.21085092503032E-02 
2281	 9.20535683816632E-02 
2282	 9.20015495473026E-02 
2283	 9.19559976944338E-02 
2284	 0.091916869965912 
2285	 9.18681951525804E-02 
2286	 9.18093848548312E-02 
2287	 9.17678082876591E-02 
2288	 9.17233557946668E-02 
2289	 9.16916832748956E-02 
2290	 9.16887647032778E-02 
2291	 9.16663946834056E-02 
2292	 9.16418791128044E-02 
2293	 9.16098636435044E-02 
2294	 9.15796730493015E-02 
2295	 9.15388885993293E-02 
2296	 9.14989277713508E-02 
2297	 9.14272141613977E-02 
2298	 9.13387910410797E-02 
2299	 9.12346365168534E-02 
2300	 9.11349636384544E-02 
2301	 9.10421398050218E-02 
2302	 9.09677771879747E-02 
2303	 0.090909814296345 
2304	 9.08689917835236E-02 
2305	 0.090793700145489 
2306	 9.06981300510738E-02 
2307	 9.05780937663466E-02 
2308	 9.04683504863853E-02 
2309	 9.03340127902864E-02 
2310	 9.02125292153364E-02 
2311	 9.00726964286565E-02 
2312	 9.00042926970798E-02 
2313	 8.99732970474024E-02 
2314	 8.99432553031967E-02 
2315	 9.00070969387848E-02 
2316	 8.99720503095773E-02 
2317	 8.98555357329274E-02 
2318	 8.97879863198783E-02 
2319	 8.97034928919406E-02 
2320	 8.96266161097715E-02 
2321	 8.95841017867809E-02 
2322	 8.95262913128757E-02 
2323	 8.94666479655204E-02 
2324	 8.93936394174519E-02 
2325	 8.92788205824165E-02 
2326	 8.92183499954648E-02 
2327	 8.91851871498511E-02 
2328	 8.91217121236012E-02 
2329	 8.91084319939878E-02 
2330	 8.91467445076383E-02 
2331	 0.0891075348124 
2332	 8.90840743210044E-02 
2333	 8.90704946396296E-02 
2334	 8.90362517613553E-02 
2335	 8.90181742122746E-02 
2336	 8.89918958585233E-02 
2337	 8.90009834091425E-02 
2338	 8.90072291486297E-02 
2339	 8.89274102983994E-02 
2340	 8.88614251560771E-02 
2341	 8.88272405959398E-02 
2342	 8.87829181251714E-02 
2343	 8.88209315508002E-02 
2344	 8.88538379927882E-02 
2345	 8.88087605076208E-02 
2346	 8.86636925207034E-02 
2347	 8.86180865477535E-02 
2348	 0.088578488306752 
2349	 8.85397858380916E-02 
2350	 8.85641967957756E-02 
2351	 8.85354078674606E-02 
2352	 8.84442589356677E-02 
2353	 0.088402136797841 
2354	 8.83829472335313E-02 
2355	 8.83523548751959E-02 
2356	 8.83717553269426E-02 
2357	 8.82933942264205E-02 
2358	 8.81072875619541E-02 
2359	 0.088046576174662 
2360	 8.80032943231721E-02 
2361	 8.79394997471536E-02 
2362	 8.79978855881701E-02 
2363	 0.087943448232839 
2364	 8.77187892388017E-02 
2365	 0.087612431273154 
2366	 8.75631581255775E-02 
2367	 8.74874706975218E-02 
2368	 8.74636151625372E-02 
2369	 8.74166416758847E-02 
2370	 8.73492497328479E-02 
2371	 8.72332766616833E-02 
2372	 0.087199223296429 
2373	 8.71305432127042E-02 
2374	 8.70085219022062E-02 
2375	 8.68977877231413E-02 
2376	 8.67344512227143E-02 
2377	 8.65890019721619E-02 
2378	 8.65318031961107E-02 
2379	 8.64724514184591E-02 
2380	 8.63634806350447E-02 
2381	 8.62653805363565E-02 
2382	 8.61272621120381E-02 
2383	 8.59834775850101E-02 
2384	 8.59454439001582E-02 
2385	 8.58797677095877E-02 
2386	 8.58203999871569E-02 
2387	 8.57703414307065E-02 
2388	 8.56358952330025E-02 
2389	 0.085567783144449 
2390	 8.55213253095495E-02 
2391	 8.54516662043844E-02 
2392	 8.54034428524471E-02 
2393	 8.52289534664623E-02 
2394	 8.50696652364083E-02 
2395	 8.49847496081693E-02 
2396	 8.48747099833542E-02 
2397	 8.48594403808334E-02 
2398	 8.48001050285859E-02 
2399	 8.47000818461375E-02 
2400	 8.46475006245474E-02 
2401	 8.45113074159034E-02 
2402	 8.43703664347725E-02 
2403	 8.42582852976626E-02 
2404	 8.41324131178239E-02 
2405	 8.40218034522074E-02 
2406	 8.39494593618216E-02 
2407	 8.38322425810549E-02 
2408	 8.37090927528024E-02 
2409	 8.36724825581353E-02 
2410	 0.083572168429786 
2411	 8.34941654992995E-02 
2412	 8.33877043949291E-02 
2413	 8.32008322971249E-02 
2414	 8.30418667737782E-02 
2415	 8.28423719104752E-02 
2416	 8.26816847452809E-02 
2417	 8.24987943384902E-02 
2418	 8.24069673102661E-02 
2419	 8.24310273972576E-02 
2420	 0.08228976326189 
2421	 8.21393454517637E-02 
2422	 0.081989761801662 
2423	 8.17319792482168E-02 
2424	 8.15517881976405E-02 
2425	 8.13896699955196E-02 
2426	 8.12583758977092E-02 
2427	 8.11507443091751E-02 
2428	 8.10038960005959E-02 
2429	 8.09502559877382E-02 
2430	 8.08294930433801E-02 
2431	 8.05708574763775E-02 
2432	 8.03980690833267E-02 
2433	 8.02304238104027E-02 
2434	 8.01227186692298E-02 
2435	 8.00987526039482E-02 
2436	 8.00472346667443E-02 
2437	 8.01050803650409E-02 
2438	 7.99664322621429E-02 
2439	 7.96509429390847E-02 
2440	 7.94771021530267E-02 
2441	 7.92667602962394E-02 
2442	 7.91017724189583E-02 
2443	 7.90555448954392E-02 
2444	 7.89063840622242E-02 
2445	 7.86324335754233E-02 
2446	 7.85551211747227E-02 
2447	 7.85761333444654E-02 
2448	 0.07851263570193 
2449	 7.85736550445635E-02 
2450	 7.85098377645441E-02 
2451	 7.82706319695728E-02 
2452	 0.078166978135149 
2453	 7.81375040558358E-02 
2454	 7.80126823247558E-02 
2455	 7.79181422267029E-02 
2456	 7.77859801460233E-02 
2457	 0.077531993297164 
2458	 7.73353362923703E-02 
2459	 7.71126012166584E-02 
2460	 7.69940702279254E-02 
2461	 7.70374873385995E-02 
2462	 7.68406183513866E-02 
2463	 7.65367998647483E-02 
2464	 7.63256885653149E-02 
2465	 7.59755017081575E-02 
2466	 7.58165279271796E-02 
2467	 7.58665297856904E-02 
2468	 7.58548887305747E-02 
2469	 7.58968028926813E-02 
2470	 7.59046677444934E-02 
2471	 7.56692171208621E-02 
2472	 7.53167559467863E-02 
2473	 7.51053931421719E-02 
2474	 7.48463485405228E-02 
2475	 7.47797180011975E-02 
2476	 7.47562259291215E-02 
2477	 7.44754373938064E-02 
2478	 7.42171225197055E-02 
2479	 7.40068374856264E-02 
2480	 7.38671225092825E-02 
2481	 7.37549710726837E-02 
2482	 7.36475103752892E-02 
2483	 7.35497292423435E-02 
2484	 7.34437251196767E-02 
2485	 7.33082293867433E-02 
2486	 0.073088828463341 
2487	 7.29015107406309E-02 
2488	 7.27350224517661E-02 
2489	 7.26872766225941E-02 
2490	 7.27396205827153E-02 
2491	 7.27415245838192E-02 
2492	 7.24521314390407E-02 
2493	 7.18206163830968E-02 
2494	 7.14318692077672E-02 
2495	 7.12036840205912E-02 
2496	 7.10293014007337E-02 
2497	 7.11930385269994E-02 
2498	 7.11044553751964E-02 
2499	 7.07193690734514E-02 
2500	 7.04034665989709E-02 
