Wavelength	LMW_12_00001.asd
350	 0.121079874342964 
351	 0.123478197828295 
352	 0.115630851961424 
353	 0.103249459699277 
354	 0.101642927031358 
355	 0.107239212522273 
356	 0.108373513721203 
357	 9.98274366819305E-02 
358	 0.108542588861256 
359	 0.111458777750793 
360	 0.108537968517152 
361	 0.113517418149604 
362	 0.108690523214165 
363	 0.108157816038682 
364	 0.116114291793462 
365	 0.115828355411076 
366	 0.114470063836676 
367	 0.11439177717959 
368	 0.115843847616878 
369	 0.115640352976624 
370	 0.116220791946973 
371	 0.117217032709827 
372	 0.116642590690923 
373	 0.118679324499146 
374	 0.120700165551092 
375	 0.121986087175913 
376	 0.127184619908945 
377	 0.124173485282524 
378	 0.120696775665556 
379	 0.125831413980128 
380	 0.127643343585335 
381	 0.127483902173936 
382	 0.128717078494709 
383	 0.134877300989107 
384	 0.135948984821359 
385	 0.134442220301964 
386	 0.134009263172115 
387	 0.136883038929445 
388	 0.140867257064639 
389	 0.142725946126364 
390	 0.140790501530498 
391	 0.141635345528016 
392	 0.144466655203509 
393	 0.147372505216001 
394	 0.148140754763028 
395	 0.149524149703299 
396	 0.151817857962275 
397	 0.154658024272065 
398	 0.157341331951262 
399	 0.159909042091176 
400	 0.161348748941283 
401	 0.161023647467383 
402	 0.162214385694522 
403	 0.163749980208268 
404	 0.165116695793853 
405	 0.166760759471787 
406	 0.167407262634295 
407	 0.168982798929358 
408	 0.172174005381072 
409	 0.173107989467335 
410	 0.172616510298772 
411	 0.172777425571669 
412	 0.17550818553811 
413	 0.177240786543127 
414	 0.17810698656734 
415	 0.178415522407164 
416	 0.178172479836559 
417	 0.178429938353051 
418	 0.179151261304729 
419	 0.179926397575337 
420	 0.180275616515855 
421	 0.179885342399758 
422	 0.179454891335721 
423	 0.180105238378712 
424	 0.180141859332092 
425	 0.179919388802764 
426	 0.1798253023162 
427	 0.179810791177835 
428	 0.179744381913338 
429	 0.17961258564591 
430	 0.179462618297239 
431	 0.179419544991801 
432	 0.179255099206915 
433	 0.179194990963031 
434	 0.179853443910932 
435	 0.179997272404609 
436	 0.180066719190283 
437	 0.180507744134014 
438	 0.180838975195306 
439	 0.18163643556617 
440	 0.182730455499943 
441	 0.183622643436065 
442	 0.184468134534469 
443	 0.185315684577932 
444	 0.186188975328034 
445	 0.187085273249985 
446	 0.187952377354396 
447	 0.188935085448597 
448	 0.190165254715562 
449	 0.191528302063938 
450	 0.192724334946276 
451	 0.193627783772243 
452	 0.194309065961555 
453	 0.195448572434561 
454	 0.196501432218634 
455	 0.197145468785706 
456	 0.198177239403919 
457	 0.199056402061509 
458	 0.19961637190174 
459	 0.199974550325154 
460	 0.200971952308012 
461	 0.201892188084282 
462	 0.202443373077437 
463	 0.203120245698985 
464	 0.203748478468351 
465	 0.204338803509625 
466	 0.20488215766242 
467	 0.205059759410398 
468	 0.205587945655641 
469	 0.206387877658905 
470	 0.206771834470248 
471	 0.207420618459974 
472	 0.207845698368345 
473	 0.207858218273928 
474	 0.208418761290153 
475	 0.209007512726363 
476	 0.20941019024688 
477	 0.209633688441082 
478	 0.210339491119606 
479	 0.210973558198072 
480	 0.211331535931989 
481	 0.211834828854022 
482	 0.212354037673915 
483	 0.212820175929977 
484	 0.213206952415947 
485	 0.213600516583205 
486	 0.214124435394971 
487	 0.214657164660789 
488	 0.214916025595527 
489	 0.215465556946187 
490	 0.216016797487502 
491	 0.216354246665923 
492	 0.216815664493131 
493	 0.217252448685019 
494	 0.217722455284352 
495	 0.218335993922292 
496	 0.218876457327026 
497	 0.219341854733564 
498	 0.219811529463674 
499	 0.220458650910057 
500	 0.220978803219395 
501	 0.221329249204872 
502	 0.221625722383105 
503	 0.222292566768055 
504	 0.222862570842852 
505	 0.223251033537407 
506	 0.223738690039188 
507	 0.224107666169535 
508	 0.224621145334659 
509	 0.225358373405971 
510	 0.225668246296483 
511	 0.22600671019745 
512	 0.226477599980312 
513	 0.226999640516984 
514	 0.227634813878469 
515	 0.228190166019523 
516	 0.228620244204816 
517	 0.229181984958083 
518	 0.229579876852379 
519	 0.229879074847404 
520	 0.23026647197604 
521	 0.230889878044768 
522	 0.231537679956462 
523	 0.232056902961959 
524	 0.232385668699728 
525	 0.232806591560858 
526	 0.233256171801333 
527	 0.233661978880996 
528	 0.234205508771912 
529	 0.234697139051855 
530	 0.235114653663778 
531	 0.235552554176799 
532	 0.236070685745136 
533	 0.236588757535636 
534	 0.237070890767475 
535	 0.237624132919906 
536	 0.238134014051086 
537	 0.238643155907295 
538	 0.239219930022434 
539	 0.239664643560431 
540	 0.240076503222293 
541	 0.240532801779187 
542	 0.241046984808046 
543	 0.241610999956482 
544	 0.242155799167926 
545	 0.242643334250064 
546	 0.243220415080479 
547	 0.243845088899417 
548	 0.244482926615046 
549	 0.245109931705276 
550	 0.245658705409939 
551	 0.246244280716002 
552	 0.246926168926513 
553	 0.247525817593364 
554	 0.248194411195167 
555	 0.248865021055947 
556	 0.249392282176048 
557	 0.250031454763749 
558	 0.250662427312956 
559	 0.251229901699332 
560	 0.251864293564798 
561	 0.252518507234203 
562	 0.253252441017226 
563	 0.254128063397602 
564	 0.255036752837274 
565	 0.255945502731405 
566	 0.256970458187113 
567	 0.258376167623886 
568	 0.259549988710425 
569	 0.260400685365336 
570	 0.261017706511053 
571	 0.261553257111423 
572	 0.262247033650463 
573	 0.263166186735271 
574	 0.264216147711756 
575	 0.265036957358251 
576	 0.265793423561142 
577	 0.266654673331402 
578	 0.267584387345885 
579	 0.268706950571365 
580	 0.270055290390608 
581	 0.271589711257419 
582	 0.273163652607775 
583	 0.274539098949997 
584	 0.275594722807113 
585	 0.27637199018944 
586	 0.277156692296522 
587	 0.277969996991971 
588	 0.278751981743597 
589	 0.279518885572504 
590	 0.280221021254442 
591	 0.280879100869163 
592	 0.281577114749347 
593	 0.282215226458297 
594	 0.282886433993342 
595	 0.283743935131308 
596	 0.285016438747191 
597	 0.286487310555617 
598	 0.28800591265805 
599	 0.289469167371991 
600	 0.29086320387787 
601	 0.292038333597569 
602	 0.292962563006549 
603	 0.293835406533175 
604	 0.294611713582582 
605	 0.295399095940973 
606	 0.296309106619716 
607	 0.297211999558185 
608	 0.2980310228622 
609	 0.298783155103774 
610	 0.299588994510838 
611	 0.300539192794484 
612	 0.301559904968808 
613	 0.30253312246224 
614	 0.303367793823749 
615	 0.304189815556618 
616	 0.305010129271747 
617	 0.305761009367646 
618	 0.306542287859373 
619	 0.307276678781934 
620	 0.307935191361707 
621	 0.30864595512125 
622	 0.309347267365934 
623	 0.310057532330152 
624	 0.31080799460855 
625	 0.311505875666138 
626	 0.312194818879878 
627	 0.312881099673492 
628	 0.313504149378662 
629	 0.314176949531646 
630	 0.314848773116436 
631	 0.31546728413232 
632	 0.316158223763757 
633	 0.31684341180854 
634	 0.317478648590969 
635	 0.318065428428837 
636	 0.318793916019233 
637	 0.319527177961346 
638	 0.320149740054883 
639	 0.320734965548478 
640	 0.321400441687039 
641	 0.322113030903505 
642	 0.322772814141338 
643	 0.32341832975455 
644	 0.324065746963903 
645	 0.324725881012938 
646	 0.325403397606199 
647	 0.326062605147339 
648	 0.32672044198978 
649	 0.32741194766764 
650	 0.328190117202623 
651	 0.328872419503546 
652	 0.329462371700968 
653	 0.330128926427431 
654	 0.330870340197695 
655	 0.331607423861509 
656	 0.33228208375718 
657	 0.332914557500434 
658	 0.333623417386599 
659	 0.334417141749241 
660	 0.335222811030035 
661	 0.33584552356049 
662	 0.336456867470244 
663	 0.337165339276727 
664	 0.337933188647629 
665	 0.338786951152237 
666	 0.339583701819163 
667	 0.340222188737492 
668	 0.340955787426005 
669	 0.341756228450641 
670	 0.342548427922501 
671	 0.343238173102413 
672	 0.344017146038618 
673	 0.344816510941023 
674	 0.34558925769454 
675	 0.346472643363228 
676	 0.347215637031557 
677	 0.347905027169414 
678	 0.348744608223332 
679	 0.349601033693964 
680	 0.350432228470163 
681	 0.351225989647331 
682	 0.351999758928243 
683	 0.352792826317216 
684	 0.353619758124121 
685	 0.354473737432635 
686	 0.355310553558945 
687	 0.356117706914907 
688	 0.356910893153951 
689	 0.357726820285415 
690	 0.358608781058912 
691	 0.359481532153823 
692	 0.360305772658042 
693	 0.361153950580044 
694	 0.361940272045374 
695	 0.362725456235305 
696	 0.363601332221303 
697	 0.364520706273192 
698	 0.365390714776121 
699	 0.366214395763233 
700	 0.367093227166918 
701	 0.367843079333166 
702	 0.368666861161846 
703	 0.369667904418604 
704	 0.370432990631858 
705	 0.3712480335066 
706	 0.372096812435222 
707	 0.372836062715308 
708	 0.373671239036956 
709	 0.374504041699492 
710	 0.375302654696679 
711	 0.37618353902681 
712	 0.37697778646132 
713	 0.377723127202281 
714	 0.378492830314461 
715	 0.379248261931392 
716	 0.379984342286161 
717	 0.38074983284776 
718	 0.381603934561314 
719	 0.382265433580052 
720	 0.382867942346214 
721	 0.383526717537592 
722	 0.384195975532452 
723	 0.384922460757587 
724	 0.38569695304601 
725	 0.386474437919792 
726	 0.387162979658888 
727	 0.387718475559402 
728	 0.388219667885253 
729	 0.388841036127146 
730	 0.389446059783358 
731	 0.390050727712389 
732	 0.390656986172942 
733	 0.391165409031206 
734	 0.391651174532926 
735	 0.392149256936709 
736	 0.392665577206208 
737	 0.393134153092848 
738	 0.393607496677649 
739	 0.394090611397889 
740	 0.394528950369158 
741	 0.394954380791269 
742	 0.395356230693304 
743	 0.395716717601415 
744	 0.396010492882275 
745	 0.396360868135343 
746	 0.396741265305819 
747	 0.397053734886212 
748	 0.397277153661548 
749	 0.397504250330378 
750	 0.397756822243955 
751	 0.397959712463043 
752	 0.398255459346009 
753	 0.398532783925837 
754	 0.398705983437291 
755	 0.398945692303848 
756	 0.399143728654844 
757	 0.399287554176443 
758	 0.399416759292711 
759	 0.399572350820366 
760	 0.39963881511583 
761	 0.399628586171182 
762	 0.399726808143512 
763	 0.399877042300463 
764	 0.400004943765265 
765	 0.400074030161695 
766	 0.40019070701117 
767	 0.400182343983665 
768	 0.400135887966735 
769	 0.400228838816101 
770	 0.400257643162016 
771	 0.40024975226099 
772	 0.400241051296125 
773	 0.400250328415858 
774	 0.400193011851319 
775	 0.400163084873687 
776	 0.400205324061642 
777	 0.400115427530776 
778	 0.400038010369914 
779	 0.399990055253118 
780	 0.3999421731844 
781	 0.399978405071838 
782	 0.39992482471969 
783	 0.399788632883908 
784	 0.399775504148987 
785	 0.399678154825122 
786	 0.399555870431218 
787	 0.399482888669684 
788	 0.399445563970187 
789	 0.399428902480334 
790	 0.399376518539001 
791	 0.399238320846475 
792	 0.399057166346135 
793	 0.39898149522465 
794	 0.399017767057928 
795	 0.399036306291871 
796	 0.398889104064718 
797	 0.398739447403042 
798	 0.39868503012357 
799	 0.398608638439488 
800	 0.398515227734344 
801	 0.39837391310298 
802	 0.398198505180429 
803	 0.398194275507544 
804	 0.398207913412946 
805	 0.398142876377132 
806	 0.39797752627412 
807	 0.397920728173936 
808	 0.397861345370093 
809	 0.397740652898816 
810	 0.397617025686708 
811	 0.397588051748896 
812	 0.39755160366588 
813	 0.397429510225871 
814	 0.397337162230104 
815	 0.397239894573076 
816	 0.397198690075706 
817	 0.397255402076346 
818	 0.397158640243648 
819	 0.397042972093996 
820	 0.396963018220697 
821	 0.396885526079601 
822	 0.396810705160275 
823	 0.39679955360461 
824	 0.396804577960105 
825	 0.396588284098984 
826	 0.396527089550493 
827	 0.396548026791523 
828	 0.39652660644818 
829	 0.396622179570517 
830	 0.396539907641325 
831	 0.396384744513832 
832	 0.396421862862296 
833	 0.39657421913234 
834	 0.396559907513477 
835	 0.396375972023336 
836	 0.396293968098322 
837	 0.396373137762872 
838	 0.39644885068962 
839	 0.396438573040563 
840	 0.396473228776836 
841	 0.396419803899166 
842	 0.396351361150827 
843	 0.396353035450304 
844	 0.396360495810831 
845	 0.396412031184943 
846	 0.396430666385152 
847	 0.396334564999786 
848	 0.396308275424871 
849	 0.396389351279708 
850	 0.396544272373679 
851	 0.396683695897388 
852	 0.396737694203597 
853	 0.396729735150158 
854	 0.396719619518145 
855	 0.396789209201519 
856	 0.396900721901549 
857	 0.397040217494254 
858	 0.397146090523624 
859	 0.397000772075407 
860	 0.397024683447845 
861	 0.397228322058409 
862	 0.397450674422632 
863	 0.397552981765627 
864	 0.39754813270121 
865	 0.397590000042831 
866	 0.397844450779864 
867	 0.397967197444716 
868	 0.398014356056597 
869	 0.39806475847952 
870	 0.398177462651714 
871	 0.398364079834826 
872	 0.398599973689462 
873	 0.39883505623967 
874	 0.398996479120809 
875	 0.39901493145906 
876	 0.399020041205488 
877	 0.399149018543544 
878	 0.399431852553354 
879	 0.399667186609046 
880	 0.399806437128175 
881	 0.399911972181746 
882	 0.400215863668897 
883	 0.400475990884572 
884	 0.400634224130407 
885	 0.400782042303849 
886	 0.401169376767197 
887	 0.401476153759416 
888	 0.401631175507256 
889	 0.401817011195458 
890	 0.402104076616203 
891	 0.402365804441231 
892	 0.402541037885614 
893	 0.402690059153918 
894	 0.402874351886906 
895	 0.403121229113527 
896	 0.403457289133139 
897	 0.403928754173898 
898	 0.404239151177563 
899	 0.404494424900873 
900	 0.404808712011258 
901	 0.404998184119586 
902	 0.405231590418605 
903	 0.405542035738981 
904	 0.40590548251242 
905	 0.406293688604432 
906	 0.406633189373944 
907	 0.406879137856188 
908	 0.407067175146035 
909	 0.407505066248459 
910	 0.40795920110513 
911	 0.408385228444341 
912	 0.408849763684261 
913	 0.409120534184367 
914	 0.409409963663473 
915	 0.409784059612295 
916	 0.410157338839145 
917	 0.410679827965114 
918	 0.411130260035615 
919	 0.411438942748948 
920	 0.411765827227923 
921	 0.412195105783751 
922	 0.412610855176832 
923	 0.413008446826027 
924	 0.413584248238211 
925	 0.413999771126124 
926	 0.414399596370731 
927	 0.414890940679476 
928	 0.415316538040226 
929	 0.415794868637184 
930	 0.416302555540905 
931	 0.41679211445738 
932	 0.417242985723987 
933	 0.417806763437616 
934	 0.418338936215356 
935	 0.418716120991224 
936	 0.419124798573364 
937	 0.419660374572177 
938	 0.420284969198463 
939	 0.420929095514555 
940	 0.421641090256434 
941	 0.422188697854838 
942	 0.42261436547546 
943	 0.423061599164029 
944	 0.42354904756347 
945	 0.424092472163068 
946	 0.424674961258026 
947	 0.425249679405136 
948	 0.425726723060026 
949	 0.426179134283845 
950	 0.42671505761091 
951	 0.427387314861512 
952	 0.427936139835619 
953	 0.428568746947829 
954	 0.429219723581878 
955	 0.429705432223962 
956	 0.430138975503694 
957	 0.430766102420916 
958	 0.431461050182866 
959	 0.431934406110721 
960	 0.432382400120307 
961	 0.432987131301592 
962	 0.433767130848554 
963	 0.434575458342243 
964	 0.435057478231103 
965	 0.435572592744222 
966	 0.436246699746905 
967	 0.436996727591271 
968	 0.437791526716365 
969	 0.438535068138931 
970	 0.439182254810774 
971	 0.439768421539558 
972	 0.440529018942097 
973	 0.441293527536756 
974	 0.441993239426664 
975	 0.442655962168962 
976	 0.443266375162956 
977	 0.444002479806852 
978	 0.444701586058753 
979	 0.445107763224777 
980	 0.445787153147184 
981	 0.446445868252659 
982	 0.446979683951481 
983	 0.447491302878998 
984	 0.448270076329755 
985	 0.449000772151307 
986	 0.449639181253871 
987	 0.450312302869154 
988	 0.451025491887008 
989	 0.451692687264682 
990	 0.45239339919687 
991	 0.453214776739638 
992	 0.453896343779346 
993	 0.454381639718757 
994	 0.454847971679807 
995	 0.455486216479444 
996	 0.456096134885231 
997	 0.45671415530141 
998	 0.45739316393013 
999	 0.458140654649408 
1000	 0.458799781473146 
1001	 0.462575168169815 
1002	 0.46309199365204 
1003	 0.463611971709535 
1004	 0.464137880248129 
1005	 0.464716415635699 
1006	 0.46524762920659 
1007	 0.465786930649963 
1008	 0.466216780214531 
1009	 0.466645590626627 
1010	 0.467200292282794 
1011	 0.467754019147788 
1012	 0.468271270181513 
1013	 0.468771972843711 
1014	 0.469231460625249 
1015	 0.469705396045568 
1016	 0.470159387267275 
1017	 0.470642407524994 
1018	 0.471174581241068 
1019	 0.471656885920184 
1020	 0.472043356982661 
1021	 0.472501850566173 
1022	 0.472931033273387 
1023	 0.473240710618189 
1024	 0.473584394383496 
1025	 0.474071266442819 
1026	 0.474558219235018 
1027	 0.474987892768408 
1028	 0.475443130736432 
1029	 0.475840247212321 
1030	 0.476175445090107 
1031	 0.476529132563412 
1032	 0.476910124615905 
1033	 0.477313594588012 
1034	 0.477691362187269 
1035	 0.478065787490216 
1036	 0.478501380762577 
1037	 0.478928475143438 
1038	 0.479248962171468 
1039	 0.479591962450428 
1040	 0.479953208829669 
1041	 0.480319885255155 
1042	 0.480737328271487 
1043	 0.481088300101742 
1044	 0.481428606922589 
1045	 0.481726951738881 
1046	 0.482024761928567 
1047	 0.482332120657562 
1048	 0.482717361429557 
1049	 0.483089805876541 
1050	 0.483452534929058 
1051	 0.483846139093734 
1052	 0.48414071745041 
1053	 0.484432536689799 
1054	 0.484782138758719 
1055	 0.48507417855542 
1056	 0.485432529316244 
1057	 0.485803294989309 
1058	 0.486197869222381 
1059	 0.486563095533342 
1060	 0.486946912872332 
1061	 0.487327352165473 
1062	 0.487642389833618 
1063	 0.487932985107699 
1064	 0.488196995842778 
1065	 0.488443121031305 
1066	 0.488708732359915 
1067	 0.489006369657593 
1068	 0.489324400224749 
1069	 0.489652274705309 
1070	 0.489951033136198 
1071	 0.490228954963167 
1072	 0.490492825677572 
1073	 0.49072166849297 
1074	 0.490999027687429 
1075	 0.491285395449579 
1076	 0.49159270800797 
1077	 0.491897046120268 
1078	 0.492126091656196 
1079	 0.492293936257327 
1080	 0.492510252755195 
1081	 0.492753656538367 
1082	 0.492965032141493 
1083	 0.493189907417115 
1084	 0.49345167920405 
1085	 0.493640221730934 
1086	 0.493789820565309 
1087	 0.493955756187505 
1088	 0.494074016454798 
1089	 0.494222670822688 
1090	 0.494479489774263 
1091	 0.494721861169343 
1092	 0.494977899816666 
1093	 0.495236162400461 
1094	 0.495359147753819 
1095	 0.495469239095561 
1096	 0.495645757545414 
1097	 0.495749571906708 
1098	 0.495888735102699 
1099	 0.496074989763797 
1100	 0.496244397994828 
1101	 0.49636997351805 
1102	 0.496561785349891 
1103	 0.496803604420773 
1104	 0.497010270272875 
1105	 0.497265757861093 
1106	 0.497492395917872 
1107	 0.497676508278274 
1108	 0.497869283697959 
1109	 0.498041565504051 
1110	 0.498212250018134 
1111	 0.498418356670903 
1112	 0.498667917370921 
1113	 0.498879539517612 
1114	 0.499087659957924 
1115	 0.499308143365841 
1116	 0.499492490985134 
1117	 0.499725503452072 
1118	 0.500005584052872 
1119	 0.50027113836158 
1120	 0.500519466286195 
1121	 0.500773523784847 
1122	 0.501022578109249 
1123	 0.501284070065322 
1124	 0.501529244361571 
1125	 0.501781407711946 
1126	 0.502033215721693 
1127	 0.50226228152673 
1128	 0.502510773968839 
1129	 0.502798235901979 
1130	 0.503043576234237 
1131	 0.503257956640944 
1132	 0.50349023073616 
1133	 0.50371335920721 
1134	 0.50393864382132 
1135	 0.504171095283951 
1136	 0.50441761002679 
1137	 0.50463873528039 
1138	 0.504858497574496 
1139	 0.505044615984769 
1140	 0.50520082971762 
1141	 0.505377003934398 
1142	 0.505525971091259 
1143	 0.50570289604944 
1144	 0.505917813177313 
1145	 0.506099736173988 
1146	 0.506270110637354 
1147	 0.506439350824704 
1148	 0.506631289515641 
1149	 0.506765938335529 
1150	 0.50684731943799 
1151	 0.506959051398697 
1152	 0.50705315168143 
1153	 0.507136574774168 
1154	 0.507268020793536 
1155	 0.50745849090938 
1156	 0.507601340118454 
1157	 0.50774243644949 
1158	 0.507883764589814 
1159	 0.508022544145715 
1160	 0.508144214374793 
1161	 0.508259389514987 
1162	 0.508371820810219 
1163	 0.508464982085555 
1164	 0.508564267622851 
1165	 0.508666613833875 
1166	 0.508771988248708 
1167	 0.508865076448119 
1168	 0.508974544821147 
1169	 0.509100095419406 
1170	 0.509247530793693 
1171	 0.509378731159026 
1172	 0.509526353113207 
1173	 0.509650741751432 
1174	 0.509758624047607 
1175	 0.509867727771029 
1176	 0.509970103561863 
1177	 0.510070271695332 
1178	 0.510170671917664 
1179	 0.510265107105092 
1180	 0.510341662748767 
1181	 0.510433735961123 
1182	 0.51054115603535 
1183	 0.510627213193734 
1184	 0.510722182878322 
1185	 0.510820925942807 
1186	 0.510931881545483 
1187	 0.511054454476307 
1188	 0.511152131105971 
1189	 0.511265506280793 
1190	 0.511345613037538 
1191	 0.511374223864743 
1192	 0.511438089938914 
1193	 0.51149317927575 
1194	 0.511575468803176 
1195	 0.511689775021932 
1196	 0.511791800773563 
1197	 0.511919598684354 
1198	 0.512020522249887 
1199	 0.512108342831324 
1200	 0.512173290508105 
1201	 0.512262638380694 
1202	 0.512345356809721 
1203	 0.512437120327441 
1204	 0.512551907686913 
1205	 0.512643675021673 
1206	 0.512721404024398 
1207	 0.512806665524913 
1208	 0.512881828966625 
1209	 0.512972106139625 
1210	 0.513080275046394 
1211	 0.513172962936231 
1212	 0.513269274976633 
1213	 0.513357995061255 
1214	 0.513435533509914 
1215	 0.513509446430451 
1216	 0.513579669228906 
1217	 0.513654398956079 
1218	 0.513705577617 
1219	 0.513723139592178 
1220	 0.51379058139235 
1221	 0.513872997592824 
1222	 0.513943066354107 
1223	 0.514044789642661 
1224	 0.514119538263751 
1225	 0.5141495947793 
1226	 0.514218303674642 
1227	 0.514324752238793 
1228	 0.514396241583783 
1229	 0.514459163028867 
1230	 0.51452545952411 
1231	 0.514559690346856 
1232	 0.514615669039845 
1233	 0.514683386634771 
1234	 0.514781295999811 
1235	 0.514841502029216 
1236	 0.514900835892755 
1237	 0.514944285327924 
1238	 0.51495270672137 
1239	 0.514991960856222 
1240	 0.515039707849839 
1241	 0.515086218486894 
1242	 0.515144013678367 
1243	 0.515196313145867 
1244	 0.515243563962607 
1245	 0.51529061743575 
1246	 0.515338221680247 
1247	 0.51539115381578 
1248	 0.515450282757838 
1249	 0.515502556155021 
1250	 0.51554939394034 
1251	 0.515583176687374 
1252	 0.515635880735474 
1253	 0.515676959794698 
1254	 0.515745874368313 
1255	 0.515844290584523 
1256	 0.515929628291055 
1257	 0.516042537075976 
1258	 0.516103223397444 
1259	 0.516127467291992 
1260	 0.516173759247409 
1261	 0.516192434916259 
1262	 0.516230948744164 
1263	 0.516302160812301 
1264	 0.516357924156925 
1265	 0.516405688392121 
1266	 0.51644900195733 
1267	 0.516478718730208 
1268	 0.516526533514078 
1269	 0.516577297809688 
1270	 0.516631225918711 
1271	 0.516673389948047 
1272	 0.516719885749822 
1273	 0.516770154339192 
1274	 0.516799793660528 
1275	 0.516860276421333 
1276	 0.516953892259489 
1277	 0.517019722985483 
1278	 0.517086617931431 
1279	 0.517147898085998 
1280	 0.517199914253756 
1281	 0.517249840311734 
1282	 0.517294540705032 
1283	 0.517337517264012 
1284	 0.517369459717833 
1285	 0.51740522833835 
1286	 0.517441284451684 
1287	 0.517516060506051 
1288	 0.517592386522885 
1289	 0.517685001072626 
1290	 0.517776935773696 
1291	 0.517888244392114 
1292	 0.517974943051752 
1293	 0.518061441456624 
1294	 0.518131779638426 
1295	 0.51818918735275 
1296	 0.518238056356779 
1297	 0.518265017638344 
1298	 0.51830983772012 
1299	 0.518370035398188 
1300	 0.518396816612171 
1301	 0.518417855347875 
1302	 0.518428177918449 
1303	 0.51840770359674 
1304	 0.518385259408509 
1305	 0.518385147020514 
1306	 0.518371075082292 
1307	 0.518321807561693 
1308	 0.518261926550108 
1309	 0.518189878999291 
1310	 0.518090456774819 
1311	 0.517992242573904 
1312	 0.517889235055914 
1313	 0.517782111838028 
1314	 0.517652033541721 
1315	 0.51754649137425 
1316	 0.517440858176772 
1317	 0.517354596501633 
1318	 0.517293148394378 
1319	 0.517220378892538 
1320	 0.517159588662503 
1321	 0.517094682015638 
1322	 0.517018136967306 
1323	 0.51695071471215 
1324	 0.516905171020489 
1325	 0.516844057098041 
1326	 0.516778957844507 
1327	 0.516731075294189 
1328	 0.516673889476593 
1329	 0.516622492745948 
1330	 0.516587468742598 
1331	 0.516568915002187 
1332	 0.516545758082616 
1333	 0.51652608269058 
1334	 0.516516888736382 
1335	 0.516497846238301 
1336	 0.516521301823309 
1337	 0.516573881021459 
1338	 0.516627713474341 
1339	 0.516730404399496 
1340	 0.516785081141347 
1341	 0.516807967106175 
1342	 0.51685179684236 
1343	 0.516894184399757 
1344	 0.516923291987764 
1345	 0.516974912873865 
1346	 0.517020380331198 
1347	 0.517011264788158 
1348	 0.516992280373451 
1349	 0.51697992778962 
1350	 0.516965270634952 
1351	 0.516945782088417 
1352	 0.51694206200179 
1353	 0.516907862037826 
1354	 0.516853749182339 
1355	 0.516792927478402 
1356	 0.516705471091113 
1357	 0.516649699245464 
1358	 0.516576033728364 
1359	 0.516545489080644 
1360	 0.516558276042734 
1361	 0.516561137469378 
1362	 0.516577188229873 
1363	 0.516603515218868 
1364	 0.516633450458105 
1365	 0.516669752947523 
1366	 0.516728843960709 
1367	 0.516782585437619 
1368	 0.516818967636918 
1369	 0.516849099916349 
1370	 0.516825411389171 
1371	 0.516776787134414 
1372	 0.516712573432517 
1373	 0.516614845769341 
1374	 0.51647875504085 
1375	 0.516341135245113 
1376	 0.516099626719862 
1377	 0.515799353035982 
1378	 0.515436183878954 
1379	 0.514960657447907 
1380	 0.514527627173679 
1381	 0.514050053238769 
1382	 0.513583958765508 
1383	 0.513172603933146 
1384	 0.512669921741735 
1385	 0.512187429300961 
1386	 0.511563186347091 
1387	 0.510896039960649 
1388	 0.510071130752392 
1389	 0.509144277634127 
1390	 0.508064227417856 
1391	 0.506819086519482 
1392	 0.505410804015851 
1393	 0.503833240821829 
1394	 0.502184985620616 
1395	 0.500457454183102 
1396	 0.498657694603555 
1397	 0.496892406168198 
1398	 0.495073060697667 
1399	 0.493321779482935 
1400	 0.491548525231074 
1401	 0.489915919738761 
1402	 0.488314574538515 
1403	 0.486853922449726 
1404	 0.485496847281675 
1405	 0.484260166771627 
1406	 0.483114833774298 
1407	 0.482097398308231 
1408	 0.481106296056312 
1409	 0.480422386078061 
1410	 0.479816242705087 
1411	 0.479594610836829 
1412	 0.479674524854232 
1413	 0.480030393524432 
1414	 0.480690915698449 
1415	 0.481618323373574 
1416	 0.482793054067832 
1417	 0.484135696784713 
1418	 0.485582314245198 
1419	 0.487036373796595 
1420	 0.488466650568776 
1421	 0.48982445352169 
1422	 0.491025335404842 
1423	 0.492130031104734 
1424	 0.493047912528242 
1425	 0.493775826474524 
1426	 0.494431947719682 
1427	 0.49491752478402 
1428	 0.495393565234392 
1429	 0.495781574623804 
1430	 0.496131810078541 
1431	 0.496441257655798 
1432	 0.496684392340621 
1433	 0.496846752361585 
1434	 0.497000802940949 
1435	 0.497088732104079 
1436	 0.497178287328503 
1437	 0.497259369389344 
1438	 0.49731343576659 
1439	 0.49733543933334 
1440	 0.497365799068131 
1441	 0.497363867483249 
1442	 0.497345338158371 
1443	 0.497357176446195 
1444	 0.497350422564129 
1445	 0.497359050562992 
1446	 0.497376537464085 
1447	 0.497345624108239 
1448	 0.497324889194443 
1449	 0.497297345460508 
1450	 0.497251817088415 
1451	 0.497230899863757 
1452	 0.497229956541998 
1453	 0.497210054144121 
1454	 0.497212579087425 
1455	 0.497157355824572 
1456	 0.497066717487818 
1457	 0.496974081600366 
1458	 0.496823206586188 
1459	 0.496738154806196 
1460	 0.496663013208715 
1461	 0.496623741258528 
1462	 0.496640091462512 
1463	 0.496633735044298 
1464	 0.496645108441759 
1465	 0.496647735931939 
1466	 0.496626491229646 
1467	 0.496636771116847 
1468	 0.496638495621413 
1469	 0.496684545004494 
1470	 0.496776110144744 
1471	 0.49687046748836 
1472	 0.496980389736394 
1473	 0.497108104578915 
1474	 0.497165845243388 
1475	 0.497254044382667 
1476	 0.497369168450618 
1477	 0.497484618825571 
1478	 0.497672085799837 
1479	 0.497853090382033 
1480	 0.498003976608108 
1481	 0.498154532807119 
1482	 0.498281869279981 
1483	 0.498371893214948 
1484	 0.498500938584672 
1485	 0.498635428577138 
1486	 0.498767445670246 
1487	 0.498916897769312 
1488	 0.499049625276034 
1489	 0.499178227529848 
1490	 0.499290845087627 
1491	 0.499392322206221 
1492	 0.499498531974136 
1493	 0.499578114164775 
1494	 0.499687759776474 
1495	 0.499823768735237 
1496	 0.499942517325477 
1497	 0.500078702491163 
1498	 0.500181775110638 
1499	 0.500276415910833 
1500	 0.500350640481917 
1501	 0.500382702388142 
1502	 0.500434107865856 
1503	 0.500482476262441 
1504	 0.500511848432787 
1505	 0.500578349791998 
1506	 0.500652838156235 
1507	 0.500737236388831 
1508	 0.500828371269066 
1509	 0.500920177186052 
1510	 0.50101020352986 
1511	 0.501084078857671 
1512	 0.501144771421409 
1513	 0.501170809287086 
1514	 0.501200777591654 
1515	 0.501255656276162 
1516	 0.50130583872689 
1517	 0.501371188346648 
1518	 0.501468717822233 
1519	 0.501540673105853 
1520	 0.501601624639319 
1521	 0.501669427566893 
1522	 0.501741990347557 
1523	 0.501799176375215 
1524	 0.501852503717184 
1525	 0.501899557001707 
1526	 0.501926030070941 
1527	 0.501970695356504 
1528	 0.50202932956304 
1529	 0.502069342131901 
1530	 0.502112548343264 
1531	 0.502143019776953 
1532	 0.502148743826682 
1533	 0.502168363174727 
1534	 0.502175987480767 
1535	 0.50221127615019 
1536	 0.502268208784301 
1537	 0.502315437098566 
1538	 0.50237357618496 
1539	 0.502436461848262 
1540	 0.502503665462295 
1541	 0.502563690179853 
1542	 0.502625290767955 
1543	 0.50269135931902 
1544	 0.502749743390509 
1545	 0.502807985085298 
1546	 0.502881205911647 
1547	 0.502942078328817 
1548	 0.502995859074785 
1549	 0.503041442617394 
1550	 0.503079960476069 
1551	 0.50312788045472 
1552	 0.5031579357388 
1553	 0.50317116169722 
1554	 0.503187020444626 
1555	 0.503198512532357 
1556	 0.503207820325043 
1557	 0.503235264612767 
1558	 0.503264370484655 
1559	 0.503280127715844 
1560	 0.503297112517181 
1561	 0.503307376130758 
1562	 0.503331528382814 
1563	 0.503354890706616 
1564	 0.50339321843494 
1565	 0.503448664264089 
1566	 0.503502531044294 
1567	 0.503563310405097 
1568	 0.503615203371112 
1569	 0.503677891681752 
1570	 0.503715449548074 
1571	 0.503740797617964 
1572	 0.503759275165167 
1573	 0.503760477904811 
1574	 0.503762382052203 
1575	 0.503747718498013 
1576	 0.50375018457342 
1577	 0.503754098731218 
1578	 0.503765620911492 
1579	 0.503792746211286 
1580	 0.503820427782643 
1581	 0.503859199156701 
1582	 0.503881325954677 
1583	 0.50389142144319 
1584	 0.503909754486949 
1585	 0.503923648602152 
1586	 0.50393742719397 
1587	 0.503977618730063 
1588	 0.503983510013334 
1589	 0.50396096497927 
1590	 0.503942355590593 
1591	 0.503900396712424 
1592	 0.503873806739588 
1593	 0.503857251050301 
1594	 0.503839026032775 
1595	 0.503817640788126 
1596	 0.503803785604888 
1597	 0.50379691796511 
1598	 0.503785653052027 
1599	 0.503791731906267 
1600	 0.503779098213934 
1601	 0.503730485154394 
1602	 0.503716608452394 
1603	 0.503721578799167 
1604	 0.503714870296168 
1605	 0.503720341087705 
1606	 0.503729031727965 
1607	 0.50374186244302 
1608	 0.503726486520094 
1609	 0.503723978530474 
1610	 0.503725978347959 
1611	 0.503706895352666 
1612	 0.503677806946713 
1613	 0.503639353773478 
1614	 0.503600172084172 
1615	 0.503534653376428 
1616	 0.50347429944934 
1617	 0.503462245628881 
1618	 0.503454760878219 
1619	 0.503465444540355 
1620	 0.503480208980091 
1621	 0.50347041018627 
1622	 0.50344225540693 
1623	 0.503413454656361 
1624	 0.503380238877183 
1625	 0.503330547193486 
1626	 0.503264607133629 
1627	 0.503208090019873 
1628	 0.503139024756873 
1629	 0.503084727538717 
1630	 0.503037095300691 
1631	 0.502996462618348 
1632	 0.502961640444598 
1633	 0.502931580955417 
1634	 0.502912707528049 
1635	 0.502888047280822 
1636	 0.502870249152862 
1637	 0.502832529589339 
1638	 0.502781188237964 
1639	 0.50274489900105 
1640	 0.50269564185504 
1641	 0.502669910575235 
1642	 0.502685445291703 
1643	 0.502642040298497 
1644	 0.502588760432268 
1645	 0.502508799229183 
1646	 0.502369818367452 
1647	 0.502278804399766 
1648	 0.502197119763251 
1649	 0.502113045228132 
1650	 0.502040481379816 
1651	 0.501971520307877 
1652	 0.501887032671657 
1653	 0.501838895158201 
1654	 0.501831659887471 
1655	 0.501790690985958 
1656	 0.501758060136208 
1657	 0.50170641970632 
1658	 0.501616385293796 
1659	 0.501564580659839 
1660	 0.501520937131204 
1661	 0.501490319737112 
1662	 0.501496362585544 
1663	 0.501462658971358 
1664	 0.501434018132981 
1665	 0.5013659729649 
1666	 0.501254367282553 
1667	 0.501157265974319 
1668	 0.501034332632433 
1669	 0.500937195423588 
1670	 0.5008481675785 
1671	 0.500769966442419 
1672	 0.500682966819431 
1673	 0.50065061970532 
1674	 0.500673445456461 
1675	 0.500654209975667 
1676	 0.500686781829707 
1677	 0.500631837362412 
1678	 0.500494938615734 
1679	 0.500395863108401 
1680	 0.500264446698589 
1681	 0.500163929042538 
1682	 0.500078520539999 
1683	 0.50000849000853 
1684	 0.499959339720367 
1685	 0.499899050950832 
1686	 0.499855534603389 
1687	 0.499797198388266 
1688	 0.499720276069731 
1689	 0.499655806270086 
1690	 0.499604071087152 
1691	 0.499535812618485 
1692	 0.499464870908385 
1693	 0.499382062090413 
1694	 0.49927674959206 
1695	 0.499191031808553 
1696	 0.49910186861255 
1697	 0.499028481581062 
1698	 0.498974304643253 
1699	 0.498912785891906 
1700	 0.49885990487574 
1701	 0.498795640324488 
1702	 0.498724692876021 
1703	 0.498655490320662 
1704	 0.498593615349268 
1705	 0.498503442718259 
1706	 0.498391779229399 
1707	 0.498300845204418 
1708	 0.498197430209583 
1709	 0.498100604109928 
1710	 0.498017242251362 
1711	 0.497940408103859 
1712	 0.497863223246635 
1713	 0.497785243473683 
1714	 0.497715022473038 
1715	 0.497660385452492 
1716	 0.49760703054517 
1717	 0.497550279948302 
1718	 0.49754664340543 
1719	 0.497449490415266 
1720	 0.497281011547179 
1721	 0.497156396445344 
1722	 0.496999492815308 
1723	 0.496865355857262 
1724	 0.496775898602209 
1725	 0.496638981624708 
1726	 0.496468095566437 
1727	 0.496325993745852 
1728	 0.496182235141036 
1729	 0.496039840332558 
1730	 0.495896359321702 
1731	 0.495776309341946 
1732	 0.495673754835589 
1733	 0.495550485555823 
1734	 0.495452368779707 
1735	 0.49531379844136 
1736	 0.495132777338058 
1737	 0.494972153736041 
1738	 0.494808597887769 
1739	 0.494655161821422 
1740	 0.494494987069142 
1741	 0.494353962108894 
1742	 0.494225035662231 
1743	 0.494091072894417 
1744	 0.493973730196126 
1745	 0.493853551949405 
1746	 0.493737333338359 
1747	 0.49361525772751 
1748	 0.49346214748955 
1749	 0.493289304492637 
1750	 0.493127506312907 
1751	 0.492975099733776 
1752	 0.492804399743538 
1753	 0.492638245449062 
1754	 0.49249526103154 
1755	 0.492356045842875 
1756	 0.492233659497909 
1757	 0.492117779721042 
1758	 0.491979070810027 
1759	 0.491856188268638 
1760	 0.491742562193199 
1761	 0.491626008367961 
1762	 0.491511877975804 
1763	 0.491354308120493 
1764	 0.49118178440177 
1765	 0.491010428113815 
1766	 0.490838180922854 
1767	 0.490697682220831 
1768	 0.49057829743057 
1769	 0.490465459162841 
1770	 0.490337703554913 
1771	 0.490210337495197 
1772	 0.490098094004664 
1773	 0.489984388241083 
1774	 0.489900982560266 
1775	 0.489829270478939 
1776	 0.489705739199011 
1777	 0.48957086533205 
1778	 0.48946599158387 
1779	 0.489370309559159 
1780	 0.489283843321072 
1781	 0.489225349260243 
1782	 0.489160415791122 
1783	 0.489077904245621 
1784	 0.489002810897627 
1785	 0.488920426360353 
1786	 0.48884680343591 
1787	 0.488778958903287 
1788	 0.48870250931518 
1789	 0.488643550306069 
1790	 0.488564213795722 
1791	 0.488464080224964 
1792	 0.488381937849237 
1793	 0.488288498718998 
1794	 0.488200357493054 
1795	 0.488134569198581 
1796	 0.488041383198204 
1797	 0.487926964507165 
1798	 0.487839353785889 
1799	 0.487745740573425 
1800	 0.487658259186708 
1801	 0.487238422764509 
1802	 0.487475851370516 
1803	 0.487726900273086 
1804	 0.488000955165592 
1805	 0.48821412832022 
1806	 0.488366645860574 
1807	 0.488548179750063 
1808	 0.488669573074135 
1809	 0.488731106349833 
1810	 0.488769457361489 
1811	 0.488782676813254 
1812	 0.488776285018848 
1813	 0.488730212659353 
1814	 0.488687044913507 
1815	 0.488657564597082 
1816	 0.488592299133826 
1817	 0.488529051566619 
1818	 0.488438287126659 
1819	 0.488365658007649 
1820	 0.488306725785118 
1821	 0.488235560004529 
1822	 0.488117358674772 
1823	 0.488036854373794 
1824	 0.487959329147097 
1825	 0.487856200854873 
1826	 0.487770776233235 
1827	 0.487677298308786 
1828	 0.487554091537026 
1829	 0.487383646441877 
1830	 0.487237002837093 
1831	 0.487090263472799 
1832	 0.486934609773472 
1833	 0.486764884418994 
1834	 0.486616939908928 
1835	 0.486479968409179 
1836	 0.486322091900396 
1837	 0.48615303933756 
1838	 0.485988591000142 
1839	 0.485867883646614 
1840	 0.48575318298728 
1841	 0.485674389575477 
1842	 0.485643209393139 
1843	 0.485622053100775 
1844	 0.485611622356453 
1845	 0.485597943377246 
1846	 0.485576910230458 
1847	 0.485579480388717 
1848	 0.485541447840756 
1849	 0.485488858098305 
1850	 0.485439309278907 
1851	 0.485390344418713 
1852	 0.485317043016486 
1853	 0.485247672625951 
1854	 0.485187551370675 
1855	 0.485126948458328 
1856	 0.485053743509611 
1857	 0.484988715099975 
1858	 0.484912309741356 
1859	 0.48479090636326 
1860	 0.484633857701865 
1861	 0.484453310720354 
1862	 0.484248896618835 
1863	 0.483960878399964 
1864	 0.483623723508354 
1865	 0.483280855956059 
1866	 0.482835419169919 
1867	 0.482390068091141 
1868	 0.481943056977813 
1869	 0.481458917481185 
1870	 0.481016790546076 
1871	 0.48056441680823 
1872	 0.480114003651839 
1873	 0.479668342812686 
1874	 0.479212065757579 
1875	 0.478748651873361 
1876	 0.478275383357734 
1877	 0.477757234231459 
1878	 0.477170873986384 
1879	 0.476494843635787 
1880	 0.475675833982915 
1881	 0.474733629779832 
1882	 0.473675321123726 
1883	 0.472495861285839 
1884	 0.471179297555409 
1885	 0.469806888818555 
1886	 0.468345610688721 
1887	 0.466765107235325 
1888	 0.465103403062972 
1889	 0.463286220075225 
1890	 0.461370071023596 
1891	 0.459428729258907 
1892	 0.457385825368224 
1893	 0.455331568862637 
1894	 0.453239460181064 
1895	 0.451110141868646 
1896	 0.448943632805295 
1897	 0.446791736246169 
1898	 0.444653118400715 
1899	 0.442619795711028 
1900	 0.440678719976375 
1901	 0.438829133168564 
1902	 0.437107622955283 
1903	 0.435520189159554 
1904	 0.434022523662471 
1905	 0.432626145999363 
1906	 0.431361846108672 
1907	 0.430198184063749 
1908	 0.429105508142818 
1909	 0.42805510296348 
1910	 0.427046860750334 
1911	 0.426094094977607 
1912	 0.425184577848293 
1913	 0.424329720428483 
1914	 0.423531713194601 
1915	 0.422791917526722 
1916	 0.422104428750519 
1917	 0.421456178435332 
1918	 0.420892557372478 
1919	 0.420390368756942 
1920	 0.419924287123165 
1921	 0.419519036111931 
1922	 0.419149748093084 
1923	 0.418823179796691 
1924	 0.418545483184536 
1925	 0.418331873662113 
1926	 0.418129211747506 
1927	 0.417957647741333 
1928	 0.417829598679691 
1929	 0.417726233935233 
1930	 0.417650485656709 
1931	 0.417599988692213 
1932	 0.417564129495487 
1933	 0.417549051038254 
1934	 0.417563586186477 
1935	 0.417580835628235 
1936	 0.417598710317231 
1937	 0.417668686745335 
1938	 0.417754592609288 
1939	 0.417868951842462 
1940	 0.418018218012143 
1941	 0.418222141584378 
1942	 0.418423587257896 
1943	 0.41866125380525 
1944	 0.418945926846611 
1945	 0.419215095063227 
1946	 0.419487674339008 
1947	 0.419776570137346 
1948	 0.420048956242152 
1949	 0.420319037590848 
1950	 0.420578747634047 
1951	 0.420831802321959 
1952	 0.421062461720037 
1953	 0.421300619206991 
1954	 0.42157926330278 
1955	 0.421877038107966 
1956	 0.422186828076689 
1957	 0.422501892070822 
1958	 0.422824392860966 
1959	 0.423163768031094 
1960	 0.423526843925526 
1961	 0.423877097679314 
1962	 0.424235199493231 
1963	 0.42459686691945 
1964	 0.42495519469746 
1965	 0.425306174108768 
1966	 0.425680142026652 
1967	 0.426069553849852 
1968	 0.426458064753201 
1969	 0.426854335191784 
1970	 0.427245683611356 
1971	 0.427644991450063 
1972	 0.42803635024498 
1973	 0.428416799843195 
1974	 0.428803834908968 
1975	 0.429192055935525 
1976	 0.429575696300173 
1977	 0.429974871543663 
1978	 0.430410507873699 
1979	 0.430859171380107 
1980	 0.431328775026834 
1981	 0.431776919465567 
1982	 0.432220370580618 
1983	 0.432663685867039 
1984	 0.433106118417817 
1985	 0.433537577103441 
1986	 0.433973645628424 
1987	 0.434393340264078 
1988	 0.434790198573173 
1989	 0.435192016172967 
1990	 0.435601737671259 
1991	 0.435989870650198 
1992	 0.436383882252448 
1993	 0.436779577509531 
1994	 0.43717286069593 
1995	 0.437550772728339 
1996	 0.437952563704028 
1997	 0.438369366523004 
1998	 0.438783104253033 
1999	 0.439212088075135 
2000	 0.439630318015667 
2001	 0.440052338877922 
2002	 0.440448569201404 
2003	 0.440852042913258 
2004	 0.441289165532178 
2005	 0.441717533024342 
2006	 0.44215886674987 
2007	 0.442591802082316 
2008	 0.443026932872718 
2009	 0.443451074229299 
2010	 0.443857290261852 
2011	 0.444289518313808 
2012	 0.444723513493877 
2013	 0.445168155736195 
2014	 0.445640808747866 
2015	 0.446114018859968 
2016	 0.446559845560637 
2017	 0.446980849436621 
2018	 0.447387469923651 
2019	 0.447755713006225 
2020	 0.448139095927238 
2021	 0.448532809531989 
2022	 0.448891577887335 
2023	 0.449213164908031 
2024	 0.449568195929197 
2025	 0.449912875039809 
2026	 0.450262122972775 
2027	 0.450625513159079 
2028	 0.451014815247494 
2029	 0.451372538264048 
2030	 0.451719056554089 
2031	 0.452046759382328 
2032	 0.45236172344607 
2033	 0.452670436969749 
2034	 0.452952535329468 
2035	 0.453244963399791 
2036	 0.453541716308033 
2037	 0.453831932859625 
2038	 0.454129457480032 
2039	 0.454402182256717 
2040	 0.454642147530333 
2041	 0.454913410374101 
2042	 0.455173613734704 
2043	 0.455405535870167 
2044	 0.455643792966611 
2045	 0.455897008992766 
2046	 0.456115429096898 
2047	 0.456304750707412 
2048	 0.45650381689498 
2049	 0.456683909116238 
2050	 0.456880595921385 
2051	 0.457099340655682 
2052	 0.457289097050117 
2053	 0.457449252358767 
2054	 0.457641662544507 
2055	 0.457827050315953 
2056	 0.458027023682672 
2057	 0.45823622538896 
2058	 0.458497740603573 
2059	 0.458694142547279 
2060	 0.45887936912991 
2061	 0.459025248246015 
2062	 0.459122273708155 
2063	 0.459232627380886 
2064	 0.459311587074841 
2065	 0.459407308641113 
2066	 0.459490196347067 
2067	 0.459606164441709 
2068	 0.459738291143337 
2069	 0.459881427697097 
2070	 0.460025016240468 
2071	 0.46020492331971 
2072	 0.460343388688199 
2073	 0.4604588486751 
2074	 0.460581214969545 
2075	 0.460690362171794 
2076	 0.460813112822506 
2077	 0.460946621457171 
2078	 0.461068558507621 
2079	 0.461202686459464 
2080	 0.461311183089744 
2081	 0.461377926941431 
2082	 0.461476927504306 
2083	 0.461590321400808 
2084	 0.461695142294114 
2085	 0.461783435658018 
2086	 0.461899291403134 
2087	 0.461953986514001 
2088	 0.461940714270743 
2089	 0.461980148753698 
2090	 0.462006964171931 
2091	 0.462057533423994 
2092	 0.462143458964249 
2093	 0.462213890222936 
2094	 0.462303380940715 
2095	 0.462361992800719 
2096	 0.462377053511639 
2097	 0.462432331908427 
2098	 0.462507418818676 
2099	 0.462560190159305 
2100	 0.462609282664004 
2101	 0.462679383589495 
2102	 0.462738162515344 
2103	 0.462750023138692 
2104	 0.462818420628629 
2105	 0.462921756680769 
2106	 0.463029965062361 
2107	 0.46314666069211 
2108	 0.463285343319078 
2109	 0.463452115317158 
2110	 0.463618007786195 
2111	 0.463806704737016 
2112	 0.463988950209802 
2113	 0.46418729607007 
2114	 0.464360039768787 
2115	 0.464533637078911 
2116	 0.464708341104594 
2117	 0.46486147729768 
2118	 0.46499411899396 
2119	 0.465139142763434 
2120	 0.465272682471178 
2121	 0.465415320795242 
2122	 0.465558140312819 
2123	 0.465715200738786 
2124	 0.465888106085851 
2125	 0.466047294527009 
2126	 0.466230542381722 
2127	 0.466379331232064 
2128	 0.466517729412574 
2129	 0.466623102130952 
2130	 0.466685766363205 
2131	 0.466762034339243 
2132	 0.466797639540981 
2133	 0.46679997947454 
2134	 0.466792324830974 
2135	 0.466762033746991 
2136	 0.466721473726444 
2137	 0.466686890783047 
2138	 0.466587998099783 
2139	 0.466453010461669 
2140	 0.466300091779584 
2141	 0.466111321262527 
2142	 0.465881471753524 
2143	 0.465612266361493 
2144	 0.465339127767241 
2145	 0.465021594325711 
2146	 0.464694166725548 
2147	 0.464371541523058 
2148	 0.464039411057772 
2149	 0.463646271908164 
2150	 0.463213498108953 
2151	 0.462752009437183 
2152	 0.462249877921972 
2153	 0.461718970181917 
2154	 0.461168958025323 
2155	 0.460558195565063 
2156	 0.459897583443979 
2157	 0.459210748120702 
2158	 0.45844044052046 
2159	 0.457708003603751 
2160	 0.456995807001761 
2161	 0.456229926659027 
2162	 0.455490049747798 
2163	 0.454666961306591 
2164	 0.453775188792742 
2165	 0.452827843151422 
2166	 0.45186517316603 
2167	 0.450846417743272 
2168	 0.449831953819016 
2169	 0.448813999478446 
2170	 0.447735272549321 
2171	 0.446638625916031 
2172	 0.445471977947327 
2173	 0.444251607173946 
2174	 0.442978491684513 
2175	 0.441626617018851 
2176	 0.440270150392133 
2177	 0.438868143119842 
2178	 0.437442327115332 
2179	 0.436008705649537 
2180	 0.434526882114223 
2181	 0.432999185305276 
2182	 0.431438330674031 
2183	 0.429836539112276 
2184	 0.428182810763723 
2185	 0.42655831592367 
2186	 0.424890398740759 
2187	 0.423282050566077 
2188	 0.421664451550006 
2189	 0.420151557301804 
2190	 0.418645231927878 
2191	 0.417286683064777 
2192	 0.416010603123076 
2193	 0.414864318431433 
2194	 0.41381540936079 
2195	 0.412910106306353 
2196	 0.412131700465994 
2197	 0.411490874353276 
2198	 0.410996314417405 
2199	 0.410620729671206 
2200	 0.410373863997683 
2201	 0.410265357962441 
2202	 0.410302748599032 
2203	 0.410459171376256 
2204	 0.410726092042365 
2205	 0.411112506881833 
2206	 0.411660665536761 
2207	 0.412349980828759 
2208	 0.413135207048968 
2209	 0.414102025987157 
2210	 0.415103621723702 
2211	 0.41621212993253 
2212	 0.417341790085626 
2213	 0.418596507928041 
2214	 0.419800636523515 
2215	 0.421060469445745 
2216	 0.422234079080583 
2217	 0.423399403240053 
2218	 0.424494779583647 
2219	 0.42552350228826 
2220	 0.426507703284947 
2221	 0.427451418550699 
2222	 0.428341558693429 
2223	 0.429155713802148 
2224	 0.429883353814756 
2225	 0.43054734531131 
2226	 0.431122443610718 
2227	 0.431660435850394 
2228	 0.432129577469796 
2229	 0.43256630306318 
2230	 0.432932169040356 
2231	 0.433302786328025 
2232	 0.433649748972843 
2233	 0.43395945063453 
2234	 0.43427728213215 
2235	 0.434497542696486 
2236	 0.434643787674586 
2237	 0.43475636437257 
2238	 0.434760543610239 
2239	 0.434808102140201 
2240	 0.434863443644248 
2241	 0.434878376000771 
2242	 0.434901007461561 
2243	 0.434873529793015 
2244	 0.434793412011147 
2245	 0.434682298585684 
2246	 0.434549132245778 
2247	 0.434420236893607 
2248	 0.43427319825811 
2249	 0.434109478968022 
2250	 0.433940313080281 
2251	 0.433743712304431 
2252	 0.433577642032103 
2253	 0.433389048382254 
2254	 0.433274839154449 
2255	 0.433215694602237 
2256	 0.433144873045434 
2257	 0.433141411569167 
2258	 0.433072417968087 
2259	 0.432950904662683 
2260	 0.432869008448133 
2261	 0.432746685902722 
2262	 0.432696964041473 
2263	 0.432679746326164 
2264	 0.432718323651888 
2265	 0.432848594249366 
2266	 0.432948452765933 
2267	 0.433087400902337 
2268	 0.433217123688368 
2269	 0.433345098902903 
2270	 0.4334490352794 
2271	 0.433568357074138 
2272	 0.433650706910803 
2273	 0.433740560851561 
2274	 0.433850033884797 
2275	 0.433982402078109 
2276	 0.43417317532471 
2277	 0.434280073900121 
2278	 0.434359640248775 
2279	 0.434452181962898 
2280	 0.434500390758736 
2281	 0.434576583648671 
2282	 0.434700735727695 
2283	 0.434772724107299 
2284	 0.43483085755753 
2285	 0.434851112492631 
2286	 0.4348313419474 
2287	 0.434808668848102 
2288	 0.434728285692728 
2289	 0.434695199002325 
2290	 0.434707470324068 
2291	 0.434676057014658 
2292	 0.434657481892471 
2293	 0.434595029057809 
2294	 0.434475381421459 
2295	 0.434356500967015 
2296	 0.434225141648709 
2297	 0.434079765194827 
2298	 0.433904567497755 
2299	 0.4336964094839 
2300	 0.433471300299186 
2301	 0.433306623931271 
2302	 0.433159062934064 
2303	 0.432958303810168 
2304	 0.432775163481629 
2305	 0.432547786091829 
2306	 0.432275398450332 
2307	 0.431948177292916 
2308	 0.431663442387233 
2309	 0.431332204065374 
2310	 0.43105348605088 
2311	 0.430844295596264 
2312	 0.430560324397777 
2313	 0.43026469942948 
2314	 0.429947537078179 
2315	 0.429577103170639 
2316	 0.429230540407651 
2317	 0.428876873651963 
2318	 0.428532180613346 
2319	 0.428175278367643 
2320	 0.427852121115534 
2321	 0.427579089925205 
2322	 0.42726402716825 
2323	 0.426969134482677 
2324	 0.42662593753333 
2325	 0.426186658818513 
2326	 0.425818823102229 
2327	 0.425481064369206 
2328	 0.425127352600191 
2329	 0.424771532178113 
2330	 0.424420129860346 
2331	 0.42394991182904 
2332	 0.423517984926993 
2333	 0.423159883637952 
2334	 0.422821054689678 
2335	 0.422515554694518 
2336	 0.422116002885553 
2337	 0.421669581189055 
2338	 0.421191731068697 
2339	 0.420720718971874 
2340	 0.420354425513996 
2341	 0.419973072039657 
2342	 0.419588704432448 
2343	 0.419299256355341 
2344	 0.418963627028725 
2345	 0.418667832914773 
2346	 0.418447067262782 
2347	 0.418227630114905 
2348	 0.417981397219868 
2349	 0.417785559948196 
2350	 0.417625863051103 
2351	 0.417492376141759 
2352	 0.417363915278439 
2353	 0.417332907698242 
2354	 0.4174108472293 
2355	 0.41741788649767 
2356	 0.417452743014301 
2357	 0.417489659859694 
2358	 0.417483240539528 
2359	 0.417545934218773 
2360	 0.417717362226315 
2361	 0.417758732616709 
2362	 0.417811227703045 
2363	 0.417771166212013 
2364	 0.417582020124315 
2365	 0.417427289610818 
2366	 0.417185185230272 
2367	 0.41701862036663 
2368	 0.416922457267123 
2369	 0.416777962410969 
2370	 0.416658429021291 
2371	 0.41653786547731 
2372	 0.416230930432774 
2373	 0.415982682135532 
2374	 0.415795054092618 
2375	 0.415464335282378 
2376	 0.415157471587607 
2377	 0.414846559484391 
2378	 0.41453749906654 
2379	 0.414294239024109 
2380	 0.414057779070421 
2381	 0.413784594701864 
2382	 0.41337174144284 
2383	 0.41292296059486 
2384	 0.412512977564175 
2385	 0.412108079555797 
2386	 0.411734074561948 
2387	 0.411356167779878 
2388	 0.411006519986262 
2389	 0.410792594893687 
2390	 0.41062099316353 
2391	 0.410372247584491 
2392	 0.410123009558676 
2393	 0.409820901146652 
2394	 0.409421478341339 
2395	 0.409049535437476 
2396	 0.408717655355929 
2397	 0.408299709757621 
2398	 0.407803894842356 
2399	 0.407372338063414 
2400	 0.406865867923035 
2401	 0.406267065611142 
2402	 0.405719246418174 
2403	 0.405164753869779 
2404	 0.404638842295768 
2405	 0.404028786621983 
2406	 0.403332910598256 
2407	 0.402719268780051 
2408	 0.402060302351837 
2409	 0.401426989810789 
2410	 0.400973699702353 
2411	 0.400399318368487 
2412	 0.399801927065505 
2413	 0.399267745713873 
2414	 0.398512078869903 
2415	 0.397723333884831 
2416	 0.396987728578404 
2417	 0.396137175101492 
2418	 0.395469911940055 
2419	 0.395010119987746 
2420	 0.39442124783083 
2421	 0.393873972450123 
2422	 0.393232433399836 
2423	 0.392465081483172 
2424	 0.391769723678312 
2425	 0.391023113287122 
2426	 0.3903935627973 
2427	 0.389926400757366 
2428	 0.389265123881196 
2429	 0.388535231204214 
2430	 0.387913774641801 
2431	 0.387211608431095 
2432	 0.386569749360773 
2433	 0.386107999253843 
2434	 0.385535291931628 
2435	 0.384843987155338 
2436	 0.38426851712907 
2437	 0.383732285961242 
2438	 0.383148235609134 
2439	 0.382534028445417 
2440	 0.382044694708002 
2441	 0.381583599561244 
2442	 0.381254079679386 
2443	 0.381180998231321 
2444	 0.38088480878829 
2445	 0.380512608214008 
2446	 0.38018356304681 
2447	 0.379722548858325 
2448	 0.379406801297694 
2449	 0.379268403261055 
2450	 0.37896320121085 
2451	 0.378634732541761 
2452	 0.378260103084922 
2453	 0.377742834052968 
2454	 0.377372383977414 
2455	 0.377123872464997 
2456	 0.376808354095436 
2457	 0.376449417866344 
2458	 0.376139265563522 
2459	 0.375751040517229 
2460	 0.375448317727123 
2461	 0.375349736329573 
2462	 0.37504562874705 
2463	 0.374723711788197 
2464	 0.374374934596938 
2465	 0.373782206587651 
2466	 0.373490298698945 
2467	 0.373350883662387 
2468	 0.373093399409111 
2469	 0.372956223227943 
2470	 0.372634843521322 
2471	 0.372384750579343 
2472	 0.37228394731838 
2473	 0.372096769017365 
2474	 0.371730434821997 
2475	 0.371314873869372 
2476	 0.370873947091172 
2477	 0.370357481079501 
2478	 0.369950932507983 
2479	 0.369705413868535 
2480	 0.369402966519925 
2481	 0.369187506308813 
2482	 0.369150144885951 
2483	 0.368848249311825 
2484	 0.368504310785467 
2485	 0.368298860904181 
2486	 0.367908494670422 
2487	 0.367658365543907 
2488	 0.36745462001262 
2489	 0.367162128047625 
2490	 0.366970378013005 
2491	 0.366644010910988 
2492	 0.366169993481971 
2493	 0.365835678759546 
2494	 0.365722633041374 
2495	 0.365559824582801 
2496	 0.365367598798859 
2497	 0.364954440920225 
2498	 0.36440471760541 
2499	 0.364111510202059 
2500	 0.363902156639627 
