Wavelength	LMW_2300003.asd
350	 7.83452224911634E-02 
351	 8.47044058745811E-02 
352	 8.25489061696322E-02 
353	 7.29539678217956E-02 
354	 8.60234376435386E-02 
355	 8.62984476998576E-02 
356	 8.10041352131582E-02 
357	 8.29106920441486E-02 
358	 8.23591734554186E-02 
359	 0.077033520718439 
360	 7.36471615926153E-02 
361	 8.20763815649521E-02 
362	 8.21944471732749E-02 
363	 0.082798004104999 
364	 0.086523384254115 
365	 8.03316823871466E-02 
366	 8.04448237555326E-02 
367	 8.29245934907665E-02 
368	 8.17281568680452E-02 
369	 0.086619401705653 
370	 8.55045681075278E-02 
371	 8.17965446321244E-02 
372	 8.77251652110424E-02 
373	 8.40868401706933E-02 
374	 8.30715429054311E-02 
375	 8.93328929644549E-02 
376	 8.78336376994008E-02 
377	 8.43671561774547E-02 
378	 8.40235328063532E-02 
379	 8.89848612671734E-02 
380	 9.06409494011131E-02 
381	 8.91389100528521E-02 
382	 8.77328496979955E-02 
383	 9.08686815595438E-02 
384	 8.97107687963865E-02 
385	 0.087142031805379 
386	 8.65176214149605E-02 
387	 8.87478658252534E-02 
388	 9.25237801134996E-02 
389	 9.39444718270584E-02 
390	 9.04716487183716E-02 
391	 8.90678479536915E-02 
392	 9.07033489466579E-02 
393	 9.33664694855412E-02 
394	 9.31511472193485E-02 
395	 9.20081012684546E-02 
396	 9.18513172314844E-02 
397	 9.33585940055921E-02 
398	 9.48321999712218E-02 
399	 9.57835204707189E-02 
400	 9.62297747423552E-02 
401	 9.64007914835265E-02 
402	 9.60760512978314E-02 
403	 0.095333130207703 
404	 9.52199933198344E-02 
405	 9.75480429440442E-02 
406	 9.81247730624653E-02 
407	 9.82369135237441E-02 
408	 9.88712707801248E-02 
409	 9.69823595885439E-02 
410	 9.69251445683255E-02 
411	 9.83283061041524E-02 
412	 9.87352648471229E-02 
413	 9.84136848007645E-02 
414	 9.76633489554922E-02 
415	 9.70778939114133E-02 
416	 9.75817253314188E-02 
417	 9.82536346229317E-02 
418	 9.88210503376581E-02 
419	 0.099111725246157 
420	 0.098618546023515 
421	 9.84084577882833E-02 
422	 9.85363172778826E-02 
423	 0.098417635862988 
424	 9.84070301681455E-02 
425	 9.78596668281287E-02 
426	 9.68467907408893E-02 
427	 9.69026141332436E-02 
428	 9.73328941215706E-02 
429	 9.73092553335126E-02 
430	 9.64178478562364E-02 
431	 9.65036697591307E-02 
432	 9.67524327840093E-02 
433	 9.67350532676161E-02 
434	 9.65396985381547E-02 
435	 9.65467066015431E-02 
436	 0.096315380551844 
437	 9.56794563424868E-02 
438	 0.095537002100745 
439	 9.60085527517855E-02 
440	 0.096822086100191 
441	 0.097422917618653 
442	 9.68394478165904E-02 
443	 9.65963144129274E-02 
444	 9.71175141943249E-02 
445	 9.68151161661322E-02 
446	 9.70450986814878E-02 
447	 9.74622770728893E-02 
448	 9.74349927637871E-02 
449	 9.72054216812861E-02 
450	 9.73572278325973E-02 
451	 9.78667071032531E-02 
452	 9.81931907303472E-02 
453	 9.82619469393852E-02 
454	 9.81654073483814E-02 
455	 9.80773876434953E-02 
456	 9.82913490862399E-02 
457	 9.83607531579208E-02 
458	 9.83063945778958E-02 
459	 9.83403458989659E-02 
460	 9.83453627197825E-02 
461	 9.83485308889465E-02 
462	 9.84131459799825E-02 
463	 9.86455760150193E-02 
464	 9.85604352947638E-02 
465	 9.84683068207769E-02 
466	 9.87018454548331E-02 
467	 9.87517058535406E-02 
468	 9.86191677533488E-02 
469	 9.85298331595226E-02 
470	 9.88269042416438E-02 
471	 9.88777170326267E-02 
472	 9.88745397662296E-02 
473	 9.89145241176654E-02 
474	 9.84551862490735E-02 
475	 9.84041824732628E-02 
476	 9.86525525700519E-02 
477	 9.86730742071613E-02 
478	 9.85248301700009E-02 
479	 9.85091551575038E-02 
480	 9.86901766736241E-02 
481	 9.87760750322574E-02 
482	 9.90344701644431E-02 
483	 9.91794306523375E-02 
484	 9.89597746307667E-02 
485	 9.88611000337847E-02 
486	 9.87507257166793E-02 
487	 9.86931148082604E-02 
488	 9.88953200754694E-02 
489	 9.89753288323212E-02 
490	 9.88468321778456E-02 
491	 9.86367141031691E-02 
492	 9.88876994115019E-02 
493	 9.88340595584446E-02 
494	 9.86187537784651E-02 
495	 9.87374763786587E-02 
496	 9.88075643460415E-02 
497	 9.88278474747355E-02 
498	 9.88306465496488E-02 
499	 9.88504166225872E-02 
500	 9.86542613964742E-02 
501	 9.85024885313439E-02 
502	 9.86297333776362E-02 
503	 9.84629740545369E-02 
504	 9.84692694790848E-02 
505	 9.86729177163428E-02 
506	 9.86807784348066E-02 
507	 9.86449405106649E-02 
508	 0.098661559341894 
509	 9.87440733966994E-02 
510	 9.87184683643124E-02 
511	 0.098568834781046 
512	 9.84879009791692E-02 
513	 9.87090448842927E-02 
514	 9.87411026124933E-02 
515	 9.86924477726955E-02 
516	 9.86816148092432E-02 
517	 9.87318381420738E-02 
518	 9.86544629804999E-02 
519	 9.85672267983985E-02 
520	 9.86365471523227E-02 
521	 9.87221397487745E-02 
522	 9.87086641075848E-02 
523	 9.86252544573498E-02 
524	 9.86435898921679E-02 
525	 9.85298865111997E-02 
526	 9.84479397927728E-02 
527	 9.85309876173817E-02 
528	 9.85375244632272E-02 
529	 9.85453343874768E-02 
530	 9.85917482506296E-02 
531	 9.86720333540783E-02 
532	 0.098599172547332 
533	 9.85749626332206E-02 
534	 0.098694811391209 
535	 9.87177414537202E-02 
536	 9.87792087413981E-02 
537	 9.88655267073956E-02 
538	 9.89104442906331E-02 
539	 9.88859550959994E-02 
540	 0.098887342314858 
541	 9.89561670239678E-02 
542	 9.90533089963943E-02 
543	 9.91091446918092E-02 
544	 9.91177748060976E-02 
545	 9.91085839099817E-02 
546	 9.91579158057617E-02 
547	 9.92060003498023E-02 
548	 0.099253515353134 
549	 9.93505585699631E-02 
550	 9.94112819775091E-02 
551	 9.94716245786805E-02 
552	 9.95799189757001E-02 
553	 9.97660452802117E-02 
554	 9.99210960789689E-02 
555	 0.100067582935167 
556	 0.100285223334213 
557	 0.100486011226536 
558	 0.100646302783683 
559	 0.100815544119492 
560	 0.101174325075003 
561	 0.101371972722837 
562	 0.10149708411482 
563	 0.101735305663072 
564	 0.101891831563817 
565	 0.101984036377226 
566	 0.102034992611459 
567	 0.102062331565507 
568	 0.102395586899943 
569	 0.102886679304534 
570	 0.103339747255157 
571	 0.103843278247888 
572	 0.104324835026766 
573	 0.104758078158572 
574	 0.105154575474304 
575	 0.105534275199616 
576	 0.105958541764196 
577	 0.106434113981355 
578	 0.106849292025396 
579	 0.107168354755209 
580	 0.107419204726759 
581	 0.1076758174962 
582	 0.10805483141391 
583	 0.108461734814595 
584	 0.108883843076784 
585	 0.109459199392835 
586	 0.109959703088509 
587	 0.110403795438467 
588	 0.110876087304074 
589	 0.111399170682231 
590	 0.111929390145304 
591	 0.112473070087779 
592	 0.11308261003369 
593	 0.113705960553917 
594	 0.11433175246124 
595	 0.114948180921138 
596	 0.115540060316237 
597	 0.115962867257665 
598	 0.116263545495353 
599	 0.116586386053693 
600	 0.116863760321277 
601	 0.117149696722798 
602	 0.117472202222768 
603	 0.117797983848346 
604	 0.118086964830607 
605	 0.118396022616792 
606	 0.11878149357757 
607	 0.119083014468007 
608	 0.119407117971857 
609	 0.119764188125201 
610	 0.120039822505878 
611	 0.120317657525019 
612	 0.12059839719865 
613	 0.120852273265633 
614	 0.121016453114867 
615	 0.121156187514258 
616	 0.121311604401678 
617	 0.121500166030367 
618	 0.121724136869539 
619	 0.121900359135499 
620	 0.121990298522777 
621	 0.122063474575974 
622	 0.122190301267097 
623	 0.122326805545996 
624	 0.122402226632686 
625	 0.122543176075957 
626	 0.122669209159107 
627	 0.122740271262588 
628	 0.122790014146858 
629	 0.122851597707739 
630	 0.122963014348152 
631	 0.12312192426604 
632	 0.12318167035253 
633	 0.123225314347194 
634	 0.123289841804325 
635	 0.123367035191057 
636	 0.123408613284153 
637	 0.123468265403208 
638	 0.123580727947325 
639	 0.123698223647668 
640	 0.123775086408555 
641	 0.123830838678352 
642	 0.123912880079797 
643	 0.124001045177131 
644	 0.12408083749821 
645	 0.124142484588937 
646	 0.124180980385289 
647	 0.124256386820216 
648	 0.12435711883016 
649	 0.124453664651987 
650	 0.124549383657299 
651	 0.124611238821027 
652	 0.124667851958385 
653	 0.12479509676967 
654	 0.124925761561493 
655	 0.124994015220427 
656	 0.125000731350944 
657	 0.125104271099027 
658	 0.125250089913994 
659	 0.125393062399838 
660	 0.125495970814914 
661	 0.125586436453588 
662	 0.125648846543998 
663	 0.125723303275054 
664	 0.125938535687778 
665	 0.12608206128774 
666	 0.126159187893535 
667	 0.126238405546597 
668	 0.126354449320687 
669	 0.126478137229881 
670	 0.126605915367751 
671	 0.126752781070735 
672	 0.126848523105816 
673	 0.126966890214514 
674	 0.127151099019312 
675	 0.127315199046712 
676	 0.127486572335999 
677	 0.127653204854571 
678	 0.127793703975197 
679	 0.127927532467315 
680	 0.1280794426793 
681	 0.128254176990008 
682	 0.128430683810785 
683	 0.128607966398305 
684	 0.128787680195792 
685	 0.128965028683512 
686	 0.129102237329953 
687	 0.129271820752808 
688	 0.129474696557409 
689	 0.129658111854637 
690	 0.129796693077954 
691	 0.129959724979016 
692	 0.130166878538173 
693	 0.130308453009729 
694	 0.130468689768742 
695	 0.13064110722198 
696	 0.13080279181877 
697	 0.131031396786674 
698	 0.131230188280107 
699	 0.131377987725859 
700	 0.13154280375315 
701	 0.131731295800839 
702	 0.131920040427315 
703	 0.132092226840364 
704	 0.132275520587176 
705	 0.132435913463875 
706	 0.132585330760904 
707	 0.132752556646031 
708	 0.132889235739008 
709	 0.133045034507266 
710	 0.133229709228139 
711	 0.133381974620535 
712	 0.133550940244284 
713	 0.133697527698736 
714	 0.1337964286456 
715	 0.133967566451129 
716	 0.134126770157517 
717	 0.134234363961091 
718	 0.134297930590855 
719	 0.13443352895633 
720	 0.134583948109553 
721	 0.134694562486214 
722	 0.134762906609478 
723	 0.134870814281791 
724	 0.134983432020594 
725	 0.135048599981771 
726	 0.135149810886399 
727	 0.135273338836707 
728	 0.135380204008736 
729	 0.135418474357758 
730	 0.135460306601905 
731	 0.135517292183352 
732	 0.135582209101911 
733	 0.135635694452653 
734	 0.135660742826349 
735	 0.135681891954287 
736	 0.135726801743102 
737	 0.135722768899769 
738	 0.13570719628817 
739	 0.135698680255337 
740	 0.135686537327624 
741	 0.135690448812032 
742	 0.135674956955436 
743	 0.135622500266151 
744	 0.135594712005112 
745	 0.135565610927771 
746	 0.135521017576553 
747	 0.135456407348806 
748	 0.135394270562632 
749	 0.135341265957735 
750	 0.135284116406581 
751	 0.135189082714801 
752	 0.135102193871043 
753	 0.135015619956046 
754	 0.134923459524737 
755	 0.134869289504315 
756	 0.134780182073316 
757	 0.134664674338796 
758	 0.134567566693266 
759	 0.134458023917547 
760	 0.134323567016298 
761	 0.134184593809824 
762	 0.134097862178555 
763	 0.133958651321314 
764	 0.133800864691884 
765	 0.133666610680251 
766	 0.133517916654117 
767	 0.133367030886628 
768	 0.133253324740807 
769	 0.133196084026427 
770	 0.13297742010906 
771	 0.132782957038042 
772	 0.132674768037272 
773	 0.13252560377896 
774	 0.132405562370634 
775	 0.132267011027003 
776	 0.13207378315858 
777	 0.131882669774765 
778	 0.13171432954095 
779	 0.131568824711758 
780	 0.131430858426274 
781	 0.131274556931444 
782	 0.131130892803434 
783	 0.130988986191106 
784	 0.13079476420656 
785	 0.130634430116375 
786	 0.130489295886127 
787	 0.130325173104326 
788	 0.13011186339942 
789	 0.129977175315001 
790	 0.129868200209881 
791	 0.129690183457671 
792	 0.129533154227373 
793	 0.12937915968271 
794	 0.129223496029109 
795	 0.129075388320781 
796	 0.128912598188818 
797	 0.128764483869444 
798	 0.128639561197205 
799	 0.12849528604153 
800	 0.128324922313204 
801	 0.128156413937022 
802	 0.128014270645842 
803	 0.127861720665655 
804	 0.127723701318557 
805	 0.127575251962814 
806	 0.127379417349981 
807	 0.127281933005841 
808	 0.127149278327382 
809	 0.12695235640835 
810	 0.126833743413561 
811	 0.126748105236503 
812	 0.126635155138668 
813	 0.126475949274719 
814	 0.126380222488377 
815	 0.126226445470806 
816	 0.126044847269819 
817	 0.125919632051844 
818	 0.125853679341405 
819	 0.125774754227604 
820	 0.125655818233522 
821	 0.125518825417168 
822	 0.125411138965171 
823	 0.125338131855872 
824	 0.125273059866005 
825	 0.125152210283591 
826	 0.125017631572263 
827	 0.124893565292862 
828	 0.12479317108726 
829	 0.124711839960233 
830	 0.124617341823224 
831	 0.124524031770938 
832	 0.124454053088017 
833	 0.124319007699025 
834	 0.124215276481738 
835	 0.124151154332208 
836	 0.124047819675326 
837	 0.123991718085522 
838	 0.123914693131516 
839	 0.123790094011506 
840	 0.123701692156304 
841	 0.123624790145841 
842	 0.12357147040113 
843	 0.123544912797213 
844	 0.123494714927982 
845	 0.123468959022827 
846	 0.123427146532972 
847	 0.123322044577189 
848	 0.123317052430711 
849	 0.123263282359482 
850	 0.123139704250853 
851	 0.123047421076827 
852	 0.122973900117385 
853	 0.122949989949307 
854	 0.122967952521293 
855	 0.122961394251436 
856	 0.122912979431766 
857	 0.122898842325768 
858	 0.122943011836918 
859	 0.122878532708149 
860	 0.122795142458399 
861	 0.122721048302882 
862	 0.122666737294504 
863	 0.122656922256662 
864	 0.122643643115953 
865	 0.122616685698229 
866	 0.122600810010537 
867	 0.122674175377286 
868	 0.122711375009979 
869	 0.122689944389751 
870	 0.12270505265274 
871	 0.122703369806819 
872	 0.122659102124987 
873	 0.122601502020618 
874	 0.122636206278416 
875	 0.122627226798443 
876	 0.122641782399658 
877	 0.122720192154797 
878	 0.122695352994979 
879	 0.122696005706145 
880	 0.122715456168971 
881	 0.12271433662286 
882	 0.122723057038031 
883	 0.122753313177667 
884	 0.122788336040034 
885	 0.122800205713899 
886	 0.122796634539035 
887	 0.122811104698628 
888	 0.122861488827639 
889	 0.122941654382763 
890	 0.122987330207247 
891	 0.122990099186316 
892	 0.122989526517522 
893	 0.123063394372713 
894	 0.123100585613855 
895	 0.12312064846969 
896	 0.123167185830979 
897	 0.123278179460613 
898	 0.12332115816645 
899	 0.123355628696372 
900	 0.123448051096501 
901	 0.123542712580307 
902	 0.123612536992928 
903	 0.123668390172953 
904	 0.123726610339874 
905	 0.123759704034982 
906	 0.12379532655945 
907	 0.123846569874042 
908	 0.123912685568102 
909	 0.123967977463555 
910	 0.124037662486399 
911	 0.124154128131726 
912	 0.124325617272868 
913	 0.124393873579019 
914	 0.124487953116431 
915	 0.124611875833282 
916	 0.124653131175003 
917	 0.124704728923241 
918	 0.124808981667096 
919	 0.124948553488468 
920	 0.125049967410627 
921	 0.125130772949674 
922	 0.125173600047535 
923	 0.125226739304235 
924	 0.125423888924159 
925	 0.125522861218789 
926	 0.125643123862338 
927	 0.125839858730124 
928	 0.125911405169912 
929	 0.125990624419696 
930	 0.126101299833218 
931	 0.126232927498055 
932	 0.126364394992744 
933	 0.126451028874935 
934	 0.126555172122779 
935	 0.126713750241403 
936	 0.126797102016776 
937	 0.126877482835631 
938	 0.127000297968981 
939	 0.127182029735962 
940	 0.127386448264487 
941	 0.127511997356556 
942	 0.12762146925506 
943	 0.12778871230667 
944	 0.127836696323641 
945	 0.127966775043315 
946	 0.128123867171023 
947	 0.128190638342647 
948	 0.128355596751372 
949	 0.128473235146133 
950	 0.128593300211338 
951	 0.128818007487778 
952	 0.128967077294393 
953	 0.12906255022643 
954	 0.129193412603742 
955	 0.129427707159431 
956	 0.129559935418932 
957	 0.129661453993199 
958	 0.129763605839595 
959	 0.129870410219515 
960	 0.130022889790882 
961	 0.130255215156335 
962	 0.130502177316462 
963	 0.130651690084604 
964	 0.130711674632374 
965	 0.130726841794791 
966	 0.130838453186259 
967	 0.131156646616084 
968	 0.13128303724953 
969	 0.131462109692827 
970	 0.131699622120037 
971	 0.131821865591445 
972	 0.131813552483478 
973	 0.131877889751661 
974	 0.131999983799895 
975	 0.13206286231769 
976	 0.13237203868612 
977	 0.132562486531968 
978	 0.132568926952705 
979	 0.13258613288943 
980	 0.132842194392584 
981	 0.133060551007259 
982	 0.133207266650945 
983	 0.133391981145882 
984	 0.133484837303963 
985	 0.133509486793236 
986	 0.133606857007266 
987	 0.133886249945007 
988	 0.134030721381791 
989	 0.134134768644218 
990	 0.134238606339266 
991	 0.134361809454035 
992	 0.134629083465488 
993	 0.134602667337602 
994	 0.134558796003988 
995	 0.134875365600684 
996	 0.134899136249367 
997	 0.135089741340616 
998	 0.135199567518083 
999	 0.134995371626297 
1000	 0.135307695616343 
1001	 0.131819308046213 
1002	 0.131889018004015 
1003	 0.132003852993164 
1004	 0.13211999929017 
1005	 0.13226988581489 
1006	 0.132375913031488 
1007	 0.132478726062065 
1008	 0.132554899733421 
1009	 0.132610172143874 
1010	 0.132659962155619 
1011	 0.132724956564243 
1012	 0.132791257276653 
1013	 0.132874638309636 
1014	 0.132993277050959 
1015	 0.133061237631309 
1016	 0.133120576458951 
1017	 0.133198269523279 
1018	 0.133274988365007 
1019	 0.133336020392327 
1020	 0.133431919261416 
1021	 0.133514709545615 
1022	 0.133559685050478 
1023	 0.133595205157428 
1024	 0.133632417862493 
1025	 0.133681606490098 
1026	 0.133750054176275 
1027	 0.133864759310678 
1028	 0.133931271666253 
1029	 0.133964436183752 
1030	 0.134076907187896 
1031	 0.134142722898833 
1032	 0.134172141923339 
1033	 0.134192122538386 
1034	 0.134254700752453 
1035	 0.13425417508938 
1036	 0.134272103351088 
1037	 0.134314732510468 
1038	 0.134350170877991 
1039	 0.134396763788223 
1040	 0.134405620439368 
1041	 0.134429340154685 
1042	 0.134454044890633 
1043	 0.134450574993468 
1044	 0.13448704239987 
1045	 0.134545966410975 
1046	 0.134611559507583 
1047	 0.134655733200159 
1048	 0.134705519590561 
1049	 0.134737562571883 
1050	 0.134756677961108 
1051	 0.134796021969835 
1052	 0.134826454541578 
1053	 0.134863557590014 
1054	 0.134905141333344 
1055	 0.134881987141178 
1056	 0.1348845525044 
1057	 0.134932014012476 
1058	 0.134996626577976 
1059	 0.135045356187551 
1060	 0.135145941615313 
1061	 0.13522867672897 
1062	 0.135206543119564 
1063	 0.135117453265748 
1064	 0.135095620360776 
1065	 0.135114665923604 
1066	 0.135146276031918 
1067	 0.135208290979302 
1068	 0.135189077622332 
1069	 0.135150435827537 
1070	 0.135161433529074 
1071	 0.135186550787561 
1072	 0.1352136541548 
1073	 0.135304442310327 
1074	 0.135333680751583 
1075	 0.135325557812298 
1076	 0.135306017197315 
1077	 0.135312815179529 
1078	 0.135303654524143 
1079	 0.13530085785997 
1080	 0.135321328777389 
1081	 0.13535333311883 
1082	 0.135391592712979 
1083	 0.135402325491963 
1084	 0.135418323664268 
1085	 0.135411892013406 
1086	 0.135346068388488 
1087	 0.13533384469529 
1088	 0.135342028438839 
1089	 0.135355580010922 
1090	 0.135361805788599 
1091	 0.135398053929255 
1092	 0.135421535926272 
1093	 0.135450232214622 
1094	 0.13550158612217 
1095	 0.135520830759734 
1096	 0.135549798203149 
1097	 0.135599366334106 
1098	 0.135632185443726 
1099	 0.13567824043633 
1100	 0.135705771788879 
1101	 0.135704231716303 
1102	 0.135706124586574 
1103	 0.135698852578657 
1104	 0.135705629136919 
1105	 0.135696059556303 
1106	 0.135736521856962 
1107	 0.135788117045822 
1108	 0.13582072189621 
1109	 0.135863480246901 
1110	 0.135888642912409 
1111	 0.13592328588899 
1112	 0.135949943527041 
1113	 0.135993093741893 
1114	 0.136062709699233 
1115	 0.136109898728866 
1116	 0.136144839079365 
1117	 0.136178216098462 
1118	 0.136200493122388 
1119	 0.136221773418403 
1120	 0.136265200202919 
1121	 0.136323140162141 
1122	 0.13637515794759 
1123	 0.136414125946236 
1124	 0.136458588748152 
1125	 0.136501530490218 
1126	 0.136540920690992 
1127	 0.136590917721292 
1128	 0.136614079351114 
1129	 0.136598783500265 
1130	 0.136622728619486 
1131	 0.136659645384983 
1132	 0.136690888377789 
1133	 0.136722635808249 
1134	 0.136776276360207 
1135	 0.136858843371044 
1136	 0.136904645885364 
1137	 0.136934142859083 
1138	 0.136969105913968 
1139	 0.136993474287775 
1140	 0.136958951778426 
1141	 0.13699562266662 
1142	 0.13709420666491 
1143	 0.137137562927227 
1144	 0.13717242477487 
1145	 0.137205133804697 
1146	 0.137205873503172 
1147	 0.137227337738439 
1148	 0.137275780818489 
1149	 0.137306953643706 
1150	 0.137330321058995 
1151	 0.137354842188465 
1152	 0.137374739542812 
1153	 0.137365418606887 
1154	 0.137396814639891 
1155	 0.137448291669525 
1156	 0.137479146432045 
1157	 0.13752475962635 
1158	 0.137559466334179 
1159	 0.137586130740397 
1160	 0.137597339444624 
1161	 0.137588851954927 
1162	 0.137603176405414 
1163	 0.137598807114691 
1164	 0.137617916227573 
1165	 0.137671287086384 
1166	 0.137723920904119 
1167	 0.137772337205267 
1168	 0.137812346088047 
1169	 0.137828183604011 
1170	 0.137825698066943 
1171	 0.137831576088837 
1172	 0.137811198691342 
1173	 0.137817271893555 
1174	 0.137839903946746 
1175	 0.13786170627249 
1176	 0.137896267102629 
1177	 0.13791781978666 
1178	 0.137931668693199 
1179	 0.137953692401829 
1180	 0.137973365244171 
1181	 0.13799513425074 
1182	 0.13803069481079 
1183	 0.138051861488643 
1184	 0.138084632976104 
1185	 0.13811238002825 
1186	 0.138153471666864 
1187	 0.13821667312181 
1188	 0.138254854538721 
1189	 0.138287436654356 
1190	 0.138317676784934 
1191	 0.138330091869465 
1192	 0.138354036281667 
1193	 0.138380917161929 
1194	 0.138412850974801 
1195	 0.138465742944466 
1196	 0.13849148060382 
1197	 0.138495764606745 
1198	 0.138515669471567 
1199	 0.138534633668123 
1200	 0.138542240733412 
1201	 0.138550281022536 
1202	 0.138567101204689 
1203	 0.138584065819608 
1204	 0.138585360677724 
1205	 0.138602047350136 
1206	 0.13864629074236 
1207	 0.13866499866744 
1208	 0.138660850192927 
1209	 0.138678344925087 
1210	 0.138695073465926 
1211	 0.138720119533214 
1212	 0.138787400834141 
1213	 0.138810051993585 
1214	 0.138796081167738 
1215	 0.138801481253167 
1216	 0.138803893715587 
1217	 0.138778190248415 
1218	 0.138790775346951 
1219	 0.138842586026998 
1220	 0.138855631410583 
1221	 0.138856023466677 
1222	 0.138867545600804 
1223	 0.138862734074289 
1224	 0.138878444960604 
1225	 0.138924118223162 
1226	 0.138944870221449 
1227	 0.138952744239819 
1228	 0.138971065951641 
1229	 0.138985759006969 
1230	 0.139000437578243 
1231	 0.13902535326758 
1232	 0.139046230641908 
1233	 0.139063956041717 
1234	 0.139070999957288 
1235	 0.139090737854273 
1236	 0.139119106187549 
1237	 0.139137464538592 
1238	 0.139159095889373 
1239	 0.139169820655683 
1240	 0.139164920993098 
1241	 0.139172915173947 
1242	 0.139183268792393 
1243	 0.139191676736766 
1244	 0.13920200134143 
1245	 0.139217500817691 
1246	 0.13923109521935 
1247	 0.139247148137652 
1248	 0.13927934258958 
1249	 0.139296511264041 
1250	 0.139300495369169 
1251	 0.139319950820092 
1252	 0.139335103057343 
1253	 0.139347328359057 
1254	 0.139361560299102 
1255	 0.1393822925477 
1256	 0.139396872734485 
1257	 0.139406873373327 
1258	 0.139419977556937 
1259	 0.139433453186499 
1260	 0.139444825264463 
1261	 0.139453032492561 
1262	 0.139465917128367 
1263	 0.139483352023617 
1264	 0.139495541153324 
1265	 0.139513769576393 
1266	 0.139523589650478 
1267	 0.139532569835089 
1268	 0.139518278668582 
1269	 0.139519736861272 
1270	 0.139517946472242 
1271	 0.139523270239986 
1272	 0.139536621760077 
1273	 0.139548019555749 
1274	 0.139561081660854 
1275	 0.13957357172612 
1276	 0.139584912046646 
1277	 0.139600484979153 
1278	 0.139611849184232 
1279	 0.139636186321893 
1280	 0.13967140680301 
1281	 0.139706102992004 
1282	 0.13975989960613 
1283	 0.139793076691988 
1284	 0.139817462428946 
1285	 0.139834614342398 
1286	 0.139846791864226 
1287	 0.139874229379182 
1288	 0.13989248433449 
1289	 0.139917624229255 
1290	 0.139934446837035 
1291	 0.139945058882295 
1292	 0.139948325710191 
1293	 0.139948895020114 
1294	 0.139945223547936 
1295	 0.139923586859516 
1296	 0.139919478566928 
1297	 0.139933521154043 
1298	 0.139926659031845 
1299	 0.13990921998267 
1300	 0.139899659487553 
1301	 0.139875371880975 
1302	 0.139865193578159 
1303	 0.139872001631869 
1304	 0.139878435835781 
1305	 0.139879141141835 
1306	 0.139872018643797 
1307	 0.139853121346269 
1308	 0.139836532435987 
1309	 0.139829477084921 
1310	 0.139827123796854 
1311	 0.13982116722758 
1312	 0.139819364652312 
1313	 0.139821216850384 
1314	 0.139814955973908 
1315	 0.139822024817124 
1316	 0.139847703665944 
1317	 0.13986071544939 
1318	 0.139868349760997 
1319	 0.139884404765802 
1320	 0.139911430773049 
1321	 0.139920990058603 
1322	 0.139922047900419 
1323	 0.13993033662399 
1324	 0.139928968283136 
1325	 0.139926536555579 
1326	 0.13994116150264 
1327	 0.139955724275448 
1328	 0.139957981190673 
1329	 0.139974910812745 
1330	 0.140009071718981 
1331	 0.140061277329649 
1332	 0.140096890588978 
1333	 0.140150430623499 
1334	 0.140181533212422 
1335	 0.140190389910674 
1336	 0.140213412716946 
1337	 0.140236390687798 
1338	 0.140256962223087 
1339	 0.140269185030971 
1340	 0.140298846413327 
1341	 0.140345895817696 
1342	 0.140375397089424 
1343	 0.140406892770894 
1344	 0.140439212249447 
1345	 0.140443402110785 
1346	 0.140457413097017 
1347	 0.140484285183338 
1348	 0.140504595652453 
1349	 0.140536028879534 
1350	 0.140568774117922 
1351	 0.140604874364053 
1352	 0.140656396626681 
1353	 0.140682163461898 
1354	 0.140692103338985 
1355	 0.140718368173537 
1356	 0.140733673587987 
1357	 0.140758179885117 
1358	 0.140801939689598 
1359	 0.140836385579225 
1360	 0.140875483028009 
1361	 0.140897081598104 
1362	 0.140904065339696 
1363	 0.140920623696426 
1364	 0.140915554828572 
1365	 0.140936486481094 
1366	 0.140984885233498 
1367	 0.141024166620379 
1368	 0.141065279441651 
1369	 0.141095935638203 
1370	 0.141113686201561 
1371	 0.14112965304401 
1372	 0.141151765163438 
1373	 0.141169589002446 
1374	 0.141176466054936 
1375	 0.141167088810221 
1376	 0.141185179445278 
1377	 0.14121142784574 
1378	 0.141223543315783 
1379	 0.141254306971155 
1380	 0.141264568818113 
1381	 0.141248635249323 
1382	 0.141239376122075 
1383	 0.141229812375326 
1384	 0.141217778580934 
1385	 0.141204080858322 
1386	 0.141186158053584 
1387	 0.141165927378553 
1388	 0.141145292661598 
1389	 0.141118978502668 
1390	 0.141094048106571 
1391	 0.141067920852745 
1392	 0.141023676416763 
1393	 0.14096638053541 
1394	 0.140895212533683 
1395	 0.1408250657227 
1396	 0.140756271128195 
1397	 0.140675556286133 
1398	 0.140592742268745 
1399	 0.140498399510722 
1400	 0.140388686698783 
1401	 0.140285833967279 
1402	 0.140180607365435 
1403	 0.14007268951393 
1404	 0.139960715947778 
1405	 0.139851118754686 
1406	 0.139736776518517 
1407	 0.139630614206352 
1408	 0.139528764939238 
1409	 0.139428492541277 
1410	 0.139332399304384 
1411	 0.139239083000062 
1412	 0.13913943782393 
1413	 0.139061460162547 
1414	 0.13899074728512 
1415	 0.138915394489661 
1416	 0.138859744545029 
1417	 0.13880985288719 
1418	 0.138760390479136 
1419	 0.138714464975762 
1420	 0.13866923732861 
1421	 0.138627940885774 
1422	 0.138604324569512 
1423	 0.138578808207777 
1424	 0.138553058481681 
1425	 0.138535753528707 
1426	 0.138513792945743 
1427	 0.138484923105781 
1428	 0.138469497053788 
1429	 0.138453145359509 
1430	 0.138446677709311 
1431	 0.138452819822597 
1432	 0.138455638888045 
1433	 0.138471746441708 
1434	 0.138477245459537 
1435	 0.138473583647853 
1436	 0.138473074330293 
1437	 0.138459527876922 
1438	 0.138467465929405 
1439	 0.138492709521486 
1440	 0.138513323194195 
1441	 0.138535055992223 
1442	 0.138544102439804 
1443	 0.138540839164553 
1444	 0.138536918950087 
1445	 0.138539915697276 
1446	 0.138559488055289 
1447	 0.138577860921656 
1448	 0.138599359219033 
1449	 0.138625386989073 
1450	 0.138643708267086 
1451	 0.138662543203069 
1452	 0.138682451240026 
1453	 0.138700344321893 
1454	 0.138714419828469 
1455	 0.138729028714547 
1456	 0.138746632506779 
1457	 0.138757135259499 
1458	 0.138764828613683 
1459	 0.138769582436688 
1460	 0.138761707052622 
1461	 0.138772724615225 
1462	 0.138787311586011 
1463	 0.138802459974368 
1464	 0.138836243979666 
1465	 0.138855220542943 
1466	 0.138860742571109 
1467	 0.138879157337409 
1468	 0.138893364045799 
1469	 0.138922505528626 
1470	 0.138969121154011 
1471	 0.1390077265049 
1472	 0.139049237861881 
1473	 0.139092168954105 
1474	 0.139117311324258 
1475	 0.139148362573796 
1476	 0.139181470178352 
1477	 0.13919803987257 
1478	 0.139232587434903 
1479	 0.139276999830841 
1480	 0.139333182110421 
1481	 0.139395684541152 
1482	 0.139439519237863 
1483	 0.139472642839378 
1484	 0.13951058970242 
1485	 0.139539922159119 
1486	 0.139573469751571 
1487	 0.139613503009567 
1488	 0.139649335936742 
1489	 0.139673394882799 
1490	 0.139710951159506 
1491	 0.13976283911034 
1492	 0.139798406933814 
1493	 0.139830587039811 
1494	 0.139869577654134 
1495	 0.139903118914042 
1496	 0.13993478906733 
1497	 0.139973572125524 
1498	 0.140008814146948 
1499	 0.140036592555978 
1500	 0.140063627069732 
1501	 0.140084368685591 
1502	 0.140115410425182 
1503	 0.140145932625327 
1504	 0.140186826591205 
1505	 0.140224148449494 
1506	 0.140277873809507 
1507	 0.140310726966443 
1508	 0.140331454604366 
1509	 0.14036879131228 
1510	 0.140385459236131 
1511	 0.140392505535137 
1512	 0.140418400984574 
1513	 0.140435262456106 
1514	 0.140453319593224 
1515	 0.140499030789754 
1516	 0.140544306328438 
1517	 0.140583719303937 
1518	 0.140635027344491 
1519	 0.14066168035351 
1520	 0.140670948814478 
1521	 0.140681681014861 
1522	 0.140675057452605 
1523	 0.14068596429937 
1524	 0.140703715827348 
1525	 0.140721806147472 
1526	 0.14074778870859 
1527	 0.140768474010197 
1528	 0.140790102151462 
1529	 0.140804388939975 
1530	 0.140804714688587 
1531	 0.140824999381005 
1532	 0.140855581577444 
1533	 0.140876855734214 
1534	 0.140904946226466 
1535	 0.140934650648301 
1536	 0.140956680899134 
1537	 0.140980541815743 
1538	 0.141015203281064 
1539	 0.141044618878591 
1540	 0.141071239065804 
1541	 0.14108785636516 
1542	 0.141099780749565 
1543	 0.141110105448205 
1544	 0.141102724776668 
1545	 0.141110935738649 
1546	 0.141133132621021 
1547	 0.141148710686665 
1548	 0.14115630216905 
1549	 0.14116743751409 
1550	 0.141168922730958 
1551	 0.141161033671691 
1552	 0.141169861811332 
1553	 0.141171490923917 
1554	 0.14118174824476 
1555	 0.141211648416439 
1556	 0.141225243395853 
1557	 0.14124149784591 
1558	 0.141258201156904 
1559	 0.141273169163628 
1560	 0.141295755975406 
1561	 0.141330989416299 
1562	 0.141356726318036 
1563	 0.141381151665386 
1564	 0.141396532074377 
1565	 0.141411660767859 
1566	 0.141418811450965 
1567	 0.141413005725125 
1568	 0.141417355579007 
1569	 0.141417693564148 
1570	 0.141422856533563 
1571	 0.141436651343786 
1572	 0.141444771349235 
1573	 0.141450460670581 
1574	 0.141462998239374 
1575	 0.14147337773091 
1576	 0.141486843005088 
1577	 0.141514227368551 
1578	 0.141524140974644 
1579	 0.141526518002716 
1580	 0.141530748035666 
1581	 0.141525467601597 
1582	 0.141524291953777 
1583	 0.141525968694705 
1584	 0.141526233809453 
1585	 0.141520848106479 
1586	 0.141523245406958 
1587	 0.141531919072744 
1588	 0.141539132627113 
1589	 0.141543533058824 
1590	 0.141561252368045 
1591	 0.141590097452569 
1592	 0.14160804504412 
1593	 0.141637354303208 
1594	 0.141653805776425 
1595	 0.141648018039466 
1596	 0.141657320065445 
1597	 0.141677982757919 
1598	 0.141685116052071 
1599	 0.141690654107707 
1600	 0.141691331135365 
1601	 0.141680020275936 
1602	 0.141670005693502 
1603	 0.14166541785488 
1604	 0.141652350271118 
1605	 0.141623950873422 
1606	 0.141606103742935 
1607	 0.141583829437759 
1608	 0.141569176304274 
1609	 0.141575349832147 
1610	 0.141585381880703 
1611	 0.141608710501718 
1612	 0.141639605266001 
1613	 0.141668150022657 
1614	 0.141688709993052 
1615	 0.141700907100011 
1616	 0.14169399984793 
1617	 0.141675044753024 
1618	 0.141669427098384 
1619	 0.141664357977435 
1620	 0.141666506428116 
1621	 0.141672534691411 
1622	 0.141689179120267 
1623	 0.141696797762334 
1624	 0.141702473734648 
1625	 0.14171106631203 
1626	 0.14172501646294 
1627	 0.141722941937862 
1628	 0.141713624666922 
1629	 0.141711694287434 
1630	 0.141695849267673 
1631	 0.141699980718076 
1632	 0.141726672081216 
1633	 0.141728167913713 
1634	 0.141723801843595 
1635	 0.141721307762498 
1636	 0.141707529711073 
1637	 0.141702582899337 
1638	 0.141704036484627 
1639	 0.141702434249602 
1640	 0.141698410053783 
1641	 0.141697556517344 
1642	 0.141699282653409 
1643	 0.141703603714126 
1644	 0.14170888880689 
1645	 0.141715769585544 
1646	 0.141726297027123 
1647	 0.141734282457635 
1648	 0.141745985207626 
1649	 0.141747756645734 
1650	 0.141747399458841 
1651	 0.141740977850167 
1652	 0.141719213374055 
1653	 0.141713436916202 
1654	 0.141712095379654 
1655	 0.141709300496746 
1656	 0.141708188969863 
1657	 0.141717895154187 
1658	 0.141738340863253 
1659	 0.14174204371116 
1660	 0.141752217021315 
1661	 0.141749767124249 
1662	 0.141717179413183 
1663	 0.141714042021188 
1664	 0.141721675400929 
1665	 0.14173375889483 
1666	 0.141775530889966 
1667	 0.141774432253672 
1668	 0.141750062017726 
1669	 0.141741289447054 
1670	 0.1417147240485 
1671	 0.14169718435868 
1672	 0.141695217325541 
1673	 0.141690230350644 
1674	 0.141669868704935 
1675	 0.141670708498679 
1676	 0.141692672440769 
1677	 0.141706325073276 
1678	 0.141729611349827 
1679	 0.141737310524232 
1680	 0.141733450100369 
1681	 0.141739711240157 
1682	 0.141747810543572 
1683	 0.141743827176942 
1684	 0.141746608023062 
1685	 0.141733167766478 
1686	 0.141682589203775 
1687	 0.141673147781202 
1688	 0.141681665012624 
1689	 0.141684535507771 
1690	 0.14170731692613 
1691	 0.141718778724864 
1692	 0.141715826777845 
1693	 0.141725251896109 
1694	 0.141750500819366 
1695	 0.141756557828457 
1696	 0.141754880989418 
1697	 0.141756128535417 
1698	 0.141747212686536 
1699	 0.14174426564222 
1700	 0.14174920262734 
1701	 0.141746652904922 
1702	 0.141737895212764 
1703	 0.141732050438948 
1704	 0.141729256818722 
1705	 0.141719078644713 
1706	 0.141702027653618 
1707	 0.141694172869271 
1708	 0.141696721399197 
1709	 0.14167544959797 
1710	 0.141632133968826 
1711	 0.141623333247544 
1712	 0.141614709730916 
1713	 0.141607023510431 
1714	 0.141636262504057 
1715	 0.141638344459964 
1716	 0.141620559177509 
1717	 0.141599239413172 
1718	 0.141569563563569 
1719	 0.141545417431775 
1720	 0.141500109789565 
1721	 0.141489468344834 
1722	 0.141519187265294 
1723	 0.141510628777543 
1724	 0.141492389534001 
1725	 0.141478887936806 
1726	 0.141448922099004 
1727	 0.141425660115797 
1728	 0.141411501797194 
1729	 0.141402116418748 
1730	 0.141386865263637 
1731	 0.141377578385814 
1732	 0.141387037881629 
1733	 0.141382205033433 
1734	 0.141366504449868 
1735	 0.141352189792304 
1736	 0.141335745321738 
1737	 0.141323652031018 
1738	 0.141318185460541 
1739	 0.141294791497762 
1740	 0.141269096431514 
1741	 0.141233523359938 
1742	 0.141170653513642 
1743	 0.141135897287793 
1744	 0.141111588791637 
1745	 0.14109118978345 
1746	 0.141079680936302 
1747	 0.14107910132428 
1748	 0.141077338934647 
1749	 0.14107735268341 
1750	 0.141062841567687 
1751	 0.141024658604423 
1752	 0.140985075894537 
1753	 0.140966670977733 
1754	 0.140959453956382 
1755	 0.140935537482545 
1756	 0.140902841076873 
1757	 0.140861512541148 
1758	 0.140810390991668 
1759	 0.14077939597588 
1760	 0.140773170534933 
1761	 0.140764093125396 
1762	 0.140758038495485 
1763	 0.140774394495959 
1764	 0.140778705786789 
1765	 0.14077313221859 
1766	 0.14077086052964 
1767	 0.140741728586487 
1768	 0.140715619529457 
1769	 0.14069961938479 
1770	 0.14068858205113 
1771	 0.140695815445346 
1772	 0.140677680373737 
1773	 0.14063475709611 
1774	 0.140578722234755 
1775	 0.140519875338013 
1776	 0.140483733906225 
1777	 0.140456751293105 
1778	 0.140434586045633 
1779	 0.140408852879015 
1780	 0.140396294130139 
1781	 0.140393698677849 
1782	 0.140381834790427 
1783	 0.140392951635209 
1784	 0.140371174220261 
1785	 0.14031869267774 
1786	 0.140295149259742 
1787	 0.140263971717243 
1788	 0.14023849843492 
1789	 0.140238871653153 
1790	 0.140238164525938 
1791	 0.140230489502326 
1792	 0.140217620706227 
1793	 0.14021920548944 
1794	 0.140213588737486 
1795	 0.140177041816325 
1796	 0.140174433820257 
1797	 0.140207890289606 
1798	 0.140202050918201 
1799	 0.14018460267082 
1800	 0.140185261072952 
1801	 0.136321688616147 
1802	 0.136336915800918 
1803	 0.136353134745016 
1804	 0.136375186608461 
1805	 0.136419079215838 
1806	 0.136491863412625 
1807	 0.136557663426548 
1808	 0.136600361933541 
1809	 0.136657595181097 
1810	 0.13668390121704 
1811	 0.13667457219144 
1812	 0.136655342606209 
1813	 0.136662100586086 
1814	 0.136648035280598 
1815	 0.136634234708937 
1816	 0.136645034538461 
1817	 0.136658721967945 
1818	 0.136681649576625 
1819	 0.136697164296725 
1820	 0.136718414056551 
1821	 0.136745261262468 
1822	 0.136748317942057 
1823	 0.136734405605073 
1824	 0.136724671183524 
1825	 0.136724654221066 
1826	 0.136730851980266 
1827	 0.136726507880763 
1828	 0.136726901695888 
1829	 0.13673347819739 
1830	 0.136725881166145 
1831	 0.136699465313654 
1832	 0.136710980442262 
1833	 0.136699190585833 
1834	 0.136694528027997 
1835	 0.136705018777718 
1836	 0.136691615609266 
1837	 0.136712502009351 
1838	 0.136705642132841 
1839	 0.136683587589797 
1840	 0.136638409309284 
1841	 0.136623873487476 
1842	 0.136575477542861 
1843	 0.136535850983454 
1844	 0.13652796005167 
1845	 0.136508046638859 
1846	 0.13651708833352 
1847	 0.136526530656012 
1848	 0.136521558606355 
1849	 0.136534276822207 
1850	 0.136524176121763 
1851	 0.136494428709375 
1852	 0.136455364356759 
1853	 0.136429127053662 
1854	 0.136399485074574 
1855	 0.136388747410469 
1856	 0.136392615272543 
1857	 0.136352619438215 
1858	 0.136287408410769 
1859	 0.136248887813341 
1860	 0.136192981291431 
1861	 0.13611697269942 
1862	 0.136060769149063 
1863	 0.136026040009958 
1864	 0.135940889339824 
1865	 0.135866103691015 
1866	 0.135804288400888 
1867	 0.135742006814144 
1868	 0.13570222314888 
1869	 0.13563852754038 
1870	 0.135566550487726 
1871	 0.13548413009399 
1872	 0.135394735443841 
1873	 0.135266336352442 
1874	 0.135133047295575 
1875	 0.134984057057014 
1876	 0.134807784750472 
1877	 0.134628611505844 
1878	 0.134432201052862 
1879	 0.13423032519507 
1880	 0.134019933895534 
1881	 0.133796211042338 
1882	 0.133560972359819 
1883	 0.133321271296735 
1884	 0.133065438071787 
1885	 0.132779537080933 
1886	 0.132491818135844 
1887	 0.132193398570568 
1888	 0.131862634361112 
1889	 0.131519398944586 
1890	 0.13115551723029 
1891	 0.130783970259536 
1892	 0.130389859707572 
1893	 0.129997742467488 
1894	 0.129605133393009 
1895	 0.12919212073364 
1896	 0.128765530185056 
1897	 0.128328665859998 
1898	 0.12789485101018 
1899	 0.127453038515819 
1900	 0.127000508886751 
1901	 0.126545875243813 
1902	 0.12612148434195 
1903	 0.125714995923364 
1904	 0.125312020622288 
1905	 0.124924985548733 
1906	 0.124566795281135 
1907	 0.124190304613242 
1908	 0.12381813369291 
1909	 0.123492224682854 
1910	 0.123170113845713 
1911	 0.122875868313452 
1912	 0.122610910635827 
1913	 0.122352495161525 
1914	 0.122111385559005 
1915	 0.121885432806458 
1916	 0.121672229172454 
1917	 0.121469370698571 
1918	 0.121286399412071 
1919	 0.121112789973128 
1920	 0.120956433479471 
1921	 0.120815819223814 
1922	 0.12069965212208 
1923	 0.120615407219588 
1924	 0.120528264949718 
1925	 0.120463131759921 
1926	 0.120385235902181 
1927	 0.120309017603509 
1928	 0.12022758730107 
1929	 0.120140100677626 
1930	 0.120075878919195 
1931	 0.120031915881378 
1932	 0.119984262909748 
1933	 0.119961085994588 
1934	 0.119956630447855 
1935	 0.119943363970807 
1936	 0.119927790141879 
1937	 0.119930553017306 
1938	 0.119929378094794 
1939	 0.119948689780381 
1940	 0.11999518524593 
1941	 0.120038543388116 
1942	 0.120081536003856 
1943	 0.120130170983467 
1944	 0.120173931359111 
1945	 0.120241123512086 
1946	 0.120301920759319 
1947	 0.120370493436712 
1948	 0.120436846647168 
1949	 0.120496252781976 
1950	 0.120560731758806 
1951	 0.120623642168431 
1952	 0.120704130840879 
1953	 0.120785083056133 
1954	 0.12088609501933 
1955	 0.12099145139614 
1956	 0.121098291299977 
1957	 0.12120261917239 
1958	 0.121307130089249 
1959	 0.121410461125351 
1960	 0.12150971083003 
1961	 0.12161592012527 
1962	 0.121722701660381 
1963	 0.121834109745362 
1964	 0.121949888925785 
1965	 0.122072259159944 
1966	 0.122198519026913 
1967	 0.122313844848525 
1968	 0.12243615387351 
1969	 0.12256579511585 
1970	 0.122688676473316 
1971	 0.122807606946627 
1972	 0.122929242409496 
1973	 0.123043797299479 
1974	 0.12316328591961 
1975	 0.123273252213781 
1976	 0.123420588954179 
1977	 0.123548458512387 
1978	 0.123688313345171 
1979	 0.123830268370988 
1980	 0.123947301162235 
1981	 0.124078427354327 
1982	 0.124214574826977 
1983	 0.12434418898018 
1984	 0.124462962006362 
1985	 0.124603479558686 
1986	 0.124753701847311 
1987	 0.124895220423553 
1988	 0.125045542247748 
1989	 0.125207823765215 
1990	 0.125329215977642 
1991	 0.125451897544005 
1992	 0.125592438904478 
1993	 0.12573752619219 
1994	 0.12588148608356 
1995	 0.126049310050454 
1996	 0.126194307908009 
1997	 0.126311388060947 
1998	 0.126455807315558 
1999	 0.126614450037358 
2000	 0.126757855729439 
2001	 0.126907225389787 
2002	 0.127062262814457 
2003	 0.12718632506054 
2004	 0.127301671393969 
2005	 0.127424828378487 
2006	 0.127551371179113 
2007	 0.127669501596627 
2008	 0.127779578723787 
2009	 0.127898259036635 
2010	 0.1280105104681 
2011	 0.128129247982082 
2012	 0.128265537075618 
2013	 0.128391701123696 
2014	 0.128510355891049 
2015	 0.128640435324718 
2016	 0.128754391075118 
2017	 0.128843997417528 
2018	 0.128960417991921 
2019	 0.129079045524249 
2020	 0.129199417408335 
2021	 0.129342035548011 
2022	 0.129466755690597 
2023	 0.12958447082037 
2024	 0.129693685624799 
2025	 0.129784367077221 
2026	 0.129892258871461 
2027	 0.130004971501814 
2028	 0.130109199403933 
2029	 0.130221197128611 
2030	 0.130354955923529 
2031	 0.130456761758814 
2032	 0.130536139434403 
2033	 0.130635814826954 
2034	 0.130727419922639 
2035	 0.13083257510487 
2036	 0.130962090251665 
2037	 0.131071443913958 
2038	 0.131173696078341 
2039	 0.131276581558789 
2040	 0.131370901423271 
2041	 0.131471466508386 
2042	 0.131563844251065 
2043	 0.131650180596828 
2044	 0.131737556833554 
2045	 0.131815305642889 
2046	 0.131897473008449 
2047	 0.131993314783126 
2048	 0.132069590018919 
2049	 0.132129277250631 
2050	 0.132198535978324 
2051	 0.132253325710917 
2052	 0.132320801681983 
2053	 0.132410568285877 
2054	 0.13248529541997 
2055	 0.132549295496094 
2056	 0.132628961019043 
2057	 0.132695278776838 
2058	 0.132750287619755 
2059	 0.132809905297618 
2060	 0.132871688491191 
2061	 0.132927688607757 
2062	 0.132973978012463 
2063	 0.133030353836952 
2064	 0.133083421012584 
2065	 0.133148012152703 
2066	 0.133220908542913 
2067	 0.13329997075747 
2068	 0.133398456397294 
2069	 0.133484426575708 
2070	 0.133559401297935 
2071	 0.133632088390698 
2072	 0.133700467360207 
2073	 0.133755474237708 
2074	 0.133812101185021 
2075	 0.133874387205003 
2076	 0.133924030757728 
2077	 0.13394245471591 
2078	 0.133998494451445 
2079	 0.134077868997288 
2080	 0.134141638665714 
2081	 0.134218364868842 
2082	 0.134290717885089 
2083	 0.134350751901309 
2084	 0.134408011676418 
2085	 0.134471689048062 
2086	 0.134545932743581 
2087	 0.134613804073022 
2088	 0.134677735249493 
2089	 0.134742142766616 
2090	 0.13480993797555 
2091	 0.13487481791954 
2092	 0.134930881979695 
2093	 0.134996112274357 
2094	 0.135066951760897 
2095	 0.135135676933783 
2096	 0.135214883959626 
2097	 0.135281608810035 
2098	 0.135329543874024 
2099	 0.135392150371508 
2100	 0.135466834506831 
2101	 0.13554609615513 
2102	 0.135621405575941 
2103	 0.135721163679364 
2104	 0.135791231645614 
2105	 0.13583349619428 
2106	 0.135895814505207 
2107	 0.135958241285962 
2108	 0.136020003295082 
2109	 0.136084615889857 
2110	 0.136153272509347 
2111	 0.136201300566189 
2112	 0.136287218527803 
2113	 0.136409969089732 
2114	 0.136523879226318 
2115	 0.136629615442795 
2116	 0.136755765404175 
2117	 0.136854573944356 
2118	 0.136933859922504 
2119	 0.137003267785015 
2120	 0.137073012336004 
2121	 0.137119866874299 
2122	 0.137115397968552 
2123	 0.137159221890474 
2124	 0.137212695508864 
2125	 0.137271234651068 
2126	 0.137370913337435 
2127	 0.13744017941116 
2128	 0.137491508623903 
2129	 0.137544578221106 
2130	 0.137586322951874 
2131	 0.137629761542766 
2132	 0.137671629533632 
2133	 0.1377223029906 
2134	 0.13774750757446 
2135	 0.137762735934129 
2136	 0.13776824948744 
2137	 0.137744855760871 
2138	 0.137744459591341 
2139	 0.13776184213861 
2140	 0.137750546933087 
2141	 0.137743726165979 
2142	 0.137713608347102 
2143	 0.137644440051674 
2144	 0.137586236928151 
2145	 0.137519653067471 
2146	 0.137456093252038 
2147	 0.137386943858936 
2148	 0.13732174472416 
2149	 0.137277540265397 
2150	 0.137258871596435 
2151	 0.137201583985042 
2152	 0.137151100101663 
2153	 0.137078327079198 
2154	 0.136957942994034 
2155	 0.136872303415014 
2156	 0.136797091221839 
2157	 0.136722641203819 
2158	 0.136673917391032 
2159	 0.136591855855829 
2160	 0.136501152869656 
2161	 0.136397885808503 
2162	 0.136253859608904 
2163	 0.136130662628008 
2164	 0.1360035281481 
2165	 0.135895055513224 
2166	 0.135781909416146 
2167	 0.135675060257629 
2168	 0.135571405768305 
2169	 0.13546793062184 
2170	 0.135368535217817 
2171	 0.135280954941187 
2172	 0.135186474135555 
2173	 0.13508919087697 
2174	 0.134993882153176 
2175	 0.134892675996947 
2176	 0.134803998694888 
2177	 0.134716212065524 
2178	 0.134638681577084 
2179	 0.13458932271736 
2180	 0.134516166563385 
2181	 0.134429404661548 
2182	 0.134354016221833 
2183	 0.134282157462511 
2184	 0.13419132913968 
2185	 0.13411005041047 
2186	 0.134044029722403 
2187	 0.133959461665428 
2188	 0.133852248909889 
2189	 0.133770870016622 
2190	 0.133704153696961 
2191	 0.133620187439447 
2192	 0.133528113927786 
2193	 0.133456133730303 
2194	 0.13337704963422 
2195	 0.133314395575384 
2196	 0.133294011301397 
2197	 0.133243886228434 
2198	 0.133164837745 
2199	 0.133113341302301 
2200	 0.13306920012309 
2201	 0.133025746196323 
2202	 0.133017293376662 
2203	 0.132980322722237 
2204	 0.132936282600405 
2205	 0.132863540861475 
2206	 0.132832514369636 
2207	 0.132806315103638 
2208	 0.132796304345445 
2209	 0.132819648562457 
2210	 0.132826952964107 
2211	 0.132847331518548 
2212	 0.132835723706688 
2213	 0.132798633056617 
2214	 0.132783736163739 
2215	 0.132757592374282 
2216	 0.132739638871317 
2217	 0.132744707717698 
2218	 0.132740185505413 
2219	 0.132723938322313 
2220	 0.132711393020908 
2221	 0.132688236346212 
2222	 0.132695502413213 
2223	 0.132702695352502 
2224	 0.132708754037676 
2225	 0.132732088927338 
2226	 0.132781748243052 
2227	 0.132802682889332 
2228	 0.13282455986539 
2229	 0.132832685098527 
2230	 0.132815783829869 
2231	 0.132822428198828 
2232	 0.132830798392781 
2233	 0.132844409108056 
2234	 0.132875486254417 
2235	 0.132894226212683 
2236	 0.132907829517492 
2237	 0.132923861384431 
2238	 0.132946770349615 
2239	 0.13294917550067 
2240	 0.132945429917438 
2241	 0.132935477522439 
2242	 0.132892553847584 
2243	 0.132874636334622 
2244	 0.132883781180501 
2245	 0.132859949822648 
2246	 0.13283909861496 
2247	 0.132859671223276 
2248	 0.132862951772649 
2249	 0.132859594088855 
2250	 0.132873106547079 
2251	 0.132892846847212 
2252	 0.132918518101875 
2253	 0.132968156700822 
2254	 0.132981259404032 
2255	 0.132986187119293 
2256	 0.132991913502729 
2257	 0.132968125738911 
2258	 0.132960292169199 
2259	 0.132959521443156 
2260	 0.132967198593896 
2261	 0.132966501343549 
2262	 0.132998021907529 
2263	 0.133079560003762 
2264	 0.133118140041985 
2265	 0.133140275023182 
2266	 0.133175949134453 
2267	 0.133197346895297 
2268	 0.133223974845622 
2269	 0.133284147165277 
2270	 0.133320498481533 
2271	 0.133324626640967 
2272	 0.133292812769389 
2273	 0.133240736057748 
2274	 0.133215110926437 
2275	 0.133209282691337 
2276	 0.133224787293934 
2277	 0.133229443833072 
2278	 0.133242397308085 
2279	 0.133268267347088 
2280	 0.133302754389246 
2281	 0.133325962377491 
2282	 0.133363165188234 
2283	 0.133395793276784 
2284	 0.133411591583339 
2285	 0.133423947050098 
2286	 0.133454567426473 
2287	 0.13346101041127 
2288	 0.133432613292462 
2289	 0.133430443396257 
2290	 0.133419137239956 
2291	 0.133431188750931 
2292	 0.133464744037918 
2293	 0.133503025691518 
2294	 0.133568504706857 
2295	 0.133617028719758 
2296	 0.13366817061487 
2297	 0.133704054336406 
2298	 0.133733659789218 
2299	 0.133788204370438 
2300	 0.133814841248048 
2301	 0.133815073991725 
2302	 0.133790468483488 
2303	 0.133755258406672 
2304	 0.133719849837921 
2305	 0.133687219319892 
2306	 0.133681219804401 
2307	 0.133698163481696 
2308	 0.133686382985459 
2309	 0.133686131953796 
2310	 0.133671915822881 
2311	 0.133613573289617 
2312	 0.133621536705817 
2313	 0.133688631058299 
2314	 0.133694184577575 
2315	 0.133694372778199 
2316	 0.13368575144972 
2317	 0.133623839199542 
2318	 0.133601974299352 
2319	 0.13360830849272 
2320	 0.133618100087257 
2321	 0.133632949778701 
2322	 0.133649845105738 
2323	 0.133676375653176 
2324	 0.133714009274647 
2325	 0.133768780937788 
2326	 0.133810783856809 
2327	 0.133880161667 
2328	 0.133901689310321 
2329	 0.133884211733012 
2330	 0.13384813807325 
2331	 0.133767517372701 
2332	 0.133706345685428 
2333	 0.133690516999201 
2334	 0.133692896362881 
2335	 0.133732608448869 
2336	 0.133726357898919 
2337	 0.133690336939388 
2338	 0.133674430601163 
2339	 0.133701081441426 
2340	 0.133749594073745 
2341	 0.133746636430678 
2342	 0.13374624115007 
2343	 0.133699085217272 
2344	 0.133691245665181 
2345	 0.133685223099006 
2346	 0.133715093191839 
2347	 0.133683722655038 
2348	 0.133614834162113 
2349	 0.133584177997097 
2350	 0.133573405313928 
2351	 0.133540802900427 
2352	 0.133505906655424 
2353	 0.133466419174769 
2354	 0.133383522904715 
2355	 0.133355684705757 
2356	 0.133414266553168 
2357	 0.133363688348456 
2358	 0.133252001846008 
2359	 0.133179414440762 
2360	 0.133049313734611 
2361	 0.132980431617326 
2362	 0.132980218002195 
2363	 0.132944272626623 
2364	 0.132904014918631 
2365	 0.132852237334958 
2366	 0.132790505301872 
2367	 0.132758184106187 
2368	 0.132740458160131 
2369	 0.132703240555607 
2370	 0.132682750287329 
2371	 0.132639109418589 
2372	 0.132542945553938 
2373	 0.132472946620307 
2374	 0.132406620282486 
2375	 0.132344534019202 
2376	 0.132271746252643 
2377	 0.132176459181594 
2378	 0.132091914558623 
2379	 0.132000575244999 
2380	 0.13191989253111 
2381	 0.131892994420805 
2382	 0.131865088005518 
2383	 0.131768432891184 
2384	 0.13170415325186 
2385	 0.131596691784184 
2386	 0.131461112062067 
2387	 0.131383942424824 
2388	 0.131266729629745 
2389	 0.131190801747449 
2390	 0.131152176693114 
2391	 0.131125626115668 
2392	 0.131112994466881 
2393	 0.131102802889743 
2394	 0.131039851134323 
2395	 0.130896735385842 
2396	 0.130800572084866 
2397	 0.130685112536323 
2398	 0.130600508053339 
2399	 0.130621668823453 
2400	 0.13064863753843 
2401	 0.130639288555305 
2402	 0.130576036587606 
2403	 0.130505407939358 
2404	 0.130376029827854 
2405	 0.130269329634748 
2406	 0.130278434573282 
2407	 0.130234855137434 
2408	 0.130175301865106 
2409	 0.130182953927833 
2410	 0.130101968361928 
2411	 0.129962660249962 
2412	 0.129890480954508 
2413	 0.129805103972246 
2414	 0.129831476063112 
2415	 0.129851424638877 
2416	 0.129750798811023 
2417	 0.129602118920774 
2418	 0.129455361893652 
2419	 0.129129024582077 
2420	 0.129009941360746 
2421	 0.129006116939611 
2422	 0.128980353430739 
2423	 0.129066042072451 
2424	 0.129017418797277 
2425	 0.128926739294267 
2426	 0.128841892169929 
2427	 0.128672575205406 
2428	 0.128523965978428 
2429	 0.128416200739132 
2430	 0.128269692227717 
2431	 0.128046144118427 
2432	 0.127917386402468 
2433	 0.127839491992212 
2434	 0.127741180002458 
2435	 0.127684807201926 
2436	 0.127528093018383 
2437	 0.127320371215111 
2438	 0.127170487629482 
2439	 0.127016084691717 
2440	 0.126885060659858 
2441	 0.126735783345195 
2442	 0.126692641001841 
2443	 0.126671950343794 
2444	 0.126663517990371 
2445	 0.126839581983986 
2446	 0.126844668787915 
2447	 0.12671114138425 
2448	 0.126636847865922 
2449	 0.126542008057735 
2450	 0.126423967117696 
2451	 0.126365002833509 
2452	 0.126201394396339 
2453	 0.125953236347637 
2454	 0.125797642699418 
2455	 0.125608986967285 
2456	 0.125408667435096 
2457	 0.12517833776145 
2458	 0.125008946935537 
2459	 0.124831995472149 
2460	 0.124730432993239 
2461	 0.124833420405164 
2462	 0.124807933733101 
2463	 0.12467991819285 
2464	 0.124573897197951 
2465	 0.12443756408638 
2466	 0.124274307173728 
2467	 0.124194506671696 
2468	 0.124092246671089 
2469	 0.123895308318236 
2470	 0.124036866083367 
2471	 0.123790786487522 
2472	 0.12372180198221 
2473	 0.123600641798124 
2474	 0.12326677927102 
2475	 0.123155849034976 
2476	 0.12301594156814 
2477	 0.123025265752423 
2478	 0.123088761603459 
2479	 0.123122566184355 
2480	 0.123159992137224 
2481	 0.123130679906726 
2482	 0.123037317179435 
2483	 0.122855405547112 
2484	 0.122836425493473 
2485	 0.122690149933781 
2486	 0.122486723557905 
2487	 0.122501564878732 
2488	 0.122349702028303 
2489	 0.122295421595171 
2490	 0.122513599308177 
2491	 0.122610471266446 
2492	 0.122595168437119 
2493	 0.122590116357157 
2494	 0.122318710141172 
2495	 0.121961548819861 
2496	 0.121821536904687 
2497	 0.121643788436072 
2498	 0.121565748056584 
2499	 0.121622501106354 
2500	 0.121533126954593 
