Wavelength	LMW_2400002.asd
350	 3.53213470140886E-02 
351	 4.97891286932311E-02 
352	 5.18753588485432E-02 
353	 4.20882802658437E-02 
354	 0.042225648042215 
355	 4.69477534382459E-02 
356	 4.95777499878554E-02 
357	 4.59239281205088E-02 
358	 0.042383259072244 
359	 4.11845562022391E-02 
360	 4.21848904166479E-02 
361	 4.37095971213959E-02 
362	 4.45102383086122E-02 
363	 4.62932276870171E-02 
364	 0.047350348125381 
365	 0.03939041878097 
366	 3.97336150039018E-02 
367	 4.39063315615127E-02 
368	 4.34964185544284E-02 
369	 4.00470046992213E-02 
370	 4.02492098339174E-02 
371	 4.35144682288245E-02 
372	 4.45636553921771E-02 
373	 4.69814403765393E-02 
374	 4.76147755948921E-02 
375	 4.56843793140794E-02 
376	 4.58654190703473E-02 
377	 0.044729778397296 
378	 4.37943009991789E-02 
379	 4.50177143723799E-02 
380	 4.61943576426036E-02 
381	 4.57932564302285E-02 
382	 4.50180842055415E-02 
383	 0.046772723227908 
384	 4.85207904542484E-02 
385	 4.83093884286733E-02 
386	 4.68914300900112E-02 
387	 0.050197386470413 
388	 5.06973024248609E-02 
389	 0.04829298010371 
390	 4.56657780463063E-02 
391	 4.56524315626604E-02 
392	 4.77018618118869E-02 
393	 5.03809928170958E-02 
394	 5.18376973856956E-02 
395	 5.22082782036221E-02 
396	 5.19845536612981E-02 
397	 5.18297393126084E-02 
398	 5.26815627645789E-02 
399	 5.29374461187886E-02 
400	 5.32552851415966E-02 
401	 5.45394583524816E-02 
402	 5.41917314556958E-02 
403	 5.35121393307203E-02 
404	 5.35944219319459E-02 
405	 5.49599878646748E-02 
406	 5.48749901262124E-02 
407	 5.47562841150419E-02 
408	 5.55601389857475E-02 
409	 5.48315217197976E-02 
410	 5.41333700211269E-02 
411	 5.41411128791525E-02 
412	 5.49710852812916E-02 
413	 5.63522595267395E-02 
414	 5.62422465556434E-02 
415	 5.48497005650267E-02 
416	 5.53162326224662E-02 
417	 5.58238518630184E-02 
418	 5.57762142700049E-02 
419	 5.53156685871385E-02 
420	 5.61661207149741E-02 
421	 5.58590251563861E-02 
422	 5.52129233486853E-02 
423	 5.67555676540842E-02 
424	 5.68292556383961E-02 
425	 5.60179633601458E-02 
426	 5.53248350402514E-02 
427	 0.055489056563892 
428	 5.54147991833371E-02 
429	 5.54843436849916E-02 
430	 5.61467116717292E-02 
431	 5.56821088673664E-02 
432	 5.54244796101552E-02 
433	 5.56678622016016E-02 
434	 5.56034156631613E-02 
435	 5.58119185547318E-02 
436	 5.57989030220315E-02 
437	 5.52792069656178E-02 
438	 5.49405373416865E-02 
439	 5.51341636036888E-02 
440	 5.56086534192602E-02 
441	 5.58141150663417E-02 
442	 5.55936477434378E-02 
443	 5.56147132063619E-02 
444	 5.60865611059883E-02 
445	 5.64489091199087E-02 
446	 5.64482691333321E-02 
447	 5.62918953224586E-02 
448	 5.62847834631661E-02 
449	 5.64237970389671E-02 
450	 5.66337334570171E-02 
451	 5.68400974079899E-02 
452	 5.69744489328157E-02 
453	 5.69351031165955E-02 
454	 5.69843982095161E-02 
455	 5.72799009518146E-02 
456	 5.76252106645639E-02 
457	 5.76595398042244E-02 
458	 5.75558356951612E-02 
459	 5.76707834574623E-02 
460	 5.76187278283782E-02 
461	 5.74823433225166E-02 
462	 5.74182579174354E-02 
463	 0.057635894538962 
464	 5.74849562470705E-02 
465	 5.74632925744339E-02 
466	 5.79881710329666E-02 
467	 5.77996227503336E-02 
468	 5.77883745821737E-02 
469	 5.80612014463672E-02 
470	 5.80726066999649E-02 
471	 5.80236004631988E-02 
472	 0.058057009753846 
473	 5.81909578368121E-02 
474	 5.81647141293778E-02 
475	 5.81662707205118E-02 
476	 5.81502079426125E-02 
477	 5.80316133791721E-02 
478	 5.81932782605715E-02 
479	 5.83890487322955E-02 
480	 5.84463953765132E-02 
481	 5.83632273248432E-02 
482	 5.85547369435589E-02 
483	 5.87952543825383E-02 
484	 5.87735447320486E-02 
485	 5.86096741665608E-02 
486	 5.85317329041749E-02 
487	 5.85834184786754E-02 
488	 0.058655031157099 
489	 5.88626571183121E-02 
490	 5.89727559475091E-02 
491	 5.88912841884164E-02 
492	 5.90219517679253E-02 
493	 5.89575669909957E-02 
494	 5.88178928200455E-02 
495	 5.89259178407886E-02 
496	 5.91313323315589E-02 
497	 5.92089539286301E-02 
498	 5.91146991443521E-02 
499	 5.90628524935346E-02 
500	 5.92896152295262E-02 
501	 5.93932060657592E-02 
502	 5.90534486359165E-02 
503	 5.91827600653596E-02 
504	 5.94035835145419E-02 
505	 5.95076369667823E-02 
506	 5.94922538655961E-02 
507	 5.94530581872083E-02 
508	 5.94603267296433E-02 
509	 5.95081615421264E-02 
510	 0.059378999510177 
511	 5.94995352269932E-02 
512	 5.97191868984934E-02 
513	 5.96411891838362E-02 
514	 5.96944345014447E-02 
515	 5.97539879223458E-02 
516	 5.97518883964052E-02 
517	 5.98244655193652E-02 
518	 5.99029403175377E-02 
519	 0.059909184984664 
520	 5.98215730601088E-02 
521	 5.99307139612359E-02 
522	 5.99739700057309E-02 
523	 5.98982373016481E-02 
524	 5.98974107129467E-02 
525	 5.98748675172335E-02 
526	 5.98754218936623E-02 
527	 5.99459612222062E-02 
528	 6.00540226570458E-02 
529	 6.01771695008358E-02 
530	 6.02588997323823E-02 
531	 6.02402184203839E-02 
532	 6.02933971521308E-02 
533	 6.03794213786587E-02 
534	 0.060438717614277 
535	 6.04239763184993E-02 
536	 6.04734307161501E-02 
537	 6.05637377341927E-02 
538	 6.06149261366558E-02 
539	 6.06518887277593E-02 
540	 6.06858087309385E-02 
541	 0.060747042427314 
542	 6.08943008544987E-02 
543	 6.09761578977372E-02 
544	 6.10473438506733E-02 
545	 6.11763239048843E-02 
546	 6.12433636127092E-02 
547	 6.12807495360613E-02 
548	 6.13413913747639E-02 
549	 6.14840795464243E-02 
550	 6.16047748507307E-02 
551	 6.16968321341678E-02 
552	 6.17809385307381E-02 
553	 6.18921364367097E-02 
554	 6.20423989330051E-02 
555	 6.22000989379825E-02 
556	 6.23221651068055E-02 
557	 6.24970173252727E-02 
558	 6.26998621967345E-02 
559	 6.29086777803843E-02 
560	 6.31367850845156E-02 
561	 6.32700553354884E-02 
562	 6.34101837554988E-02 
563	 6.36992623208598E-02 
564	 6.40575462226027E-02 
565	 6.43433797384382E-02 
566	 6.45747968808957E-02 
567	 6.49468056859791E-02 
568	 6.53076839588396E-02 
569	 6.55988407511053E-02 
570	 6.58157148510552E-02 
571	 6.60409649611214E-02 
572	 6.63334292919278E-02 
573	 6.66669709253477E-02 
574	 6.69644365014744E-02 
575	 6.73514375223603E-02 
576	 6.77896550404099E-02 
577	 6.82419364737845E-02 
578	 6.87293257925148E-02 
579	 6.92748764941311E-02 
580	 6.98312640559343E-02 
581	 7.03361444538883E-02 
582	 7.08720702247662E-02 
583	 7.13599304769229E-02 
584	 7.17870309348567E-02 
585	 7.22514658792471E-02 
586	 7.28258901719464E-02 
587	 7.34645155248536E-02 
588	 7.40871054491122E-02 
589	 7.46758550129021E-02 
590	 0.075180926252443 
591	 0.075621395391359 
592	 7.60735837810027E-02 
593	 7.63627804834592E-02 
594	 7.66614098669374E-02 
595	 7.71159871219252E-02 
596	 0.077621724210008 
597	 7.82407525816015E-02 
598	 7.89136130139428E-02 
599	 7.95356843831937E-02 
600	 8.02398417706645E-02 
601	 8.08377646374246E-02 
602	 8.12438332741604E-02 
603	 8.16126817504304E-02 
604	 8.19768684099046E-02 
605	 0.082402862826524 
606	 8.29194640101719E-02 
607	 8.33477127296507E-02 
608	 8.36806698747916E-02 
609	 8.39804469734765E-02 
610	 0.08437132915177 
611	 8.47104544801145E-02 
612	 8.50272113162196E-02 
613	 8.53639198016808E-02 
614	 8.56724665628906E-02 
615	 8.59099788098154E-02 
616	 8.61279971873304E-02 
617	 8.64288838229145E-02 
618	 8.66916242331216E-02 
619	 8.68857151311842E-02 
620	 8.70270879965451E-02 
621	 8.71908525561391E-02 
622	 8.74080705251645E-02 
623	 8.76295166614461E-02 
624	 8.77849634583033E-02 
625	 8.79366609478835E-02 
626	 8.80664018287195E-02 
627	 8.81933230699382E-02 
628	 8.83934050475692E-02 
629	 8.85451286277659E-02 
630	 0.088654854411051 
631	 8.87606223666839E-02 
632	 8.88665419033779E-02 
633	 8.89942859834528E-02 
634	 8.91371760887827E-02 
635	 8.92683339504657E-02 
636	 8.94371228111829E-02 
637	 8.95770171178361E-02 
638	 8.96520832307428E-02 
639	 8.97429719221664E-02 
640	 8.98667078038602E-02 
641	 9.00241450309869E-02 
642	 9.01972415794391E-02 
643	 9.03288187275812E-02 
644	 9.04525310655533E-02 
645	 9.05836690981326E-02 
646	 9.06972264166799E-02 
647	 9.07918383702387E-02 
648	 9.09035567063887E-02 
649	 9.10630793704749E-02 
650	 9.12361685719306E-02 
651	 9.13756366608446E-02 
652	 9.14991017992583E-02 
653	 0.091677171663013 
654	 9.18755424709058E-02 
655	 9.20597154602816E-02 
656	 0.092212508907529 
657	 0.092348760948147 
658	 9.25606873947941E-02 
659	 9.27982013251069E-02 
660	 0.092962187686197 
661	 0.093177850211207 
662	 9.33661117680245E-02 
663	 9.35150185124157E-02 
664	 9.37361816670611E-02 
665	 9.39679593240511E-02 
666	 9.41790012356682E-02 
667	 9.43689506920967E-02 
668	 9.46326856384456E-02 
669	 9.48749398975109E-02 
670	 0.095093289059451 
671	 9.53594039235064E-02 
672	 9.55753977957381E-02 
673	 9.58134944003513E-02 
674	 9.61122313359604E-02 
675	 9.63632619086556E-02 
676	 9.66051852343823E-02 
677	 9.68607489305954E-02 
678	 0.0971481059813 
679	 9.74854782737749E-02 
680	 9.78025906399551E-02 
681	 9.80743290719484E-02 
682	 0.098343411634076 
683	 0.098632487273001 
684	 9.89537822428334E-02 
685	 9.93017333403819E-02 
686	 9.96342472699405E-02 
687	 0.09992566648152 
688	 0.100212394870136 
689	 0.10056425191277 
690	 0.100892399433095 
691	 0.10120457166287 
692	 0.101528185711915 
693	 0.101907951643633 
694	 0.102234009951964 
695	 0.102556896572617 
696	 0.102954126191399 
697	 0.10329680438742 
698	 0.103646990864856 
699	 0.1040284482508 
700	 0.104412796992177 
701	 0.104757571219941 
702	 0.105132692976645 
703	 0.105564993953246 
704	 0.10588783099875 
705	 0.106216609822678 
706	 0.106579468826581 
707	 0.10695649270308 
708	 0.107343127333744 
709	 0.107723576292701 
710	 0.108094483758708 
711	 0.108473818681761 
712	 0.108823469285339 
713	 0.109170087509936 
714	 0.109546001639595 
715	 0.109936099263285 
716	 0.110272245025806 
717	 0.110580034611699 
718	 0.110943776210339 
719	 0.111275116646564 
720	 0.111579259853536 
721	 0.111871786846802 
722	 0.112157318252341 
723	 0.112481069586896 
724	 0.112827078559756 
725	 0.113152366041054 
726	 0.113409614684654 
727	 0.113631251697798 
728	 0.113855351113875 
729	 0.11411476618151 
730	 0.114339734754629 
731	 0.114537002167971 
732	 0.114723476762203 
733	 0.114901979885866 
734	 0.115086370816688 
735	 0.115258550691971 
736	 0.115394043798558 
737	 0.115519259018181 
738	 0.115641332911494 
739	 0.115761380008219 
740	 0.11587479819887 
741	 0.11595926117961 
742	 0.116006157546473 
743	 0.116024840326083 
744	 0.116061128886556 
745	 0.116088917988627 
746	 0.116103797441632 
747	 0.116109063157024 
748	 0.116092024063331 
749	 0.116037399923432 
750	 0.115963639000543 
751	 0.115927435208466 
752	 0.115865999601876 
753	 0.115793823697547 
754	 0.11572986072912 
755	 0.115654844204518 
756	 0.115551167221674 
757	 0.115424474973075 
758	 0.115293085864897 
759	 0.115168483886929 
760	 0.11498665000732 
761	 0.114772748151293 
762	 0.114666355428636 
763	 0.114507337878236 
764	 0.114309490592669 
765	 0.114120043277434 
766	 0.113960063795051 
767	 0.11376271765617 
768	 0.113559125320403 
769	 0.11340940627398 
770	 0.113194798057482 
771	 0.112979677721028 
772	 0.112779933880573 
773	 0.112536007093387 
774	 0.112324757599352 
775	 0.112122817473308 
776	 0.111896741795728 
777	 0.111645429799735 
778	 0.111428238803066 
779	 0.111238189935926 
780	 0.111031798857517 
781	 0.11076073893073 
782	 0.110510253441009 
783	 0.110297802135644 
784	 0.110060520385709 
785	 0.10984117547661 
786	 0.109612101094557 
787	 0.109363640617064 
788	 0.109163712596866 
789	 0.108933697578412 
790	 0.108690161803274 
791	 0.108466185878481 
792	 0.108173654182196 
793	 0.107927856766701 
794	 0.107746898113839 
795	 0.107555638208404 
796	 0.107324490672531 
797	 0.107099435767066 
798	 0.106901294987348 
799	 0.106679405914383 
800	 0.106479749507231 
801	 0.106279521249146 
802	 0.106053572818434 
803	 0.10585407608849 
804	 0.105630918702394 
805	 0.105400240500257 
806	 0.105215648040654 
807	 0.105058383932964 
808	 0.104884835872965 
809	 0.104691158154527 
810	 0.104526297427914 
811	 0.104328822822834 
812	 0.104131601066091 
813	 0.103969202246564 
814	 0.103824173489293 
815	 0.10367357374327 
816	 0.103523220626398 
817	 0.103384949898811 
818	 0.103226109204198 
819	 0.103075073302267 
820	 0.102920505118283 
821	 0.10272398173727 
822	 0.102572798286769 
823	 0.102449622783051 
824	 0.102329650089752 
825	 0.102204410546146 
826	 0.102088410599765 
827	 0.101971663941341 
828	 0.101844678551595 
829	 0.10172016219357 
830	 0.101592649730828 
831	 0.101485541689089 
832	 0.10141910890849 
833	 0.101309431852037 
834	 0.101231210144233 
835	 0.101154925798515 
836	 0.10096708129488 
837	 0.100925837541129 
838	 0.100919310829061 
839	 0.100854023358696 
840	 0.10077621020556 
841	 0.100679924025643 
842	 0.100590964678391 
843	 0.100534156619347 
844	 0.10051368829435 
845	 0.100456751587378 
846	 0.10037218891226 
847	 0.100309944900049 
848	 0.100300094008973 
849	 0.100260901767799 
850	 0.100197945402129 
851	 0.100186821107712 
852	 0.100146279625808 
853	 0.100091823601684 
854	 0.100046990454279 
855	 0.100025697039247 
856	 0.100052458408549 
857	 0.100097201872744 
858	 0.100115227040625 
859	 0.100054061918815 
860	 0.100035428491477 
861	 0.100061739397698 
862	 0.100086281832209 
863	 0.100064403868894 
864	 0.100077939013513 
865	 0.100127430234692 
866	 0.100161156308387 
867	 0.100172054893468 
868	 0.100173970982749 
869	 0.100172417695659 
870	 0.10016837548881 
871	 0.100268079191915 
872	 0.100378292732174 
873	 0.10043639447012 
874	 0.100485555387976 
875	 0.100492071679601 
876	 0.100510130338939 
877	 0.100577515499256 
878	 0.100633102318069 
879	 0.100713958410377 
880	 0.100784126513058 
881	 0.100812573312216 
882	 0.100883574653643 
883	 0.10102429967932 
884	 0.10117270675301 
885	 0.101243113482966 
886	 0.101332474096876 
887	 0.101425776118445 
888	 0.101526271466751 
889	 0.101655986497145 
890	 0.101812849947565 
891	 0.10191559613872 
892	 0.101978637833209 
893	 0.102134494899924 
894	 0.102235090736289 
895	 0.10232976263041 
896	 0.102469780952596 
897	 0.102639895625524 
898	 0.102788857186975 
899	 0.102924224590497 
900	 0.103064464819721 
901	 0.103205289474459 
902	 0.103367079708627 
903	 0.103537968539501 
904	 0.10369353191094 
905	 0.103806666332205 
906	 0.103954154045322 
907	 0.104162593058642 
908	 0.104415112043538 
909	 0.104647564276845 
910	 0.104797104021148 
911	 0.104944446013483 
912	 0.105221649455351 
913	 0.105430457634852 
914	 0.105650313380134 
915	 0.105890430640653 
916	 0.106088857096912 
917	 0.10632505779072 
918	 0.106543182531899 
919	 0.106710713949411 
920	 0.106852714257855 
921	 0.107135056706137 
922	 0.107431815620304 
923	 0.107670051500306 
924	 0.107932477049723 
925	 0.108214348081341 
926	 0.108510886696882 
927	 0.108786376177845 
928	 0.1089559746965 
929	 0.109182100878778 
930	 0.109499613873513 
931	 0.109868764072126 
932	 0.110173029242695 
933	 0.110486472730311 
934	 0.110783748482694 
935	 0.111053606472157 
936	 0.111411080362212 
937	 0.111708877853924 
938	 0.112011273981639 
939	 0.112400175512265 
940	 0.112768378116845 
941	 0.113058970460694 
942	 0.113352092345833 
943	 0.113726406302674 
944	 0.114017074571128 
945	 0.114301664000162 
946	 0.11465811963535 
947	 0.115098635470539 
948	 0.115376718805217 
949	 0.1157232363927 
950	 0.116098992954865 
951	 0.116378788886684 
952	 0.116785230747916 
953	 0.117217024118991 
954	 0.117617236605027 
955	 0.117976548190065 
956	 0.11833351567397 
957	 0.118761801707572 
958	 0.119182784542498 
959	 0.11947672933212 
960	 0.119839757120645 
961	 0.120304219265193 
962	 0.120774803741499 
963	 0.121122952946718 
964	 0.12149672173551 
965	 0.121900446985397 
966	 0.122319175394707 
967	 0.122730239783877 
968	 0.123112382673955 
969	 0.123538153316006 
970	 0.123947087686086 
971	 0.124252029220471 
972	 0.124802121745418 
973	 0.125258716576621 
974	 0.125583076619314 
975	 0.125979481328933 
976	 0.126560511321427 
977	 0.12707227985468 
978	 0.127433405558809 
979	 0.127725052409263 
980	 0.128091454718822 
981	 0.128437551703622 
982	 0.128812050084086 
983	 0.129323084889046 
984	 0.129862782618419 
985	 0.130307580791538 
986	 0.130627787688935 
987	 0.130914855216844 
988	 0.131518222884333 
989	 0.131919319193393 
990	 0.132152272311791 
991	 0.132535784371937 
992	 0.133125782289252 
993	 0.133545484232741 
994	 0.133911449344872 
995	 0.134427754003616 
996	 0.134607930479816 
997	 0.135019078815943 
998	 0.135508288866664 
999	 0.135792545359416 
1000	 0.136231785327614 
1001	 0.133488705543718 
1002	 0.133741344132633 
1003	 0.134021941862319 
1004	 0.134338069607378 
1005	 0.134717537827479 
1006	 0.135043673357474 
1007	 0.135383524085018 
1008	 0.135685849609493 
1009	 0.135947870877458 
1010	 0.136150129798345 
1011	 0.136390333653114 
1012	 0.136663942449502 
1013	 0.136900462505332 
1014	 0.137178783577759 
1015	 0.137416976018367 
1016	 0.13762318847094 
1017	 0.137891632900536 
1018	 0.138206597638047 
1019	 0.138486696302036 
1020	 0.138720337498716 
1021	 0.138968314314795 
1022	 0.139129007497923 
1023	 0.139260633573216 
1024	 0.139494259706509 
1025	 0.13972421843459 
1026	 0.139961433103498 
1027	 0.140223030681474 
1028	 0.140403224374138 
1029	 0.140610151634768 
1030	 0.140838975395223 
1031	 0.141028911332774 
1032	 0.141195675648117 
1033	 0.141391005085032 
1034	 0.141579949714382 
1035	 0.141768514259694 
1036	 0.141982834343159 
1037	 0.142205614516968 
1038	 0.142371600635521 
1039	 0.142527663474835 
1040	 0.142710117200315 
1041	 0.142869296561013 
1042	 0.143065781770531 
1043	 0.143254918063289 
1044	 0.143431741255593 
1045	 0.143575983100036 
1046	 0.143775564685546 
1047	 0.143985475059126 
1048	 0.144151407136863 
1049	 0.14430909463458 
1050	 0.144464586277226 
1051	 0.144609794110393 
1052	 0.144772431676842 
1053	 0.144978617361931 
1054	 0.145210570497713 
1055	 0.145410993311634 
1056	 0.145589949747871 
1057	 0.145759953439836 
1058	 0.145912359349644 
1059	 0.146043841271795 
1060	 0.146149568007181 
1061	 0.146266216857067 
1062	 0.146396482141557 
1063	 0.146506587445557 
1064	 0.14663016252563 
1065	 0.1468057959164 
1066	 0.146973201649966 
1067	 0.147088723246483 
1068	 0.147183186358902 
1069	 0.147262233107827 
1070	 0.147348768780871 
1071	 0.147402911344255 
1072	 0.147497532019762 
1073	 0.147645898715675 
1074	 0.147732935199363 
1075	 0.147808691477838 
1076	 0.147850407726803 
1077	 0.147857876458624 
1078	 0.147903625080927 
1079	 0.147982999466209 
1080	 0.148087601949383 
1081	 0.148177437403835 
1082	 0.14822934099785 
1083	 0.148288497993493 
1084	 0.148308431822954 
1085	 0.148378116436385 
1086	 0.148508398172433 
1087	 0.148548625986437 
1088	 0.148563462331536 
1089	 0.148568959350248 
1090	 0.148537638723761 
1091	 0.148558974424171 
1092	 0.148655843165496 
1093	 0.148710725449497 
1094	 0.14873725968015 
1095	 0.148828082107554 
1096	 0.148901215964763 
1097	 0.148952749443519 
1098	 0.149027576900251 
1099	 0.149113444355294 
1100	 0.14920157098241 
1101	 0.149302294547454 
1102	 0.149405014587781 
1103	 0.149535107887035 
1104	 0.149617372031152 
1105	 0.149690451876281 
1106	 0.149746835326754 
1107	 0.149809173305303 
1108	 0.149886999931152 
1109	 0.149956701297014 
1110	 0.150066042342847 
1111	 0.150181444265997 
1112	 0.150305653922337 
1113	 0.150425063527491 
1114	 0.15057204690117 
1115	 0.150695807208985 
1116	 0.150797440765993 
1117	 0.150915493263022 
1118	 0.151035271521592 
1119	 0.151155533197258 
1120	 0.151290993614347 
1121	 0.151429082614127 
1122	 0.151581621796491 
1123	 0.151758062678255 
1124	 0.15192336424609 
1125	 0.152099598439809 
1126	 0.15225102694925 
1127	 0.152395324665603 
1128	 0.152533778559736 
1129	 0.152653071105894 
1130	 0.152790456303943 
1131	 0.15293132933052 
1132	 0.153068000508576 
1133	 0.153204802356585 
1134	 0.153344370165876 
1135	 0.153482626272323 
1136	 0.153619842473487 
1137	 0.153786720745628 
1138	 0.153965395234802 
1139	 0.154098174791806 
1140	 0.154222050220242 
1141	 0.15434068430478 
1142	 0.154409541606535 
1143	 0.154518139428131 
1144	 0.154661243574291 
1145	 0.154775841312892 
1146	 0.154889754082296 
1147	 0.154992646142654 
1148	 0.155080122518342 
1149	 0.155165154399098 
1150	 0.15523923916754 
1151	 0.155318863911697 
1152	 0.155397513204283 
1153	 0.155471994653599 
1154	 0.155550590555699 
1155	 0.155631177779116 
1156	 0.155714063895896 
1157	 0.155798319212673 
1158	 0.155882139157501 
1159	 0.155975563262817 
1160	 0.156055375486733 
1161	 0.156130245832805 
1162	 0.156200623907837 
1163	 0.156258863263142 
1164	 0.156323062630506 
1165	 0.1563872712842 
1166	 0.156452067562176 
1167	 0.156510051123583 
1168	 0.156567970268816 
1169	 0.156630565918722 
1170	 0.156687448065891 
1171	 0.156752282206727 
1172	 0.156839203321776 
1173	 0.156895811221294 
1174	 0.156935878672477 
1175	 0.156983317951464 
1176	 0.157017375804292 
1177	 0.157058873812992 
1178	 0.157117715538022 
1179	 0.157158238996501 
1180	 0.157181457490122 
1181	 0.157212691693557 
1182	 0.157235067632194 
1183	 0.157264703655364 
1184	 0.157304156950536 
1185	 0.157353602946848 
1186	 0.157406638535517 
1187	 0.157474739065051 
1188	 0.157524505546222 
1189	 0.157574706053002 
1190	 0.157617654208381 
1191	 0.157643437106022 
1192	 0.157678931327204 
1193	 0.157709006404236 
1194	 0.157754778531686 
1195	 0.157820955800901 
1196	 0.157868820935994 
1197	 0.157924594376797 
1198	 0.157967207927169 
1199	 0.157998990525552 
1200	 0.158010102759928 
1201	 0.158030946276062 
1202	 0.158041163167884 
1203	 0.158074539806002 
1204	 0.158113355896467 
1205	 0.158157937329804 
1206	 0.158236367069955 
1207	 0.158275262522819 
1208	 0.158286054889586 
1209	 0.158318883433259 
1210	 0.158346875299629 
1211	 0.158374161764871 
1212	 0.158423909041079 
1213	 0.158455076146353 
1214	 0.158460776274604 
1215	 0.158477560534928 
1216	 0.158495879629466 
1217	 0.158512756127362 
1218	 0.158535500748458 
1219	 0.158559820936083 
1220	 0.158594549184179 
1221	 0.158640488219558 
1222	 0.158676694738776 
1223	 0.158712282874621 
1224	 0.158756455095519 
1225	 0.158803514472715 
1226	 0.158844604328425 
1227	 0.158894024452569 
1228	 0.158937806145209 
1229	 0.158975391549909 
1230	 0.159006141413157 
1231	 0.15902908143739 
1232	 0.159059543231668 
1233	 0.159089618241486 
1234	 0.159113008841064 
1235	 0.159139894638632 
1236	 0.159177102486518 
1237	 0.159203670300962 
1238	 0.159215699825232 
1239	 0.159242826662598 
1240	 0.159285012559376 
1241	 0.15930792953201 
1242	 0.159322855908518 
1243	 0.159344071359288 
1244	 0.15935071947945 
1245	 0.15937093802268 
1246	 0.15941175383339 
1247	 0.159441350217489 
1248	 0.159479499927291 
1249	 0.159490975076827 
1250	 0.15951112375065 
1251	 0.159543798323981 
1252	 0.15956687422482 
1253	 0.159590306047697 
1254	 0.159616366808462 
1255	 0.159634912915669 
1256	 0.159663178163717 
1257	 0.159709951479113 
1258	 0.159732219108243 
1259	 0.159745481713407 
1260	 0.15976158876705 
1261	 0.159756655733996 
1262	 0.15977217613952 
1263	 0.159806901392985 
1264	 0.159828610105258 
1265	 0.159840997628692 
1266	 0.159867632187559 
1267	 0.159902612821651 
1268	 0.15993491034183 
1269	 0.159957606912862 
1270	 0.159980553582287 
1271	 0.160020438949377 
1272	 0.160057242782896 
1273	 0.160094525216553 
1274	 0.160152471663929 
1275	 0.16019966269457 
1276	 0.160224845962931 
1277	 0.160266135282166 
1278	 0.160321395980678 
1279	 0.160379992726095 
1280	 0.16043860721749 
1281	 0.160503511783116 
1282	 0.160597831357581 
1283	 0.160659136521396 
1284	 0.160703502711261 
1285	 0.16074470611572 
1286	 0.160775607429267 
1287	 0.160811410892277 
1288	 0.160851248661241 
1289	 0.160905229805863 
1290	 0.16094604162755 
1291	 0.160987222428428 
1292	 0.161004367244667 
1293	 0.161011325459181 
1294	 0.161011303657752 
1295	 0.160986386354438 
1296	 0.160975977893553 
1297	 0.160977170803059 
1298	 0.160954448066737 
1299	 0.160922661668007 
1300	 0.160885837542273 
1301	 0.160834624349409 
1302	 0.160782865792957 
1303	 0.160730848581578 
1304	 0.160667210278537 
1305	 0.160612251777842 
1306	 0.160537359894508 
1307	 0.160458908055591 
1308	 0.160377295022042 
1309	 0.160299244986135 
1310	 0.160208618547906 
1311	 0.160134513563744 
1312	 0.160079830160028 
1313	 0.160010251982317 
1314	 0.159931000823159 
1315	 0.159866487954108 
1316	 0.159799878692462 
1317	 0.159741819753165 
1318	 0.159689324030242 
1319	 0.159654117265629 
1320	 0.159639799766128 
1321	 0.159611471483822 
1322	 0.159578942197942 
1323	 0.159565993156482 
1324	 0.159560510298019 
1325	 0.159554456639623 
1326	 0.159586415589956 
1327	 0.159622686391765 
1328	 0.159622139234898 
1329	 0.159642326370603 
1330	 0.159675938824375 
1331	 0.15971301684332 
1332	 0.159758316827558 
1333	 0.159823735923906 
1334	 0.159884256571174 
1335	 0.159939399371741 
1336	 0.160010072218923 
1337	 0.160094819900125 
1338	 0.16017667951643 
1339	 0.160261109648651 
1340	 0.160349261917787 
1341	 0.160450970973415 
1342	 0.160540156130632 
1343	 0.160621878977456 
1344	 0.1607142419331 
1345	 0.160795527749415 
1346	 0.160852979270102 
1347	 0.160925009798551 
1348	 0.160989475480057 
1349	 0.161036313201111 
1350	 0.161072765096192 
1351	 0.16110185773467 
1352	 0.161105013165376 
1353	 0.161132890618804 
1354	 0.16116465003164 
1355	 0.161200920082034 
1356	 0.161252967693336 
1357	 0.161297254808257 
1358	 0.161328105074909 
1359	 0.161384258053987 
1360	 0.161439788457806 
1361	 0.161517043786325 
1362	 0.161622488530885 
1363	 0.161724953292184 
1364	 0.161830069888408 
1365	 0.161953888900269 
1366	 0.16209726625411 
1367	 0.162232966203201 
1368	 0.16237156430765 
1369	 0.162521476699577 
1370	 0.162643586485277 
1371	 0.162752592477343 
1372	 0.162846681143069 
1373	 0.162926009395928 
1374	 0.162988720823493 
1375	 0.163035053204693 
1376	 0.163055972961043 
1377	 0.163062103906411 
1378	 0.163042657763111 
1379	 0.162979396822673 
1380	 0.162944802129729 
1381	 0.162881720405669 
1382	 0.162867425811739 
1383	 0.16288844137487 
1384	 0.162902520162846 
1385	 0.162955059773564 
1386	 0.162976291819883 
1387	 0.162977092871016 
1388	 0.162980423360905 
1389	 0.162984603478954 
1390	 0.162977680538768 
1391	 0.162943412191891 
1392	 0.16289705819367 
1393	 0.162792429109911 
1394	 0.162672596513677 
1395	 0.162570570851707 
1396	 0.162474287087115 
1397	 0.162405633334022 
1398	 0.16237861636304 
1399	 0.162314853223266 
1400	 0.162258827074795 
1401	 0.162180999141888 
1402	 0.162068931108098 
1403	 0.161983160031717 
1404	 0.161889737537006 
1405	 0.161820359816915 
1406	 0.161785760376923 
1407	 0.161724834504802 
1408	 0.161664314384382 
1409	 0.161603392807249 
1410	 0.161513079342783 
1411	 0.16145062794162 
1412	 0.161408673982832 
1413	 0.161363765046321 
1414	 0.161324018888672 
1415	 0.161307271702406 
1416	 0.161271019799502 
1417	 0.161237366043778 
1418	 0.161205598025955 
1419	 0.161164899938318 
1420	 0.161148075356511 
1421	 0.161138402336604 
1422	 0.161131135682165 
1423	 0.161118634618874 
1424	 0.161092340647035 
1425	 0.161050337028439 
1426	 0.161013873891189 
1427	 0.160956978235028 
1428	 0.160940498849076 
1429	 0.160940438302875 
1430	 0.160939239036349 
1431	 0.160973934399192 
1432	 0.160975912219823 
1433	 0.160955768462584 
1434	 0.160952016007137 
1435	 0.160938612570922 
1436	 0.160936302516778 
1437	 0.160953362440948 
1438	 0.160958307385335 
1439	 0.160960761542129 
1440	 0.160965881729182 
1441	 0.160956899914748 
1442	 0.160950883221677 
1443	 0.160942398783089 
1444	 0.1609360420436 
1445	 0.160964896918493 
1446	 0.160984512287474 
1447	 0.160994194525879 
1448	 0.161011604949307 
1449	 0.160992356892482 
1450	 0.160974048075721 
1451	 0.160981022547556 
1452	 0.161000396416805 
1453	 0.161019849905368 
1454	 0.161057927381952 
1455	 0.161087806331436 
1456	 0.161121877785672 
1457	 0.161140739137592 
1458	 0.161155145191714 
1459	 0.16116945926466 
1460	 0.16115409245298 
1461	 0.161174207746794 
1462	 0.161225737842048 
1463	 0.161256556976166 
1464	 0.161303916628302 
1465	 0.161332433442294 
1466	 0.161330115767475 
1467	 0.161345748505558 
1468	 0.161353189411365 
1469	 0.161378804930065 
1470	 0.161424860793513 
1471	 0.161468746681894 
1472	 0.161513533694622 
1473	 0.161546239296825 
1474	 0.161551184711582 
1475	 0.161559883796771 
1476	 0.16156578832202 
1477	 0.161584220764364 
1478	 0.161641469592695 
1479	 0.161699837095524 
1480	 0.161757682231889 
1481	 0.161814089788002 
1482	 0.161856199213207 
1483	 0.16187187469221 
1484	 0.161916146442797 
1485	 0.161970414635259 
1486	 0.162016292889855 
1487	 0.162070547860341 
1488	 0.16211700898569 
1489	 0.162153773379058 
1490	 0.162195034460607 
1491	 0.162242129940691 
1492	 0.162279067848268 
1493	 0.162303745890267 
1494	 0.162341601201898 
1495	 0.162378577798761 
1496	 0.162423019989229 
1497	 0.162485519676025 
1498	 0.162530388209721 
1499	 0.16258020877695 
1500	 0.162610745053482 
1501	 0.162619924378767 
1502	 0.162633756564609 
1503	 0.162631429610593 
1504	 0.162636995193045 
1505	 0.162666930812226 
1506	 0.162703366095144 
1507	 0.162754790228041 
1508	 0.162794659883923 
1509	 0.162814151689203 
1510	 0.162832185363412 
1511	 0.162837138141376 
1512	 0.162842219631439 
1513	 0.162859400185786 
1514	 0.162883249596055 
1515	 0.162930638485243 
1516	 0.162981523773681 
1517	 0.163008220536506 
1518	 0.163024692114206 
1519	 0.16304756844433 
1520	 0.163052488639193 
1521	 0.163071481943027 
1522	 0.163101148215413 
1523	 0.163138369841283 
1524	 0.163180749699025 
1525	 0.16321550726103 
1526	 0.163272878569246 
1527	 0.163294432989614 
1528	 0.163277051700592 
1529	 0.163291787068281 
1530	 0.163308668752917 
1531	 0.163324621674987 
1532	 0.163360138125296 
1533	 0.163377297294144 
1534	 0.163369373163421 
1535	 0.163382883509621 
1536	 0.163403952127847 
1537	 0.163427680824356 
1538	 0.163468527481508 
1539	 0.163497674116855 
1540	 0.163515621842589 
1541	 0.163541674172436 
1542	 0.163573760782335 
1543	 0.163598036860972 
1544	 0.163623436043451 
1545	 0.163645830838102 
1546	 0.163655417111749 
1547	 0.163675437855636 
1548	 0.163693854529163 
1549	 0.16371762330482 
1550	 0.163758229023684 
1551	 0.163773644004031 
1552	 0.16378481245308 
1553	 0.163793695983829 
1554	 0.163782335200996 
1555	 0.163775982916627 
1556	 0.1637716189808 
1557	 0.163793723267091 
1558	 0.163822188537006 
1559	 0.163817352314757 
1560	 0.163813992890616 
1561	 0.163800266445119 
1562	 0.163789673442847 
1563	 0.163767092391966 
1564	 0.163765152418655 
1565	 0.163768193097755 
1566	 0.163781900360533 
1567	 0.163811670243267 
1568	 0.163832044360975 
1569	 0.163862336963796 
1570	 0.163878415383717 
1571	 0.163891297840499 
1572	 0.163890440055798 
1573	 0.163870453277698 
1574	 0.163865809264959 
1575	 0.163850412964843 
1576	 0.163852125861267 
1577	 0.163878789357626 
1578	 0.163886649623769 
1579	 0.163885860523965 
1580	 0.163895256224291 
1581	 0.163907626548733 
1582	 0.163912394981595 
1583	 0.163917284737398 
1584	 0.163929181983738 
1585	 0.163932490600487 
1586	 0.163945482005115 
1587	 0.163980390862733 
1588	 0.163995180134614 
1589	 0.163999192041284 
1590	 0.164007886928853 
1591	 0.164013645021963 
1592	 0.164016873964918 
1593	 0.16402931652843 
1594	 0.164024368729027 
1595	 0.163995928426406 
1596	 0.163980740282501 
1597	 0.163958606230752 
1598	 0.163946211345488 
1599	 0.163956036920887 
1600	 0.163949946058658 
1601	 0.163918821244866 
1602	 0.163920571866855 
1603	 0.16393930126145 
1604	 0.163952477689346 
1605	 0.163999612088452 
1606	 0.164022134488932 
1607	 0.164025558204776 
1608	 0.164020619606696 
1609	 0.164012848364691 
1610	 0.16399740604107 
1611	 0.163984751874212 
1612	 0.163974653428273 
1613	 0.163967087129183 
1614	 0.1639649346978 
1615	 0.16395967146926 
1616	 0.163959955133963 
1617	 0.163969092077567 
1618	 0.163976668031234 
1619	 0.163993515147045 
1620	 0.164002652781713 
1621	 0.164007178173695 
1622	 0.164007205762477 
1623	 0.164009455397557 
1624	 0.164006270287286 
1625	 0.164008925494379 
1626	 0.16401052617801 
1627	 0.164022384221914 
1628	 0.16404145179869 
1629	 0.164055301363165 
1630	 0.164075903376449 
1631	 0.164092261817571 
1632	 0.164106615102452 
1633	 0.164112018645306 
1634	 0.164119161572364 
1635	 0.16411378315608 
1636	 0.164089246035298 
1637	 0.164078770532554 
1638	 0.164068979189885 
1639	 0.164059953883552 
1640	 0.164057675375554 
1641	 0.164046628839248 
1642	 0.164031830462274 
1643	 0.164015952346391 
1644	 0.163987997064421 
1645	 0.163981550018101 
1646	 0.163988139020487 
1647	 0.163983509153349 
1648	 0.163983937335878 
1649	 0.163986712001137 
1650	 0.163988697413882 
1651	 0.163978676294864 
1652	 0.163967484608215 
1653	 0.163961760707578 
1654	 0.163937352441465 
1655	 0.163935787072336 
1656	 0.163969247135562 
1657	 0.163963932392973 
1658	 0.163940164073656 
1659	 0.163928235342599 
1660	 0.163894208613242 
1661	 0.163891672996086 
1662	 0.163922768146854 
1663	 0.163925114011945 
1664	 0.16392815806833 
1665	 0.163922861891836 
1666	 0.163896045224736 
1667	 0.163884353268518 
1668	 0.163876583208779 
1669	 0.163872912174375 
1670	 0.163874371016672 
1671	 0.163874723308179 
1672	 0.163875466537298 
1673	 0.163883994687173 
1674	 0.163900019992859 
1675	 0.163907530394211 
1676	 0.1639221941357 
1677	 0.163924628206435 
1678	 0.163917542402165 
1679	 0.163905252178296 
1680	 0.16387753180154 
1681	 0.163868991115204 
1682	 0.163859309859287 
1683	 0.163859584645225 
1684	 0.163881774549986 
1685	 0.163889817074094 
1686	 0.163888977086548 
1687	 0.163898099794808 
1688	 0.163905194701987 
1689	 0.163926334562916 
1690	 0.163976693053811 
1691	 0.163986659480631 
1692	 0.163982620441751 
1693	 0.16398065669711 
1694	 0.163951689965198 
1695	 0.163939062673566 
1696	 0.163943312482481 
1697	 0.163932226443002 
1698	 0.163895368470286 
1699	 0.163899144641014 
1700	 0.163928782011694 
1701	 0.163942691614384 
1702	 0.16398243421485 
1703	 0.163989864767519 
1704	 0.163956487296337 
1705	 0.163956860432553 
1706	 0.163970348176991 
1707	 0.163973410814837 
1708	 0.163989209301029 
1709	 0.16399007411287 
1710	 0.163973285178555 
1711	 0.163961363669932 
1712	 0.163946579103774 
1713	 0.163937555188786 
1714	 0.163925394869979 
1715	 0.163923420692957 
1716	 0.163925422093037 
1717	 0.163940517875803 
1718	 0.163970667718702 
1719	 0.163987435693387 
1720	 0.164020078912273 
1721	 0.164024654242119 
1722	 0.16401652881916 
1723	 0.163988479299922 
1724	 0.163925802024463 
1725	 0.163894349880743 
1726	 0.163858071967002 
1727	 0.163829875998572 
1728	 0.163822244776532 
1729	 0.163807947183494 
1730	 0.163782725016444 
1731	 0.163775695187779 
1732	 0.163785569477665 
1733	 0.163788442429459 
1734	 0.163804670802917 
1735	 0.163788359405127 
1736	 0.163758547448139 
1737	 0.163729765446426 
1738	 0.163676031100758 
1739	 0.163640908340391 
1740	 0.163611030662514 
1741	 0.163591744906494 
1742	 0.163584085814474 
1743	 0.163562067391154 
1744	 0.163547306769439 
1745	 0.163529255024773 
1746	 0.163494393119396 
1747	 0.163473591591007 
1748	 0.163453560702856 
1749	 0.163385512149035 
1750	 0.163347723545703 
1751	 0.163339302467002 
1752	 0.163307289330565 
1753	 0.163295125898701 
1754	 0.163278888544578 
1755	 0.163259249353258 
1756	 0.163251923278634 
1757	 0.163219335187956 
1758	 0.16320777846044 
1759	 0.163188501447819 
1760	 0.163161932119052 
1761	 0.163171060414706 
1762	 0.163159230914512 
1763	 0.163151411729297 
1764	 0.163144244218164 
1765	 0.163124009750128 
1766	 0.16313229824664 
1767	 0.163143155061082 
1768	 0.163137208809823 
1769	 0.163133859350964 
1770	 0.163121739904845 
1771	 0.163090622955045 
1772	 0.163062364548789 
1773	 0.163032978889105 
1774	 0.163019956441311 
1775	 0.163026093711994 
1776	 0.163014226095405 
1777	 0.163007195299583 
1778	 0.163015603927241 
1779	 0.163017616292224 
1780	 0.163027534983015 
1781	 0.163028089516804 
1782	 0.163019591170179 
1783	 0.163030845613736 
1784	 0.163024577731433 
1785	 0.163012773444124 
1786	 0.163019698169734 
1787	 0.163024541233793 
1788	 0.163016290158104 
1789	 0.163031960231177 
1790	 0.16302015227221 
1791	 0.162963573288188 
1792	 0.162948195249087 
1793	 0.162939308520095 
1794	 0.162933811239134 
1795	 0.162951528650431 
1796	 0.162962548248606 
1797	 0.162977539713143 
1798	 0.162991785725786 
1799	 0.163003916770132 
1800	 0.163004022177634 
1801	 0.161155400930853 
1802	 0.161348631774019 
1803	 0.161592309826926 
1804	 0.161850465422115 
1805	 0.162111392881167 
1806	 0.162315376948969 
1807	 0.162514756819368 
1808	 0.162699262214652 
1809	 0.162884017420993 
1810	 0.163005338479661 
1811	 0.163100598207719 
1812	 0.16317285024578 
1813	 0.163190778639553 
1814	 0.16320086648028 
1815	 0.163221911566246 
1816	 0.163247317166893 
1817	 0.163265979689173 
1818	 0.163263104770878 
1819	 0.163286899849563 
1820	 0.163333405532389 
1821	 0.163350286731001 
1822	 0.163382747370016 
1823	 0.163419868372789 
1824	 0.163407790478791 
1825	 0.163386342228321 
1826	 0.163350984093323 
1827	 0.163326131568243 
1828	 0.163312678604924 
1829	 0.163328979035796 
1830	 0.163313037184848 
1831	 0.163288425003209 
1832	 0.163264555247409 
1833	 0.163223816465367 
1834	 0.163180605513068 
1835	 0.16317943596194 
1836	 0.163152562927934 
1837	 0.16313355992114 
1838	 0.163168084440506 
1839	 0.163205805831136 
1840	 0.163258794281014 
1841	 0.163325091646077 
1842	 0.1634021845992 
1843	 0.163449767774887 
1844	 0.163483750155601 
1845	 0.16353074099309 
1846	 0.163572049344711 
1847	 0.163631488171492 
1848	 0.163691001780674 
1849	 0.163730682452287 
1850	 0.163779979035679 
1851	 0.163836226336172 
1852	 0.163872240581646 
1853	 0.163911177146551 
1854	 0.163972975224349 
1855	 0.164008606228743 
1856	 0.164035910392714 
1857	 0.164068550143045 
1858	 0.164068872177823 
1859	 0.164072389585646 
1860	 0.164057157643669 
1861	 0.164043282440254 
1862	 0.163965405774287 
1863	 0.163872208598 
1864	 0.163757536577189 
1865	 0.163607099304539 
1866	 0.163453976223879 
1867	 0.163313927011317 
1868	 0.163165002996285 
1869	 0.163032848013127 
1870	 0.162965532916626 
1871	 0.162916870194584 
1872	 0.162898622777589 
1873	 0.162915210607079 
1874	 0.162954064022022 
1875	 0.163008355129101 
1876	 0.163055650383888 
1877	 0.163088084430427 
1878	 0.163114116872774 
1879	 0.163071987931029 
1880	 0.162990719484596 
1881	 0.162874812433066 
1882	 0.162722829112564 
1883	 0.162517514893621 
1884	 0.162289275699301 
1885	 0.162049524916101 
1886	 0.161784025183092 
1887	 0.161503263032726 
1888	 0.161211234167131 
1889	 0.160918189627385 
1890	 0.160608392470316 
1891	 0.160278187751495 
1892	 0.159943773721353 
1893	 0.159583216514869 
1894	 0.159192687353355 
1895	 0.158785926989733 
1896	 0.158378170328711 
1897	 0.157928036304455 
1898	 0.157473042665661 
1899	 0.157020444992796 
1900	 0.156589206956725 
1901	 0.156192568968034 
1902	 0.155826342560398 
1903	 0.155511197361392 
1904	 0.155199071311102 
1905	 0.154908346345785 
1906	 0.154632540892624 
1907	 0.15436782280629 
1908	 0.154116817333029 
1909	 0.153875819506403 
1910	 0.153635500768494 
1911	 0.153407821840539 
1912	 0.153186147372671 
1913	 0.152977765854462 
1914	 0.152789625630669 
1915	 0.152593939996198 
1916	 0.152403285021484 
1917	 0.152208881278908 
1918	 0.152022627829716 
1919	 0.151872911335346 
1920	 0.151755991081284 
1921	 0.151676449523574 
1922	 0.151624584980131 
1923	 0.15158774092211 
1924	 0.151538582775127 
1925	 0.151486434778211 
1926	 0.151453578657846 
1927	 0.151433159464706 
1928	 0.151394061595399 
1929	 0.151367763234374 
1930	 0.151356724671704 
1931	 0.151321997889703 
1932	 0.151306231892163 
1933	 0.151325464325567 
1934	 0.15133667715933 
1935	 0.15136082017235 
1936	 0.151401740539102 
1937	 0.151437911919231 
1938	 0.151467300767262 
1939	 0.151523293401149 
1940	 0.151594816476496 
1941	 0.151673050672305 
1942	 0.151752784660402 
1943	 0.15182483470308 
1944	 0.15189569273916 
1945	 0.151952462319608 
1946	 0.152021537531903 
1947	 0.152100921915804 
1948	 0.152183272349089 
1949	 0.152270360594641 
1950	 0.152354163385216 
1951	 0.15244910202103 
1952	 0.152525748092279 
1953	 0.152599721173832 
1954	 0.152677683429878 
1955	 0.152743379574454 
1956	 0.152829107414786 
1957	 0.152928625776082 
1958	 0.153031400841724 
1959	 0.153156092574013 
1960	 0.153324423295213 
1961	 0.153454279397266 
1962	 0.153577189025256 
1963	 0.15370567206011 
1964	 0.15381385862531 
1965	 0.153935876440117 
1966	 0.154076705919036 
1967	 0.154227760855526 
1968	 0.154367852481827 
1969	 0.154510541449029 
1970	 0.154641546862519 
1971	 0.154757952085915 
1972	 0.154886192121507 
1973	 0.15502356396308 
1974	 0.155145517743846 
1975	 0.155267349942487 
1976	 0.155380999509439 
1977	 0.155486257325443 
1978	 0.15559430524913 
1979	 0.155725529436563 
1980	 0.155868788451231 
1981	 0.156007989962359 
1982	 0.156153534299585 
1983	 0.15629798882246 
1984	 0.156442845178407 
1985	 0.156588862110856 
1986	 0.156743688460815 
1987	 0.156888103011084 
1988	 0.157027658874377 
1989	 0.157163538883388 
1990	 0.157310442453023 
1991	 0.157434919978611 
1992	 0.157562557529684 
1993	 0.157689897424226 
1994	 0.157815419083857 
1995	 0.157938467117786 
1996	 0.158053387637344 
1997	 0.158166541297052 
1998	 0.158277213282004 
1999	 0.158376076084583 
2000	 0.158474869641934 
2001	 0.158568115010744 
2002	 0.158665451856424 
2003	 0.158774849891094 
2004	 0.158889960956208 
2005	 0.159023478396056 
2006	 0.159199268230127 
2007	 0.159330218458897 
2008	 0.159444466463555 
2009	 0.159575630750832 
2010	 0.1596868239171 
2011	 0.15981659331534 
2012	 0.15997366947684 
2013	 0.160121468048783 
2014	 0.160270999282499 
2015	 0.160420819904732 
2016	 0.160561683925861 
2017	 0.160684148274921 
2018	 0.160801522570176 
2019	 0.160890926529166 
2020	 0.161006052454289 
2021	 0.161130350405567 
2022	 0.161246110252 
2023	 0.161365392224652 
2024	 0.161485637170075 
2025	 0.16159687125371 
2026	 0.161715937877739 
2027	 0.161853767203857 
2028	 0.161980871388312 
2029	 0.162081211934993 
2030	 0.16215978732891 
2031	 0.162257216617979 
2032	 0.162338151945341 
2033	 0.162432208163879 
2034	 0.162556114609958 
2035	 0.162649173588762 
2036	 0.162706763254853 
2037	 0.162798033650532 
2038	 0.162902464936012 
2039	 0.16299974714154 
2040	 0.163104044165305 
2041	 0.163222702583275 
2042	 0.16332520948739 
2043	 0.163410359896135 
2044	 0.163503550873562 
2045	 0.163600293572394 
2046	 0.163691697965869 
2047	 0.163779980494804 
2048	 0.163866770757695 
2049	 0.163951197265855 
2050	 0.164036614450988 
2051	 0.164124817588499 
2052	 0.164201595046352 
2053	 0.164268155554122 
2054	 0.164343608139822 
2055	 0.164419748083837 
2056	 0.164483988066544 
2057	 0.164559745234942 
2058	 0.164651964811447 
2059	 0.164722593013854 
2060	 0.164784261835879 
2061	 0.164848012430633 
2062	 0.164898939218206 
2063	 0.164960859865519 
2064	 0.165028741905129 
2065	 0.165095236761445 
2066	 0.16516722294053 
2067	 0.165235173851804 
2068	 0.165300566237742 
2069	 0.165364668322593 
2070	 0.165434036079197 
2071	 0.16550331181454 
2072	 0.165571180261038 
2073	 0.165643700053238 
2074	 0.165713168725092 
2075	 0.165776384883783 
2076	 0.16584727880522 
2077	 0.165925440673031 
2078	 0.165995347051761 
2079	 0.166063604425679 
2080	 0.166132424405328 
2081	 0.166195449742278 
2082	 0.166264026102386 
2083	 0.166345425006303 
2084	 0.166410350021403 
2085	 0.166475208798916 
2086	 0.166541690326448 
2087	 0.16659564489986 
2088	 0.166631030262626 
2089	 0.166686172085645 
2090	 0.166746787404857 
2091	 0.166801491609042 
2092	 0.166858960697357 
2093	 0.166920334314546 
2094	 0.166955235876845 
2095	 0.167031012687112 
2096	 0.167158611489606 
2097	 0.16725421411948 
2098	 0.167364574099269 
2099	 0.167459443042834 
2100	 0.167531349485724 
2101	 0.167561285849395 
2102	 0.167624311182108 
2103	 0.167687888774943 
2104	 0.167756051107052 
2105	 0.167827606851098 
2106	 0.167909185642945 
2107	 0.167998885004279 
2108	 0.168085191789636 
2109	 0.168183881551814 
2110	 0.168276309675864 
2111	 0.168358279897659 
2112	 0.168446796469678 
2113	 0.168542324422256 
2114	 0.168635199382577 
2115	 0.16872477460829 
2116	 0.168817593924447 
2117	 0.168897894432109 
2118	 0.16895836627141 
2119	 0.16905131082753 
2120	 0.169163361548459 
2121	 0.169248399768695 
2122	 0.169357633919151 
2123	 0.169423873977973 
2124	 0.169440139848091 
2125	 0.169474599597078 
2126	 0.169500374049606 
2127	 0.169526010681411 
2128	 0.169545715750977 
2129	 0.169573948517813 
2130	 0.169605633655347 
2131	 0.169631866269722 
2132	 0.16966836832125 
2133	 0.169721688027964 
2134	 0.169750493277384 
2135	 0.169775791194428 
2136	 0.169791399629162 
2137	 0.169788662227985 
2138	 0.169793773388233 
2139	 0.1698071660711 
2140	 0.169798926893428 
2141	 0.169783912278039 
2142	 0.169757706201606 
2143	 0.169710191187083 
2144	 0.169663271958232 
2145	 0.169614287500835 
2146	 0.169556218971611 
2147	 0.169487138066307 
2148	 0.169411561234794 
2149	 0.169348070915526 
2150	 0.169286734858972 
2151	 0.169219571902427 
2152	 0.169163372310734 
2153	 0.169088476955578 
2154	 0.168998405060656 
2155	 0.168907104773837 
2156	 0.168818718236737 
2157	 0.168711384276951 
2158	 0.168582211438003 
2159	 0.168462838315961 
2160	 0.168321692805803 
2161	 0.168203259836428 
2162	 0.168128355068199 
2163	 0.168012494387569 
2164	 0.167884147086221 
2165	 0.167748007881176 
2166	 0.167608518273947 
2167	 0.167439306835787 
2168	 0.167288928340576 
2169	 0.167144624432953 
2170	 0.167009081806949 
2171	 0.166865138744595 
2172	 0.166741969968162 
2173	 0.166634622204848 
2174	 0.166541155206479 
2175	 0.166475373084074 
2176	 0.166387585634476 
2177	 0.166312511035389 
2178	 0.166220937607789 
2179	 0.166109724942978 
2180	 0.165995355056005 
2181	 0.16587303117327 
2182	 0.165752238880767 
2183	 0.16562375551421 
2184	 0.165486821372596 
2185	 0.165369437077226 
2186	 0.165258904474275 
2187	 0.165153893430744 
2188	 0.165053182461381 
2189	 0.16496754331056 
2190	 0.164902862992401 
2191	 0.16482311062201 
2192	 0.164748988676283 
2193	 0.164673284932506 
2194	 0.164573302710809 
2195	 0.164503407364619 
2196	 0.164460478397423 
2197	 0.164408217129019 
2198	 0.164347623241106 
2199	 0.164314859869017 
2200	 0.164304961163228 
2201	 0.16428584150754 
2202	 0.164282376101808 
2203	 0.164288221498199 
2204	 0.16427415280191 
2205	 0.164247690731664 
2206	 0.164200638883095 
2207	 0.16412727190276 
2208	 0.164093235193938 
2209	 0.164044512795778 
2210	 0.164025345310444 
2211	 0.164058187229879 
2212	 0.164060904913239 
2213	 0.164040668976938 
2214	 0.164054415503664 
2215	 0.164106049887054 
2216	 0.164115080446138 
2217	 0.164116308710428 
2218	 0.16412004905876 
2219	 0.164089031982671 
2220	 0.16407621615947 
2221	 0.164093143251045 
2222	 0.16409288208326 
2223	 0.164068968628025 
2224	 0.164058303956569 
2225	 0.164063630457932 
2226	 0.16408260105427 
2227	 0.164080222537758 
2228	 0.164085217287355 
2229	 0.164084400398241 
2230	 0.164050899217699 
2231	 0.16405622724507 
2232	 0.164101334717911 
2233	 0.164111283616619 
2234	 0.164114428780331 
2235	 0.164119615363893 
2236	 0.164106529754697 
2237	 0.164105842990131 
2238	 0.164121276311899 
2239	 0.16412473934367 
2240	 0.16411832494015 
2241	 0.164116607536146 
2242	 0.164119365200776 
2243	 0.164116824896938 
2244	 0.16412199194215 
2245	 0.164109292880124 
2246	 0.164093548673136 
2247	 0.164065892599365 
2248	 0.164055534209263 
2249	 0.16405202040817 
2250	 0.164042770073682 
2251	 0.164024620739908 
2252	 0.164042199290016 
2253	 0.164076701708644 
2254	 0.164098191432144 
2255	 0.164156279367164 
2256	 0.164176452912459 
2257	 0.164156997869558 
2258	 0.164156852791594 
2259	 0.164157493603604 
2260	 0.164156137994434 
2261	 0.164154367219144 
2262	 0.164153237518957 
2263	 0.16413133024211 
2264	 0.164149421488326 
2265	 0.164202874487304 
2266	 0.164238795458941 
2267	 0.164299340345822 
2268	 0.164340808626321 
2269	 0.164367387873206 
2270	 0.164372424150963 
2271	 0.164386008507387 
2272	 0.164406357334932 
2273	 0.164427216964132 
2274	 0.164460204887322 
2275	 0.164483488956448 
2276	 0.164514906489454 
2277	 0.164532407551714 
2278	 0.164523088284168 
2279	 0.16455036180873 
2280	 0.164586546975063 
2281	 0.164631884101665 
2282	 0.164720924677747 
2283	 0.164763753901573 
2284	 0.164782496314336 
2285	 0.164814710922984 
2286	 0.164840635260401 
2287	 0.164850969901721 
2288	 0.164832034679302 
2289	 0.164866756525766 
2290	 0.164911736484619 
2291	 0.164970091358873 
2292	 0.165116701567528 
2293	 0.165183418732875 
2294	 0.165181319293933 
2295	 0.165208278409827 
2296	 0.165210951693432 
2297	 0.16524318732521 
2298	 0.165243455409533 
2299	 0.165291337776148 
2300	 0.165322485401006 
2301	 0.165308102813294 
2302	 0.165391232149381 
2303	 0.165464270285443 
2304	 0.1655046036621 
2305	 0.1655658638269 
2306	 0.165575772960911 
2307	 0.165528596548861 
2308	 0.16551782266903 
2309	 0.165483038805261 
2310	 0.165486614679315 
2311	 0.165531984709101 
2312	 0.165535904113443 
2313	 0.165533576264724 
2314	 0.165550720600314 
2315	 0.16555549536262 
2316	 0.165564333084088 
2317	 0.165598795052546 
2318	 0.16561426352501 
2319	 0.165591434303183 
2320	 0.165604780811881 
2321	 0.165642447865365 
2322	 0.165678416954166 
2323	 0.165734408620602 
2324	 0.165788410724012 
2325	 0.165831749765969 
2326	 0.165891032909717 
2327	 0.165977627304468 
2328	 0.166033429630597 
2329	 0.166065194161136 
2330	 0.166151738253249 
2331	 0.166190592470965 
2332	 0.166207114003946 
2333	 0.166273703688549 
2334	 0.166301333987409 
2335	 0.166355533213879 
2336	 0.166416045569908 
2337	 0.166425225352481 
2338	 0.166433638976509 
2339	 0.166459341435761 
2340	 0.166492173696813 
2341	 0.166554405002743 
2342	 0.166625718729467 
2343	 0.166616702863166 
2344	 0.166585051347482 
2345	 0.166586862877206 
2346	 0.166561459029849 
2347	 0.166592371378655 
2348	 0.166718596312376 
2349	 0.166739934916465 
2350	 0.166727647426606 
2351	 0.166726086208446 
2352	 0.166663564744799 
2353	 0.16663118664207 
2354	 0.166628630710833 
2355	 0.166613750662656 
2356	 0.166573595145935 
2357	 0.166560865792718 
2358	 0.166603751544539 
2359	 0.166603861926209 
2360	 0.166593655556726 
2361	 0.166559145907257 
2362	 0.16643960754066 
2363	 0.166407332073271 
2364	 0.16642822687948 
2365	 0.166419254696945 
2366	 0.166462632807568 
2367	 0.166463063007539 
2368	 0.166405308968447 
2369	 0.166380487600179 
2370	 0.166387335977856 
2371	 0.166347024049344 
2372	 0.166250601043266 
2373	 0.166207956336643 
2374	 0.16619960404472 
2375	 0.16618558457102 
2376	 0.166220891339172 
2377	 0.166172936520246 
2378	 0.16607527008941 
2379	 0.16602458681125 
2380	 0.165959770621613 
2381	 0.165861915959655 
2382	 0.165763801465852 
2383	 0.165696491625164 
2384	 0.165628280331488 
2385	 0.165585597234594 
2386	 0.165606800718771 
2387	 0.16558940999141 
2388	 0.165536271306841 
2389	 0.165603827705583 
2390	 0.165650867765566 
2391	 0.16556617750441 
2392	 0.165494311818656 
2393	 0.165399952018977 
2394	 0.165251486209847 
2395	 0.165144046877636 
2396	 0.165069914851616 
2397	 0.165014241623889 
2398	 0.165015390233984 
2399	 0.165043728974295 
2400	 0.165082094239854 
2401	 0.165122792601252 
2402	 0.165095030470024 
2403	 0.16498813692366 
2404	 0.164876234172749 
2405	 0.164759236908001 
2406	 0.164636981006094 
2407	 0.164543169499211 
2408	 0.164467110147563 
2409	 0.164371955139714 
2410	 0.164297410072077 
2411	 0.164293370860651 
2412	 0.164245149323293 
2413	 0.16421352843605 
2414	 0.164251464970116 
2415	 0.164202039700235 
2416	 0.164135804311417 
2417	 0.164089846641678 
2418	 0.164004602237466 
2419	 0.163794104672669 
2420	 0.163695968511573 
2421	 0.163658340072429 
2422	 0.163623065816914 
2423	 0.163684833232168 
2424	 0.163599580431685 
2425	 0.163367516020713 
2426	 0.163283305095465 
2427	 0.16320811963806 
2428	 0.163153763316716 
2429	 0.163266169215598 
2430	 0.163289269613383 
2431	 0.163221345242251 
2432	 0.163109538753038 
2433	 0.162972491676346 
2434	 0.162868797739103 
2435	 0.162675334268518 
2436	 0.162597686706109 
2437	 0.162671442790138 
2438	 0.162620169380332 
2439	 0.162537510408134 
2440	 0.162458230393153 
2441	 0.162312757137884 
2442	 0.16221960322516 
2443	 0.16211913495924 
2444	 0.162063462474701 
2445	 0.162114834263885 
2446	 0.162061516972491 
2447	 0.161992181489122 
2448	 0.161889068814191 
2449	 0.161688816030303 
2450	 0.161542677626829 
2451	 0.161402871203384 
2452	 0.161329513975421 
2453	 0.161307892479839 
2454	 0.16123990011495 
2455	 0.161153935566385 
2456	 0.161113874846698 
2457	 0.16110762049605 
2458	 0.161018724733577 
2459	 0.160972980233092 
2460	 0.160867322063417 
2461	 0.160644725483452 
2462	 0.160464533703033 
2463	 0.160235892901307 
2464	 0.160137192204203 
2465	 0.160041677873102 
2466	 0.160035303400302 
2467	 0.160349401900611 
2468	 0.1602994895012 
2469	 0.160068822000798 
2470	 0.159878494682176 
2471	 0.159528646918013 
2472	 0.159503731748261 
2473	 0.159478970202111 
2474	 0.159405488773079 
2475	 0.159490775882557 
2476	 0.15937526710866 
2477	 0.159242678244804 
2478	 0.159381759848312 
2479	 0.159412872160733 
2480	 0.159348764464023 
2481	 0.15937678610768 
2482	 0.15919285889087 
2483	 0.159046175603913 
2484	 0.1590097962619 
2485	 0.158683659469209 
2486	 0.15840778788066 
2487	 0.158340120431383 
2488	 0.158291201621703 
2489	 0.158553052197284 
2490	 0.158916447509855 
2491	 0.15885562365161 
2492	 0.158767245574261 
2493	 0.158704031661512 
2494	 0.158454961319642 
2495	 0.158547027471383 
2496	 0.158630759955302 
2497	 0.158389184637737 
2498	 0.158329975762304 
2499	 0.158267952423236 
2500	 0.158147822426568 
