Wavelength	LMW_1500009.asd
350	 5.07704006733692E-02 
351	 5.45461024389391E-02 
352	 5.48297861060052E-02 
353	 5.25139534402315E-02 
354	 5.33537996759598E-02 
355	 5.46309179380134E-02 
356	 5.65064292541374E-02 
357	 5.89333831241165E-02 
358	 5.87777811069582E-02 
359	 5.58738097582165E-02 
360	 5.45049238284071E-02 
361	 5.98314654000037E-02 
362	 5.47419031319554E-02 
363	 5.12643815515179E-02 
364	 5.41720244453918E-02 
365	 5.11992317821946E-02 
366	 5.05688364600366E-02 
367	 5.30567460657204E-02 
368	 5.65646395949927E-02 
369	 5.64018334508556E-02 
370	 5.63832597017824E-02 
371	 0.05612489073989 
372	 5.28234416565524E-02 
373	 5.21393019031937E-02 
374	 5.20888987744474E-02 
375	 0.051859758315947 
376	 5.47234085974116E-02 
377	 0.054411508650465 
378	 5.34533284419379E-02 
379	 5.55030344867688E-02 
380	 5.74163865211486E-02 
381	 5.60082141295005E-02 
382	 5.25924840781127E-02 
383	 5.17275959462019E-02 
384	 5.34387744815225E-02 
385	 5.43294762951895E-02 
386	 0.053023005967312 
387	 5.27487251015254E-02 
388	 5.33774744203379E-02 
389	 5.34546818655647E-02 
390	 0.051956487456948 
391	 5.21424399397436E-02 
392	 5.31578071720316E-02 
393	 5.44173973401285E-02 
394	 5.56703598413023E-02 
395	 5.51968578148817E-02 
396	 0.052977023454872 
397	 5.10373462039757E-02 
398	 0.055712219913194 
399	 5.69657043653647E-02 
400	 5.60556183572849E-02 
401	 5.72438465527875E-02 
402	 5.58978551951009E-02 
403	 5.44620672433906E-02 
404	 5.43271380859978E-02 
405	 5.52970618283023E-02 
406	 5.49002854136551E-02 
407	 0.054827242762503 
408	 0.056041340750239 
409	 5.54349792406831E-02 
410	 0.054941324687724 
411	 5.52018329990274E-02 
412	 5.60862745200889E-02 
413	 5.67995768878228E-02 
414	 5.71154986045077E-02 
415	 5.70726029402351E-02 
416	 5.69505855738362E-02 
417	 5.61201950717967E-02 
418	 5.55892832799737E-02 
419	 0.056112383261031 
420	 5.63717215965396E-02 
421	 5.63941914139975E-02 
422	 5.64273840214201E-02 
423	 5.67612082785307E-02 
424	 5.65908660205227E-02 
425	 5.62145088454558E-02 
426	 5.60192788881793E-02 
427	 5.62979689474014E-02 
428	 5.67830655557521E-02 
429	 5.69504867634383E-02 
430	 5.64714948615294E-02 
431	 5.63140549018425E-02 
432	 5.61513067305526E-02 
433	 5.61866954448927E-02 
434	 5.71200232211343E-02 
435	 5.73607640636614E-02 
436	 5.71909098179974E-02 
437	 5.71266396246562E-02 
438	 0.057245455908384 
439	 5.74745232910144E-02 
440	 5.76038135099139E-02 
441	 5.74552800719703E-02 
442	 0.057682416903374 
443	 5.79652426448859E-02 
444	 5.80593763097595E-02 
445	 5.79647902505493E-02 
446	 5.81468585837227E-02 
447	 5.84441113302418E-02 
448	 5.85929909068665E-02 
449	 5.87585136857045E-02 
450	 0.05900917725031 
451	 5.92443696483622E-02 
452	 5.92482935456211E-02 
453	 5.93405744110065E-02 
454	 5.93733254437457E-02 
455	 5.92980801363377E-02 
456	 5.95372513506702E-02 
457	 5.96353178782955E-02 
458	 5.96158289096203E-02 
459	 5.97170145271866E-02 
460	 0.060015009769075 
461	 6.01773799494178E-02 
462	 6.01096695882385E-02 
463	 6.00807922874711E-02 
464	 6.05588123123782E-02 
465	 0.060920609097492 
466	 6.06543628427659E-02 
467	 6.09805375229645E-02 
468	 6.14031434669472E-02 
469	 6.16938016807863E-02 
470	 6.18814439669352E-02 
471	 6.20192340696771E-02 
472	 0.062066747920991 
473	 0.062059976864325 
474	 6.22657295449009E-02 
475	 6.24088938914844E-02 
476	 6.24720727166847E-02 
477	 6.25643497663237E-02 
478	 6.28256633870716E-02 
479	 6.30403543609784E-02 
480	 6.30789545702701E-02 
481	 6.29600760539242E-02 
482	 6.32196972210015E-02 
483	 6.36000975141289E-02 
484	 6.37451813154589E-02 
485	 6.39185109686653E-02 
486	 6.39717879649893E-02 
487	 6.39877523040494E-02 
488	 6.42239492296212E-02 
489	 6.44473570150444E-02 
490	 6.45429502562948E-02 
491	 6.45351942548653E-02 
492	 0.064755529252547 
493	 6.47190886821097E-02 
494	 6.47212877899084E-02 
495	 6.52668879172782E-02 
496	 6.54571895124693E-02 
497	 6.54478242069724E-02 
498	 6.54202103042967E-02 
499	 6.54207128701245E-02 
500	 6.56474317607976E-02 
501	 6.58742707656612E-02 
502	 0.065871262328079 
503	 6.59974333769641E-02 
504	 6.61021488656953E-02 
505	 6.61503868971463E-02 
506	 6.62266962518085E-02 
507	 6.63375500331873E-02 
508	 6.65048971688883E-02 
509	 6.66841391384288E-02 
510	 6.66342773847705E-02 
511	 6.66739436855055E-02 
512	 6.68084358088487E-02 
513	 6.68837754451858E-02 
514	 6.69689757121848E-02 
515	 6.70135486215274E-02 
516	 6.70448440637471E-02 
517	 0.067265933839827 
518	 6.72286208538449E-02 
519	 6.70683728412519E-02 
520	 6.70852459128038E-02 
521	 6.73418697735337E-02 
522	 6.74528980322818E-02 
523	 6.73999498694561E-02 
524	 6.75629997138237E-02 
525	 6.75651809181703E-02 
526	 6.75216327670068E-02 
527	 6.75892196646844E-02 
528	 6.77219294309079E-02 
529	 6.77281078152147E-02 
530	 6.76873718334013E-02 
531	 0.067829541156734 
532	 6.78686951727961E-02 
533	 6.79198861738529E-02 
534	 6.80369636386382E-02 
535	 6.80121312398665E-02 
536	 6.80802080583371E-02 
537	 6.82052799341374E-02 
538	 6.82621961350028E-02 
539	 6.83102869641464E-02 
540	 6.83328270389029E-02 
541	 6.83547010865973E-02 
542	 6.84665772541753E-02 
543	 6.83977360992386E-02 
544	 6.83645340012106E-02 
545	 6.85780184400812E-02 
546	 6.86844950752768E-02 
547	 6.86631992371105E-02 
548	 6.86395195726471E-02 
549	 6.88299375874667E-02 
550	 6.88685117854537E-02 
551	 6.88584009272934E-02 
552	 6.89133736610856E-02 
553	 6.89380115835902E-02 
554	 6.89690415634327E-02 
555	 6.90261923406751E-02 
556	 6.91112859777571E-02 
557	 6.91480822347708E-02 
558	 6.91493187434094E-02 
559	 6.91619824675305E-02 
560	 6.92858143291412E-02 
561	 6.92805091410163E-02 
562	 6.92336066865032E-02 
563	 6.93077277518744E-02 
564	 6.93950776029597E-02 
565	 6.94323648626807E-02 
566	 6.94154633238426E-02 
567	 6.94037012029909E-02 
568	 0.069520377871385 
569	 6.96262815260122E-02 
570	 6.96024796533574E-02 
571	 6.96232899360079E-02 
572	 6.96378735496818E-02 
573	 6.96661879945093E-02 
574	 6.97625289056185E-02 
575	 6.97393314478859E-02 
576	 6.97271129626638E-02 
577	 6.97875399492335E-02 
578	 6.97086535009364E-02 
579	 6.96770155426959E-02 
580	 0.069704809784989 
581	 6.97275369148611E-02 
582	 6.97069185444896E-02 
583	 6.96622188936782E-02 
584	 6.96093354768572E-02 
585	 0.069548559274089 
586	 6.95185176400383E-02 
587	 6.95167839989895E-02 
588	 6.95276998239863E-02 
589	 6.95473598859187E-02 
590	 6.95415608111759E-02 
591	 6.95256602273985E-02 
592	 6.95549940773877E-02 
593	 6.95318092334798E-02 
594	 6.94674438914373E-02 
595	 6.94098987267299E-02 
596	 6.94455930989155E-02 
597	 6.94951043694531E-02 
598	 6.95269952311754E-02 
599	 6.95422499474125E-02 
600	 6.95857775475177E-02 
601	 6.96299854758198E-02 
602	 6.96323671766412E-02 
603	 6.95300469544309E-02 
604	 6.94746239666661E-02 
605	 0.069480068976652 
606	 6.95114925876415E-02 
607	 6.95808917614228E-02 
608	 6.96193652593615E-02 
609	 6.96250872170668E-02 
610	 6.96750740326974E-02 
611	 6.96544975201873E-02 
612	 6.96575324177277E-02 
613	 6.97515235162112E-02 
614	 6.97432964281185E-02 
615	 6.97062257241831E-02 
616	 6.96934670935977E-02 
617	 6.97345003218345E-02 
618	 6.97602579150607E-02 
619	 0.069737536409481 
620	 6.96851146671715E-02 
621	 6.97254482310213E-02 
622	 6.97309216624035E-02 
623	 6.97196568886051E-02 
624	 6.97565672225124E-02 
625	 6.98048400109364E-02 
626	 6.98094744621313E-02 
627	 6.97955421238419E-02 
628	 6.98947282726413E-02 
629	 6.99248966943379E-02 
630	 6.99195974509604E-02 
631	 6.99429195788568E-02 
632	 6.99253499605577E-02 
633	 6.99313866517255E-02 
634	 6.99641885944162E-02 
635	 6.99792475661611E-02 
636	 0.070049965427232 
637	 7.01198824752456E-02 
638	 7.01366879521386E-02 
639	 7.01050935481286E-02 
640	 7.01023376446607E-02 
641	 7.01369784566006E-02 
642	 7.01842017725981E-02 
643	 0.070263145495381 
644	 7.02886231485422E-02 
645	 7.02553945719874E-02 
646	 7.02854242005227E-02 
647	 7.03138561216964E-02 
648	 0.070339148923921 
649	 7.03753431284456E-02 
650	 7.04317875156755E-02 
651	 7.04772730943064E-02 
652	 7.04976712495164E-02 
653	 7.04996123568568E-02 
654	 7.05652414001857E-02 
655	 7.06198672728835E-02 
656	 7.06169564826543E-02 
657	 7.06509087590133E-02 
658	 7.07187301130171E-02 
659	 7.07715431327544E-02 
660	 7.07528819709327E-02 
661	 7.07424854178923E-02 
662	 7.08035663000649E-02 
663	 7.09060111398055E-02 
664	 7.08886366325014E-02 
665	 7.09259676406479E-02 
666	 7.09822825566383E-02 
667	 7.09876030796928E-02 
668	 0.070987800962145 
669	 7.10254514371737E-02 
670	 7.10895304112064E-02 
671	 7.11260087635186E-02 
672	 7.11462111486935E-02 
673	 0.071174616968 
674	 7.12162243078617E-02 
675	 7.12268164051083E-02 
676	 7.11870651498142E-02 
677	 7.11762264754805E-02 
678	 7.12808591824768E-02 
679	 7.13094904237998E-02 
680	 7.13161885321809E-02 
681	 7.13386621320976E-02 
682	 0.071364148980662 
683	 7.14343391557549E-02 
684	 7.14891929011126E-02 
685	 7.14793391403151E-02 
686	 7.14925186550241E-02 
687	 7.14885078889041E-02 
688	 7.14931940162618E-02 
689	 7.15652572028551E-02 
690	 7.15561770847741E-02 
691	 7.15379872196012E-02 
692	 7.15603832994289E-02 
693	 7.15611090385857E-02 
694	 7.15725136655041E-02 
695	 7.16136910327781E-02 
696	 7.16825124796163E-02 
697	 0.071694663115833 
698	 7.16680934233344E-02 
699	 7.16521303389195E-02 
700	 7.17154440502547E-02 
701	 7.17261804045626E-02 
702	 7.17023743191045E-02 
703	 7.16851278255399E-02 
704	 7.16834813944974E-02 
705	 0.071670564696029 
706	 7.16619481740686E-02 
707	 0.071688042139991 
708	 7.17046812831107E-02 
709	 7.17130372547193E-02 
710	 7.17246769512613E-02 
711	 7.17597857759539E-02 
712	 7.17626928000086E-02 
713	 7.17536692167279E-02 
714	 7.17644124843078E-02 
715	 7.17846846951261E-02 
716	 7.17757458066566E-02 
717	 7.17571228512673E-02 
718	 0.071784445888004 
719	 0.071801650268166 
720	 7.17932572598417E-02 
721	 7.17653665567298E-02 
722	 7.17518778764498E-02 
723	 0.071741866672371 
724	 7.17354007281794E-02 
725	 7.17360152474923E-02 
726	 7.17519616297059E-02 
727	 7.17582371846996E-02 
728	 7.17500860085351E-02 
729	 7.17426517121981E-02 
730	 7.17298924581301E-02 
731	 7.17163367665739E-02 
732	 7.17067432967653E-02 
733	 7.17053606602607E-02 
734	 7.16851074767451E-02 
735	 7.16427182046087E-02 
736	 7.15929550928529E-02 
737	 0.071584032206092 
738	 7.15800758039179E-02 
739	 7.15690731748119E-02 
740	 7.15712901273591E-02 
741	 7.15558046298413E-02 
742	 7.15229627693655E-02 
743	 7.14854104404565E-02 
744	 7.14704609317783E-02 
745	 7.14405975758328E-02 
746	 7.14096808853242E-02 
747	 7.14058880691322E-02 
748	 7.13724785584792E-02 
749	 7.13267218255053E-02 
750	 7.12898350221793E-02 
751	 7.12785808886919E-02 
752	 7.12808164263476E-02 
753	 7.12657685929811E-02 
754	 7.12232325424456E-02 
755	 7.12141721439887E-02 
756	 0.071205043028515 
757	 7.11765051066953E-02 
758	 7.11283731732052E-02 
759	 7.11458559732303E-02 
760	 7.11215590850305E-02 
761	 7.10485539861961E-02 
762	 7.10641454840122E-02 
763	 7.10587825467335E-02 
764	 7.10339359389325E-02 
765	 0.071015277746818 
766	 7.10240515823197E-02 
767	 7.10120563232588E-02 
768	 7.09785324626705E-02 
769	 7.09482164310729E-02 
770	 7.09311639875688E-02 
771	 7.09108622234781E-02 
772	 7.08854230512658E-02 
773	 0.070872873228319 
774	 7.08459464191272E-02 
775	 0.070820197240005 
776	 7.08091566157315E-02 
777	 7.07953088513903E-02 
778	 7.07719871760892E-02 
779	 7.07517028474365E-02 
780	 7.07487313693798E-02 
781	 7.07247697055215E-02 
782	 7.07088574723826E-02 
783	 7.06965706097159E-02 
784	 7.06462499376624E-02 
785	 0.070614044268903 
786	 7.05772633480018E-02 
787	 7.05276416480533E-02 
788	 0.070529894734653 
789	 7.05414062266751E-02 
790	 7.05337700190383E-02 
791	 7.04910883562013E-02 
792	 7.04297264206031E-02 
793	 7.03995666616669E-02 
794	 7.03947340365241E-02 
795	 7.03640702495936E-02 
796	 7.03521057189695E-02 
797	 7.03278476779516E-02 
798	 7.02842575220675E-02 
799	 7.02787628732772E-02 
800	 7.02679786091244E-02 
801	 7.02349545689564E-02 
802	 7.01845549591749E-02 
803	 7.01658847813051E-02 
804	 7.01859746505501E-02 
805	 7.01981907660691E-02 
806	 7.01393209622426E-02 
807	 7.01033816828903E-02 
808	 7.00824180521008E-02 
809	 7.00567336762176E-02 
810	 0.070008211384993 
811	 7.00126660954787E-02 
812	 6.99979840732223E-02 
813	 6.99255622269619E-02 
814	 6.99434498278101E-02 
815	 6.99287984015309E-02 
816	 6.98973492915297E-02 
817	 6.99025096003118E-02 
818	 6.98722996044545E-02 
819	 6.98283703650564E-02 
820	 6.97901178948874E-02 
821	 6.97686178503719E-02 
822	 6.97554207293503E-02 
823	 6.97366491797263E-02 
824	 6.97071326634474E-02 
825	 6.96771276970296E-02 
826	 6.96433719858556E-02 
827	 0.069600804408904 
828	 6.95592289799679E-02 
829	 6.95808104657525E-02 
830	 0.069573596084202 
831	 6.95468940068389E-02 
832	 6.95490683410993E-02 
833	 6.95263917547143E-02 
834	 6.95107566532153E-02 
835	 6.94869010718059E-02 
836	 6.94044837756881E-02 
837	 6.94333476738883E-02 
838	 6.94507064987986E-02 
839	 6.93828807330796E-02 
840	 6.93216175565699E-02 
841	 6.93019247870782E-02 
842	 6.92976650580855E-02 
843	 6.92840596518134E-02 
844	 6.93134299401825E-02 
845	 6.93121057730926E-02 
846	 6.92651573722784E-02 
847	 6.92007060489898E-02 
848	 6.92011861074214E-02 
849	 6.91866313446947E-02 
850	 0.069157844314982 
851	 6.91802356110126E-02 
852	 6.91368788263204E-02 
853	 6.91099893659212E-02 
854	 6.91259101471223E-02 
855	 6.90917804709038E-02 
856	 0.069081487848111 
857	 6.90963644839876E-02 
858	 6.91077059305494E-02 
859	 6.90489662193357E-02 
860	 6.90446068527741E-02 
861	 6.90598798647815E-02 
862	 6.90253364508271E-02 
863	 0.068994524261587 
864	 6.89718257015763E-02 
865	 6.89522977676253E-02 
866	 6.89279459451486E-02 
867	 6.89151794028588E-02 
868	 6.88909997255977E-02 
869	 6.88592872325614E-02 
870	 6.88515086813524E-02 
871	 6.88408144222731E-02 
872	 6.88570381235661E-02 
873	 6.88899745702639E-02 
874	 6.88547099618459E-02 
875	 6.88398044858557E-02 
876	 0.068809279144027 
877	 6.87417222283217E-02 
878	 6.87299436036715E-02 
879	 6.87807570298904E-02 
880	 6.88055142103317E-02 
881	 6.87368929277162E-02 
882	 6.87445125642979E-02 
883	 6.87486922002199E-02 
884	 6.87200951838735E-02 
885	 6.86726025038542E-02 
886	 0.0686705461062 
887	 6.86785712407435E-02 
888	 6.86874150223338E-02 
889	 0.068709831443708 
890	 6.86779734617833E-02 
891	 6.86615290084067E-02 
892	 6.86720457477019E-02 
893	 6.86314700108804E-02 
894	 6.85977520074078E-02 
895	 6.85695029691581E-02 
896	 6.85581930480638E-02 
897	 6.86177876261798E-02 
898	 6.86084137128767E-02 
899	 6.85792481630873E-02 
900	 6.85910388405982E-02 
901	 6.85925323773865E-02 
902	 6.85957135034414E-02 
903	 6.86078933830421E-02 
904	 6.86223033312276E-02 
905	 6.85779076603676E-02 
906	 6.85994282091713E-02 
907	 6.86367545672034E-02 
908	 6.85909757168448E-02 
909	 6.85882163148313E-02 
910	 6.85863291413865E-02 
911	 6.85644602067745E-02 
912	 6.85269068127843E-02 
913	 0.068499821639154 
914	 6.85293295925603E-02 
915	 6.85571416497356E-02 
916	 6.84661898535473E-02 
917	 6.84842084248582E-02 
918	 6.85130549051449E-02 
919	 6.84810215364407E-02 
920	 6.84090568527919E-02 
921	 6.84574872689098E-02 
922	 6.85053887787941E-02 
923	 0.068482630236277 
924	 6.84676054047697E-02 
925	 6.84617229903264E-02 
926	 6.84809295755254E-02 
927	 6.85138113181654E-02 
928	 6.85007971323413E-02 
929	 6.84959805278929E-02 
930	 6.84821717193416E-02 
931	 6.84518549706739E-02 
932	 6.84576475546949E-02 
933	 6.85168399978639E-02 
934	 6.85216476938371E-02 
935	 0.068417488837779 
936	 6.83994965657919E-02 
937	 6.84267081435623E-02 
938	 6.84744357588397E-02 
939	 6.85090732846422E-02 
940	 6.84695404542622E-02 
941	 6.84104316188735E-02 
942	 6.83797532029492E-02 
943	 6.84064038380455E-02 
944	 6.84765947926765E-02 
945	 6.84596309526258E-02 
946	 6.84385001320372E-02 
947	 6.85219321536091E-02 
948	 6.84596514889645E-02 
949	 6.84229881765005E-02 
950	 6.83890860904956E-02 
951	 6.82956397549027E-02 
952	 6.84417318304388E-02 
953	 0.068522858048089 
954	 6.84767309566009E-02 
955	 0.068415936267505 
956	 6.84507385191425E-02 
957	 0.068490717231272 
958	 6.85027297484909E-02 
959	 0.068501353382647 
960	 6.84954584672305E-02 
961	 6.85241923127887E-02 
962	 6.85703171683334E-02 
963	 6.85699608138647E-02 
964	 6.84100876895836E-02 
965	 6.84317574951827E-02 
966	 6.85672308647898E-02 
967	 6.85141743820792E-02 
968	 6.84782890220724E-02 
969	 6.84508964271604E-02 
970	 6.84141887172158E-02 
971	 6.83575951979534E-02 
972	 6.82862559191205E-02 
973	 6.83743054021031E-02 
974	 6.84932391793608E-02 
975	 6.83989658907701E-02 
976	 6.84606461820797E-02 
977	 6.85852079990697E-02 
978	 6.86489917131602E-02 
979	 6.85663101494126E-02 
980	 6.84317578628516E-02 
981	 6.83250262036424E-02 
982	 6.82796926801075E-02 
983	 6.82919350466881E-02 
984	 6.83599360844306E-02 
985	 6.84408950527622E-02 
986	 6.84461072350238E-02 
987	 6.83518641987761E-02 
988	 6.85469634092334E-02 
989	 6.85347021304551E-02 
990	 6.84236501636037E-02 
991	 6.85496569479935E-02 
992	 6.86510891752267E-02 
993	 6.85449244122963E-02 
994	 6.84571123766311E-02 
995	 6.86125334036457E-02 
996	 6.84272189441947E-02 
997	 6.84408370914312E-02 
998	 6.85451109842296E-02 
999	 6.85018169172766E-02 
1000	 6.86249393747501E-02 
1001	 6.78153633660373E-02 
1002	 6.77930075463113E-02 
1003	 6.77752983638023E-02 
1004	 6.77652021178293E-02 
1005	 6.78036094803412E-02 
1006	 6.77748577343261E-02 
1007	 6.76863138553691E-02 
1008	 6.76813856891212E-02 
1009	 6.76551489461462E-02 
1010	 6.76048959009679E-02 
1011	 6.76895463480216E-02 
1012	 6.77164637154698E-02 
1013	 6.76776960009008E-02 
1014	 6.76634021706183E-02 
1015	 6.76543158299767E-02 
1016	 6.76759496663403E-02 
1017	 6.76713105482797E-02 
1018	 6.76779806758053E-02 
1019	 6.77103339631591E-02 
1020	 6.77024318998491E-02 
1021	 6.76330230368563E-02 
1022	 6.76103892177161E-02 
1023	 6.75863922351865E-02 
1024	 6.75713603240654E-02 
1025	 6.75624460590736E-02 
1026	 0.067536838717276 
1027	 6.75665432521428E-02 
1028	 0.067575503520973 
1029	 6.75607414784623E-02 
1030	 6.75746095193727E-02 
1031	 6.75473179704677E-02 
1032	 6.74708858132841E-02 
1033	 6.74187258689015E-02 
1034	 6.74537323956923E-02 
1035	 6.74151109336873E-02 
1036	 6.74034608730685E-02 
1037	 6.74504002756294E-02 
1038	 6.73951298526437E-02 
1039	 6.73789515127461E-02 
1040	 6.73948422271075E-02 
1041	 6.73372574034749E-02 
1042	 6.73146963882323E-02 
1043	 6.72889838594625E-02 
1044	 6.72419422667206E-02 
1045	 6.71719714540265E-02 
1046	 6.71569501659955E-02 
1047	 6.71670845844371E-02 
1048	 6.71485218390307E-02 
1049	 6.71601830596555E-02 
1050	 6.71893179729147E-02 
1051	 6.71653814194169E-02 
1052	 6.71277586618139E-02 
1053	 6.71022575669529E-02 
1054	 6.71038787119035E-02 
1055	 6.71263761733999E-02 
1056	 6.71180338033855E-02 
1057	 0.067125824246887 
1058	 6.71552348116878E-02 
1059	 0.067192349108434 
1060	 0.067215452235897 
1061	 6.72956143866398E-02 
1062	 6.73264756782173E-02 
1063	 6.73157425676231E-02 
1064	 6.73337415422037E-02 
1065	 6.72835624681146E-02 
1066	 6.72632663351183E-02 
1067	 6.73334922016216E-02 
1068	 6.73875487514231E-02 
1069	 6.74534677323234E-02 
1070	 6.74778895683243E-02 
1071	 6.74976843492594E-02 
1072	 6.75054303678227E-02 
1073	 6.74514497730938E-02 
1074	 6.74399992439848E-02 
1075	 6.74613772149512E-02 
1076	 6.74880590973486E-02 
1077	 6.74909602249213E-02 
1078	 6.75030432929248E-02 
1079	 6.75223118269887E-02 
1080	 6.75552618610728E-02 
1081	 6.75722115790494E-02 
1082	 6.75862638942502E-02 
1083	 6.75871383639418E-02 
1084	 6.75589734539695E-02 
1085	 6.75572797755616E-02 
1086	 6.75479490486907E-02 
1087	 6.75517986874093E-02 
1088	 6.75676733267668E-02 
1089	 6.76137013084932E-02 
1090	 6.76005023595963E-02 
1091	 6.76010627054774E-02 
1092	 6.76015998792263E-02 
1093	 6.75578049127232E-02 
1094	 6.75548627162068E-02 
1095	 6.75647225437611E-02 
1096	 6.75661149010311E-02 
1097	 6.76134032622558E-02 
1098	 6.76044522497715E-02 
1099	 6.75646642384081E-02 
1100	 6.75409153750743E-02 
1101	 6.74627863551569E-02 
1102	 6.74419241633985E-02 
1103	 6.74492460935479E-02 
1104	 6.74973473050809E-02 
1105	 6.75387542241908E-02 
1106	 6.75424020347148E-02 
1107	 6.75144787310126E-02 
1108	 0.067487920550488 
1109	 0.067417655612488 
1110	 6.73673602615837E-02 
1111	 6.73408232083988E-02 
1112	 6.73163808376903E-02 
1113	 6.73107273293401E-02 
1114	 6.73580900514204E-02 
1115	 6.73507622397084E-02 
1116	 6.73178434110622E-02 
1117	 6.72993118603856E-02 
1118	 6.72549495084744E-02 
1119	 6.72384808408066E-02 
1120	 6.72481784827471E-02 
1121	 6.72563739951412E-02 
1122	 6.72395515800693E-02 
1123	 0.06721642327486 
1124	 6.72063435016341E-02 
1125	 6.71886371718511E-02 
1126	 6.71769706561213E-02 
1127	 6.71832709880352E-02 
1128	 6.71774770802422E-02 
1129	 6.71807422279143E-02 
1130	 6.71538637829616E-02 
1131	 6.70875523669704E-02 
1132	 6.70634712820568E-02 
1133	 6.70374029065944E-02 
1134	 6.70147519355791E-02 
1135	 0.067015525128479 
1136	 6.70330940235819E-02 
1137	 6.70280805428538E-02 
1138	 6.70170871401556E-02 
1139	 6.70056448858179E-02 
1140	 6.70014946494437E-02 
1141	 6.69888709956136E-02 
1142	 6.69618137281987E-02 
1143	 6.69455608062934E-02 
1144	 6.69380747656295E-02 
1145	 6.69196234841459E-02 
1146	 6.68868563668666E-02 
1147	 0.066873515257084 
1148	 6.68776130772614E-02 
1149	 6.68616895939061E-02 
1150	 0.066834299866685 
1151	 6.68329462118011E-02 
1152	 6.68115392570331E-02 
1153	 6.67757754960632E-02 
1154	 6.67583640426451E-02 
1155	 6.67521559580925E-02 
1156	 0.066747483883485 
1157	 6.67451747372416E-02 
1158	 6.67490087499924E-02 
1159	 6.67715859977542E-02 
1160	 6.67711642986886E-02 
1161	 6.67617331078257E-02 
1162	 6.67545748897404E-02 
1163	 6.67347473691445E-02 
1164	 6.67225922441422E-02 
1165	 6.67244040805129E-02 
1166	 6.67092187250961E-02 
1167	 6.66864267591017E-02 
1168	 6.66701300690572E-02 
1169	 6.66620473915005E-02 
1170	 6.66546701355432E-02 
1171	 0.066653550836808 
1172	 6.66714640226108E-02 
1173	 6.66693086802303E-02 
1174	 6.66549580919915E-02 
1175	 6.66462961782644E-02 
1176	 6.66336069379552E-02 
1177	 6.66229977763661E-02 
1178	 0.066613036615932 
1179	 6.66100296556096E-02 
1180	 0.066605396935038 
1181	 6.66063493763319E-02 
1182	 6.66251770086537E-02 
1183	 0.066629200800963 
1184	 6.66324314801945E-02 
1185	 6.66338932555137E-02 
1186	 0.066636860932885 
1187	 6.66322833149219E-02 
1188	 6.66369648428347E-02 
1189	 6.66421632281365E-02 
1190	 6.66582590361569E-02 
1191	 6.66946995921623E-02 
1192	 6.67068271653421E-02 
1193	 6.67148948054042E-02 
1194	 6.67220831918855E-02 
1195	 6.67106786501525E-02 
1196	 6.67062234128461E-02 
1197	 6.67046148344037E-02 
1198	 0.066709329659538 
1199	 6.67166445117227E-02 
1200	 6.67220117878235E-02 
1201	 6.67321466989419E-02 
1202	 6.67525355991288E-02 
1203	 6.67665292755885E-02 
1204	 6.67749411922072E-02 
1205	 6.67910033884579E-02 
1206	 6.68134035872293E-02 
1207	 6.68307295821008E-02 
1208	 6.68516013378321E-02 
1209	 6.68662831691206E-02 
1210	 6.68737955807218E-02 
1211	 6.68848967276256E-02 
1212	 6.69002709164282E-02 
1213	 6.69068273400732E-02 
1214	 6.68951780847999E-02 
1215	 6.69050834934542E-02 
1216	 6.69221294475835E-02 
1217	 0.066943590233966 
1218	 6.69594245301232E-02 
1219	 6.69987019875292E-02 
1220	 6.70037019287625E-02 
1221	 6.69830531845045E-02 
1222	 0.066971246060317 
1223	 6.69401423824988E-02 
1224	 6.69349594513541E-02 
1225	 6.69422421805828E-02 
1226	 6.69467374232523E-02 
1227	 0.066969003003187 
1228	 6.69800071821333E-02 
1229	 6.69733624449782E-02 
1230	 6.69835482281359E-02 
1231	 6.70158447881058E-02 
1232	 0.067026159057017 
1233	 6.70305351526629E-02 
1234	 6.70353278471504E-02 
1235	 6.70381798559754E-02 
1236	 6.70202414247319E-02 
1237	 6.70223892283653E-02 
1238	 6.70422551513079E-02 
1239	 6.70487465007807E-02 
1240	 6.70462471046721E-02 
1241	 6.70560149069567E-02 
1242	 6.70726873145601E-02 
1243	 6.70828702182285E-02 
1244	 6.70996095457234E-02 
1245	 6.71105769323278E-02 
1246	 6.71112261512059E-02 
1247	 6.71169174311866E-02 
1248	 6.71272305457589E-02 
1249	 6.71329815172188E-02 
1250	 6.71483476718111E-02 
1251	 6.71348059678698E-02 
1252	 6.71382113415751E-02 
1253	 6.71408920443562E-02 
1254	 6.71477413016673E-02 
1255	 6.71617212116632E-02 
1256	 0.06716797251795 
1257	 6.71734151330096E-02 
1258	 6.71744621009951E-02 
1259	 6.71695997461217E-02 
1260	 6.71675937299269E-02 
1261	 6.71595011623276E-02 
1262	 6.71598250314106E-02 
1263	 6.71726336421597E-02 
1264	 6.71723367191238E-02 
1265	 6.71728719549509E-02 
1266	 6.71676415349718E-02 
1267	 6.71440731706099E-02 
1268	 6.71277438032328E-02 
1269	 6.71199573643202E-02 
1270	 6.71148084699915E-02 
1271	 0.067113547417935 
1272	 6.71206214045495E-02 
1273	 6.71298932527755E-02 
1274	 6.71460696174798E-02 
1275	 6.71563907130185E-02 
1276	 6.71642320709005E-02 
1277	 0.067178309405395 
1278	 6.71840866859869E-02 
1279	 6.72073890498398E-02 
1280	 0.067260237999164 
1281	 6.72882782333036E-02 
1282	 6.72966992565018E-02 
1283	 6.73301986032813E-02 
1284	 6.73743628245387E-02 
1285	 6.74027530865039E-02 
1286	 6.74469442195494E-02 
1287	 6.74920012998951E-02 
1288	 6.75417259660202E-02 
1289	 6.75788177189338E-02 
1290	 6.76329207460086E-02 
1291	 6.77153076205454E-02 
1292	 6.77698386958159E-02 
1293	 6.78101822543834E-02 
1294	 6.78546309685783E-02 
1295	 6.78905360814272E-02 
1296	 6.79358242446383E-02 
1297	 6.79852306437375E-02 
1298	 6.80329589677419E-02 
1299	 6.80842404956479E-02 
1300	 6.81331819608817E-02 
1301	 6.81829480017547E-02 
1302	 6.82286508028878E-02 
1303	 6.82765837440657E-02 
1304	 6.83135528304767E-02 
1305	 6.83552421704172E-02 
1306	 6.83955835515168E-02 
1307	 6.84133906705931E-02 
1308	 6.84326965595562E-02 
1309	 6.84559769637889E-02 
1310	 6.84665168842746E-02 
1311	 6.84875857276223E-02 
1312	 0.068531487666023 
1313	 6.85490408346406E-02 
1314	 6.85492832132082E-02 
1315	 6.85579062779448E-02 
1316	 6.85552612049185E-02 
1317	 6.85626215302416E-02 
1318	 6.85827337044684E-02 
1319	 6.85913746158765E-02 
1320	 6.86044312597908E-02 
1321	 6.86058722564101E-02 
1322	 6.85933158599271E-02 
1323	 6.85840410795546E-02 
1324	 6.85725091690473E-02 
1325	 6.85586036051991E-02 
1326	 6.85574063348573E-02 
1327	 6.85516825209352E-02 
1328	 6.85369388444727E-02 
1329	 6.85230672141517E-02 
1330	 6.85077148154631E-02 
1331	 6.84820321644581E-02 
1332	 6.84710057074921E-02 
1333	 6.84732822631752E-02 
1334	 6.84613641041403E-02 
1335	 0.06844113359544 
1336	 6.84291903440605E-02 
1337	 6.84161953312313E-02 
1338	 6.84034378811174E-02 
1339	 6.84039377051089E-02 
1340	 6.83962520893958E-02 
1341	 6.83816849747486E-02 
1342	 6.83636206077401E-02 
1343	 6.83408977629692E-02 
1344	 6.83164052330254E-02 
1345	 6.83016902689965E-02 
1346	 0.068284286630838 
1347	 6.82621380909565E-02 
1348	 6.82375110182874E-02 
1349	 6.82165758342927E-02 
1350	 6.81772218730339E-02 
1351	 6.81413126648182E-02 
1352	 6.81166028350097E-02 
1353	 6.80727427819982E-02 
1354	 6.80087803705385E-02 
1355	 6.79595417380105E-02 
1356	 6.78949663407707E-02 
1357	 6.78576690333449E-02 
1358	 6.78404804263386E-02 
1359	 0.067822932473061 
1360	 0.067826073607254 
1361	 6.78149096067346E-02 
1362	 6.77841133391914E-02 
1363	 6.77763667003644E-02 
1364	 6.77800500320777E-02 
1365	 6.77875007707627E-02 
1366	 6.78148926893638E-02 
1367	 6.78320778394754E-02 
1368	 6.78508324784687E-02 
1369	 6.78636342618038E-02 
1370	 6.78714091983394E-02 
1371	 6.78875522126513E-02 
1372	 6.78889082123659E-02 
1373	 6.78704884734161E-02 
1374	 6.78552851197431E-02 
1375	 6.78377120432424E-02 
1376	 6.78072827702474E-02 
1377	 6.77688472555512E-02 
1378	 6.77281690808556E-02 
1379	 6.76659430562655E-02 
1380	 6.76248091532382E-02 
1381	 6.75843210194411E-02 
1382	 6.75638163277664E-02 
1383	 6.75613108920146E-02 
1384	 6.75575947941418E-02 
1385	 6.75719219015228E-02 
1386	 0.067573578935554 
1387	 6.75725434719799E-02 
1388	 6.75727656155247E-02 
1389	 6.75734807534439E-02 
1390	 6.75705405077543E-02 
1391	 6.75555839915899E-02 
1392	 6.75283141790552E-02 
1393	 6.75034279798457E-02 
1394	 6.74734891036765E-02 
1395	 6.74492798338616E-02 
1396	 6.74420984221482E-02 
1397	 6.74384502939449E-02 
1398	 6.74429943906989E-02 
1399	 6.74414235218661E-02 
1400	 6.74472921603226E-02 
1401	 6.74471260764736E-02 
1402	 6.74351719059336E-02 
1403	 6.74361104773821E-02 
1404	 6.74465152915174E-02 
1405	 6.74494832828318E-02 
1406	 6.74516839441645E-02 
1407	 6.74579910591365E-02 
1408	 6.74662178554089E-02 
1409	 6.74718081069977E-02 
1410	 6.74759171199536E-02 
1411	 6.74874008803811E-02 
1412	 6.74992961553836E-02 
1413	 6.75075104574626E-02 
1414	 6.75443700795037E-02 
1415	 6.75618402707341E-02 
1416	 6.75729747158683E-02 
1417	 0.067607346416069 
1418	 6.76297061207664E-02 
1419	 6.76471904873854E-02 
1420	 6.76678420045679E-02 
1421	 6.76783939539589E-02 
1422	 6.76906014092987E-02 
1423	 6.77150601540443E-02 
1424	 6.77359710790051E-02 
1425	 6.77668034149044E-02 
1426	 6.77842401798706E-02 
1427	 6.77880381874663E-02 
1428	 6.78018995262404E-02 
1429	 0.067814945309823 
1430	 6.78338667522675E-02 
1431	 0.067864844027011 
1432	 6.78886214413943E-02 
1433	 6.79065312041749E-02 
1434	 6.79273233900288E-02 
1435	 6.79501103338701E-02 
1436	 6.79699437228956E-02 
1437	 6.79928839019373E-02 
1438	 6.80137830239402E-02 
1439	 6.80333625775464E-02 
1440	 6.80414760374448E-02 
1441	 6.80603557640693E-02 
1442	 6.80853143531443E-02 
1443	 6.81139149739285E-02 
1444	 6.81435749024982E-02 
1445	 6.81693448361805E-02 
1446	 0.068187764236006 
1447	 6.81945256081866E-02 
1448	 6.81997258631204E-02 
1449	 0.068200917330313 
1450	 6.82083005374091E-02 
1451	 6.82216661913765E-02 
1452	 6.82401320783474E-02 
1453	 6.82580454311342E-02 
1454	 6.82825584127797E-02 
1455	 6.83012394616865E-02 
1456	 6.83187003629307E-02 
1457	 6.83345447142427E-02 
1458	 6.83475208688606E-02 
1459	 6.83656150546071E-02 
1460	 6.83828630179138E-02 
1461	 6.84043249251581E-02 
1462	 6.84340388508155E-02 
1463	 6.84532451731137E-02 
1464	 6.84704402568615E-02 
1465	 6.84856022446596E-02 
1466	 6.84873767111869E-02 
1467	 6.85040760223079E-02 
1468	 6.85324852635578E-02 
1469	 0.06855255965408 
1470	 6.85714356650478E-02 
1471	 0.06860107408276 
1472	 6.86202019002718E-02 
1473	 6.86259372994017E-02 
1474	 0.068644325666081 
1475	 6.86590777034687E-02 
1476	 6.86650686759877E-02 
1477	 6.86783885662002E-02 
1478	 6.86926088268674E-02 
1479	 6.87073803537677E-02 
1480	 0.068721272873909 
1481	 6.87399974535466E-02 
1482	 6.87519964586472E-02 
1483	 6.87544903735465E-02 
1484	 6.87635803091683E-02 
1485	 6.87698117447079E-02 
1486	 6.87865844084771E-02 
1487	 6.88158516288819E-02 
1488	 6.88307757244574E-02 
1489	 6.88488496897501E-02 
1490	 6.88613106773533E-02 
1491	 0.068855713442134 
1492	 6.88651598512484E-02 
1493	 6.88823820945968E-02 
1494	 0.068895315537254 
1495	 0.068910228822441 
1496	 6.89273721787247E-02 
1497	 6.89496320839087E-02 
1498	 6.89644082432023E-02 
1499	 6.89805108112809E-02 
1500	 6.89887963293028E-02 
1501	 6.89838394288245E-02 
1502	 6.89838105955327E-02 
1503	 6.89816439869687E-02 
1504	 6.89825940231437E-02 
1505	 6.89848289581073E-02 
1506	 6.89886296749645E-02 
1507	 6.90015208604239E-02 
1508	 6.90187749469182E-02 
1509	 6.90320986419834E-02 
1510	 6.90457581423497E-02 
1511	 6.90553417890428E-02 
1512	 6.90553883764277E-02 
1513	 6.90547208164533E-02 
1514	 6.90566395629001E-02 
1515	 6.90644434907394E-02 
1516	 6.90817816613347E-02 
1517	 6.90928215440208E-02 
1518	 6.91079118617612E-02 
1519	 6.91223469395045E-02 
1520	 6.91316458845386E-02 
1521	 6.91430066383986E-02 
1522	 6.91617915092068E-02 
1523	 0.06917474520223 
1524	 6.91846948850966E-02 
1525	 6.91867038013896E-02 
1526	 6.91789725971581E-02 
1527	 6.91854413077217E-02 
1528	 6.91894980985572E-02 
1529	 6.92026928978583E-02 
1530	 6.92368558039086E-02 
1531	 6.92486960739483E-02 
1532	 6.92535710523894E-02 
1533	 6.92581638250823E-02 
1534	 0.069244733850168 
1535	 6.92522386272074E-02 
1536	 6.92768240470383E-02 
1537	 6.92834401031821E-02 
1538	 6.92915768653646E-02 
1539	 6.92963020799472E-02 
1540	 6.92813497774219E-02 
1541	 6.92826880152115E-02 
1542	 6.92916580600885E-02 
1543	 6.93051399667736E-02 
1544	 0.069339084786125 
1545	 6.93507771540863E-02 
1546	 6.93446044726684E-02 
1547	 6.93585464822544E-02 
1548	 6.93677047871692E-02 
1549	 6.93615826782601E-02 
1550	 0.069362525951328 
1551	 6.93671359865502E-02 
1552	 0.069365216356611 
1553	 6.93504477541832E-02 
1554	 6.93466093087607E-02 
1555	 6.93599734441946E-02 
1556	 6.93736433280761E-02 
1557	 0.069384455713807 
1558	 6.94020028947016E-02 
1559	 6.94077499794171E-02 
1560	 6.94080105428986E-02 
1561	 6.93953845606149E-02 
1562	 6.93961650576827E-02 
1563	 6.93956525416234E-02 
1564	 6.94002710525787E-02 
1565	 6.94106849036291E-02 
1566	 6.94172516208923E-02 
1567	 6.94249330465782E-02 
1568	 6.94364325096185E-02 
1569	 0.069455594377416 
1570	 6.94602558827351E-02 
1571	 6.94586236681379E-02 
1572	 0.069457389864685 
1573	 6.94441220087684E-02 
1574	 6.94399715383992E-02 
1575	 6.94410308740548E-02 
1576	 6.94448467115692E-02 
1577	 6.94516015550402E-02 
1578	 6.94562522169942E-02 
1579	 6.94634736065701E-02 
1580	 6.94735931652395E-02 
1581	 6.94908143589734E-02 
1582	 0.069490534558158 
1583	 6.94825876864332E-02 
1584	 6.94795874071802E-02 
1585	 6.94612627388637E-02 
1586	 6.94543233135878E-02 
1587	 6.94619955683322E-02 
1588	 6.94627706904491E-02 
1589	 6.94543937360398E-02 
1590	 6.94591173544648E-02 
1591	 6.94796785585025E-02 
1592	 6.94847545292528E-02 
1593	 6.94860200931549E-02 
1594	 6.94900462724206E-02 
1595	 6.94904803524556E-02 
1596	 6.94850554715061E-02 
1597	 6.94747730392149E-02 
1598	 6.94734191762575E-02 
1599	 6.94639657822657E-02 
1600	 6.94618939125454E-02 
1601	 6.94784175439391E-02 
1602	 6.94891282013023E-02 
1603	 6.94980359554075E-02 
1604	 6.95064443573261E-02 
1605	 6.95166321428982E-02 
1606	 6.95222626397219E-02 
1607	 6.95268947077576E-02 
1608	 6.95211393016178E-02 
1609	 6.95308719563207E-02 
1610	 6.95357899577069E-02 
1611	 6.95312593109487E-02 
1612	 6.95330181375829E-02 
1613	 6.95160817530359E-02 
1614	 6.95082754547049E-02 
1615	 0.069513735442111 
1616	 6.95177674935462E-02 
1617	 6.95369176099328E-02 
1618	 6.95483786516785E-02 
1619	 6.95498224959279E-02 
1620	 6.95573866350661E-02 
1621	 6.95518129779462E-02 
1622	 6.95322021663761E-02 
1623	 6.95228548518588E-02 
1624	 0.069511620700881 
1625	 6.95076500080432E-02 
1626	 6.95098744435477E-02 
1627	 6.95076263329443E-02 
1628	 6.95064522081162E-02 
1629	 6.95028820534103E-02 
1630	 6.94991714940499E-02 
1631	 6.94925593382046E-02 
1632	 6.94841504429629E-02 
1633	 0.069475430939885 
1634	 6.94567385740592E-02 
1635	 6.94578256492272E-02 
1636	 6.94718616231538E-02 
1637	 0.069475965996362 
1638	 6.94876283084527E-02 
1639	 6.94936686616629E-02 
1640	 0.069492498691962 
1641	 6.94886684110178E-02 
1642	 0.069487874869223 
1643	 6.94799056363444E-02 
1644	 6.94600800874234E-02 
1645	 6.94475125952449E-02 
1646	 6.94344165885241E-02 
1647	 6.94265653812899E-02 
1648	 6.94242862480933E-02 
1649	 6.94141718065777E-02 
1650	 6.93999979086977E-02 
1651	 0.069397191764657 
1652	 6.93929541320596E-02 
1653	 6.93941054975343E-02 
1654	 6.94109527493518E-02 
1655	 6.94169703735242E-02 
1656	 6.94165782827287E-02 
1657	 6.94192153151926E-02 
1658	 6.94232951425058E-02 
1659	 6.94250881405944E-02 
1660	 6.94263722629588E-02 
1661	 6.94251594054002E-02 
1662	 6.94234862014646E-02 
1663	 6.94177785188054E-02 
1664	 6.94006653367455E-02 
1665	 6.94016663517816E-02 
1666	 6.94202149864707E-02 
1667	 6.94118121995765E-02 
1668	 6.93994440674195E-02 
1669	 6.93875265691702E-02 
1670	 6.93440841715157E-02 
1671	 6.93363668691877E-02 
1672	 6.93592340204781E-02 
1673	 6.93646161734207E-02 
1674	 6.93747025745168E-02 
1675	 6.93798458009873E-02 
1676	 6.93776080433709E-02 
1677	 6.93779103626761E-02 
1678	 6.93753715264365E-02 
1679	 6.93819153043914E-02 
1680	 6.93973976550269E-02 
1681	 6.93992263319745E-02 
1682	 6.94057025498217E-02 
1683	 6.94012561843869E-02 
1684	 6.93731921426182E-02 
1685	 6.93650468285521E-02 
1686	 6.93588154094751E-02 
1687	 6.93623780312137E-02 
1688	 6.93866589828592E-02 
1689	 6.93919339858678E-02 
1690	 6.93993882153163E-02 
1691	 6.93944336827039E-02 
1692	 6.93695278370752E-02 
1693	 6.93537666450759E-02 
1694	 6.93306176041094E-02 
1695	 6.93238301165022E-02 
1696	 6.93347160563945E-02 
1697	 6.93256401938491E-02 
1698	 6.93067746793186E-02 
1699	 6.93076155169233E-02 
1700	 6.93073346249184E-02 
1701	 6.93073564931181E-02 
1702	 6.93304085365889E-02 
1703	 6.93363643820008E-02 
1704	 6.93227522815538E-02 
1705	 6.93230801556158E-02 
1706	 6.93324712040435E-02 
1707	 6.93308150480417E-02 
1708	 6.93271719159659E-02 
1709	 6.93186722181604E-02 
1710	 6.93059017494773E-02 
1711	 6.92926982094725E-02 
1712	 6.92706671163773E-02 
1713	 6.92568710620273E-02 
1714	 6.92401720019946E-02 
1715	 6.92363434920372E-02 
1716	 6.92432272719151E-02 
1717	 6.92522726680772E-02 
1718	 6.92738241943919E-02 
1719	 0.069282261838879 
1720	 6.92899422102933E-02 
1721	 6.92915214788335E-02 
1722	 6.92785195610136E-02 
1723	 6.92834056297831E-02 
1724	 0.06929801630609 
1725	 6.93032697608409E-02 
1726	 6.93248744906678E-02 
1727	 6.93092074242082E-02 
1728	 6.92576999638408E-02 
1729	 6.92400156948947E-02 
1730	 6.92150002528181E-02 
1731	 6.92047598137938E-02 
1732	 6.92291025768562E-02 
1733	 6.92170621266545E-02 
1734	 6.91822598200487E-02 
1735	 6.91730002550512E-02 
1736	 6.91623971689933E-02 
1737	 6.91502911000269E-02 
1738	 6.91584955673565E-02 
1739	 0.069146843832692 
1740	 6.91142845723324E-02 
1741	 0.069104496723401 
1742	 6.90990043637227E-02 
1743	 6.90858427161983E-02 
1744	 6.90811048588174E-02 
1745	 6.90734549847734E-02 
1746	 6.90535123534896E-02 
1747	 6.90780184727427E-02 
1748	 6.90862171519096E-02 
1749	 6.90923336272564E-02 
1750	 6.90977867769079E-02 
1751	 6.90710971277988E-02 
1752	 6.90346171649425E-02 
1753	 0.06901076853238 
1754	 6.89957184175464E-02 
1755	 6.89693976107712E-02 
1756	 6.89392258659546E-02 
1757	 0.068915823745572 
1758	 6.88946735848818E-02 
1759	 6.89104800478187E-02 
1760	 6.89322534451576E-02 
1761	 6.89252025217267E-02 
1762	 6.89198607534809E-02 
1763	 0.068902102254195 
1764	 6.88865166384569E-02 
1765	 6.89030684068022E-02 
1766	 6.89112888023917E-02 
1767	 6.88959189422728E-02 
1768	 6.88718526864062E-02 
1769	 6.88412726032073E-02 
1770	 6.88177697114076E-02 
1771	 6.88160736443799E-02 
1772	 0.068807874042782 
1773	 6.87822495678109E-02 
1774	 6.87678932356662E-02 
1775	 6.87453700555717E-02 
1776	 6.87341901059459E-02 
1777	 6.87412500360169E-02 
1778	 6.87294143301458E-02 
1779	 0.068729151240234 
1780	 6.87265896493155E-02 
1781	 6.87291405092244E-02 
1782	 6.87389513883793E-02 
1783	 6.87368639961289E-02 
1784	 6.87303195516167E-02 
1785	 0.068704969524155 
1786	 6.86920242180746E-02 
1787	 6.86833380313501E-02 
1788	 6.86686225600238E-02 
1789	 6.86607467034575E-02 
1790	 6.86442134262952E-02 
1791	 6.86107402312399E-02 
1792	 6.85975332835018E-02 
1793	 6.85955852547188E-02 
1794	 6.85911213814214E-02 
1795	 6.85888515421417E-02 
1796	 0.068597900461613 
1797	 6.86274156970537E-02 
1798	 6.86256486894988E-02 
1799	 0.068615648093352 
1800	 6.86023813792342E-02 
1801	 6.58848062663819E-02 
1802	 6.59785301399047E-02 
1803	 6.60767375637287E-02 
1804	 6.61644986246937E-02 
1805	 0.066240482823665 
1806	 6.63225782524282E-02 
1807	 6.63672928194168E-02 
1808	 6.64105269207989E-02 
1809	 6.64383677794967E-02 
1810	 6.64641783385319E-02 
1811	 6.64696226883218E-02 
1812	 6.65029099865723E-02 
1813	 6.65272531392131E-02 
1814	 0.06653459194427 
1815	 6.65357096495121E-02 
1816	 6.65319079559916E-02 
1817	 6.65414461360646E-02 
1818	 6.65500009115313E-02 
1819	 6.65709347873521E-02 
1820	 6.66087078812172E-02 
1821	 6.66383177809264E-02 
1822	 6.66654243134473E-02 
1823	 6.66840337470584E-02 
1824	 6.66951884872268E-02 
1825	 0.066690785561084 
1826	 6.66881963842722E-02 
1827	 6.66952778892702E-02 
1828	 6.66912207721761E-02 
1829	 6.66856443455381E-02 
1830	 6.66743534691148E-02 
1831	 6.66570984274674E-02 
1832	 6.66298630621452E-02 
1833	 6.66101981794713E-02 
1834	 6.65958527636222E-02 
1835	 6.65891779053061E-02 
1836	 6.65859964345625E-02 
1837	 6.65873330228846E-02 
1838	 6.66033951135341E-02 
1839	 6.66269936675761E-02 
1840	 6.66698046023751E-02 
1841	 0.066704364155918 
1842	 6.67308303440759E-02 
1843	 6.67649946460189E-02 
1844	 6.67835301129391E-02 
1845	 0.066806948227931 
1846	 6.68594689788923E-02 
1847	 6.68827339270183E-02 
1848	 6.68981155766718E-02 
1849	 6.69433102251318E-02 
1850	 6.69754307946772E-02 
1851	 6.69934267167846E-02 
1852	 0.06701910746975 
1853	 6.70558739959211E-02 
1854	 6.70678656364828E-02 
1855	 0.067055593447287 
1856	 0.067044875095238 
1857	 6.70728130875283E-02 
1858	 6.70997749223978E-02 
1859	 6.71306429767307E-02 
1860	 0.067150401046383 
1861	 6.71829995020936E-02 
1862	 0.067169470397775 
1863	 6.71484112841306E-02 
1864	 6.71118042893581E-02 
1865	 6.70736567158797E-02 
1866	 6.70423855782188E-02 
1867	 6.69897977335847E-02 
1868	 6.69495701610071E-02 
1869	 6.69223768993436E-02 
1870	 6.68964727604088E-02 
1871	 6.68896376628184E-02 
1872	 6.68998099554856E-02 
1873	 6.69294041773078E-02 
1874	 6.69634187549854E-02 
1875	 6.70046334071619E-02 
1876	 6.70561522843779E-02 
1877	 0.067102013822365 
1878	 6.71271695078038E-02 
1879	 6.71584247994285E-02 
1880	 6.71870781196031E-02 
1881	 6.72109849016033E-02 
1882	 6.72225140800524E-02 
1883	 6.72373988145144E-02 
1884	 6.72339529127934E-02 
1885	 6.72182949724282E-02 
1886	 6.71982034438101E-02 
1887	 6.71645713563217E-02 
1888	 6.71341047794765E-02 
1889	 6.70924169710905E-02 
1890	 0.067041663201554 
1891	 6.69949384691049E-02 
1892	 6.69574744160794E-02 
1893	 6.69011116979622E-02 
1894	 6.68324428060492E-02 
1895	 6.67659844378914E-02 
1896	 6.67011315017432E-02 
1897	 6.66336123600834E-02 
1898	 6.65746088267363E-02 
1899	 6.65236769054724E-02 
1900	 6.64763291915345E-02 
1901	 6.64370235316694E-02 
1902	 0.06639174442497 
1903	 6.63485705112827E-02 
1904	 0.066312057849164 
1905	 6.62766787857954E-02 
1906	 6.62305651009803E-02 
1907	 6.62084463073308E-02 
1908	 0.066183825180087 
1909	 6.61403080830416E-02 
1910	 6.61095562348163E-02 
1911	 0.066075495634077 
1912	 6.60336660872825E-02 
1913	 6.59943190438853E-02 
1914	 6.59533069154731E-02 
1915	 6.59137496765563E-02 
1916	 6.58698607860182E-02 
1917	 0.065833014511118 
1918	 6.58083739668052E-02 
1919	 6.58041042816318E-02 
1920	 6.58045768873173E-02 
1921	 6.57986892826432E-02 
1922	 6.57919769842448E-02 
1923	 6.57908530071796E-02 
1924	 6.57921511591293E-02 
1925	 6.58031634012062E-02 
1926	 6.58094648896989E-02 
1927	 6.58181964380706E-02 
1928	 0.065819726622759 
1929	 6.58254698287955E-02 
1930	 6.58134571334999E-02 
1931	 6.58188418377492E-02 
1932	 6.58304120956134E-02 
1933	 6.58417808699178E-02 
1934	 6.58641130000426E-02 
1935	 6.58678219439019E-02 
1936	 6.58551903211691E-02 
1937	 6.58571803829459E-02 
1938	 6.58471517815321E-02 
1939	 6.58500490412429E-02 
1940	 6.58686228419963E-02 
1941	 6.58869117089581E-02 
1942	 6.59016797155727E-02 
1943	 6.59393215387154E-02 
1944	 6.59655737108462E-02 
1945	 6.59842877620616E-02 
1946	 6.59979160021223E-02 
1947	 6.59964380684181E-02 
1948	 6.59958766798107E-02 
1949	 6.59872247373226E-02 
1950	 6.59916801253477E-02 
1951	 6.59945167472134E-02 
1952	 6.60126619026312E-02 
1953	 6.60282688069738E-02 
1954	 6.60497022776883E-02 
1955	 6.60561326986138E-02 
1956	 6.60552839627464E-02 
1957	 6.60642548868388E-02 
1958	 6.60723205634858E-02 
1959	 6.60881425654927E-02 
1960	 6.61092441246229E-02 
1961	 0.066135276132818 
1962	 6.61697563563438E-02 
1963	 6.62028494023029E-02 
1964	 6.62458994879493E-02 
1965	 6.62803940263252E-02 
1966	 6.63005225634868E-02 
1967	 6.63218819881283E-02 
1968	 6.63571798129254E-02 
1969	 6.63915777440399E-02 
1970	 6.64353365037921E-02 
1971	 6.65053010134904E-02 
1972	 6.65530822780523E-02 
1973	 6.65954361084165E-02 
1974	 6.66296373728097E-02 
1975	 6.66542558983362E-02 
1976	 6.66765725881301E-02 
1977	 6.67004844837614E-02 
1978	 6.67180681266223E-02 
1979	 6.67359704181736E-02 
1980	 6.67612080133165E-02 
1981	 6.67835552369559E-02 
1982	 6.67959661451178E-02 
1983	 0.066823192949018 
1984	 0.066865009515951 
1985	 6.68969139886999E-02 
1986	 6.69374617645853E-02 
1987	 6.69660142161916E-02 
1988	 6.69841650823475E-02 
1989	 6.69986297069747E-02 
1990	 6.70142761271123E-02 
1991	 6.70307310279524E-02 
1992	 6.70541295125462E-02 
1993	 6.70893226195105E-02 
1994	 6.71101966482872E-02 
1995	 6.71232014399285E-02 
1996	 6.71497136373729E-02 
1997	 0.067173336916493 
1998	 6.72009141769682E-02 
1999	 6.72415568505827E-02 
2000	 6.72765829549838E-02 
2001	 6.73009661003214E-02 
2002	 0.067339685308467 
2003	 6.73846451533977E-02 
2004	 0.067447079191577 
2005	 6.74961465755764E-02 
2006	 6.75524785762642E-02 
2007	 6.75994769566231E-02 
2008	 6.76347949670856E-02 
2009	 6.76738616180995E-02 
2010	 6.77210623840822E-02 
2011	 0.067751478308343 
2012	 6.77650766014148E-02 
2013	 0.0677896381935 
2014	 6.78126970720466E-02 
2015	 6.78289884034597E-02 
2016	 6.78560563553073E-02 
2017	 6.78968347948748E-02 
2018	 6.79283651862636E-02 
2019	 6.79553106295062E-02 
2020	 6.79897596107961E-02 
2021	 6.80290543341553E-02 
2022	 6.80608568199365E-02 
2023	 6.80855324473374E-02 
2024	 6.81231623500443E-02 
2025	 6.81597871115491E-02 
2026	 6.82061251252792E-02 
2027	 6.82670372650003E-02 
2028	 6.83328310086571E-02 
2029	 6.83873549723526E-02 
2030	 6.84503028127678E-02 
2031	 6.84823645528058E-02 
2032	 6.84875123608948E-02 
2033	 6.85149132671358E-02 
2034	 6.85311305298388E-02 
2035	 6.85522713371128E-02 
2036	 6.85969685473141E-02 
2037	 6.86218917635314E-02 
2038	 6.86256680688094E-02 
2039	 6.86419076589409E-02 
2040	 0.068666911698225 
2041	 0.06867397095743 
2042	 6.86943393309779E-02 
2043	 6.87260302994877E-02 
2044	 6.87510689919983E-02 
2045	 6.87770975934656E-02 
2046	 6.88048360344708E-02 
2047	 6.88403361210438E-02 
2048	 6.88582778315139E-02 
2049	 6.88600809655398E-02 
2050	 6.88803605621263E-02 
2051	 6.88969382118119E-02 
2052	 6.89166370491588E-02 
2053	 6.89688477280483E-02 
2054	 6.89927662699992E-02 
2055	 6.89944228145073E-02 
2056	 0.068990404499103 
2057	 6.90047010752652E-02 
2058	 6.90118120026214E-02 
2059	 6.90348629288891E-02 
2060	 6.90811745279619E-02 
2061	 6.91167952998414E-02 
2062	 6.91558469374521E-02 
2063	 6.91864096576073E-02 
2064	 6.92193646517805E-02 
2065	 6.92427622500954E-02 
2066	 6.92547059592339E-02 
2067	 6.92665984586369E-02 
2068	 6.92757264157925E-02 
2069	 6.92792937900299E-02 
2070	 6.92835324440736E-02 
2071	 6.92804500093069E-02 
2072	 6.92902090798361E-02 
2073	 6.93016374731936E-02 
2074	 6.93205735316654E-02 
2075	 6.93447707369373E-02 
2076	 6.93800726400973E-02 
2077	 6.94324642794145E-02 
2078	 6.94698425394371E-02 
2079	 6.95359400565585E-02 
2080	 6.95536194285408E-02 
2081	 6.95096300461922E-02 
2082	 6.95088174818446E-02 
2083	 6.94956130241907E-02 
2084	 0.069501499365885 
2085	 6.95190561146184E-02 
2086	 6.95741591352714E-02 
2087	 6.96069014065539E-02 
2088	 6.96301028447231E-02 
2089	 0.069666045386436 
2090	 6.97191681055726E-02 
2091	 6.97550273289066E-02 
2092	 6.97879654986932E-02 
2093	 6.98146187732349E-02 
2094	 6.98332098792278E-02 
2095	 6.98479671300116E-02 
2096	 6.98559535594031E-02 
2097	 6.98665396700984E-02 
2098	 6.98760039286482E-02 
2099	 6.98756266222832E-02 
2100	 6.98839460718333E-02 
2101	 6.98944853542516E-02 
2102	 0.069909556136288 
2103	 6.99189928045365E-02 
2104	 6.99505351267279E-02 
2105	 7.00042328876365E-02 
2106	 7.00416267505526E-02 
2107	 7.00913769889824E-02 
2108	 7.01264379113541E-02 
2109	 7.01407280037753E-02 
2110	 7.01645446107064E-02 
2111	 7.01818978043498E-02 
2112	 7.02143404153658E-02 
2113	 7.02473248774924E-02 
2114	 7.02963511869983E-02 
2115	 7.03546798487449E-02 
2116	 7.04391225701484E-02 
2117	 7.04857768719823E-02 
2118	 7.05303291240561E-02 
2119	 7.05644378549054E-02 
2120	 0.070574208190251 
2121	 7.05919561940921E-02 
2122	 7.06151074939121E-02 
2123	 0.070626065933157 
2124	 7.06126496638324E-02 
2125	 7.06229883552397E-02 
2126	 7.06506872193889E-02 
2127	 7.06622850415529E-02 
2128	 7.06820167269789E-02 
2129	 7.06915011739842E-02 
2130	 7.06790992108427E-02 
2131	 7.06678598715214E-02 
2132	 0.070668304641862 
2133	 7.06754231301508E-02 
2134	 7.06810714506942E-02 
2135	 7.06987679090738E-02 
2136	 7.06975420516596E-02 
2137	 7.06933753252925E-02 
2138	 7.06764690812959E-02 
2139	 7.06332434579557E-02 
2140	 7.06141307293771E-02 
2141	 7.05959723667014E-02 
2142	 0.070582617895636 
2143	 7.05926642197479E-02 
2144	 7.05853708072297E-02 
2145	 7.05711622264959E-02 
2146	 7.05527392889222E-02 
2147	 7.05272849010088E-02 
2148	 7.04935624789908E-02 
2149	 7.04727154741162E-02 
2150	 7.04582323307949E-02 
2151	 7.04307393292304E-02 
2152	 7.04083280827249E-02 
2153	 7.03740624469589E-02 
2154	 0.070330292552983 
2155	 7.02748631455963E-02 
2156	 7.02127783970405E-02 
2157	 7.01445881872809E-02 
2158	 7.00350051129874E-02 
2159	 6.99709358944719E-02 
2160	 6.99416211241751E-02 
2161	 6.98910499057227E-02 
2162	 6.98610326142417E-02 
2163	 6.98148439069755E-02 
2164	 6.97470935899819E-02 
2165	 6.96650506496743E-02 
2166	 6.96137826161327E-02 
2167	 6.95782406308794E-02 
2168	 6.95292778134005E-02 
2169	 6.94952711007985E-02 
2170	 0.069441880521605 
2171	 6.93654543907853E-02 
2172	 6.93079483925478E-02 
2173	 6.92482956172897E-02 
2174	 6.91999223519507E-02 
2175	 6.91756024152182E-02 
2176	 6.91253863213094E-02 
2177	 6.90662736320278E-02 
2178	 6.90111017965439E-02 
2179	 6.89340550500867E-02 
2180	 6.88743844024351E-02 
2181	 6.88238584944917E-02 
2182	 0.068782402801082 
2183	 6.87529247758559E-02 
2184	 6.87346512745415E-02 
2185	 6.86873931314362E-02 
2186	 6.86354524025416E-02 
2187	 6.85857771834307E-02 
2188	 6.85037774435815E-02 
2189	 6.84597870567178E-02 
2190	 6.84503217383713E-02 
2191	 6.84162018718553E-02 
2192	 6.83900676765481E-02 
2193	 6.83471292250959E-02 
2194	 6.82711522524909E-02 
2195	 6.82261614607534E-02 
2196	 6.81863909535946E-02 
2197	 6.81538244020709E-02 
2198	 6.81489626294297E-02 
2199	 6.81326043145911E-02 
2200	 6.80926013312128E-02 
2201	 6.80833894021715E-02 
2202	 6.80995489298317E-02 
2203	 6.81162880086231E-02 
2204	 6.81044869690491E-02 
2205	 6.80961619179808E-02 
2206	 6.80883411274164E-02 
2207	 6.80525961916854E-02 
2208	 6.80271125253828E-02 
2209	 6.80129333090975E-02 
2210	 6.80062136750314E-02 
2211	 6.79938493475162E-02 
2212	 6.79813211422521E-02 
2213	 6.79948855380508E-02 
2214	 6.79895693146861E-02 
2215	 6.79398939091807E-02 
2216	 6.79355546638754E-02 
2217	 6.79687174329933E-02 
2218	 6.79803643457433E-02 
2219	 6.80038397026403E-02 
2220	 6.80203943102903E-02 
2221	 6.80256580068972E-02 
2222	 6.80210693415022E-02 
2223	 6.80191258281031E-02 
2224	 6.80510909611493E-02 
2225	 6.80549576008916E-02 
2226	 6.80520157586345E-02 
2227	 6.80480066172681E-02 
2228	 6.80275932891388E-02 
2229	 6.80283879425053E-02 
2230	 0.068036895947751 
2231	 6.80473206707961E-02 
2232	 6.80656353530877E-02 
2233	 6.80910689012849E-02 
2234	 6.81329579370498E-02 
2235	 6.81493313549433E-02 
2236	 6.81656054601237E-02 
2237	 6.81740312476617E-02 
2238	 6.81529638084806E-02 
2239	 6.81505161780919E-02 
2240	 6.81506407260905E-02 
2241	 6.81578093144135E-02 
2242	 6.81767752914427E-02 
2243	 0.068191577511943 
2244	 6.82104828573188E-02 
2245	 6.82409795859488E-02 
2246	 0.068244940073798 
2247	 6.82206260919956E-02 
2248	 6.82071239084878E-02 
2249	 6.81683016769391E-02 
2250	 6.81704172509967E-02 
2251	 6.81979280822178E-02 
2252	 6.82100945819876E-02 
2253	 6.82314914562286E-02 
2254	 6.82498902863361E-02 
2255	 6.82612753304123E-02 
2256	 6.82754378054129E-02 
2257	 6.82920317045299E-02 
2258	 6.83161654846907E-02 
2259	 6.83439189751906E-02 
2260	 6.83623618673975E-02 
2261	 6.84024810087685E-02 
2262	 6.84127625265405E-02 
2263	 6.83843135213041E-02 
2264	 6.83798162590701E-02 
2265	 6.83618873907201E-02 
2266	 0.068363049252955 
2267	 6.83899079376294E-02 
2268	 6.84158419837823E-02 
2269	 6.84536921431057E-02 
2270	 0.068481643089829 
2271	 6.85219090635625E-02 
2272	 6.85612597996494E-02 
2273	 6.86060680958097E-02 
2274	 6.86348505842953E-02 
2275	 6.86418788367597E-02 
2276	 6.86154084572388E-02 
2277	 6.86268741753764E-02 
2278	 6.86383354945566E-02 
2279	 6.86461945681075E-02 
2280	 6.86660623624477E-02 
2281	 6.87003339382667E-02 
2282	 6.87458792195006E-02 
2283	 6.87701479499938E-02 
2284	 6.88201062383106E-02 
2285	 6.88262981819251E-02 
2286	 6.87546060526384E-02 
2287	 6.87403523444341E-02 
2288	 0.068734925433584 
2289	 0.068757203969328 
2290	 6.88372475264539E-02 
2291	 6.88799312428087E-02 
2292	 6.89297245719787E-02 
2293	 6.89543743644422E-02 
2294	 6.89332287330542E-02 
2295	 6.89389818326118E-02 
2296	 6.89537133539651E-02 
2297	 6.89584851730938E-02 
2298	 6.89612920911946E-02 
2299	 6.89803317508353E-02 
2300	 6.90000525351007E-02 
2301	 6.90048707812868E-02 
2302	 6.90132756380968E-02 
2303	 6.90167975103524E-02 
2304	 6.90060767182661E-02 
2305	 6.90205093576965E-02 
2306	 6.90514339446959E-02 
2307	 6.91325587987023E-02 
2308	 6.91522413256271E-02 
2309	 6.91458004799241E-02 
2310	 6.91636641163633E-02 
2311	 6.91608685199885E-02 
2312	 6.91689228215783E-02 
2313	 6.92154184317309E-02 
2314	 6.92264109139874E-02 
2315	 6.92030632160381E-02 
2316	 6.91974315274282E-02 
2317	 0.069182405245731 
2318	 6.91873664890814E-02 
2319	 6.92046527338837E-02 
2320	 0.069227752205429 
2321	 6.92641798933401E-02 
2322	 6.93042542670482E-02 
2323	 6.93737691075928E-02 
2324	 6.94032015205698E-02 
2325	 6.94105526224485E-02 
2326	 6.94304217335896E-02 
2327	 6.94265676851193E-02 
2328	 6.94230019833425E-02 
2329	 6.94803367501491E-02 
2330	 6.95227300564035E-02 
2331	 0.069561247494627 
2332	 6.95977704900743E-02 
2333	 0.069625782242899 
2334	 6.96663657120514E-02 
2335	 6.97112790147712E-02 
2336	 6.97523039473926E-02 
2337	 6.97456411660011E-02 
2338	 6.97385043955266E-02 
2339	 6.97432895184116E-02 
2340	 6.97333505481669E-02 
2341	 6.97600359782312E-02 
2342	 6.97610212064277E-02 
2343	 6.97795461437242E-02 
2344	 6.98129495052674E-02 
2345	 6.98076504277591E-02 
2346	 6.97950093279294E-02 
2347	 6.97925446537597E-02 
2348	 6.97490397695007E-02 
2349	 6.97374827053611E-02 
2350	 6.97651543404423E-02 
2351	 0.069756322712915 
2352	 6.97191587024524E-02 
2353	 6.97201797999451E-02 
2354	 6.97281044017412E-02 
2355	 6.97397601811972E-02 
2356	 6.97770220113427E-02 
2357	 6.98065769611933E-02 
2358	 6.98410553538057E-02 
2359	 6.98597067461425E-02 
2360	 6.98847853659109E-02 
2361	 6.98920815747142E-02 
2362	 6.98573222599916E-02 
2363	 6.98530532963128E-02 
2364	 0.069836842822531 
2365	 6.98764692528365E-02 
2366	 6.99878081676407E-02 
2367	 7.00385431729121E-02 
2368	 7.01127234124642E-02 
2369	 7.01166642476516E-02 
2370	 7.00266912980738E-02 
2371	 6.99942048530042E-02 
2372	 6.99586668156453E-02 
2373	 6.99416034480045E-02 
2374	 6.99448450509226E-02 
2375	 6.99362825805301E-02 
2376	 6.98877869735646E-02 
2377	 6.98252640509722E-02 
2378	 0.069763161741157 
2379	 6.97272665961665E-02 
2380	 6.97513818502405E-02 
2381	 6.98248980108335E-02 
2382	 6.98859851839976E-02 
2383	 6.98753770852979E-02 
2384	 6.98916269875684E-02 
2385	 6.99184981597218E-02 
2386	 6.99746477016845E-02 
2387	 7.00519033990304E-02 
2388	 7.00327717376077E-02 
2389	 6.99954079030901E-02 
2390	 6.99307085860302E-02 
2391	 6.98873869146104E-02 
2392	 6.98776391021943E-02 
2393	 6.98251200033844E-02 
2394	 6.98438983642736E-02 
2395	 6.99063567775384E-02 
2396	 6.99243627691315E-02 
2397	 6.99157434342132E-02 
2398	 6.99091884883012E-02 
2399	 6.98444511108131E-02 
2400	 6.97645363426863E-02 
2401	 0.069813656550842 
2402	 6.98788113391898E-02 
2403	 6.98574602948521E-02 
2404	 6.98232898045405E-02 
2405	 6.97850954754272E-02 
2406	 6.97171949547355E-02 
2407	 6.97069620262655E-02 
2408	 6.97489178643023E-02 
2409	 6.97821766266999E-02 
2410	 0.069784894979317 
2411	 6.97195210106149E-02 
2412	 6.96778631253418E-02 
2413	 6.96400114175034E-02 
2414	 6.95639521277547E-02 
2415	 6.95758202632924E-02 
2416	 6.96202057056035E-02 
2417	 6.97193905221043E-02 
2418	 0.069762823142093 
2419	 6.98683116859547E-02 
2420	 6.98728881312618E-02 
2421	 6.97958724072638E-02 
2422	 6.97271156631541E-02 
2423	 6.95444173663445E-02 
2424	 6.95234449894042E-02 
2425	 6.95820053175505E-02 
2426	 6.95922439060581E-02 
2427	 6.97470114751359E-02 
2428	 6.97894234267882E-02 
2429	 6.97103637050626E-02 
2430	 6.96581269392707E-02 
2431	 0.069604366130492 
2432	 6.95147171654893E-02 
2433	 6.93561996187088E-02 
2434	 6.92502902739392E-02 
2435	 6.90956508343947E-02 
2436	 6.90888810557068E-02 
2437	 6.92314976957712E-02 
2438	 6.92988638644725E-02 
2439	 6.94506524297167E-02 
2440	 6.95004123372032E-02 
2441	 6.94648125163064E-02 
2442	 6.94286792494634E-02 
2443	 6.93210255004289E-02 
2444	 6.93021835158557E-02 
2445	 6.92858606069608E-02 
2446	 6.92651657959359E-02 
2447	 6.93106070578316E-02 
2448	 6.93732932858789E-02 
2449	 6.94573840140094E-02 
2450	 6.94726946270541E-02 
2451	 6.94978676177923E-02 
2452	 6.95057748162718E-02 
2453	 6.94377333122461E-02 
2454	 6.93722054202726E-02 
2455	 6.93249094117371E-02 
2456	 6.92326429254561E-02 
2457	 6.90362118054177E-02 
2458	 6.89877881353051E-02 
2459	 6.90712388731997E-02 
2460	 6.89864187109018E-02 
2461	 6.89110432571524E-02 
2462	 6.88628659850373E-02 
2463	 6.85881168414431E-02 
2464	 6.85430857044436E-02 
2465	 6.87234375405849E-02 
2466	 6.87623302895514E-02 
2467	 6.88699218004736E-02 
2468	 6.89217698189603E-02 
2469	 6.87991717751894E-02 
2470	 6.87229164408661E-02 
2471	 0.068856196376282 
2472	 6.88468758240221E-02 
2473	 6.89791956002507E-02 
2474	 6.90369284330447E-02 
2475	 6.87842804095648E-02 
2476	 6.86327003418717E-02 
2477	 6.86331231252759E-02 
2478	 0.068526708891072 
2479	 6.85889019235367E-02 
2480	 6.87520751923645E-02 
2481	 6.87626239441577E-02 
2482	 6.88476468730407E-02 
2483	 6.87454045600178E-02 
2484	 0.068696170677351 
2485	 6.88146100248686E-02 
2486	 6.88468988037992E-02 
2487	 6.89596088322022E-02 
2488	 6.88368087981584E-02 
2489	 6.85320101597729E-02 
2490	 6.83668584145317E-02 
2491	 6.82889038719481E-02 
2492	 0.068364039913168 
2493	 6.85369779162421E-02 
2494	 6.87025987057258E-02 
2495	 6.88569554651872E-02 
2496	 6.88400840764744E-02 
2497	 6.87729528965537E-02 
2498	 6.88059615115306E-02 
2499	 6.87747967521399E-02 
2500	 6.87543357384675E-02 
