Wavelength	LMW_1600003.asd
350	 9.01705756940044E-02 
351	 9.13132162368619E-02 
352	 0.08407600806397 
353	 7.56736675437575E-02 
354	 8.28290150998226E-02 
355	 8.66285889687615E-02 
356	 8.53148913301508E-02 
357	 8.32034144850664E-02 
358	 8.91481719809442E-02 
359	 9.19852780998466E-02 
360	 9.08964253513836E-02 
361	 9.16447737515962E-02 
362	 9.05707146365183E-02 
363	 8.93056971973416E-02 
364	 8.95569457007363E-02 
365	 9.25142371685508E-02 
366	 9.16191457838276E-02 
367	 9.02996526604968E-02 
368	 9.30518601899299E-02 
369	 9.73018240019743E-02 
370	 9.91913809623133E-02 
371	 0.099490774438229 
372	 0.101645210865669 
373	 0.102372069777174 
374	 0.101182731575074 
375	 0.100197497294087 
376	 0.105658921682156 
377	 0.108524655085954 
378	 0.107909892817262 
379	 0.106213850127928 
380	 0.107606871443555 
381	 0.109926149148558 
382	 0.112388492661492 
383	 0.115346584251152 
384	 0.118267809763023 
385	 0.118265727566481 
386	 0.116360091777062 
387	 0.121864998484576 
388	 0.123844573600807 
389	 0.123727870648504 
390	 0.125933354137492 
391	 0.129026219349074 
392	 0.130322783764171 
393	 0.131816966574511 
394	 0.138633174855564 
395	 0.139682584816311 
396	 0.139635274914944 
397	 0.142438374194895 
398	 0.144690461824595 
399	 0.148118737367562 
400	 0.151692533158602 
401	 0.153628405935975 
402	 0.153631130573061 
403	 0.155368931235131 
404	 0.158911798971439 
405	 0.160698973038117 
406	 0.162629059581115 
407	 0.164412905072112 
408	 0.165746458506658 
409	 0.167220860246257 
410	 0.168778309428341 
411	 0.17087016279267 
412	 0.173748606668243 
413	 0.17473891046279 
414	 0.175277209232752 
415	 0.176269619521288 
416	 0.177455492279321 
417	 0.178333587545904 
418	 0.179096283721089 
419	 0.179983811196993 
420	 0.180827597726772 
421	 0.180949672590215 
422	 0.181084318456092 
423	 0.182564175500177 
424	 0.182767661876679 
425	 0.182447676831628 
426	 0.182409651092985 
427	 0.182799874613759 
428	 0.18261806792834 
429	 0.182084491408728 
430	 0.181833804828216 
431	 0.182380619925415 
432	 0.182560076357099 
433	 0.182360162133746 
434	 0.182884592444443 
435	 0.183298375289415 
436	 0.183551089669771 
437	 0.183872665576181 
438	 0.184779174449927 
439	 0.186259564588559 
440	 0.187858130885 
441	 0.189032339753088 
442	 0.190522239154515 
443	 0.192188229841116 
444	 0.193823994167764 
445	 0.195259780749585 
446	 0.196641681704439 
447	 0.19812124485561 
448	 0.199808765783379 
449	 0.201682883409996 
450	 0.20342459615568 
451	 0.205043779184209 
452	 0.206822442130269 
453	 0.208523332869338 
454	 0.209956229814846 
455	 0.211232709081494 
456	 0.21328859561998 
457	 0.21453842387357 
458	 0.215374277942061 
459	 0.21688375693592 
460	 0.217883448007274 
461	 0.218805666379271 
462	 0.219868156279866 
463	 0.220786572387386 
464	 0.22171258818996 
465	 0.222606853739304 
466	 0.223425205429168 
467	 0.224295696397763 
468	 0.22522273205668 
469	 0.226114998165357 
470	 0.226827853559113 
471	 0.227613865012593 
472	 0.228410334096472 
473	 0.229170150611964 
474	 0.230019122842072 
475	 0.230849862318587 
476	 0.231527910619852 
477	 0.232000677505519 
478	 0.232853437261458 
479	 0.233771726608904 
480	 0.234573548274431 
481	 0.235370286988005 
482	 0.236299603209476 
483	 0.237192033023917 
484	 0.237899724027539 
485	 0.238755377330269 
486	 0.239480856291531 
487	 0.240043234627719 
488	 0.240639144973931 
489	 0.241522412348509 
490	 0.242582040078094 
491	 0.243623404752513 
492	 0.244428354083614 
493	 0.245184365197159 
494	 0.245957728752079 
495	 0.246773896386814 
496	 0.247798414255064 
497	 0.248795650993209 
498	 0.249653289929659 
499	 0.250496698672434 
500	 0.251294261426537 
501	 0.252049858530386 
502	 0.252801446409481 
503	 0.253698067656488 
504	 0.254633536386429 
505	 0.255466394072432 
506	 0.256064587527028 
507	 0.257044266566474 
508	 0.258074636650726 
509	 0.258832683265194 
510	 0.259509659554157 
511	 0.260303472347126 
512	 0.261189483768766 
513	 0.262025304733095 
514	 0.262859598911943 
515	 0.263659053282721 
516	 0.264418128714464 
517	 0.265185781224672 
518	 0.266024400843821 
519	 0.26681856713072 
520	 0.267477818293578 
521	 0.268368223749492 
522	 0.2692641515051 
523	 0.270069007184601 
524	 0.27085548228357 
525	 0.271536609157818 
526	 0.272277751509897 
527	 0.27317737115623 
528	 0.273947301992207 
529	 0.274783062419556 
530	 0.275633857952751 
531	 0.276312053403972 
532	 0.277026208933293 
533	 0.277896353581681 
534	 0.278883159532806 
535	 0.279642352629135 
536	 0.280438196930499 
537	 0.281336643251878 
538	 0.282287298321597 
539	 0.282997713223237 
540	 0.283743308570837 
541	 0.284621790599918 
542	 0.285432457819134 
543	 0.286333389240837 
544	 0.287262937070617 
545	 0.288128459953888 
546	 0.288947844008991 
547	 0.289857576099375 
548	 0.290879125714475 
549	 0.291927929941784 
550	 0.292858994258792 
551	 0.293722377377318 
552	 0.294607124541945 
553	 0.295605771335352 
554	 0.296542938533435 
555	 0.29740567027123 
556	 0.298270343759159 
557	 0.299173800549496 
558	 0.300015467506187 
559	 0.300771103405272 
560	 0.301568613225565 
561	 0.30243422762877 
562	 0.303370499588678 
563	 0.304357547468902 
564	 0.305348767912834 
565	 0.306331087279623 
566	 0.307421396512303 
567	 0.308866798110506 
568	 0.31013982042507 
569	 0.311070295878978 
570	 0.311670205590855 
571	 0.31214903915139 
572	 0.31281080471769 
573	 0.313697293950762 
574	 0.31463745758004 
575	 0.315438576283546 
576	 0.316126247359576 
577	 0.316763821081595 
578	 0.317366489447081 
579	 0.318193986665055 
580	 0.319305643978967 
581	 0.320619693354913 
582	 0.321878258378542 
583	 0.322955590483922 
584	 0.323743780296405 
585	 0.324125592805702 
586	 0.324553315031675 
587	 0.324996763743964 
588	 0.325332211723294 
589	 0.325730487412758 
590	 0.326125383204554 
591	 0.326479697900308 
592	 0.326792859687749 
593	 0.327038612416053 
594	 0.327403611606963 
595	 0.328059501443571 
596	 0.329055864919227 
597	 0.330233820373343 
598	 0.331460279804866 
599	 0.332620755540815 
600	 0.333615622093918 
601	 0.334395950312151 
602	 0.33498190858812 
603	 0.33549700676362 
604	 0.335922436540591 
605	 0.336366703149008 
606	 0.336950324057678 
607	 0.337641537658671 
608	 0.338236300325141 
609	 0.338728238786988 
610	 0.339344677151799 
611	 0.340051737580621 
612	 0.340802104755774 
613	 0.341536366860437 
614	 0.342196678780633 
615	 0.342868364281542 
616	 0.343484657919311 
617	 0.343902980881292 
618	 0.344474190787496 
619	 0.345104967964377 
620	 0.345686522140681 
621	 0.346221615496661 
622	 0.34676264132036 
623	 0.347321690265903 
624	 0.347887478453035 
625	 0.348424510732767 
626	 0.348910983714182 
627	 0.349373501224811 
628	 0.349896694873401 
629	 0.350446859641769 
630	 0.350925497433642 
631	 0.351302054047896 
632	 0.351877192731848 
633	 0.352433642374477 
634	 0.35289255181601 
635	 0.353312701700166 
636	 0.353909034803382 
637	 0.354458330681901 
638	 0.354819468867217 
639	 0.355239698339014 
640	 0.355697502874144 
641	 0.356148643341776 
642	 0.356558469488744 
643	 0.357131361621874 
644	 0.357639870237983 
645	 0.358009102340143 
646	 0.358441796382046 
647	 0.35883611895828 
648	 0.359235155267019 
649	 0.35969950012005 
650	 0.360205355359035 
651	 0.360643897821401 
652	 0.361024388136579 
653	 0.361458402087701 
654	 0.361923933369395 
655	 0.362380485209467 
656	 0.362796727412054 
657	 0.363159528760797 
658	 0.363613805098756 
659	 0.364133334870521 
660	 0.364606480796135 
661	 0.365005610939856 
662	 0.365335690114145 
663	 0.365683755272952 
664	 0.366249047126414 
665	 0.366797279511628 
666	 0.367180925359601 
667	 0.367388480492901 
668	 0.367811737080559 
669	 0.368308820854427 
670	 0.368792697363962 
671	 0.369234203745885 
672	 0.369590238166561 
673	 0.370007259460679 
674	 0.370531958719969 
675	 0.370902138636124 
676	 0.371227231172889 
677	 0.371577575788525 
678	 0.371999987529411 
679	 0.372463301604372 
680	 0.372876790152651 
681	 0.373236376507359 
682	 0.373655875349638 
683	 0.374011966122153 
684	 0.37436340890418 
685	 0.37477898364697 
686	 0.375193310902274 
687	 0.37556877118793 
688	 0.375921800801947 
689	 0.376302322008127 
690	 0.376661309640568 
691	 0.377031714234683 
692	 0.37743179982879 
693	 0.377835549208592 
694	 0.378171213935424 
695	 0.378488996237846 
696	 0.3788682301434 
697	 0.37926904249302 
698	 0.37962081099194 
699	 0.379946046902259 
700	 0.380359093123203 
701	 0.380656015410334 
702	 0.380918632309652 
703	 0.381240217545848 
704	 0.381569341524349 
705	 0.381892995069067 
706	 0.382157454091146 
707	 0.382333241102779 
708	 0.382745409083963 
709	 0.383163012588267 
710	 0.383465021628084 
711	 0.383777458462565 
712	 0.384081142713552 
713	 0.384297859466852 
714	 0.384417486585469 
715	 0.384751284313655 
716	 0.385065556025408 
717	 0.385324287417536 
718	 0.385627194382839 
719	 0.385772669202378 
720	 0.385919543543041 
721	 0.386150153109003 
722	 0.386287762182714 
723	 0.386563808348145 
724	 0.386911846565958 
725	 0.387184607734563 
726	 0.387407196297736 
727	 0.387549876545481 
728	 0.387648267029621 
729	 0.387793906616457 
730	 0.387944477630178 
731	 0.388128001760332 
732	 0.388341395724391 
733	 0.388474996003791 
734	 0.388660154386085 
735	 0.38883179208936 
736	 0.388892896536052 
737	 0.38908101564112 
738	 0.3892576219473 
739	 0.389380704504076 
740	 0.389540733490914 
741	 0.389662309716268 
742	 0.389738491809352 
743	 0.38979074576149 
744	 0.389866323708004 
745	 0.390011735418314 
746	 0.390188210348591 
747	 0.390309338236519 
748	 0.390304748430123 
749	 0.390241775154494 
750	 0.390221273840934 
751	 0.390360451937623 
752	 0.390517619534541 
753	 0.390629339796135 
754	 0.390678405912371 
755	 0.390722325670453 
756	 0.390707254576097 
757	 0.390686201521853 
758	 0.390751991526085 
759	 0.390872722655035 
760	 0.390872126443288 
761	 0.390752787864994 
762	 0.390750372321604 
763	 0.390787629205803 
764	 0.390817405036479 
765	 0.390819923564832 
766	 0.390844020619269 
767	 0.39089044698862 
768	 0.390890003480834 
769	 0.390776912254545 
770	 0.390768492007036 
771	 0.390784574642114 
772	 0.390755810129983 
773	 0.390663025211532 
774	 0.390559671519445 
775	 0.390533124843489 
776	 0.390601230981273 
777	 0.390588461747622 
778	 0.390525295666633 
779	 0.390468270056175 
780	 0.390465580397679 
781	 0.390411195491768 
782	 0.390321840029572 
783	 0.39021392269941 
784	 0.390096691931377 
785	 0.390073276497802 
786	 0.390039513752245 
787	 0.389935661421384 
788	 0.389908439328544 
789	 0.389895220438437 
790	 0.389823855190066 
791	 0.389642826688601 
792	 0.389415297107924 
793	 0.38931021773856 
794	 0.389361352132979 
795	 0.389458724194118 
796	 0.389311139585959 
797	 0.389131378731275 
798	 0.389062667071726 
799	 0.388963659569978 
800	 0.388873657053118 
801	 0.388757733628162 
802	 0.38860425404328 
803	 0.388563398558796 
804	 0.388537955101402 
805	 0.388487264020719 
806	 0.388415270930302 
807	 0.388352268395462 
808	 0.388220833897926 
809	 0.388043224066194 
810	 0.387979056055059 
811	 0.388017143521674 
812	 0.387940861589277 
813	 0.387657739365418 
814	 0.387521046576606 
815	 0.387436731688782 
816	 0.387378577322911 
817	 0.387334417828831 
818	 0.387264267422035 
819	 0.387190718978599 
820	 0.387092869026096 
821	 0.386923815623513 
822	 0.386816809383755 
823	 0.386714652065289 
824	 0.386575819757728 
825	 0.386432187133863 
826	 0.386371346873279 
827	 0.38629430984156 
828	 0.386141905262779 
829	 0.386175000412206 
830	 0.386027499468765 
831	 0.385853463169567 
832	 0.385961414901082 
833	 0.385909684325786 
834	 0.385800463942237 
835	 0.38566017674479 
836	 0.385434161365431 
837	 0.385447855750451 
838	 0.385495723136841 
839	 0.385415465398274 
840	 0.38527579565876 
841	 0.385118471189711 
842	 0.384964046950552 
843	 0.384836425967856 
844	 0.384810050446725 
845	 0.384729050575509 
846	 0.384595108755765 
847	 0.384490592768217 
848	 0.38446456836327 
849	 0.384459813729433 
850	 0.384421102497442 
851	 0.384316080304337 
852	 0.384241445969863 
853	 0.384194850034481 
854	 0.38413178754131 
855	 0.38397507868242 
856	 0.383956782366716 
857	 0.3840012196908 
858	 0.383956396279543 
859	 0.383639060458768 
860	 0.383629455258017 
861	 0.383794847811139 
862	 0.383797011765674 
863	 0.383680604150636 
864	 0.383578352032301 
865	 0.383586494597357 
866	 0.383713287461682 
867	 0.383617480054106 
868	 0.38343990854546 
869	 0.383378380252409 
870	 0.383586182965862 
871	 0.383534918153919 
872	 0.383497201000179 
873	 0.383605974456802 
874	 0.383555730360573 
875	 0.383383617810275 
876	 0.383239438304524 
877	 0.383235881434144 
878	 0.383313464110573 
879	 0.383353083053536 
880	 0.383325609102656 
881	 0.383279717156265 
882	 0.383395346087651 
883	 0.383521314156756 
884	 0.383575541624185 
885	 0.383547994447146 
886	 0.383545128896539 
887	 0.383589982819899 
888	 0.383674913621233 
889	 0.383766497483933 
890	 0.383809341836089 
891	 0.383826926752982 
892	 0.383842291992914 
893	 0.383860185353126 
894	 0.383828681591255 
895	 0.383881192766442 
896	 0.384059610767903 
897	 0.384185072814066 
898	 0.384235528002037 
899	 0.384328988994738 
900	 0.38450515769328 
901	 0.384487148314011 
902	 0.384454232289294 
903	 0.384526595114595 
904	 0.384735600868455 
905	 0.38488027139372 
906	 0.385019303533637 
907	 0.385084546436063 
908	 0.385018406785284 
909	 0.385100932043445 
910	 0.385234019140492 
911	 0.385414650107984 
912	 0.385673340937749 
913	 0.385759791634655 
914	 0.385800793491068 
915	 0.385910873454643 
916	 0.386137662359605 
917	 0.386373712247493 
918	 0.386459156726396 
919	 0.386424584713135 
920	 0.386508659998445 
921	 0.386668767502273 
922	 0.386880730293561 
923	 0.387141597143335 
924	 0.387471594662843 
925	 0.387451451657401 
926	 0.387448603492029 
927	 0.387697920706933 
928	 0.38787106420704 
929	 0.388071281674738 
930	 0.388278234101992 
931	 0.388448149108192 
932	 0.388538592930531 
933	 0.388788139718517 
934	 0.38897941085699 
935	 0.388969578844772 
936	 0.389238869359676 
937	 0.389361540989126 
938	 0.38958247531925 
939	 0.390128153301222 
940	 0.390404165494052 
941	 0.390526150340137 
942	 0.390697817332462 
943	 0.391032539791433 
944	 0.391137655717891 
945	 0.391273059652229 
946	 0.391449314186295 
947	 0.391566196980853 
948	 0.39160245987633 
949	 0.391707889835624 
950	 0.39194080031358 
951	 0.392264600879951 
952	 0.392505244165567 
953	 0.392745277752278 
954	 0.392975769491402 
955	 0.393154442346149 
956	 0.393374673275821 
957	 0.393701044911658 
958	 0.393956737816388 
959	 0.393941934047774 
960	 0.394152164540454 
961	 0.394371533994072 
962	 0.394653796369735 
963	 0.39514215034887 
964	 0.395289216198595 
965	 0.39550939169457 
966	 0.395835298272043 
967	 0.396050270680134 
968	 0.396389234097655 
969	 0.39669722001042 
970	 0.396973647307311 
971	 0.397328563473736 
972	 0.397773492274236 
973	 0.398022444527505 
974	 0.398156506013148 
975	 0.398465618771058 
976	 0.398801407595289 
977	 0.39913253327831 
978	 0.399383491734315 
979	 0.399520470484071 
980	 0.399898589499108 
981	 0.40009757845591 
982	 0.400222430321538 
983	 0.400642485068968 
984	 0.401117471347287 
985	 0.401512364835691 
986	 0.401766504986938 
987	 0.401934462560724 
988	 0.402330612756387 
989	 0.402726503223147 
990	 0.403051768333684 
991	 0.403344690470799 
992	 0.403645611250308 
993	 0.403897058406646 
994	 0.404071287632868 
995	 0.404216518064569 
996	 0.404577233419848 
997	 0.405007154421669 
998	 0.40547850267039 
999	 0.405952266843753 
1000	 0.406171552320253 
1001	 0.403976920966756 
1002	 0.404246554396282 
1003	 0.404517793328104 
1004	 0.404718848258478 
1005	 0.404855086261348 
1006	 0.40503403929366 
1007	 0.405171308329895 
1008	 0.40534252829764 
1009	 0.405606671709805 
1010	 0.405866287510337 
1011	 0.406112420897548 
1012	 0.406254801960245 
1013	 0.406358163970305 
1014	 0.406556375946756 
1015	 0.406770497893929 
1016	 0.407016605093128 
1017	 0.407260520085094 
1018	 0.407558644212309 
1019	 0.407745850515926 
1020	 0.407912569753824 
1021	 0.408122987976974 
1022	 0.408310074259646 
1023	 0.408465929801516 
1024	 0.408625481170562 
1025	 0.408838013825647 
1026	 0.409073307107781 
1027	 0.409341645607908 
1028	 0.409601859281982 
1029	 0.409780302671503 
1030	 0.409925479709225 
1031	 0.410112127788926 
1032	 0.410293291793874 
1033	 0.410512584045639 
1034	 0.410753241018906 
1035	 0.41095390413737 
1036	 0.411085176550455 
1037	 0.411251557311902 
1038	 0.411430756574379 
1039	 0.411575612349251 
1040	 0.411781297765412 
1041	 0.412008841298234 
1042	 0.41220681363225 
1043	 0.412396544677199 
1044	 0.412584852451667 
1045	 0.412767608663894 
1046	 0.4129472698342 
1047	 0.413140006754732 
1048	 0.413348864164287 
1049	 0.413559929128187 
1050	 0.413774292327324 
1051	 0.413993343270801 
1052	 0.414187805265082 
1053	 0.414385501136884 
1054	 0.414556841016596 
1055	 0.414677502517408 
1056	 0.414818619028654 
1057	 0.415022124468411 
1058	 0.41531318127759 
1059	 0.41553261826719 
1060	 0.415746667763462 
1061	 0.41601220021062 
1062	 0.416185693346347 
1063	 0.41629743627339 
1064	 0.416473447174394 
1065	 0.416638853300513 
1066	 0.416782814034232 
1067	 0.416973490739509 
1068	 0.417125638240194 
1069	 0.417230125918358 
1070	 0.417406033030182 
1071	 0.417632147125513 
1072	 0.417815153558156 
1073	 0.418031343077982 
1074	 0.418233292272133 
1075	 0.418414069638611 
1076	 0.418554361129192 
1077	 0.418708436202536 
1078	 0.418863141849152 
1079	 0.419033765826863 
1080	 0.419250166023547 
1081	 0.419469257463154 
1082	 0.419652901134436 
1083	 0.419807639112 
1084	 0.419900044828766 
1085	 0.420014976959206 
1086	 0.420110366434199 
1087	 0.420238444526195 
1088	 0.420368796057005 
1089	 0.420519289539119 
1090	 0.420693391022591 
1091	 0.420868624504484 
1092	 0.42104927736133 
1093	 0.421172195448781 
1094	 0.4212654514305 
1095	 0.421368946491795 
1096	 0.42142649459865 
1097	 0.421495369403657 
1098	 0.421577320458464 
1099	 0.421657364128902 
1100	 0.42175492502534 
1101	 0.421882494481069 
1102	 0.421987811647012 
1103	 0.422094472126169 
1104	 0.422186792724486 
1105	 0.422299621190901 
1106	 0.422417978544376 
1107	 0.422548166278971 
1108	 0.422670406145469 
1109	 0.422731606457156 
1110	 0.422774333788414 
1111	 0.422848095462562 
1112	 0.422923158104735 
1113	 0.422993542731669 
1114	 0.423069828035418 
1115	 0.42315990179511 
1116	 0.423232898763904 
1117	 0.423331837854964 
1118	 0.423455363771742 
1119	 0.423606894632035 
1120	 0.423723675752517 
1121	 0.423815309216195 
1122	 0.423956758314791 
1123	 0.4240996251447 
1124	 0.42422068650064 
1125	 0.424366326306756 
1126	 0.424476776530083 
1127	 0.424538396358228 
1128	 0.424626845264042 
1129	 0.424714479535285 
1130	 0.424807715684358 
1131	 0.424913808804074 
1132	 0.425004550465073 
1133	 0.42510054349795 
1134	 0.425187598477355 
1135	 0.425259833873472 
1136	 0.425327037185352 
1137	 0.425377844817508 
1138	 0.425462576445766 
1139	 0.425567544641193 
1140	 0.425703950461983 
1141	 0.425795066465726 
1142	 0.425903357104831 
1143	 0.425980335109374 
1144	 0.426010826936727 
1145	 0.426064074651817 
1146	 0.426107737507236 
1147	 0.426167922832678 
1148	 0.426254752354829 
1149	 0.426308776124795 
1150	 0.426340059743281 
1151	 0.426409781130321 
1152	 0.426458636704628 
1153	 0.426480093533631 
1154	 0.426547653089233 
1155	 0.426662214414354 
1156	 0.426734674297128 
1157	 0.426804548148895 
1158	 0.426871837106246 
1159	 0.426914097917938 
1160	 0.426978001010423 
1161	 0.427057883543814 
1162	 0.427130275459141 
1163	 0.427202115924787 
1164	 0.427276626844232 
1165	 0.427345871289857 
1166	 0.42743096725898 
1167	 0.427497448952726 
1168	 0.427575978533571 
1169	 0.427651875993296 
1170	 0.427730082480989 
1171	 0.427790117207015 
1172	 0.427836044519373 
1173	 0.427907605147684 
1174	 0.427973839135079 
1175	 0.428049396319575 
1176	 0.428156111650847 
1177	 0.428243625674894 
1178	 0.428307955742751 
1179	 0.428395135799684 
1180	 0.428491825779461 
1181	 0.428591827136581 
1182	 0.428719687492089 
1183	 0.428825407846765 
1184	 0.428914559298186 
1185	 0.42898944210088 
1186	 0.429074179058646 
1187	 0.429146408576754 
1188	 0.429221663327261 
1189	 0.429311006397714 
1190	 0.429383505665513 
1191	 0.429428028542778 
1192	 0.429498702728282 
1193	 0.429585765739573 
1194	 0.42966012980752 
1195	 0.429732963005617 
1196	 0.42981405962193 
1197	 0.429901854434722 
1198	 0.429974983641314 
1199	 0.430044971589596 
1200	 0.430115820092299 
1201	 0.430198270080391 
1202	 0.430270253273474 
1203	 0.430354395728346 
1204	 0.430470037502269 
1205	 0.430553073632764 
1206	 0.430619118829618 
1207	 0.430687292093871 
1208	 0.430743193254033 
1209	 0.430807797482703 
1210	 0.430869150859831 
1211	 0.430937541720206 
1212	 0.431003428087122 
1213	 0.431085473642201 
1214	 0.431183609694276 
1215	 0.431278640728625 
1216	 0.431378294515298 
1217	 0.431503246936015 
1218	 0.431581221821799 
1219	 0.431641464025938 
1220	 0.431697337840269 
1221	 0.431712717354558 
1222	 0.43177017113973 
1223	 0.431856606326919 
1224	 0.431912904568215 
1225	 0.431961797357157 
1226	 0.432023785455004 
1227	 0.43207292186539 
1228	 0.432129429788781 
1229	 0.432202764719539 
1230	 0.432278283344275 
1231	 0.432347680749 
1232	 0.43242211541787 
1233	 0.43250296157251 
1234	 0.432608731562791 
1235	 0.432675936744447 
1236	 0.432726957498797 
1237	 0.432783634958474 
1238	 0.432823697360817 
1239	 0.432873832501587 
1240	 0.432931522710342 
1241	 0.432985198397919 
1242	 0.433032495871602 
1243	 0.433085164874486 
1244	 0.433139703126642 
1245	 0.433197086737362 
1246	 0.43325222837569 
1247	 0.433319141981432 
1248	 0.433397263318793 
1249	 0.433478217802815 
1250	 0.433551152712466 
1251	 0.433619102074331 
1252	 0.433678576917048 
1253	 0.433717660905245 
1254	 0.433776264644104 
1255	 0.433833285447105 
1256	 0.43390181968182 
1257	 0.433986622693729 
1258	 0.434061629206905 
1259	 0.434142672625361 
1260	 0.434218302182087 
1261	 0.434281584840199 
1262	 0.434353755703585 
1263	 0.434439609017878 
1264	 0.434510411756031 
1265	 0.434582020769177 
1266	 0.434642780797794 
1267	 0.434677982206058 
1268	 0.434722870335238 
1269	 0.434783553275919 
1270	 0.434860394035709 
1271	 0.434906520050143 
1272	 0.434956789443345 
1273	 0.434992469855128 
1274	 0.434987535636458 
1275	 0.435018293640669 
1276	 0.4350657558972 
1277	 0.435108948988829 
1278	 0.435160678030809 
1279	 0.43520873371527 
1280	 0.435264412054045 
1281	 0.435307044936931 
1282	 0.43533529618049 
1283	 0.43537312186142 
1284	 0.435406227276589 
1285	 0.435447931001595 
1286	 0.435472692284275 
1287	 0.43550881199179 
1288	 0.435560886529782 
1289	 0.43561137183114 
1290	 0.43567356925077 
1291	 0.435765022129973 
1292	 0.435835855844599 
1293	 0.435896998095828 
1294	 0.435964832246791 
1295	 0.436043656757667 
1296	 0.436106108051509 
1297	 0.436154893624757 
1298	 0.436212479645813 
1299	 0.43626168474063 
1300	 0.436318379924284 
1301	 0.43639847831765 
1302	 0.436456040778783 
1303	 0.436496369740196 
1304	 0.436545343428328 
1305	 0.436598015224254 
1306	 0.436619168297236 
1307	 0.436653325043438 
1308	 0.436661053110724 
1309	 0.436654942464839 
1310	 0.43661246514361 
1311	 0.436609679406727 
1312	 0.436620899796335 
1313	 0.436609830365353 
1314	 0.43660741611478 
1315	 0.436591485966465 
1316	 0.436535577739192 
1317	 0.436511723145794 
1318	 0.436517200398864 
1319	 0.436502306006929 
1320	 0.436497997512451 
1321	 0.436469901005658 
1322	 0.436425989974174 
1323	 0.436363041728619 
1324	 0.436309198050285 
1325	 0.436273855314116 
1326	 0.436241502862988 
1327	 0.436206233906003 
1328	 0.436131508328491 
1329	 0.436043925567411 
1330	 0.435978914530816 
1331	 0.435899604594946 
1332	 0.435848369780237 
1333	 0.435836342008046 
1334	 0.435792053369676 
1335	 0.435746830953103 
1336	 0.435699402707407 
1337	 0.435628741524193 
1338	 0.435578683503098 
1339	 0.435551081721511 
1340	 0.435496438131679 
1341	 0.435452117557024 
1342	 0.435383715714278 
1343	 0.435292031762853 
1344	 0.435182649775297 
1345	 0.435096176066352 
1346	 0.434987020441901 
1347	 0.43486893830274 
1348	 0.434743728281787 
1349	 0.434568462802756 
1350	 0.434355029039749 
1351	 0.434130779620595 
1352	 0.433874505975858 
1353	 0.433621743898962 
1354	 0.433352531400908 
1355	 0.433080442449482 
1356	 0.432777065609729 
1357	 0.432524503536653 
1358	 0.432250880301324 
1359	 0.432057773831077 
1360	 0.431930020353836 
1361	 0.431811919654262 
1362	 0.43173524200337 
1363	 0.431681536550974 
1364	 0.431643967317925 
1365	 0.43163808235048 
1366	 0.431669546385639 
1367	 0.431720056164366 
1368	 0.431812458823215 
1369	 0.431871575037589 
1370	 0.431867943853446 
1371	 0.431839983911949 
1372	 0.431763847800045 
1373	 0.431645294469189 
1374	 0.431467553488293 
1375	 0.431297602224019 
1376	 0.430964220264331 
1377	 0.430506864758518 
1378	 0.43001887417583 
1379	 0.429380174371608 
1380	 0.42883292488661 
1381	 0.428245832674737 
1382	 0.427732879900417 
1383	 0.427330084201788 
1384	 0.426819150313208 
1385	 0.426359107222177 
1386	 0.425772793392937 
1387	 0.425126664998926 
1388	 0.424365016518997 
1389	 0.423547255579929 
1390	 0.422582208050392 
1391	 0.421455191373385 
1392	 0.420202010236614 
1393	 0.41880267104577 
1394	 0.417350143096763 
1395	 0.415844911597254 
1396	 0.414297566058395 
1397	 0.412805656513577 
1398	 0.411287575441281 
1399	 0.409839740888728 
1400	 0.408432549183856 
1401	 0.40706956180773 
1402	 0.405712246542376 
1403	 0.404473072414583 
1404	 0.403289378372673 
1405	 0.402198286659503 
1406	 0.401205760708682 
1407	 0.400267673819404 
1408	 0.399308070084222 
1409	 0.398594397178556 
1410	 0.397888591757425 
1411	 0.397552266044505 
1412	 0.397456245588806 
1413	 0.397629750686657 
1414	 0.398126774977029 
1415	 0.398842032838986 
1416	 0.399763799877498 
1417	 0.400846908929056 
1418	 0.401998221204788 
1419	 0.403170449715661 
1420	 0.404355194178046 
1421	 0.405468225338113 
1422	 0.406453175086655 
1423	 0.407349514550373 
1424	 0.408067244970157 
1425	 0.408600459859368 
1426	 0.409095582196636 
1427	 0.409428826467338 
1428	 0.409781301025553 
1429	 0.410093318106295 
1430	 0.410346517431638 
1431	 0.41056494961036 
1432	 0.410725330921779 
1433	 0.410807917593312 
1434	 0.410872263881897 
1435	 0.410853734938949 
1436	 0.410883999674203 
1437	 0.410935713740124 
1438	 0.41094705034495 
1439	 0.410966342637171 
1440	 0.410959102927498 
1441	 0.410881556294475 
1442	 0.410790261901332 
1443	 0.410705494673302 
1444	 0.410646380063842 
1445	 0.410645984270794 
1446	 0.41063760015459 
1447	 0.410620550901806 
1448	 0.410600174307976 
1449	 0.410513805134026 
1450	 0.41041349565187 
1451	 0.410330583901902 
1452	 0.410233834037765 
1453	 0.410163207364103 
1454	 0.4101223002867 
1455	 0.410047398060574 
1456	 0.409989364312105 
1457	 0.40987999671353 
1458	 0.409714153815193 
1459	 0.409591558508664 
1460	 0.409427787349369 
1461	 0.409334124298223 
1462	 0.409307752278303 
1463	 0.409251842187906 
1464	 0.409232126070552 
1465	 0.409184148008356 
1466	 0.40909160446127 
1467	 0.409039859633545 
1468	 0.40896207021544 
1469	 0.408952808982474 
1470	 0.408999660387285 
1471	 0.409064817615056 
1472	 0.409150229551919 
1473	 0.40926548587536 
1474	 0.409330046111488 
1475	 0.409403502290716 
1476	 0.409492687637837 
1477	 0.409583836126337 
1478	 0.409729447306791 
1479	 0.409868827695104 
1480	 0.410001262807063 
1481	 0.410140575645046 
1482	 0.410252796730438 
1483	 0.410331056489121 
1484	 0.410442685982979 
1485	 0.41055126660907 
1486	 0.410674087033328 
1487	 0.41082087105547 
1488	 0.410952780070327 
1489	 0.411098208951325 
1490	 0.411209092251419 
1491	 0.411313220956974 
1492	 0.411388444535091 
1493	 0.411408273625706 
1494	 0.411469117495566 
1495	 0.411524741513425 
1496	 0.411593515120069 
1497	 0.411706342825302 
1498	 0.411783936157828 
1499	 0.411859462009677 
1500	 0.411906848368436 
1501	 0.411907455347212 
1502	 0.411932640852963 
1503	 0.411935882704406 
1504	 0.411977278353971 
1505	 0.412038058618431 
1506	 0.412091503029624 
1507	 0.412154006458393 
1508	 0.412187547099272 
1509	 0.41219472094202 
1510	 0.412214888481198 
1511	 0.412216699354094 
1512	 0.412205167080896 
1513	 0.412227950897257 
1514	 0.412249456892959 
1515	 0.412281620590083 
1516	 0.412319605471191 
1517	 0.41231432488683 
1518	 0.412290022066771 
1519	 0.412249524727613 
1520	 0.412155641508063 
1521	 0.412119614873404 
1522	 0.412092770077887 
1523	 0.412079014774014 
1524	 0.412107539155804 
1525	 0.412095817497744 
1526	 0.412078547794315 
1527	 0.41204888479941 
1528	 0.41199346177829 
1529	 0.411948184518649 
1530	 0.411899555133176 
1531	 0.411851303840992 
1532	 0.411801729330736 
1533	 0.411761290303691 
1534	 0.411726734033339 
1535	 0.411682718162143 
1536	 0.411626173316331 
1537	 0.411597259629616 
1538	 0.411576263740359 
1539	 0.411557850589622 
1540	 0.411574944374309 
1541	 0.411566542858033 
1542	 0.411544774349204 
1543	 0.411518345119058 
1544	 0.411485940869086 
1545	 0.411443973078531 
1546	 0.411384707598526 
1547	 0.411332281682255 
1548	 0.411279357817559 
1549	 0.411225447052571 
1550	 0.411188268598171 
1551	 0.411149747321692 
1552	 0.411108286481598 
1553	 0.411073357359228 
1554	 0.411031709372743 
1555	 0.410976096740696 
1556	 0.410906201731371 
1557	 0.41083789391308 
1558	 0.410777153675133 
1559	 0.410722422552206 
1560	 0.410674507216403 
1561	 0.410649811671085 
1562	 0.41059317767303 
1563	 0.410517513596494 
1564	 0.410465351048795 
1565	 0.410412140040979 
1566	 0.410364124287825 
1567	 0.410343545341442 
1568	 0.410282340601647 
1569	 0.410200180930351 
1570	 0.410116675606006 
1571	 0.410015927829795 
1572	 0.409921340071156 
1573	 0.409814672268947 
1574	 0.409728552541538 
1575	 0.409643150051316 
1576	 0.409571910062094 
1577	 0.409523307306991 
1578	 0.409473218796715 
1579	 0.40943133598443 
1580	 0.409387089775482 
1581	 0.409348207033066 
1582	 0.409303064887564 
1583	 0.409262045546819 
1584	 0.409202873205922 
1585	 0.409131314677268 
1586	 0.409061822986023 
1587	 0.408986676824119 
1588	 0.408904126652156 
1589	 0.408828428851846 
1590	 0.40873281219016 
1591	 0.408598439056332 
1592	 0.408491570950908 
1593	 0.40838499353773 
1594	 0.40828933069929 
1595	 0.408238557492415 
1596	 0.408141847517247 
1597	 0.40801868458529 
1598	 0.407902295131828 
1599	 0.407758629609363 
1600	 0.407627487468058 
1601	 0.407497639946314 
1602	 0.407386018024155 
1603	 0.407276969946418 
1604	 0.407180546926034 
1605	 0.407114561914167 
1606	 0.407041299865464 
1607	 0.406969514565305 
1608	 0.406902059728951 
1609	 0.406837809066968 
1610	 0.40675292706852 
1611	 0.406649230679378 
1612	 0.406551736475759 
1613	 0.406433429465841 
1614	 0.40631846869331 
1615	 0.406205129644069 
1616	 0.406100633507601 
1617	 0.406048188767609 
1618	 0.405987848178697 
1619	 0.40591280023296 
1620	 0.405842930161078 
1621	 0.405743690810766 
1622	 0.405597984704499 
1623	 0.405489136780134 
1624	 0.405391935615619 
1625	 0.405279886732968 
1626	 0.40516008507283 
1627	 0.405066041066338 
1628	 0.404978097729024 
1629	 0.404882195236122 
1630	 0.404806589107715 
1631	 0.404705492926659 
1632	 0.404581765626639 
1633	 0.404472627461488 
1634	 0.404371588948228 
1635	 0.404249273693387 
1636	 0.404115315906893 
1637	 0.403984362487713 
1638	 0.403834099013544 
1639	 0.403713502372686 
1640	 0.403608514350154 
1641	 0.40350002056372 
1642	 0.403416934293377 
1643	 0.403292051110671 
1644	 0.403144850640726 
1645	 0.403007313150823 
1646	 0.402846451323684 
1647	 0.402706911822355 
1648	 0.402582805335441 
1649	 0.402455267071673 
1650	 0.40232962840842 
1651	 0.402203554167128 
1652	 0.402079849733868 
1653	 0.401959472414824 
1654	 0.401835406258994 
1655	 0.40172241863284 
1656	 0.401629712550282 
1657	 0.401508934602397 
1658	 0.401378026334106 
1659	 0.40125135628554 
1660	 0.401104066141519 
1661	 0.400978022995368 
1662	 0.400872227246357 
1663	 0.400751416354618 
1664	 0.40063606214976 
1665	 0.400502103667441 
1666	 0.400360614958156 
1667	 0.400204396658544 
1668	 0.400024843066455 
1669	 0.399857951742809 
1670	 0.399680639708981 
1671	 0.39951672318728 
1672	 0.399353390926075 
1673	 0.399213248031944 
1674	 0.399093996384306 
1675	 0.398966171758797 
1676	 0.398866495525946 
1677	 0.398730035512876 
1678	 0.398561510909929 
1679	 0.39841448352972 
1680	 0.398256125555407 
1681	 0.398115578451348 
1682	 0.398002722108888 
1683	 0.397865474972518 
1684	 0.397712715657375 
1685	 0.397581075588044 
1686	 0.397451191753457 
1687	 0.397321016909544 
1688	 0.397226353209935 
1689	 0.397078223578031 
1690	 0.396898157797442 
1691	 0.396719434311031 
1692	 0.39651092141528 
1693	 0.39631559107879 
1694	 0.396124332790568 
1695	 0.395928821436906 
1696	 0.395696768618082 
1697	 0.395538478652615 
1698	 0.395421690312841 
1699	 0.395297573135323 
1700	 0.395241508311472 
1701	 0.395118544534277 
1702	 0.394949303745063 
1703	 0.394801053383964 
1704	 0.394638445426214 
1705	 0.394485443587963 
1706	 0.394335269992119 
1707	 0.39419684063436 
1708	 0.394068475263038 
1709	 0.393931131059668 
1710	 0.393817137565175 
1711	 0.393662361860188 
1712	 0.39346651084033 
1713	 0.393301950187827 
1714	 0.393128334566901 
1715	 0.392971039275142 
1716	 0.392834233778561 
1717	 0.392696378842997 
1718	 0.392572914358512 
1719	 0.39242019666639 
1720	 0.392257270643462 
1721	 0.392106217097599 
1722	 0.391943684351146 
1723	 0.391778967535497 
1724	 0.391642036782657 
1725	 0.391455956246415 
1726	 0.391216739156064 
1727	 0.391019572010484 
1728	 0.390812920547022 
1729	 0.390639029369346 
1730	 0.390489158516313 
1731	 0.390354982813533 
1732	 0.390247819019948 
1733	 0.390125831106356 
1734	 0.390029311668989 
1735	 0.389899693665711 
1736	 0.38975966327768 
1737	 0.389580790615788 
1738	 0.389371321009295 
1739	 0.389163529115745 
1740	 0.38891857371113 
1741	 0.388713307815806 
1742	 0.388517356137228 
1743	 0.38833298547041 
1744	 0.388155726208828 
1745	 0.388006649295278 
1746	 0.387888498418849 
1747	 0.387777363512855 
1748	 0.387638455564706 
1749	 0.387441634358469 
1750	 0.387247177292257 
1751	 0.38706460871709 
1752	 0.386862701234025 
1753	 0.386650078969915 
1754	 0.386465806758743 
1755	 0.386300662643982 
1756	 0.386135127607673 
1757	 0.386025855693175 
1758	 0.385890759114781 
1759	 0.385696564468803 
1760	 0.385557536982547 
1761	 0.385443067918648 
1762	 0.385308913514272 
1763	 0.385190112447571 
1764	 0.385035273020619 
1765	 0.384835075229881 
1766	 0.384686391434022 
1767	 0.384555785034261 
1768	 0.384422222516255 
1769	 0.384318250064017 
1770	 0.384175669969662 
1771	 0.38403014305303 
1772	 0.383903162526992 
1773	 0.383740230611037 
1774	 0.383601451387087 
1775	 0.383457176335711 
1776	 0.383297303426857 
1777	 0.383173869635851 
1778	 0.383036650945567 
1779	 0.38291766874296 
1780	 0.382818906610601 
1781	 0.38271516482631 
1782	 0.382621121674643 
1783	 0.382514833803424 
1784	 0.382415682868107 
1785	 0.382332412753304 
1786	 0.382228854524782 
1787	 0.382116277349183 
1788	 0.381989920768013 
1789	 0.381827731225825 
1790	 0.381689336341172 
1791	 0.381577133454974 
1792	 0.381442977007846 
1793	 0.381294405372605 
1794	 0.381155333055817 
1795	 0.380995371096324 
1796	 0.380864542937601 
1797	 0.380779495250411 
1798	 0.380674017741499 
1799	 0.380548556977501 
1800	 0.380444098228951 
1801	 0.374117605952747 
1802	 0.374490008361632 
1803	 0.37487331164701 
1804	 0.375303755779193 
1805	 0.375709617467751 
1806	 0.376058511339682 
1807	 0.376425909298791 
1808	 0.376689952501027 
1809	 0.376895449287619 
1810	 0.377031422425006 
1811	 0.377093229192561 
1812	 0.377109439300272 
1813	 0.377104740384144 
1814	 0.377066066108478 
1815	 0.377032717596323 
1816	 0.376999421136071 
1817	 0.376947602487775 
1818	 0.376860134531555 
1819	 0.376797942349414 
1820	 0.376749367536058 
1821	 0.376675074202189 
1822	 0.376604336571348 
1823	 0.376532341702554 
1824	 0.376466976396637 
1825	 0.376366414187485 
1826	 0.376243553986399 
1827	 0.376123079485234 
1828	 0.37596025267691 
1829	 0.375740683022631 
1830	 0.375548876450991 
1831	 0.375351049967039 
1832	 0.375140196575902 
1833	 0.374922989180023 
1834	 0.374698534427372 
1835	 0.374445919347316 
1836	 0.374209539209998 
1837	 0.374045448049264 
1838	 0.373912594346963 
1839	 0.373790411398519 
1840	 0.373717990210371 
1841	 0.373631258891303 
1842	 0.373519192902876 
1843	 0.373460343458535 
1844	 0.373427969096037 
1845	 0.373412271241452 
1846	 0.373436228245773 
1847	 0.373427525219726 
1848	 0.373411157721215 
1849	 0.373408379582541 
1850	 0.373399770965007 
1851	 0.373377295280942 
1852	 0.37338337751724 
1853	 0.373392242476144 
1854	 0.373386179320758 
1855	 0.373357880920848 
1856	 0.373304449708714 
1857	 0.373257044201345 
1858	 0.373192923654978 
1859	 0.373152748178304 
1860	 0.373055193181351 
1861	 0.372952624644624 
1862	 0.372768264800455 
1863	 0.372502868504469 
1864	 0.372111376588561 
1865	 0.371676287768245 
1866	 0.371186697178087 
1867	 0.370705356206925 
1868	 0.370249473053971 
1869	 0.36978758739152 
1870	 0.369391414696699 
1871	 0.369043649594153 
1872	 0.368738946241965 
1873	 0.368490583595354 
1874	 0.368265903583149 
1875	 0.368077192677309 
1876	 0.367857102334409 
1877	 0.367593675967881 
1878	 0.367267746356419 
1879	 0.366809702679768 
1880	 0.366229472553305 
1881	 0.365515763870821 
1882	 0.364712060384427 
1883	 0.363807464521953 
1884	 0.362769708930655 
1885	 0.36166029150017 
1886	 0.360484783456656 
1887	 0.359206039987077 
1888	 0.357870156056389 
1889	 0.356426751620242 
1890	 0.354898186209275 
1891	 0.353333146472955 
1892	 0.351690988816683 
1893	 0.34999693923588 
1894	 0.348245282703305 
1895	 0.346455606228197 
1896	 0.344609967919314 
1897	 0.342746461441518 
1898	 0.340901770013598 
1899	 0.339097056695542 
1900	 0.337368979320302 
1901	 0.335732707939454 
1902	 0.334190860768422 
1903	 0.332786342340917 
1904	 0.331418491212856 
1905	 0.330112148903182 
1906	 0.328894282108832 
1907	 0.327747296423509 
1908	 0.326655580900938 
1909	 0.32565034650449 
1910	 0.324668445100263 
1911	 0.32373655227733 
1912	 0.322853384327601 
1913	 0.322019748558251 
1914	 0.32121990120213 
1915	 0.320497766887084 
1916	 0.319838839282669 
1917	 0.319224548100249 
1918	 0.318681902692027 
1919	 0.318196735613034 
1920	 0.317764115893151 
1921	 0.317387126414253 
1922	 0.317059066792068 
1923	 0.31678590315295 
1924	 0.31653362804998 
1925	 0.316323432483006 
1926	 0.316140697370911 
1927	 0.316001398796176 
1928	 0.315858655925345 
1929	 0.315737198069251 
1930	 0.315638764839321 
1931	 0.315540569177665 
1932	 0.31544192461043 
1933	 0.315373016568386 
1934	 0.315342345854298 
1935	 0.315337721157159 
1936	 0.315365307124502 
1937	 0.315411715881999 
1938	 0.315484498491515 
1939	 0.315580922455237 
1940	 0.315696706086658 
1941	 0.315834560009596 
1942	 0.316014893717656 
1943	 0.316197524865402 
1944	 0.316395553678158 
1945	 0.316635269957325 
1946	 0.31687309201466 
1947	 0.317139575008544 
1948	 0.317386699823445 
1949	 0.31764047041918 
1950	 0.317879395554589 
1951	 0.318102833543246 
1952	 0.318328116598569 
1953	 0.318558283469674 
1954	 0.318803326363809 
1955	 0.319051876742275 
1956	 0.319331365778644 
1957	 0.319627272290987 
1958	 0.319952390944915 
1959	 0.320264358475887 
1960	 0.32060588976188 
1961	 0.320916093402022 
1962	 0.321192090778389 
1963	 0.321499450746736 
1964	 0.321808497811111 
1965	 0.322131163314581 
1966	 0.322463390897261 
1967	 0.322793718923193 
1968	 0.323112373880955 
1969	 0.323416755980782 
1970	 0.323722010720537 
1971	 0.324033262336974 
1972	 0.324327645526609 
1973	 0.324602389835436 
1974	 0.32488652031266 
1975	 0.325164480835264 
1976	 0.325437363807426 
1977	 0.325739441149199 
1978	 0.326054139038817 
1979	 0.326358588168258 
1980	 0.32669809926677 
1981	 0.327016711588407 
1982	 0.327327738910278 
1983	 0.327637420342017 
1984	 0.327950237217096 
1985	 0.328250741139244 
1986	 0.328546053568799 
1987	 0.32883714218881 
1988	 0.329116592368582 
1989	 0.329396653531066 
1990	 0.329689043383613 
1991	 0.329969007140235 
1992	 0.330257222128494 
1993	 0.330548814816533 
1994	 0.330850169927287 
1995	 0.331154390082682 
1996	 0.331465600754659 
1997	 0.331811692993384 
1998	 0.332117144954377 
1999	 0.332404825038139 
2000	 0.332684827419999 
2001	 0.332932098442895 
2002	 0.333189260578271 
2003	 0.333465503544911 
2004	 0.333763384011875 
2005	 0.334057865066772 
2006	 0.334370846094889 
2007	 0.334679020851231 
2008	 0.33498432425158 
2009	 0.335294347467176 
2010	 0.335624511021845 
2011	 0.335932889454995 
2012	 0.336223675545037 
2013	 0.33652202441783 
2014	 0.336817718223826 
2015	 0.337107260239154 
2016	 0.337405035619754 
2017	 0.337714431069636 
2018	 0.338008471787323 
2019	 0.33830438080771 
2020	 0.338580522131605 
2021	 0.338838250545673 
2022	 0.339103211024428 
2023	 0.339354671626089 
2024	 0.339612722175613 
2025	 0.339879425671429 
2026	 0.340137043740112 
2027	 0.340378997911658 
2028	 0.340649239857567 
2029	 0.340894305154688 
2030	 0.341132626697471 
2031	 0.341365982943581 
2032	 0.341588643576054 
2033	 0.341809661772503 
2034	 0.342022176822835 
2035	 0.342244205445705 
2036	 0.342486116258837 
2037	 0.342689089952169 
2038	 0.342865321596889 
2039	 0.343055575047709 
2040	 0.343227422913272 
2041	 0.343405592729748 
2042	 0.343586213129772 
2043	 0.343764073381932 
2044	 0.343915221467397 
2045	 0.344026299461189 
2046	 0.344163755777781 
2047	 0.344297025176453 
2048	 0.344438779042206 
2049	 0.344595994250496 
2050	 0.344736752644733 
2051	 0.344875799750387 
2052	 0.345009517487187 
2053	 0.345111993003557 
2054	 0.345247635348235 
2055	 0.345401754281246 
2056	 0.345556248834858 
2057	 0.345711940044678 
2058	 0.34590769225962 
2059	 0.346037845558893 
2060	 0.346130386151969 
2061	 0.346233443689611 
2062	 0.346310588029372 
2063	 0.346393240706943 
2064	 0.346478002146597 
2065	 0.34656278194568 
2066	 0.346614890281719 
2067	 0.346706806436615 
2068	 0.346813659005092 
2069	 0.346953196694671 
2070	 0.347074054950561 
2071	 0.34722807798025 
2072	 0.347325663388502 
2073	 0.347381750534567 
2074	 0.347468291527106 
2075	 0.347546589815437 
2076	 0.347626296599904 
2077	 0.347723370606637 
2078	 0.347806283733026 
2079	 0.347874652751982 
2080	 0.347942487489045 
2081	 0.34800124554359 
2082	 0.348074497286127 
2083	 0.348172146864118 
2084	 0.348229836612999 
2085	 0.34828726695275 
2086	 0.348357246350509 
2087	 0.348393938048245 
2088	 0.34839735310516 
2089	 0.348404807267699 
2090	 0.348377910007857 
2091	 0.348401543315357 
2092	 0.348430012321393 
2093	 0.348479360422181 
2094	 0.348603589881801 
2095	 0.348665393895816 
2096	 0.348694204839494 
2097	 0.348735069641602 
2098	 0.348751452591542 
2099	 0.348771491104492 
2100	 0.348810785230508 
2101	 0.348872996602548 
2102	 0.348920398896831 
2103	 0.348961726968044 
2104	 0.349020972755579 
2105	 0.349073077290455 
2106	 0.349158756101466 
2107	 0.349282791832113 
2108	 0.349386746614008 
2109	 0.349505858086225 
2110	 0.349613715616206 
2111	 0.349693470457677 
2112	 0.349802285419875 
2113	 0.349923745189303 
2114	 0.350053067522969 
2115	 0.350188541121093 
2116	 0.350340331628256 
2117	 0.350486163196917 
2118	 0.350637460861538 
2119	 0.350783488995427 
2120	 0.350941615231531 
2121	 0.351075995475005 
2122	 0.351187014607892 
2123	 0.351312479471608 
2124	 0.351457842894199 
2125	 0.351556738550014 
2126	 0.351645450259365 
2127	 0.351716748427273 
2128	 0.351715002786339 
2129	 0.351756868417466 
2130	 0.35181548545158 
2131	 0.351889093119663 
2132	 0.351938420032983 
2133	 0.352008977805835 
2134	 0.352027723313543 
2135	 0.352014079754076 
2136	 0.351988101259251 
2137	 0.351949802951696 
2138	 0.351876209167488 
2139	 0.351775914453686 
2140	 0.351653959642459 
2141	 0.351511127415608 
2142	 0.351328899416824 
2143	 0.351112021842941 
2144	 0.35087737739766 
2145	 0.350602121995157 
2146	 0.350312971587803 
2147	 0.350001157780555 
2148	 0.349688063275075 
2149	 0.349345545240424 
2150	 0.348968978110963 
2151	 0.34860897391918 
2152	 0.348246399884281 
2153	 0.347861622755986 
2154	 0.347496066052658 
2155	 0.34706153317673 
2156	 0.346585809848954 
2157	 0.346084686297444 
2158	 0.345512949407681 
2159	 0.344971108639005 
2160	 0.344426654883005 
2161	 0.343867901609207 
2162	 0.343338000456823 
2163	 0.342754312536106 
2164	 0.342132020914315 
2165	 0.34148079429306 
2166	 0.340830031810035 
2167	 0.340148573610866 
2168	 0.339470049842588 
2169	 0.338797714848719 
2170	 0.338094232909682 
2171	 0.337376813888706 
2172	 0.336628313617713 
2173	 0.335866271913647 
2174	 0.335062099292873 
2175	 0.33423001361372 
2176	 0.333355786261993 
2177	 0.332442273826708 
2178	 0.331494164187799 
2179	 0.330491351287911 
2180	 0.329478640610304 
2181	 0.328441485221666 
2182	 0.32737579005334 
2183	 0.326277877127807 
2184	 0.325155272906342 
2185	 0.324054779767999 
2186	 0.322924315259147 
2187	 0.321835339965704 
2188	 0.320779075740822 
2189	 0.319707742484713 
2190	 0.318591076146129 
2191	 0.31758742441367 
2192	 0.316591711796375 
2193	 0.315706407792979 
2194	 0.314896680491055 
2195	 0.314190468292744 
2196	 0.313567072006492 
2197	 0.313035004489932 
2198	 0.312634661155426 
2199	 0.312278720298156 
2200	 0.311975705487474 
2201	 0.3117743007321 
2202	 0.311665372979523 
2203	 0.31161959520622 
2204	 0.311666523732643 
2205	 0.311799937995355 
2206	 0.312044905876582 
2207	 0.312354658867623 
2208	 0.312828684073744 
2209	 0.313469729799923 
2210	 0.314151066325302 
2211	 0.314985582249681 
2212	 0.315806378014806 
2213	 0.316725119394039 
2214	 0.317581323331229 
2215	 0.318469738956092 
2216	 0.319302962526443 
2217	 0.320103927854743 
2218	 0.320871893432855 
2219	 0.32164864602688 
2220	 0.322332651225419 
2221	 0.322949223177929 
2222	 0.323521468531064 
2223	 0.324031456517474 
2224	 0.324472600151311 
2225	 0.324887409456397 
2226	 0.325260708644083 
2227	 0.325598394313837 
2228	 0.325889685719743 
2229	 0.326146018483469 
2230	 0.326357945713663 
2231	 0.326556508212146 
2232	 0.326734808875971 
2233	 0.326854251974497 
2234	 0.326943851479373 
2235	 0.326987824990581 
2236	 0.326950049317873 
2237	 0.326922038825571 
2238	 0.326865309458576 
2239	 0.326804144146339 
2240	 0.326708431484228 
2241	 0.32663470354015 
2242	 0.326565536352616 
2243	 0.326504474513598 
2244	 0.326510604118666 
2245	 0.326434332811441 
2246	 0.326290570096003 
2247	 0.326067661508729 
2248	 0.325885567517879 
2249	 0.325634485434664 
2250	 0.325441570805757 
2251	 0.325292302019948 
2252	 0.325134261589505 
2253	 0.324948986478108 
2254	 0.324809803838558 
2255	 0.324721004885144 
2256	 0.324614650058894 
2257	 0.324513125249852 
2258	 0.324414159447555 
2259	 0.324300523809357 
2260	 0.324236410139165 
2261	 0.324204157564693 
2262	 0.324168302237104 
2263	 0.32414119557457 
2264	 0.324149641627092 
2265	 0.324197325071657 
2266	 0.324218101732905 
2267	 0.324252338361004 
2268	 0.324303020292806 
2269	 0.324343866472475 
2270	 0.324373722248829 
2271	 0.324450362221197 
2272	 0.324539267444079 
2273	 0.324613357575849 
2274	 0.324684974922643 
2275	 0.324761635893161 
2276	 0.324861460699699 
2277	 0.32490770902745 
2278	 0.324923304679252 
2279	 0.324963243112473 
2280	 0.324956196581122 
2281	 0.325023103700606 
2282	 0.325157891633626 
2283	 0.325253992798038 
2284	 0.325404582066125 
2285	 0.325459218461443 
2286	 0.325440592183474 
2287	 0.325436495583445 
2288	 0.325366498606212 
2289	 0.325350148003334 
2290	 0.325381481576097 
2291	 0.325379477021427 
2292	 0.325372348191906 
2293	 0.325357067988916 
2294	 0.325320454441039 
2295	 0.325291842822988 
2296	 0.3252449767837 
2297	 0.325252873715253 
2298	 0.325245362932425 
2299	 0.325173395576873 
2300	 0.325122110769821 
2301	 0.32505272238503 
2302	 0.324971034186683 
2303	 0.324906105470595 
2304	 0.32479167463735 
2305	 0.324641075524448 
2306	 0.324426677853891 
2307	 0.32411059891545 
2308	 0.323871078890727 
2309	 0.323599376908107 
2310	 0.323370208016926 
2311	 0.323218407892918 
2312	 0.322997323238001 
2313	 0.322747880804498 
2314	 0.322502570660577 
2315	 0.322237670157935 
2316	 0.321960633948762 
2317	 0.321658287672835 
2318	 0.321399734636348 
2319	 0.321157173982905 
2320	 0.320902272444283 
2321	 0.320676477820956 
2322	 0.320437098032294 
2323	 0.320144868476517 
2324	 0.319902570152442 
2325	 0.319695702200951 
2326	 0.319494759827195 
2327	 0.319349027701846 
2328	 0.319148575676619 
2329	 0.318882023976716 
2330	 0.318625230806353 
2331	 0.318290541862207 
2332	 0.317916542534675 
2333	 0.317600254329442 
2334	 0.31725446832677 
2335	 0.316873209547951 
2336	 0.31651512817708 
2337	 0.316133921181493 
2338	 0.315722952191019 
2339	 0.315321885608483 
2340	 0.314990079713345 
2341	 0.314687828459567 
2342	 0.31437871214857 
2343	 0.314080463157301 
2344	 0.313729218339668 
2345	 0.313436594183949 
2346	 0.313166259505474 
2347	 0.312898473824944 
2348	 0.312658297320266 
2349	 0.312427022433266 
2350	 0.312199660620681 
2351	 0.311967656463539 
2352	 0.311754671972165 
2353	 0.311535468611151 
2354	 0.311273535120039 
2355	 0.311080447206876 
2356	 0.310942276059162 
2357	 0.310806997881819 
2358	 0.310734781434119 
2359	 0.310583801485383 
2360	 0.310388690276283 
2361	 0.310198958918147 
2362	 0.310004595296863 
2363	 0.309790816646235 
2364	 0.309548045447182 
2365	 0.309337125473675 
2366	 0.309137548294659 
2367	 0.308869354996998 
2368	 0.30857499175842 
2369	 0.308296883011397 
2370	 0.307967575334512 
2371	 0.307673381663905 
2372	 0.307383952882816 
2373	 0.307115713457972 
2374	 0.30682511084815 
2375	 0.306464317935888 
2376	 0.306067592857931 
2377	 0.305693912643863 
2378	 0.305287756218378 
2379	 0.304813163568634 
2380	 0.304425174205294 
2381	 0.304076088530995 
2382	 0.303639191838997 
2383	 0.303264054311165 
2384	 0.302857822009691 
2385	 0.30234321175604 
2386	 0.301954219144126 
2387	 0.301553701306153 
2388	 0.301089515379526 
2389	 0.300757706940213 
2390	 0.300458854794864 
2391	 0.30015504386516 
2392	 0.29982474798978 
2393	 0.299450723367765 
2394	 0.299012846543014 
2395	 0.298510364123111 
2396	 0.29814167088074 
2397	 0.297860589920885 
2398	 0.297497340813718 
2399	 0.297084337718955 
2400	 0.296631722182016 
2401	 0.296115078968646 
2402	 0.295617508513462 
2403	 0.295173047190149 
2404	 0.294731127503087 
2405	 0.294284230218988 
2406	 0.293821561732092 
2407	 0.293276523087644 
2408	 0.292681253045725 
2409	 0.291973519474122 
2410	 0.291211947949967 
2411	 0.290601029227123 
2412	 0.289982476182937 
2413	 0.289419274267754 
2414	 0.288945483800361 
2415	 0.288302729454588 
2416	 0.287682558243748 
2417	 0.287006562134768 
2418	 0.286460595394818 
2419	 0.285939511762024 
2420	 0.285490663908816 
2421	 0.285178721388754 
2422	 0.284753534558008 
2423	 0.284352279474781 
2424	 0.283836299791902 
2425	 0.283231490756707 
2426	 0.28270126412105 
2427	 0.282094256526622 
2428	 0.281520303159573 
2429	 0.281023204707039 
2430	 0.280466071053428 
2431	 0.279843387569077 
2432	 0.279296676835746 
2433	 0.278836693699013 
2434	 0.278274833209885 
2435	 0.277650750502287 
2436	 0.277128786510362 
2437	 0.276535631143045 
2438	 0.276073481512765 
2439	 0.275800251329556 
2440	 0.275359477006118 
2441	 0.27488414563789 
2442	 0.274498130109399 
2443	 0.274045588073682 
2444	 0.273674212581342 
2445	 0.273533465558448 
2446	 0.273159435558839 
2447	 0.272624209785584 
2448	 0.272252662900106 
2449	 0.271797009535331 
2450	 0.271397298974623 
2451	 0.271180047493579 
2452	 0.270855000624164 
2453	 0.27050457273897 
2454	 0.270131228243998 
2455	 0.269692588020298 
2456	 0.269326404479149 
2457	 0.268878213289564 
2458	 0.268549988008793 
2459	 0.268384717143017 
2460	 0.26808751226403 
2461	 0.267864887957907 
2462	 0.267592142346332 
2463	 0.26724001694989 
2464	 0.266903472187707 
2465	 0.266440893600299 
2466	 0.266115929866622 
2467	 0.265888690145163 
2468	 0.265531238094498 
2469	 0.265195360320126 
2470	 0.264806405225497 
2471	 0.264513448729735 
2472	 0.264553510580787 
2473	 0.264503404306703 
2474	 0.264265263087908 
2475	 0.263996175475222 
2476	 0.263584991612902 
2477	 0.263261518044688 
2478	 0.26303758943184 
2479	 0.26280791783088 
2480	 0.262561068636973 
2481	 0.262184985288325 
2482	 0.261755764982881 
2483	 0.261427268117273 
2484	 0.261202819549859 
2485	 0.261081014668602 
2486	 0.261172210732085 
2487	 0.26100890173098 
2488	 0.260507730481811 
2489	 0.260214901729148 
2490	 0.259866694246417 
2491	 0.259377187605459 
2492	 0.25914366629287 
2493	 0.258809655723733 
2494	 0.258096492990951 
2495	 0.257825180521261 
2496	 0.257917277367619 
2497	 0.257583116029176 
2498	 0.257364652113142 
2499	 0.257072491681033 
2500	 0.256345550452422 
