Wavelength	LMW_2400000.asd
350	 5.00424465620014E-02 
351	 4.99629144505974E-02 
352	 4.16314561527359E-02 
353	 3.38277962559257E-02 
354	 0.044452779731827 
355	 4.81247873633055E-02 
356	 0.047271707327526 
357	 4.93988768263371E-02 
358	 5.26277224586098E-02 
359	 4.70084439358874E-02 
360	 3.99023707800166E-02 
361	 4.70548541449244E-02 
362	 4.66446157604692E-02 
363	 4.41269174702171E-02 
364	 4.38947251961606E-02 
365	 4.28974561018877E-02 
366	 4.67655600482056E-02 
367	 4.86492059989966E-02 
368	 4.36874775556376E-02 
369	 4.87620182198669E-02 
370	 4.76644264463469E-02 
371	 4.23074380132822E-02 
372	 4.60445568087853E-02 
373	 4.63150977565204E-02 
374	 4.59468370187132E-02 
375	 4.68839467519164E-02 
376	 4.60850304516473E-02 
377	 4.42298108523109E-02 
378	 4.47555942259265E-02 
379	 4.94642300374078E-02 
380	 5.07250413348378E-02 
381	 4.78322445024187E-02 
382	 4.50567593303476E-02 
383	 0.048986047996646 
384	 4.78313653340303E-02 
385	 4.72633136241686E-02 
386	 0.050131997387766 
387	 4.90334128321017E-02 
388	 4.94226789348559E-02 
389	 5.03880897257997E-02 
390	 4.98803597951582E-02 
391	 5.05292382908998E-02 
392	 4.98424394196266E-02 
393	 4.92199331098598E-02 
394	 5.28930273206887E-02 
395	 5.37573992111596E-02 
396	 5.29579540117108E-02 
397	 0.052618624353256 
398	 5.40826362956912E-02 
399	 5.35325529695394E-02 
400	 5.30463945543023E-02 
401	 5.54393351523157E-02 
402	 5.46197980034294E-02 
403	 0.053674134413504 
404	 5.38968813707461E-02 
405	 5.42020932900684E-02 
406	 5.49612332644719E-02 
407	 5.61140957002613E-02 
408	 5.71053897094607E-02 
409	 0.056212079622348 
410	 5.50879415978136E-02 
411	 5.48251753396707E-02 
412	 5.58865729587874E-02 
413	 5.67821448453566E-02 
414	 5.66626713017139E-02 
415	 5.59764138852575E-02 
416	 5.66622338553712E-02 
417	 5.69852562159269E-02 
418	 5.70827950416836E-02 
419	 5.73200008977457E-02 
420	 5.72684272295082E-02 
421	 5.67399558576035E-02 
422	 5.63195141102993E-02 
423	 5.68724888624706E-02 
424	 5.66573469989325E-02 
425	 0.056295637394413 
426	 5.63507894564515E-02 
427	 0.056793895388535 
428	 5.66855328299005E-02 
429	 5.64195863715269E-02 
430	 5.65609404853599E-02 
431	 5.60331483514912E-02 
432	 5.61020178869089E-02 
433	 5.66571621418955E-02 
434	 5.62615600810796E-02 
435	 5.63056560921356E-02 
436	 5.64246106915348E-02 
437	 5.62150263959326E-02 
438	 5.60178923856693E-02 
439	 0.056180881378591 
440	 5.66030126209573E-02 
441	 5.69234054612781E-02 
442	 5.67613689280077E-02 
443	 5.68213165584148E-02 
444	 5.71840756266946E-02 
445	 5.68313028938652E-02 
446	 5.66977011173757E-02 
447	 5.70034403782936E-02 
448	 5.75586351270052E-02 
449	 0.057392414422081 
450	 5.74598194499225E-02 
451	 0.057860821610057 
452	 5.79474915161955E-02 
453	 5.80406449099988E-02 
454	 5.80119759264797E-02 
455	 5.78932685033978E-02 
456	 5.83613887617873E-02 
457	 5.82628667636229E-02 
458	 5.79061801143098E-02 
459	 0.058155291870194 
460	 5.85556781468101E-02 
461	 5.86427370309417E-02 
462	 0.058412200673794 
463	 0.058489535249373 
464	 5.84836347640737E-02 
465	 5.84624515035467E-02 
466	 5.85562946682354E-02 
467	 5.86376546960913E-02 
468	 5.88350784595163E-02 
469	 5.90921803792189E-02 
470	 5.92017731698002E-02 
471	 5.90709732409827E-02 
472	 0.058977726135635 
473	 5.90778910154646E-02 
474	 5.91069210242048E-02 
475	 5.90453620463742E-02 
476	 5.90238131378191E-02 
477	 5.91860951712705E-02 
478	 5.91818865389498E-02 
479	 5.92789348284223E-02 
480	 5.95089186379655E-02 
481	 5.95089144415523E-02 
482	 0.059472267144303 
483	 5.94543760776297E-02 
484	 5.94933614727484E-02 
485	 5.97511965192406E-02 
486	 0.059646833360451 
487	 5.93527128559385E-02 
488	 5.96223372059668E-02 
489	 5.98439520958901E-02 
490	 5.98127030384155E-02 
491	 5.96043398536663E-02 
492	 5.98124959658201E-02 
493	 5.98689125857768E-02 
494	 5.97527361979473E-02 
495	 5.97134986995428E-02 
496	 5.99724998059063E-02 
497	 6.00282039256775E-02 
498	 5.98105694764911E-02 
499	 5.99844355308169E-02 
500	 6.01027164490598E-02 
501	 6.01621046930811E-02 
502	 6.02629654062176E-02 
503	 6.04080204504898E-02 
504	 6.04012442800121E-02 
505	 6.02697352609673E-02 
506	 6.02418591236147E-02 
507	 6.02910759845736E-02 
508	 6.04414943133074E-02 
509	 6.06435765463167E-02 
510	 6.06468997272325E-02 
511	 6.05745641694364E-02 
512	 6.05473257210291E-02 
513	 6.06451294216654E-02 
514	 6.05443548529936E-02 
515	 6.06006476522633E-02 
516	 6.08958825593399E-02 
517	 6.09354382140568E-02 
518	 6.08242934313208E-02 
519	 6.06935926108497E-02 
520	 6.06748623805063E-02 
521	 6.07779549245424E-02 
522	 6.08678065280816E-02 
523	 6.09009049075347E-02 
524	 6.09383273775951E-02 
525	 0.061032036808979 
526	 6.10639658205819E-02 
527	 6.09705300403853E-02 
528	 0.060969042658712 
529	 6.10381186784726E-02 
530	 6.11350601799591E-02 
531	 6.12047036603674E-02 
532	 6.12231294758463E-02 
533	 0.061335843594905 
534	 6.15405464975214E-02 
535	 6.14612348519453E-02 
536	 6.14556582368121E-02 
537	 6.15322576782776E-02 
538	 6.15823282844109E-02 
539	 6.17049651179164E-02 
540	 6.17539750339872E-02 
541	 6.17382699149063E-02 
542	 6.18937617594035E-02 
543	 6.20219719904234E-02 
544	 6.20696447381144E-02 
545	 6.20624314082455E-02 
546	 6.21685481204359E-02 
547	 6.22610378498052E-02 
548	 0.062337436924985 
549	 6.24998236436348E-02 
550	 0.06262618015633 
551	 0.062744005018511 
552	 6.28832236114714E-02 
553	 6.30088689492632E-02 
554	 6.30944759979406E-02 
555	 6.32136121665446E-02 
556	 6.34627404580858E-02 
557	 0.063626999847798 
558	 0.063759974686672 
559	 6.39261367524879E-02 
560	 6.41600682293023E-02 
561	 0.064325581947068 
562	 6.45000001138959E-02 
563	 6.48025327852361E-02 
564	 6.51373846771105E-02 
565	 6.54828019795044E-02 
566	 6.58163716141843E-02 
567	 6.61121079491162E-02 
568	 6.64559698301016E-02 
569	 6.67652655777231E-02 
570	 6.69787629578296E-02 
571	 6.72367701669141E-02 
572	 6.75464124404356E-02 
573	 6.78901344790388E-02 
574	 6.82355267415637E-02 
575	 6.86284793590956E-02 
576	 6.90482582430279E-02 
577	 6.94966890099597E-02 
578	 7.00531747366572E-02 
579	 7.06520062508435E-02 
580	 7.12249481551092E-02 
581	 7.17236821073813E-02 
582	 7.22618199291855E-02 
583	 7.27466802900971E-02 
584	 7.31864413804059E-02 
585	 7.37585981718649E-02 
586	 7.43715943312315E-02 
587	 7.49971821812178E-02 
588	 7.56163545697278E-02 
589	 7.62019344303143E-02 
590	 7.66963487901866E-02 
591	 7.71204372622106E-02 
592	 7.75635906310252E-02 
593	 0.077932557992268 
594	 7.82796373358837E-02 
595	 0.078686907240214 
596	 7.92423103739403E-02 
597	 7.98821208552203E-02 
598	 8.05542460872755E-02 
599	 8.12167938740399E-02 
600	 8.18634698389895E-02 
601	 8.24550579591277E-02 
602	 8.29522839380369E-02 
603	 8.33103892534129E-02 
604	 8.37234460678538E-02 
605	 8.41851568712021E-02 
606	 8.46165763604717E-02 
607	 8.49923125679106E-02 
608	 8.53514873979177E-02 
609	 0.085720961390677 
610	 8.61082396588894E-02 
611	 8.64411262531396E-02 
612	 8.67648640698957E-02 
613	 8.71169366247416E-02 
614	 8.74147762355476E-02 
615	 8.76603307842016E-02 
616	 8.78869643603196E-02 
617	 8.81423023369287E-02 
618	 8.83784073282203E-02 
619	 8.85616298257439E-02 
620	 8.87065811311954E-02 
621	 8.89310798755107E-02 
622	 8.91190921920096E-02 
623	 8.92774182996332E-02 
624	 8.94527311945974E-02 
625	 8.96013157002973E-02 
626	 8.97672739074974E-02 
627	 8.99456621800606E-02 
628	 9.00581552296819E-02 
629	 9.01979873590144E-02 
630	 9.03531307000967E-02 
631	 9.04868162014649E-02 
632	 9.05785488296682E-02 
633	 9.07190337035971E-02 
634	 9.08729513868907E-02 
635	 9.09166288797338E-02 
636	 9.10679990067374E-02 
637	 0.091244724110752 
638	 0.091358998211023 
639	 9.14360848294111E-02 
640	 9.15413070939176E-02 
641	 9.16642318280084E-02 
642	 9.17671194095313E-02 
643	 0.091917280074121 
644	 9.20787690214505E-02 
645	 9.22287165799896E-02 
646	 9.23778331107163E-02 
647	 9.25060783375198E-02 
648	 0.092627861585863 
649	 9.27674044309863E-02 
650	 9.29470083597602E-02 
651	 9.31044674574241E-02 
652	 9.32316974145361E-02 
653	 9.33710106116799E-02 
654	 9.35464526954839E-02 
655	 9.37241397150256E-02 
656	 9.38852795030195E-02 
657	 9.40762446046066E-02 
658	 9.42912134588918E-02 
659	 9.45042189820277E-02 
660	 9.46841135267652E-02 
661	 9.48476846294708E-02 
662	 9.50522534915847E-02 
663	 9.52941114499372E-02 
664	 9.54758179458477E-02 
665	 0.095712527794924 
666	 9.59444759133337E-02 
667	 9.61092506674496E-02 
668	 9.63421520319989E-02 
669	 9.66233658850765E-02 
670	 9.68998277363158E-02 
671	 9.71040215528019E-02 
672	 9.73530361469437E-02 
673	 9.76381363472619E-02 
674	 9.79242614092288E-02 
675	 9.81678871674368E-02 
676	 9.84179141320863E-02 
677	 9.86724709610916E-02 
678	 9.89208320991954E-02 
679	 9.92499297676242E-02 
680	 9.95798549388875E-02 
681	 9.98625278433375E-02 
682	 0.100109699530471 
683	 0.100444079053414 
684	 0.100797492199766 
685	 0.101092594113471 
686	 0.101418115061062 
687	 0.101747663912599 
688	 0.102084843349833 
689	 0.102447871410615 
690	 0.10275848339665 
691	 0.103074536132039 
692	 0.103435098782554 
693	 0.103805801623425 
694	 0.10415421807567 
695	 0.10450095934976 
696	 0.104877912124806 
697	 0.105254193042309 
698	 0.105600800463219 
699	 0.105943609507445 
700	 0.106360986759567 
701	 0.106747239379193 
702	 0.107119918477355 
703	 0.10750988545661 
704	 0.107911051092082 
705	 0.108277479856277 
706	 0.108647927730261 
707	 0.109081585983039 
708	 0.109413133179068 
709	 0.109742330311642 
710	 0.110133509886014 
711	 0.110563438502001 
712	 0.110921061914259 
713	 0.111264087725106 
714	 0.111659746164428 
715	 0.112005707909259 
716	 0.112347310047702 
717	 0.112707178637421 
718	 0.113084549196661 
719	 0.113444792118483 
720	 0.113776818888671 
721	 0.114084116074623 
722	 0.114388675949541 
723	 0.114683728197236 
724	 0.114986450631201 
725	 0.115306991756704 
726	 0.115589337454698 
727	 0.115822559211013 
728	 0.116033934400717 
729	 0.116279378972875 
730	 0.116524288944571 
731	 0.116755615371583 
732	 0.116967368710296 
733	 0.117161958763744 
734	 0.117331003416964 
735	 0.117476548896156 
736	 0.117609159607804 
737	 0.117761964450286 
738	 0.11787456979982 
739	 0.117954968582257 
740	 0.118088490948114 
741	 0.118171595108798 
742	 0.118208596190438 
743	 0.118232770739809 
744	 0.118290846534783 
745	 0.118325854466341 
746	 0.118345960374356 
747	 0.118375475038295 
748	 0.118318201774901 
749	 0.118237073835468 
750	 0.11817578540192 
751	 0.118135847684169 
752	 0.118098162309355 
753	 0.118028358557052 
754	 0.117914338683115 
755	 0.117816550060118 
756	 0.117686940195134 
757	 0.117557757082467 
758	 0.117479369351508 
759	 0.117317843712889 
760	 0.117119948550986 
761	 0.116935501623492 
762	 0.116793193214377 
763	 0.116641313756824 
764	 0.116472400124146 
765	 0.116289484926662 
766	 0.116090432033548 
767	 0.115884722677444 
768	 0.115691239677641 
769	 0.115522079842726 
770	 0.115317407479827 
771	 0.115098946775811 
772	 0.11487578649043 
773	 0.114633161315679 
774	 0.114390223691089 
775	 0.11417239114179 
776	 0.113977035013076 
777	 0.113724225652019 
778	 0.113470881680688 
779	 0.113236643470177 
780	 0.11301794828693 
781	 0.112782714938315 
782	 0.112553363417981 
783	 0.112323459723955 
784	 0.112056314434737 
785	 0.111832205116034 
786	 0.111614512695456 
787	 0.111371464707876 
788	 0.111138532292228 
789	 0.110912631339767 
790	 0.110676816754616 
791	 0.110413667465177 
792	 0.110133243177996 
793	 0.109889315924993 
794	 0.109686246805604 
795	 0.109482583660652 
796	 0.109241956253631 
797	 0.109012923780548 
798	 0.108811325059082 
799	 0.108565971947629 
800	 0.108342076250423 
801	 0.10813899159478 
802	 0.107937736051711 
803	 0.107733039281765 
804	 0.107533671569686 
805	 0.107337356497176 
806	 0.107136860962105 
807	 0.106947934805949 
808	 0.106761056910196 
809	 0.106563627811686 
810	 0.106343654424699 
811	 0.10617275953417 
812	 0.105990336259027 
813	 0.105758537247766 
814	 0.105581647927996 
815	 0.105435692343549 
816	 0.105293053417726 
817	 0.105133909455109 
818	 0.1050042603308 
819	 0.104862852133684 
820	 0.104693133022232 
821	 0.104509536810737 
822	 0.104373378557126 
823	 0.104239645176401 
824	 0.104090726223812 
825	 0.103981839174418 
826	 0.103867888375799 
827	 0.103735317281284 
828	 0.10359290866014 
829	 0.103492366873084 
830	 0.103362656008078 
831	 0.103220942791538 
832	 0.103123862263332 
833	 0.103077025274696 
834	 0.103027203265466 
835	 0.102922775574839 
836	 0.102737265603369 
837	 0.102663559599847 
838	 0.102651516355685 
839	 0.102619235908254 
840	 0.102507487178233 
841	 0.102389572267979 
842	 0.102309807553285 
843	 0.102277595743779 
844	 0.102228159772689 
845	 0.102177272045917 
846	 0.102105233253886 
847	 0.102001414605324 
848	 0.101994212661496 
849	 0.101941785109917 
850	 0.101853163194028 
851	 0.101862265555323 
852	 0.101843441956484 
853	 0.101798058101235 
854	 0.101748736247174 
855	 0.101721258881907 
856	 0.101736921287366 
857	 0.101771213801096 
858	 0.101782856616451 
859	 0.101712641909444 
860	 0.101684195947147 
861	 0.101719357975269 
862	 0.101785208276927 
863	 0.101812453200467 
864	 0.101783331304392 
865	 0.101754924426273 
866	 0.101807329513326 
867	 0.101847327452549 
868	 0.10184788195051 
869	 0.101840546543183 
870	 0.101900046553214 
871	 0.10194355711526 
872	 0.101999924159452 
873	 0.102087303723483 
874	 0.102177819245228 
875	 0.102231546366948 
876	 0.102245713266192 
877	 0.102252163982277 
878	 0.102339359240409 
879	 0.102453599867145 
880	 0.102530188330691 
881	 0.102540677732405 
882	 0.10261087871612 
883	 0.10270871233842 
884	 0.102805095729636 
885	 0.102884908477346 
886	 0.102997005290386 
887	 0.103120123526099 
888	 0.103249453365715 
889	 0.103393702088784 
890	 0.103510576515529 
891	 0.103598595165171 
892	 0.103681319010148 
893	 0.103800455795585 
894	 0.10390438673678 
895	 0.104032499968221 
896	 0.104205335083297 
897	 0.104380236712155 
898	 0.104521575633778 
899	 0.104669669859117 
900	 0.104845842554225 
901	 0.104958388990433 
902	 0.105093270983484 
903	 0.105280711097907 
904	 0.105500730739241 
905	 0.105637428240961 
906	 0.105750119294382 
907	 0.105906050938597 
908	 0.106141302427835 
909	 0.106340206244894 
910	 0.106507584363522 
911	 0.106707574680576 
912	 0.107008855047659 
913	 0.107271249885732 
914	 0.107519269749017 
915	 0.10775091138998 
916	 0.107936699361093 
917	 0.10812042575469 
918	 0.10833694666127 
919	 0.108573456924036 
920	 0.108772438025647 
921	 0.109009286337744 
922	 0.109263693926696 
923	 0.109508434342391 
924	 0.109736593241378 
925	 0.110089358195868 
926	 0.110393569313046 
927	 0.110578102658859 
928	 0.110877189652524 
929	 0.111103528738631 
930	 0.11137546833207 
931	 0.111766065398331 
932	 0.112070076361465 
933	 0.112485989402349 
934	 0.112818951760069 
935	 0.112952668509181 
936	 0.113321700766935 
937	 0.113666939449196 
938	 0.113999936661817 
939	 0.114390303800183 
940	 0.114802174710422 
941	 0.115115471023106 
942	 0.1154076308869 
943	 0.115772735050233 
944	 0.11601989725619 
945	 0.116313029952393 
946	 0.116691163345814 
947	 0.117110195318941 
948	 0.117480607543509 
949	 0.117807997251226 
950	 0.118125290319539 
951	 0.118475115382675 
952	 0.118872614371615 
953	 0.119286517758522 
954	 0.119716643065374 
955	 0.120156517527072 
956	 0.120462046788535 
957	 0.120834955047086 
958	 0.121305999697116 
959	 0.121775925640614 
960	 0.122167054584862 
961	 0.122538453729326 
962	 0.122917795412791 
963	 0.123300707226591 
964	 0.123662690585097 
965	 0.124144220527729 
966	 0.124653458762634 
967	 0.124995698259672 
968	 0.125381467043515 
969	 0.125781814338386 
970	 0.12616389025053 
971	 0.126537926076624 
972	 0.127136065856687 
973	 0.127593036579767 
974	 0.127915635515422 
975	 0.128356504246181 
976	 0.128809238283289 
977	 0.129300964979977 
978	 0.129780968004522 
979	 0.130168434765639 
980	 0.130521930757566 
981	 0.130947964396139 
982	 0.131416660661614 
983	 0.131840331215953 
984	 0.13232396193214 
985	 0.132823788876395 
986	 0.133246159823591 
987	 0.133548370939058 
988	 0.134020990871453 
989	 0.13447591548343 
990	 0.134918717024664 
991	 0.135413240100799 
992	 0.135760590160417 
993	 0.136033406683492 
994	 0.136402915328044 
995	 0.13696312311122 
996	 0.137383517032174 
997	 0.137736009115182 
998	 0.138110529147323 
999	 0.138573628928346 
1000	 0.139097918449204 
1001	 0.135959767897204 
1002	 0.136306324243626 
1003	 0.136630627915516 
1004	 0.13695072457172 
1005	 0.137235396514799 
1006	 0.137528699547766 
1007	 0.137826688912923 
1008	 0.138131981763058 
1009	 0.138360578126266 
1010	 0.138627596698909 
1011	 0.138967577567504 
1012	 0.139246842113982 
1013	 0.13951949875363 
1014	 0.139817043460978 
1015	 0.140038782678141 
1016	 0.140283878431184 
1017	 0.140518222479371 
1018	 0.140780141882236 
1019	 0.14097023265659 
1020	 0.141194177723741 
1021	 0.141442043951263 
1022	 0.141713126974268 
1023	 0.141954265473006 
1024	 0.142110163392803 
1025	 0.142285083382635 
1026	 0.14247260826966 
1027	 0.142730535172437 
1028	 0.143080788195837 
1029	 0.143356658547762 
1030	 0.143563551802931 
1031	 0.143761124209037 
1032	 0.143916636141007 
1033	 0.144067349127953 
1034	 0.14423860926628 
1035	 0.144388177897146 
1036	 0.144593942620969 
1037	 0.14478578363914 
1038	 0.144939938507482 
1039	 0.14513962299648 
1040	 0.145339882927638 
1041	 0.145568468963346 
1042	 0.145787270378484 
1043	 0.145994812955036 
1044	 0.146180198196497 
1045	 0.146346227573833 
1046	 0.146463515651014 
1047	 0.146621041549213 
1048	 0.146778727912167 
1049	 0.146987371999994 
1050	 0.147204747580794 
1051	 0.147362846945785 
1052	 0.147551703029286 
1053	 0.147708775032419 
1054	 0.147848313220446 
1055	 0.148028262489474 
1056	 0.148184622636765 
1057	 0.148334584547051 
1058	 0.148456173261087 
1059	 0.14862976776145 
1060	 0.148827558744084 
1061	 0.14900731568912 
1062	 0.149184593419346 
1063	 0.149346276122113 
1064	 0.14941941358408 
1065	 0.149493806510491 
1066	 0.149634755754182 
1067	 0.149759256894177 
1068	 0.14985748567467 
1069	 0.149981639184074 
1070	 0.150059942407422 
1071	 0.150041945610475 
1072	 0.150119433730296 
1073	 0.150266698577547 
1074	 0.150335107450169 
1075	 0.15040055244222 
1076	 0.150479515329381 
1077	 0.15048424778688 
1078	 0.150489541814067 
1079	 0.150562509674946 
1080	 0.150674092902053 
1081	 0.150798079477565 
1082	 0.150913910451238 
1083	 0.150979347857256 
1084	 0.150990581003152 
1085	 0.151042828029757 
1086	 0.151076355904867 
1087	 0.151131106937397 
1088	 0.151208986965335 
1089	 0.151305390982631 
1090	 0.151386764357504 
1091	 0.151408176015453 
1092	 0.151440853160422 
1093	 0.151494715298855 
1094	 0.151548855558256 
1095	 0.151625815023161 
1096	 0.151672871955237 
1097	 0.151745575077167 
1098	 0.151815007195262 
1099	 0.151853886392551 
1100	 0.151928001268257 
1101	 0.152038035530561 
1102	 0.152134343587773 
1103	 0.152216542353898 
1104	 0.152358574263293 
1105	 0.152486562831019 
1106	 0.152548961407767 
1107	 0.152645523208107 
1108	 0.15274491655448 
1109	 0.152820881734218 
1110	 0.152933850675338 
1111	 0.153039200600801 
1112	 0.153143573707287 
1113	 0.153247350578077 
1114	 0.153343790120222 
1115	 0.153465086686484 
1116	 0.15359733608484 
1117	 0.153728990638721 
1118	 0.153868848891153 
1119	 0.154032517329558 
1120	 0.154185657265739 
1121	 0.154311838322282 
1122	 0.154444262418564 
1123	 0.154608563164689 
1124	 0.15476660315144 
1125	 0.154937564850199 
1126	 0.155079023271722 
1127	 0.155214661813919 
1128	 0.155345856703203 
1129	 0.155449412156781 
1130	 0.155571809754669 
1131	 0.155709213926774 
1132	 0.155836945482252 
1133	 0.155954697925679 
1134	 0.156088109493395 
1135	 0.156234421553103 
1136	 0.156360960056502 
1137	 0.156522230376977 
1138	 0.156681095107046 
1139	 0.156805129393989 
1140	 0.15690751163153 
1141	 0.15702788022638 
1142	 0.157133591943514 
1143	 0.157237761765418 
1144	 0.157365910398414 
1145	 0.157470456276812 
1146	 0.157545600855982 
1147	 0.157626949238652 
1148	 0.157702815808378 
1149	 0.157783300650237 
1150	 0.157862492679906 
1151	 0.157938996681781 
1152	 0.158026480645986 
1153	 0.15812872634346 
1154	 0.158224873360643 
1155	 0.15832904334053 
1156	 0.158422630585524 
1157	 0.158516080682518 
1158	 0.158598950173888 
1159	 0.158676371337899 
1160	 0.158746396849102 
1161	 0.158802548276289 
1162	 0.158865792936793 
1163	 0.158925625775145 
1164	 0.158986165268888 
1165	 0.159055064368733 
1166	 0.159116342388578 
1167	 0.159159578599795 
1168	 0.159205551375658 
1169	 0.159265600862545 
1170	 0.159333298115159 
1171	 0.159387235827429 
1172	 0.159449395048818 
1173	 0.15950174432406 
1174	 0.159521141837289 
1175	 0.159577954123971 
1176	 0.159670471289941 
1177	 0.159734097340634 
1178	 0.159805798295373 
1179	 0.159860936711148 
1180	 0.159883282520182 
1181	 0.15991890447827 
1182	 0.159954166685217 
1183	 0.159991931941305 
1184	 0.160039357626283 
1185	 0.160099882034237 
1186	 0.160144603190531 
1187	 0.160189364530648 
1188	 0.160232055135535 
1189	 0.160261451420645 
1190	 0.160302931992623 
1191	 0.160369605192427 
1192	 0.160399472814555 
1193	 0.16039579223021 
1194	 0.160423628419885 
1195	 0.160442307185461 
1196	 0.160472709537818 
1197	 0.160544918874927 
1198	 0.160592757467707 
1199	 0.160631630366555 
1200	 0.160655249106577 
1201	 0.160688833654872 
1202	 0.160715401550791 
1203	 0.160751482532264 
1204	 0.160793118388214 
1205	 0.160833978572904 
1206	 0.160880433105065 
1207	 0.160921556787112 
1208	 0.160966617448541 
1209	 0.161001122881279 
1210	 0.161022408306996 
1211	 0.161053196881041 
1212	 0.161082573231389 
1213	 0.161112557335061 
1214	 0.161147194667587 
1215	 0.161183148377965 
1216	 0.161219458465222 
1217	 0.161254215978575 
1218	 0.161288482291215 
1219	 0.161327515749729 
1220	 0.161359458970067 
1221	 0.161382669584101 
1222	 0.161414192454855 
1223	 0.161444593523747 
1224	 0.161481774277238 
1225	 0.161529803453966 
1226	 0.161568946397433 
1227	 0.161610130515888 
1228	 0.161646335878533 
1229	 0.161676884690454 
1230	 0.161705393179961 
1231	 0.161723722603029 
1232	 0.161752470389072 
1233	 0.16178460484208 
1234	 0.16181675318692 
1235	 0.16185253314227 
1236	 0.161906497813138 
1237	 0.161932521120534 
1238	 0.161946023625028 
1239	 0.161960896079941 
1240	 0.161950579451037 
1241	 0.161969752249405 
1242	 0.162008262691032 
1243	 0.16203569816868 
1244	 0.162074533249531 
1245	 0.162105095848955 
1246	 0.162121249068693 
1247	 0.162145306635264 
1248	 0.16217256312831 
1249	 0.162203452644066 
1250	 0.162231827206987 
1251	 0.16225726033965 
1252	 0.16227556071269 
1253	 0.162284311584082 
1254	 0.162303094577848 
1255	 0.162314651195891 
1256	 0.162343497095805 
1257	 0.162396194058582 
1258	 0.162422822164667 
1259	 0.162446622542606 
1260	 0.162465807562587 
1261	 0.162464167592994 
1262	 0.162474574516892 
1263	 0.162489136527893 
1264	 0.162507243894544 
1265	 0.162523463672879 
1266	 0.162548245350802 
1267	 0.162582300732832 
1268	 0.162620063243813 
1269	 0.162652930596244 
1270	 0.162690655786111 
1271	 0.162719355746477 
1272	 0.16273216267802 
1273	 0.16276939750221 
1274	 0.16281634049726 
1275	 0.162861186705875 
1276	 0.162915987795017 
1277	 0.162973826687892 
1278	 0.163027001728574 
1279	 0.163088386638546 
1280	 0.163171405666075 
1281	 0.163237495829243 
1282	 0.163295321102055 
1283	 0.163356729514922 
1284	 0.163415694134861 
1285	 0.163472745464397 
1286	 0.163531735174666 
1287	 0.163568482605388 
1288	 0.163603954015806 
1289	 0.163623293996465 
1290	 0.163653640247421 
1291	 0.163688650455865 
1292	 0.1637100372525 
1293	 0.163733949090418 
1294	 0.163738707009702 
1295	 0.163724349985327 
1296	 0.163713221581191 
1297	 0.16368758076587 
1298	 0.163671427237487 
1299	 0.163667232402361 
1300	 0.16364562959377 
1301	 0.16362423282733 
1302	 0.163589786665546 
1303	 0.163539560070964 
1304	 0.163477236576903 
1305	 0.163434287762929 
1306	 0.16337942921208 
1307	 0.163311337832423 
1308	 0.163235544898406 
1309	 0.163170144700835 
1310	 0.163093111255538 
1311	 0.163029005892419 
1312	 0.162989082324598 
1313	 0.162925381940338 
1314	 0.162839249260283 
1315	 0.162773062404368 
1316	 0.162704769136506 
1317	 0.162652272619118 
1318	 0.162612669620996 
1319	 0.162581517554985 
1320	 0.162571660945473 
1321	 0.16254587583509 
1322	 0.162508180170477 
1323	 0.162491470336456 
1324	 0.162489262864764 
1325	 0.162479896321765 
1326	 0.162498421861775 
1327	 0.162525354225019 
1328	 0.162529548631484 
1329	 0.162541388772606 
1330	 0.162571127783373 
1331	 0.162609201363997 
1332	 0.162659907714855 
1333	 0.162731862405558 
1334	 0.162793833706102 
1335	 0.162859338676117 
1336	 0.162926823027478 
1337	 0.162990151927155 
1338	 0.163065541611608 
1339	 0.163156842161727 
1340	 0.163235124091765 
1341	 0.16331422420411 
1342	 0.163390717600278 
1343	 0.163464792476167 
1344	 0.163524054912186 
1345	 0.163607544095976 
1346	 0.163682039553912 
1347	 0.163737627168272 
1348	 0.163814563539893 
1349	 0.163860400007152 
1350	 0.163888543677884 
1351	 0.163925596720886 
1352	 0.163961620618213 
1353	 0.163985880783553 
1354	 0.164007559744644 
1355	 0.164025809451816 
1356	 0.164024198883368 
1357	 0.164042269206956 
1358	 0.164050525849305 
1359	 0.164100333488408 
1360	 0.164172501903447 
1361	 0.164254391778706 
1362	 0.164379028002154 
1363	 0.16448463069295 
1364	 0.164579567511435 
1365	 0.164694261308116 
1366	 0.164826267244909 
1367	 0.164933673397631 
1368	 0.16508002641988 
1369	 0.165215825743013 
1370	 0.165313324965035 
1371	 0.165422177057923 
1372	 0.165512028148253 
1373	 0.165589432896873 
1374	 0.165658307153649 
1375	 0.16574420369402 
1376	 0.165766498427517 
1377	 0.165751654113236 
1378	 0.16572370932077 
1379	 0.16563385085732 
1380	 0.165598932853666 
1381	 0.165552834005009 
1382	 0.165549121103475 
1383	 0.165602976499438 
1384	 0.165624248123645 
1385	 0.165667568202 
1386	 0.165685659778426 
1387	 0.165679364064873 
1388	 0.165670413759298 
1389	 0.16565680785296 
1390	 0.165631434578363 
1391	 0.165589474188181 
1392	 0.165531311933802 
1393	 0.165454575541525 
1394	 0.165360375805008 
1395	 0.165271126990958 
1396	 0.165198804839013 
1397	 0.165126348145873 
1398	 0.165063561425849 
1399	 0.164993550177243 
1400	 0.164925882911803 
1401	 0.164845386049175 
1402	 0.164756903217927 
1403	 0.164676157412149 
1404	 0.164579736342336 
1405	 0.164512132394018 
1406	 0.164466466352474 
1407	 0.164408427183823 
1408	 0.164363619027578 
1409	 0.164310240749906 
1410	 0.164243256176778 
1411	 0.164187569352301 
1412	 0.164138196350401 
1413	 0.164082286150544 
1414	 0.164051005381327 
1415	 0.164008276360908 
1416	 0.163963554748988 
1417	 0.163936896438137 
1418	 0.163878873716338 
1419	 0.163828263250564 
1420	 0.163806154349414 
1421	 0.163779133974713 
1422	 0.163784265767019 
1423	 0.163797459565871 
1424	 0.163783104741684 
1425	 0.16375709905107 
1426	 0.163732953006277 
1427	 0.163679664478748 
1428	 0.163659635829818 
1429	 0.163657627943522 
1430	 0.163651758640213 
1431	 0.163670314800239 
1432	 0.163664109327997 
1433	 0.163636067593074 
1434	 0.163624045880447 
1435	 0.163594256574688 
1436	 0.163594143215476 
1437	 0.163633619484875 
1438	 0.163649289844905 
1439	 0.163665273767036 
1440	 0.163687270115714 
1441	 0.16368138618891 
1442	 0.163664449607762 
1443	 0.163661664296943 
1444	 0.163654466866082 
1445	 0.163670883020391 
1446	 0.163688652033416 
1447	 0.163710398827128 
1448	 0.163745872567713 
1449	 0.163748263319201 
1450	 0.163753625031239 
1451	 0.163754505831441 
1452	 0.163731991128798 
1453	 0.163742952098821 
1454	 0.163767661510275 
1455	 0.163794756332889 
1456	 0.163859292422552 
1457	 0.163873984412258 
1458	 0.163856462776211 
1459	 0.163863331990116 
1460	 0.16384653939919 
1461	 0.163856205988123 
1462	 0.163899182538066 
1463	 0.163930631787652 
1464	 0.163971801532275 
1465	 0.163996499690656 
1466	 0.164017065620442 
1467	 0.164033644713416 
1468	 0.164012496084716 
1469	 0.164030030999161 
1470	 0.164076506206399 
1471	 0.164107725960895 
1472	 0.16415802558196 
1473	 0.164227491772757 
1474	 0.164243113238218 
1475	 0.164259932822668 
1476	 0.164267628727151 
1477	 0.164266658045311 
1478	 0.164326351392061 
1479	 0.164389825142084 
1480	 0.164443652992264 
1481	 0.164503044386864 
1482	 0.164542426637987 
1483	 0.164546619548639 
1484	 0.164584679276825 
1485	 0.164633139028747 
1486	 0.164682049383198 
1487	 0.164743084528787 
1488	 0.16479135129562 
1489	 0.164844664295313 
1490	 0.164879244681342 
1491	 0.164894215275967 
1492	 0.164924516425172 
1493	 0.164938324884178 
1494	 0.164977168022478 
1495	 0.165048316843757 
1496	 0.165097100565347 
1497	 0.16515278910049 
1498	 0.165191930578888 
1499	 0.16520707024253 
1500	 0.165232566178027 
1501	 0.165254397068554 
1502	 0.165282351185837 
1503	 0.165314268910477 
1504	 0.165345798846211 
1505	 0.165395251739619 
1506	 0.165424092407897 
1507	 0.16546122154259 
1508	 0.165504365039116 
1509	 0.165511658942418 
1510	 0.16552836409997 
1511	 0.165547175918526 
1512	 0.165556119504925 
1513	 0.165580944336653 
1514	 0.165612050348403 
1515	 0.165648702845975 
1516	 0.165694417858149 
1517	 0.165732648181286 
1518	 0.165781111450689 
1519	 0.165811376695873 
1520	 0.165827628674015 
1521	 0.165849820206468 
1522	 0.165868748212228 
1523	 0.165886470886492 
1524	 0.165896537694598 
1525	 0.165922364720804 
1526	 0.165956042344521 
1527	 0.165984101568681 
1528	 0.166026654629084 
1529	 0.166049118092742 
1530	 0.166049407490346 
1531	 0.166070262778697 
1532	 0.166095835374966 
1533	 0.166118723102855 
1534	 0.1661504037933 
1535	 0.166175310729807 
1536	 0.166193513600444 
1537	 0.166213338602235 
1538	 0.16623065369132 
1539	 0.166254527765887 
1540	 0.166280933799375 
1541	 0.166306391168645 
1542	 0.166339260691233 
1543	 0.166365089434856 
1544	 0.166388922080944 
1545	 0.166408300069115 
1546	 0.166425836763808 
1547	 0.166435508802679 
1548	 0.166444542568284 
1549	 0.166444152385434 
1550	 0.16645478761469 
1551	 0.16648062668203 
1552	 0.166506630317456 
1553	 0.166530488229524 
1554	 0.166542320504695 
1555	 0.166551084322778 
1556	 0.166563155198083 
1557	 0.166585569805626 
1558	 0.166613418376557 
1559	 0.166630815275181 
1560	 0.166638261306848 
1561	 0.166633835980881 
1562	 0.166631516445998 
1563	 0.166618767645547 
1564	 0.166617698966317 
1565	 0.166619920050973 
1566	 0.166625100455064 
1567	 0.166634745126257 
1568	 0.166647159104693 
1569	 0.166667040030893 
1570	 0.166675734143732 
1571	 0.166688245296234 
1572	 0.166683487586663 
1573	 0.166658421516482 
1574	 0.166650184471193 
1575	 0.166633648594236 
1576	 0.16663477993957 
1577	 0.166655557956563 
1578	 0.166666977923749 
1579	 0.166685225430564 
1580	 0.166694889027459 
1581	 0.166702656950361 
1582	 0.166701397102955 
1583	 0.166686930047942 
1584	 0.166682166399669 
1585	 0.166670016697512 
1586	 0.166670202024722 
1587	 0.166683714174765 
1588	 0.166696683111772 
1589	 0.166720471232939 
1590	 0.16672960335273 
1591	 0.166737615020248 
1592	 0.166737302252324 
1593	 0.166718384459184 
1594	 0.166710515294059 
1595	 0.16670956099298 
1596	 0.166698368618762 
1597	 0.166681345666333 
1598	 0.166670144460832 
1599	 0.166650952416293 
1600	 0.166639777087299 
1601	 0.166628375025532 
1602	 0.166636936150907 
1603	 0.166672209392825 
1604	 0.166687097135952 
1605	 0.166705033066837 
1606	 0.166721238125284 
1607	 0.166724885846447 
1608	 0.166723402243632 
1609	 0.166733183142505 
1610	 0.166743511978297 
1611	 0.166736662063243 
1612	 0.166731692930232 
1613	 0.166722146123811 
1614	 0.16671086274173 
1615	 0.166702202144527 
1616	 0.166700795899027 
1617	 0.166722124892969 
1618	 0.166742788508774 
1619	 0.166764842081099 
1620	 0.166780191963979 
1621	 0.166779899653416 
1622	 0.166757024236675 
1623	 0.166758597557144 
1624	 0.16676195912049 
1625	 0.166761285720572 
1626	 0.166766240875177 
1627	 0.166779295334856 
1628	 0.166792210061236 
1629	 0.16679785548459 
1630	 0.166813507359344 
1631	 0.166820301933805 
1632	 0.166812007090986 
1633	 0.16681051214955 
1634	 0.166819083035906 
1635	 0.166813871259127 
1636	 0.166794608384733 
1637	 0.166784962454392 
1638	 0.16677119685333 
1639	 0.166774533181526 
1640	 0.166794886652413 
1641	 0.166792935578914 
1642	 0.166790190438695 
1643	 0.166787621626257 
1644	 0.166760995614045 
1645	 0.166768082243105 
1646	 0.166807855798733 
1647	 0.166815282277008 
1648	 0.166818864869567 
1649	 0.166821391157273 
1650	 0.16681047444506 
1651	 0.166800585972834 
1652	 0.166794801640479 
1653	 0.166786087732794 
1654	 0.166763219221862 
1655	 0.166753987319349 
1656	 0.166760334894478 
1657	 0.166750914143656 
1658	 0.166737421702887 
1659	 0.166721318631611 
1660	 0.166697838925104 
1661	 0.166675073792442 
1662	 0.166644625275047 
1663	 0.166629323669982 
1664	 0.166616157632512 
1665	 0.166610606965109 
1666	 0.166621875517729 
1667	 0.166624497261926 
1668	 0.166627991376661 
1669	 0.16662750289484 
1670	 0.166623953821547 
1671	 0.166622459339651 
1672	 0.166609928134077 
1673	 0.166619675541301 
1674	 0.166647067547595 
1675	 0.166663058556933 
1676	 0.166697445754804 
1677	 0.16670287374762 
1678	 0.166680643585528 
1679	 0.16667544550066 
1680	 0.166663531548101 
1681	 0.166658796826702 
1682	 0.166665774099433 
1683	 0.166666687856086 
1684	 0.166663260651645 
1685	 0.16666377964602 
1686	 0.166661591925723 
1687	 0.166672028716739 
1688	 0.166695976987183 
1689	 0.166706161048162 
1690	 0.16672608115506 
1691	 0.166725309796872 
1692	 0.166698389035711 
1693	 0.166688179888798 
1694	 0.166679338056999 
1695	 0.166669475914939 
1696	 0.16666283471721 
1697	 0.16665667515839 
1698	 0.166643938036597 
1699	 0.16664081096109 
1700	 0.166639687585433 
1701	 0.16665353982586 
1702	 0.166683041343834 
1703	 0.166701892865941 
1704	 0.166736274834904 
1705	 0.166749325289477 
1706	 0.166742990846507 
1707	 0.16674356918864 
1708	 0.166735422989965 
1709	 0.166736731612825 
1710	 0.16674097685366 
1711	 0.166750420244262 
1712	 0.166769074785017 
1713	 0.166779094135125 
1714	 0.166791841845133 
1715	 0.166796829683998 
1716	 0.166790456052252 
1717	 0.166790637954538 
1718	 0.16679574474641 
1719	 0.166791909922235 
1720	 0.166785430683367 
1721	 0.166778270815797 
1722	 0.166764961787886 
1723	 0.166749074230608 
1724	 0.166740564453287 
1725	 0.166711709587119 
1726	 0.166662271406986 
1727	 0.166626777139528 
1728	 0.166585185856211 
1729	 0.166550638052179 
1730	 0.166519130917247 
1731	 0.166505827314261 
1732	 0.166502599849668 
1733	 0.166493229137359 
1734	 0.166505756207105 
1735	 0.16649290386998 
1736	 0.166456377643698 
1737	 0.166436192534857 
1738	 0.166425802939869 
1739	 0.16638685807644 
1740	 0.166335987141089 
1741	 0.166294077144689 
1742	 0.166228666519645 
1743	 0.166197150786136 
1744	 0.166194895977662 
1745	 0.166169513981419 
1746	 0.166137786930217 
1747	 0.166129322508312 
1748	 0.166116378269632 
1749	 0.1661115923276 
1750	 0.166115273820668 
1751	 0.166083056813504 
1752	 0.166040634022988 
1753	 0.166006907053775 
1754	 0.16596951445859 
1755	 0.165950000829064 
1756	 0.165931254287616 
1757	 0.165901519036424 
1758	 0.165871857073198 
1759	 0.165836160310108 
1760	 0.165837202384232 
1761	 0.165873315122163 
1762	 0.165877634731246 
1763	 0.165873021317124 
1764	 0.165856980071428 
1765	 0.165799337040851 
1766	 0.165770174002154 
1767	 0.165757073425773 
1768	 0.165731685715599 
1769	 0.165729713886731 
1770	 0.165722517987111 
1771	 0.165727611672526 
1772	 0.165748618400628 
1773	 0.165742090912888 
1774	 0.165748962153417 
1775	 0.165757634331418 
1776	 0.165725500710278 
1777	 0.165712081103431 
1778	 0.165706492829522 
1779	 0.165692612731393 
1780	 0.165708262782108 
1781	 0.165712324069299 
1782	 0.165702814805278 
1783	 0.16568378740743 
1784	 0.165673817570336 
1785	 0.165674087722971 
1786	 0.165673355015691 
1787	 0.165672113781584 
1788	 0.165668154744399 
1789	 0.165662422951337 
1790	 0.165665368299762 
1791	 0.165671598663967 
1792	 0.165681348506566 
1793	 0.165705091803691 
1794	 0.165712179586337 
1795	 0.165718137940468 
1796	 0.165709481767669 
1797	 0.165676661302432 
1798	 0.165661527805525 
1799	 0.165646010462831 
1800	 0.165635039749281 
1801	 0.163718353182129 
1802	 0.163911934799211 
1803	 0.164127932649727 
1804	 0.164374199547846 
1805	 0.164615665000465 
1806	 0.164825554971156 
1807	 0.165043571490032 
1808	 0.165212201890994 
1809	 0.165348960293857 
1810	 0.165460744952117 
1811	 0.165550047645893 
1812	 0.165608451302431 
1813	 0.165619350566357 
1814	 0.165618291520664 
1815	 0.165612646755599 
1816	 0.165595191294465 
1817	 0.165599571060769 
1818	 0.165605628087371 
1819	 0.165627911359543 
1820	 0.165681826662384 
1821	 0.165703281004458 
1822	 0.165700683419293 
1823	 0.165743623220973 
1824	 0.165746826765187 
1825	 0.165736713984387 
1826	 0.165736414858296 
1827	 0.165722120938622 
1828	 0.165713401574855 
1829	 0.165707423228256 
1830	 0.165691357559718 
1831	 0.165674442695019 
1832	 0.165652993721398 
1833	 0.165613968900519 
1834	 0.165575935646609 
1835	 0.165553148592872 
1836	 0.165532199421488 
1837	 0.165549816971136 
1838	 0.165598192866652 
1839	 0.165635152761618 
1840	 0.165684734315503 
1841	 0.165733679471214 
1842	 0.165779282951742 
1843	 0.165823708494833 
1844	 0.165868562939853 
1845	 0.165921203916443 
1846	 0.165971724630176 
1847	 0.166015246976514 
1848	 0.16606208559037 
1849	 0.166130785583401 
1850	 0.166197454897164 
1851	 0.166275754779714 
1852	 0.166335877430301 
1853	 0.166394173566908 
1854	 0.16644522254279 
1855	 0.166488703692897 
1856	 0.166527169129538 
1857	 0.166541920399935 
1858	 0.1665332512411 
1859	 0.166538054485578 
1860	 0.16651346719216 
1861	 0.166471171163642 
1862	 0.166403210038715 
1863	 0.166335760092204 
1864	 0.166222421394193 
1865	 0.166087835474082 
1866	 0.165937174570347 
1867	 0.16579997168317 
1868	 0.165656620156144 
1869	 0.165516336878591 
1870	 0.165438484708422 
1871	 0.165384634506048 
1872	 0.165354171603551 
1873	 0.165360212771123 
1874	 0.165386372621343 
1875	 0.165444631315016 
1876	 0.165498817488451 
1877	 0.165521048111058 
1878	 0.165524222698512 
1879	 0.165476881833448 
1880	 0.165401737311706 
1881	 0.165289695485708 
1882	 0.165145709047873 
1883	 0.164974196923008 
1884	 0.164762198885925 
1885	 0.164522281995821 
1886	 0.164268279926423 
1887	 0.164003713490275 
1888	 0.163739464491677 
1889	 0.163443076729511 
1890	 0.163111081983137 
1891	 0.162772472270281 
1892	 0.162411060048417 
1893	 0.162037376922024 
1894	 0.161644448802092 
1895	 0.16125513054728 
1896	 0.160857011201221 
1897	 0.160413490293964 
1898	 0.159968442874268 
1899	 0.159529790880454 
1900	 0.159087724747897 
1901	 0.158681397288668 
1902	 0.158307949003698 
1903	 0.157975603578829 
1904	 0.157658877186234 
1905	 0.157371844824444 
1906	 0.157097917105467 
1907	 0.156851576885528 
1908	 0.15662409911462 
1909	 0.156374910165585 
1910	 0.15610587215835 
1911	 0.155858929985523 
1912	 0.15558956016135 
1913	 0.155343334301315 
1914	 0.155118106598637 
1915	 0.154909617795112 
1916	 0.154705188012141 
1917	 0.154516282952414 
1918	 0.154364798707557 
1919	 0.154219576573549 
1920	 0.154083143757219 
1921	 0.153975154448812 
1922	 0.153886690407335 
1923	 0.153809910300987 
1924	 0.153749726821003 
1925	 0.153719272055916 
1926	 0.153685021864334 
1927	 0.15365316839152 
1928	 0.153646426726212 
1929	 0.153629859313332 
1930	 0.153613481134019 
1931	 0.153607029382746 
1932	 0.15358479702511 
1933	 0.153565851972224 
1934	 0.153560717638908 
1935	 0.153577367746135 
1936	 0.153611152678317 
1937	 0.153646755410298 
1938	 0.153710174808179 
1939	 0.153765588253987 
1940	 0.153820001753673 
1941	 0.15386727249258 
1942	 0.153925218928564 
1943	 0.153981419511568 
1944	 0.154045573781187 
1945	 0.154119575172336 
1946	 0.1541957689907 
1947	 0.15429115490806 
1948	 0.154366971305679 
1949	 0.154432794825441 
1950	 0.154505110742884 
1951	 0.154566847570216 
1952	 0.154640111805057 
1953	 0.154729144491236 
1954	 0.15481427966058 
1955	 0.154915832286698 
1956	 0.155028362897676 
1957	 0.155139359264191 
1958	 0.155260529767489 
1959	 0.15537583405823 
1960	 0.155484474996482 
1961	 0.155605964870079 
1962	 0.155727395008052 
1963	 0.155860279596759 
1964	 0.156011068445773 
1965	 0.156155227931179 
1966	 0.156299189529926 
1967	 0.156456750757182 
1968	 0.156604156040219 
1969	 0.156752273518982 
1970	 0.156890355968358 
1971	 0.157021311807082 
1972	 0.157152570497048 
1973	 0.157273697521076 
1974	 0.157400447739753 
1975	 0.157527316165958 
1976	 0.157661014325981 
1977	 0.157786554783886 
1978	 0.157917844320097 
1979	 0.158054238727362 
1980	 0.158180345121688 
1981	 0.158313973150008 
1982	 0.158447749659605 
1983	 0.158590038910772 
1984	 0.158743988446057 
1985	 0.158887741790602 
1986	 0.159047918825849 
1987	 0.159182003428541 
1988	 0.159299663059079 
1989	 0.159400009111048 
1990	 0.159519262932902 
1991	 0.159628687250455 
1992	 0.159738886418604 
1993	 0.159857926376313 
1994	 0.159972416374239 
1995	 0.160068872819063 
1996	 0.160184067676514 
1997	 0.160317860343929 
1998	 0.160442097737522 
1999	 0.160576686423236 
2000	 0.160694408576118 
2001	 0.160800001867616 
2002	 0.160895862108809 
2003	 0.161007681385837 
2004	 0.161130073594731 
2005	 0.161259457056993 
2006	 0.161410208561188 
2007	 0.161556612998572 
2008	 0.161705712720046 
2009	 0.161852957788574 
2010	 0.162009326322288 
2011	 0.162158407227546 
2012	 0.162305730504578 
2013	 0.162444498292156 
2014	 0.162573082583054 
2015	 0.162709311935955 
2016	 0.162845727593675 
2017	 0.162971429963458 
2018	 0.16310077713423 
2019	 0.16324747782673 
2020	 0.16336120290753 
2021	 0.163447656030393 
2022	 0.16355031331475 
2023	 0.163633868665937 
2024	 0.163738807943523 
2025	 0.16386392075906 
2026	 0.163985737881467 
2027	 0.164119514263819 
2028	 0.164244362816014 
2029	 0.164361710031282 
2030	 0.164476854168476 
2031	 0.164586219003441 
2032	 0.16468062665632 
2033	 0.164787021121666 
2034	 0.164893584136849 
2035	 0.165003139790915 
2036	 0.165124488318842 
2037	 0.165233007152492 
2038	 0.165329147479826 
2039	 0.165438203212291 
2040	 0.165552824914398 
2041	 0.165662820668898 
2042	 0.165765646116278 
2043	 0.165866440836389 
2044	 0.165960194561245 
2045	 0.166030377994321 
2046	 0.166117816395203 
2047	 0.166218420622324 
2048	 0.166307857331755 
2049	 0.166402452006376 
2050	 0.16648028764138 
2051	 0.166522120692683 
2052	 0.166602261600283 
2053	 0.166693991925545 
2054	 0.166784288932042 
2055	 0.166897154027522 
2056	 0.167025133565064 
2057	 0.167116793413727 
2058	 0.167189964280202 
2059	 0.16726065202267 
2060	 0.167312657047158 
2061	 0.167370968279863 
2062	 0.167413177048895 
2063	 0.167475598375915 
2064	 0.167557842057382 
2065	 0.167622564268385 
2066	 0.167689051267829 
2067	 0.1677543819742 
2068	 0.167810346679562 
2069	 0.167859826377553 
2070	 0.167915117517155 
2071	 0.167971792242224 
2072	 0.168040155281129 
2073	 0.168105401723995 
2074	 0.168185787165476 
2075	 0.168300995121276 
2076	 0.168378589132209 
2077	 0.168445899400416 
2078	 0.168509628045499 
2079	 0.168548990521865 
2080	 0.168601166890173 
2081	 0.168652829452197 
2082	 0.168711760226853 
2083	 0.16878683679476 
2084	 0.168841370103364 
2085	 0.168905447947713 
2086	 0.168979577752779 
2087	 0.169043258404227 
2088	 0.169100507763934 
2089	 0.169158022918191 
2090	 0.169213117234915 
2091	 0.169265182637659 
2092	 0.169304508341268 
2093	 0.16936267726975 
2094	 0.169413500922003 
2095	 0.169492519043278 
2096	 0.169611446813572 
2097	 0.169709692666449 
2098	 0.169820409161863 
2099	 0.16992245963138 
2100	 0.170008984284728 
2101	 0.17007294295377 
2102	 0.170148636272454 
2103	 0.170221073788651 
2104	 0.170294877489588 
2105	 0.17036624008425 
2106	 0.170442701851868 
2107	 0.170514643623242 
2108	 0.170598160224297 
2109	 0.170694037893161 
2110	 0.170786164711117 
2111	 0.170881471455295 
2112	 0.170980253178573 
2113	 0.171081538250944 
2114	 0.171182854668135 
2115	 0.17127790267172 
2116	 0.171377676943924 
2117	 0.171463292595906 
2118	 0.171530310063927 
2119	 0.171616391058509 
2120	 0.171722182487903 
2121	 0.171790962531166 
2122	 0.171841877207544 
2123	 0.171905261119261 
2124	 0.171937585726706 
2125	 0.171996374755169 
2126	 0.172110408876834 
2127	 0.172171900049411 
2128	 0.172201635784932 
2129	 0.172241490758878 
2130	 0.172261290052043 
2131	 0.172275200738491 
2132	 0.172304273735041 
2133	 0.172347723694716 
2134	 0.172388714747108 
2135	 0.172447413421414 
2136	 0.172463837619705 
2137	 0.172471085869795 
2138	 0.172466016554125 
2139	 0.172417806777363 
2140	 0.172390206001047 
2141	 0.172371776253062 
2142	 0.172345970156773 
2143	 0.172323258331962 
2144	 0.172286563256584 
2145	 0.172241832432103 
2146	 0.172192182322159 
2147	 0.172127749458677 
2148	 0.172062743316595 
2149	 0.171997008032971 
2150	 0.171935676087377 
2151	 0.17185858314294 
2152	 0.171776401344703 
2153	 0.171681522126065 
2154	 0.171567593310157 
2155	 0.171462148023727 
2156	 0.171350631110033 
2157	 0.171242231759898 
2158	 0.171128379527483 
2159	 0.171027856649318 
2160	 0.170942061545805 
2161	 0.170842708193328 
2162	 0.170751192360035 
2163	 0.170651130309572 
2164	 0.170536987540346 
2165	 0.170422790775848 
2166	 0.170296617256873 
2167	 0.170170738972433 
2168	 0.170025224906547 
2169	 0.169845725153372 
2170	 0.169704198063953 
2171	 0.169569495193049 
2172	 0.169435518194809 
2173	 0.169323528553093 
2174	 0.169198777686056 
2175	 0.169056946878998 
2176	 0.168931916397633 
2177	 0.168824036215049 
2178	 0.168704502251343 
2179	 0.168571823753062 
2180	 0.168460274853253 
2181	 0.168354825424882 
2182	 0.168251029676438 
2183	 0.168163131402713 
2184	 0.168083942472524 
2185	 0.167990549069145 
2186	 0.167888246107435 
2187	 0.167788683712083 
2188	 0.167687444430549 
2189	 0.1675837625456 
2190	 0.167462023855823 
2191	 0.167375311143838 
2192	 0.16730607346754 
2193	 0.167234673629422 
2194	 0.167189606539197 
2195	 0.167130672791234 
2196	 0.167059871655147 
2197	 0.166993915528123 
2198	 0.166917058314996 
2199	 0.166865377630924 
2200	 0.166833676543143 
2201	 0.166795632438978 
2202	 0.166772064545934 
2203	 0.166745804536233 
2204	 0.166728723841074 
2205	 0.166708471771377 
2206	 0.166684843688721 
2207	 0.166671416765772 
2208	 0.166658387779859 
2209	 0.166627545335728 
2210	 0.166621121963788 
2211	 0.166641259516596 
2212	 0.166647016741452 
2213	 0.166652159608446 
2214	 0.166658861918182 
2215	 0.166670140042526 
2216	 0.166673356892539 
2217	 0.166665126924117 
2218	 0.166670689838339 
2219	 0.166683292467601 
2220	 0.166687943087379 
2221	 0.166701888155352 
2222	 0.166710344094692 
2223	 0.16669604789755 
2224	 0.16668103343979 
2225	 0.166659778789309 
2226	 0.166621336299359 
2227	 0.166612492014861 
2228	 0.166611601066009 
2229	 0.166605486134619 
2230	 0.166618259963089 
2231	 0.166616871417849 
2232	 0.166585727925623 
2233	 0.166597840543217 
2234	 0.16664168101277 
2235	 0.166661649941707 
2236	 0.166700470398271 
2237	 0.166720035131006 
2238	 0.166719036486057 
2239	 0.166715656278843 
2240	 0.166704362487043 
2241	 0.166694721759197 
2242	 0.166666357482741 
2243	 0.166652652806847 
2244	 0.166650126759269 
2245	 0.166654868393914 
2246	 0.166635068747369 
2247	 0.16662781638544 
2248	 0.166621078515294 
2249	 0.166608108071576 
2250	 0.166598340271342 
2251	 0.166594683673532 
2252	 0.166586446800406 
2253	 0.166559714812973 
2254	 0.166570683541101 
2255	 0.166618256394011 
2256	 0.166635122155553 
2257	 0.166666964109333 
2258	 0.166664052782785 
2259	 0.166610028262545 
2260	 0.16659856877061 
2261	 0.166586564095578 
2262	 0.166593928965402 
2263	 0.166618505155694 
2264	 0.166656299188371 
2265	 0.166723694847881 
2266	 0.166774086613703 
2267	 0.166846107511177 
2268	 0.166901563895684 
2269	 0.166949100173584 
2270	 0.166958955785212 
2271	 0.167008762241296 
2272	 0.167020274008333 
2273	 0.167042645519793 
2274	 0.167084813566 
2275	 0.167117388181862 
2276	 0.167154144977588 
2277	 0.16717334519236 
2278	 0.167179655471017 
2279	 0.167209628386368 
2280	 0.167215784980978 
2281	 0.16727452755025 
2282	 0.167402707321298 
2283	 0.16745961982365 
2284	 0.167514799833135 
2285	 0.167554437694179 
2286	 0.167538661681589 
2287	 0.16754839370049 
2288	 0.167564399922607 
2289	 0.167593914767215 
2290	 0.167618013024896 
2291	 0.167666813345607 
2292	 0.16776481454424 
2293	 0.167822100829452 
2294	 0.167863352380943 
2295	 0.167915216027389 
2296	 0.167974450553239 
2297	 0.167989962567258 
2298	 0.168013693223416 
2299	 0.168031153136806 
2300	 0.168028739690862 
2301	 0.16804957970541 
2302	 0.168061977251839 
2303	 0.168072474515019 
2304	 0.168114262181635 
2305	 0.168150755223688 
2306	 0.168166800544232 
2307	 0.168212445075151 
2308	 0.168203459612658 
2309	 0.168100499561093 
2310	 0.168108699872546 
2311	 0.168164647388798 
2312	 0.168191506063566 
2313	 0.168262062205107 
2314	 0.168306550387925 
2315	 0.168316836192569 
2316	 0.168330906516519 
2317	 0.168375093684884 
2318	 0.168376553450667 
2319	 0.168324297179925 
2320	 0.168307729684134 
2321	 0.168266799462778 
2322	 0.168277429366814 
2323	 0.168322184215692 
2324	 0.168375338368523 
2325	 0.168477614785215 
2326	 0.168561703616052 
2327	 0.168647755075605 
2328	 0.168735146014777 
2329	 0.168821096509345 
2330	 0.168909482479976 
2331	 0.168960402487627 
2332	 0.168979415353874 
2333	 0.168999616764497 
2334	 0.169007832366033 
2335	 0.168990276527146 
2336	 0.16899803841922 
2337	 0.169032125102716 
2338	 0.169010714315693 
2339	 0.169076723642602 
2340	 0.169207361838806 
2341	 0.169212383908874 
2342	 0.169250361519236 
2343	 0.169280823695547 
2344	 0.169221946288423 
2345	 0.169232824214643 
2346	 0.169311287337864 
2347	 0.16931413652362 
2348	 0.16928673767765 
2349	 0.169291141729194 
2350	 0.169279542966745 
2351	 0.169276725751709 
2352	 0.169298134592228 
2353	 0.169304859859892 
2354	 0.169286110339044 
2355	 0.169305331412592 
2356	 0.169371578027985 
2357	 0.169371119881105 
2358	 0.169343962385464 
2359	 0.169316906124006 
2360	 0.169241169365141 
2361	 0.169200722575688 
2362	 0.169201168602404 
2363	 0.169204054029232 
2364	 0.169209196968708 
2365	 0.169195493649615 
2366	 0.169176877622256 
2367	 0.169140004194658 
2368	 0.169067033445327 
2369	 0.16903547204487 
2370	 0.169041231111558 
2371	 0.169021021471504 
2372	 0.168968056129155 
2373	 0.168903268177159 
2374	 0.168813026246739 
2375	 0.168695680984074 
2376	 0.168585998642143 
2377	 0.168543758325613 
2378	 0.168533700436869 
2379	 0.168546737488112 
2380	 0.168589770000223 
2381	 0.168609760341652 
2382	 0.168544480467348 
2383	 0.168491230077783 
2384	 0.168442740613425 
2385	 0.168369985316155 
2386	 0.168375879823865 
2387	 0.168346673899904 
2388	 0.168271344469859 
2389	 0.168193828038229 
2390	 0.168125917746878 
2391	 0.16813732808719 
2392	 0.168167194722229 
2393	 0.168219123806078 
2394	 0.168218039939663 
2395	 0.168096705633697 
2396	 0.168029699084812 
2397	 0.167958289971455 
2398	 0.167832208422557 
2399	 0.16775209265031 
2400	 0.16762597455549 
2401	 0.167548404698787 
2402	 0.167528286956037 
2403	 0.167419477680893 
2404	 0.167367749022209 
2405	 0.167310710500366 
2406	 0.167253414078709 
2407	 0.16732800537365 
2408	 0.167275804541633 
2409	 0.167181099069554 
2410	 0.167186755739385 
2411	 0.167076318615757 
2412	 0.166951547148473 
2413	 0.166934016351722 
2414	 0.166817480211208 
2415	 0.166656445255662 
2416	 0.166566007912296 
2417	 0.166514888034961 
2418	 0.16649691756937 
2419	 0.166568377531047 
2420	 0.166544560938266 
2421	 0.166543555911493 
2422	 0.166457143202613 
2423	 0.166182023520759 
2424	 0.166123409129575 
2425	 0.166204480971391 
2426	 0.166151196398125 
2427	 0.166136263846217 
2428	 0.166091265342998 
2429	 0.165928137648757 
2430	 0.16585000637749 
2431	 0.165829393479966 
2432	 0.165783988719088 
2433	 0.165722289686307 
2434	 0.16565561563483 
2435	 0.165622383824377 
2436	 0.16557054362675 
2437	 0.165542690567431 
2438	 0.165456041954594 
2439	 0.165262462842877 
2440	 0.16515681940357 
2441	 0.165082426600288 
2442	 0.164934536997568 
2443	 0.164827432049222 
2444	 0.16470601038947 
2445	 0.164460333310759 
2446	 0.164314088195442 
2447	 0.16424108023034 
2448	 0.164160539526125 
2449	 0.164114447756462 
2450	 0.164088767284701 
2451	 0.164109197798236 
2452	 0.16408488073466 
2453	 0.164034741055637 
2454	 0.163989210766633 
2455	 0.163920189506787 
2456	 0.163850948812588 
2457	 0.163799760740952 
2458	 0.163788081350234 
2459	 0.163773336909964 
2460	 0.163687736396743 
2461	 0.163635844783964 
2462	 0.163553906786371 
2463	 0.163408677294095 
2464	 0.16328731999317 
2465	 0.16316667676795 
2466	 0.163017101204351 
2467	 0.162791312757061 
2468	 0.162630220336046 
2469	 0.16252851819738 
2470	 0.162469052746088 
2471	 0.162425830762497 
2472	 0.162424932295469 
2473	 0.162358164866928 
2474	 0.162253348002364 
2475	 0.162120559444994 
2476	 0.161962363128925 
2477	 0.161726810422336 
2478	 0.161610207170381 
2479	 0.161724803134219 
2480	 0.161727151150882 
2481	 0.161769248019269 
2482	 0.161854998799077 
2483	 0.161672841923541 
2484	 0.161592908221768 
2485	 0.161604242446619 
2486	 0.161482372943798 
2487	 0.161509312404076 
2488	 0.161586532438045 
2489	 0.161567899950269 
2490	 0.161624677518553 
2491	 0.161612687149744 
2492	 0.161385936418512 
2493	 0.161449860267458 
2494	 0.161619195833459 
2495	 0.16129951337956 
2496	 0.161086224283356 
2497	 0.160715310083384 
2498	 0.160061191699073 
2499	 0.160070145364741 
2500	 0.160368700036572 
