Wavelength	MM_3200002.asd
350	 3.29530997856301E-02 
351	 3.61314015464249E-02 
352	 3.72466174633816E-02 
353	 3.22570967497132E-02 
354	 4.05356435580495E-02 
355	 3.92273499350419E-02 
356	 3.13561282819139E-02 
357	 2.70608512353759E-02 
358	 3.71402177890849E-02 
359	 3.95876124439358E-02 
360	 3.44688419765003E-02 
361	 3.52345850796558E-02 
362	 3.00750303858693E-02 
363	 2.70392843847697E-02 
364	 3.00660207881448E-02 
365	 3.36593714774502E-02 
366	 3.17933852548768E-02 
367	 3.16827119689215E-02 
368	 3.83707721205153E-02 
369	 3.30820818959232E-02 
370	 3.06319127364824E-02 
371	 3.40083756624474E-02 
372	 3.70358712717039E-02 
373	 0.034369838383023 
374	 3.18479366416646E-02 
375	 3.30800577182234E-02 
376	 3.56483926381433E-02 
377	 3.39850252004291E-02 
378	 3.29115063811646E-02 
379	 3.72579962212614E-02 
380	 3.80099502339877E-02 
381	 0.036963677404012 
382	 3.61984572453114E-02 
383	 3.74874082856168E-02 
384	 3.95901080631119E-02 
385	 3.95480722423437E-02 
386	 0.037488872607838 
387	 3.96373819146264E-02 
388	 4.33679481709418E-02 
389	 4.51582947882328E-02 
390	 4.29003952935237E-02 
391	 4.27324491672336E-02 
392	 4.22760109378863E-02 
393	 4.19197030889557E-02 
394	 4.43212779827029E-02 
395	 4.51201892496295E-02 
396	 0.045093438899398 
397	 4.53126782114903E-02 
398	 4.55297725643539E-02 
399	 4.56580376899832E-02 
400	 4.65891971039924E-02 
401	 4.88165556327446E-02 
402	 4.88327761312491E-02 
403	 4.84053445311996E-02 
404	 4.82125099382108E-02 
405	 4.75373929597558E-02 
406	 4.79900686290452E-02 
407	 4.97769264497634E-02 
408	 5.16761925956078E-02 
409	 4.92520578136441E-02 
410	 4.92118466984214E-02 
411	 5.13774941996825E-02 
412	 5.24958105990775E-02 
413	 5.31598288500542E-02 
414	 5.29062119321883E-02 
415	 5.20993887578803E-02 
416	 5.21760060271282E-02 
417	 0.052418168371481 
418	 0.052604495120241 
419	 5.27871034947153E-02 
420	 5.37050052018398E-02 
421	 5.35175236097706E-02 
422	 0.053249823599336 
423	 5.52665523567986E-02 
424	 5.49878069688419E-02 
425	 5.42776525083193E-02 
426	 0.05458862157769 
427	 5.51749831882232E-02 
428	 5.54815840503183E-02 
429	 0.055516911895033 
430	 0.055539219954483 
431	 5.58342571285155E-02 
432	 5.61532366311855E-02 
433	 5.64201416880036E-02 
434	 5.67442908556662E-02 
435	 5.68850290524526E-02 
436	 0.056997137952192 
437	 5.71599605185404E-02 
438	 0.056989216400792 
439	 5.71342816626783E-02 
440	 5.76509878740212E-02 
441	 5.82131839055126E-02 
442	 5.80735698470407E-02 
443	 5.81611229037827E-02 
444	 5.87599369055635E-02 
445	 5.89587071256142E-02 
446	 0.059096332749067 
447	 5.92224284444966E-02 
448	 0.059338440666434 
449	 5.95460792591216E-02 
450	 5.96605208964465E-02 
451	 5.97246649787185E-02 
452	 5.99608380914057E-02 
453	 6.01238717533008E-02 
454	 6.01152986177887E-02 
455	 6.00180479889407E-02 
456	 6.03121849703414E-02 
457	 6.03989265844668E-02 
458	 0.060436965537623 
459	 0.06081877204166 
460	 6.09149048809202E-02 
461	 6.09341281493855E-02 
462	 6.10190010927769E-02 
463	 6.11088747061967E-02 
464	 6.12321363393253E-02 
465	 6.14744551903421E-02 
466	 6.18124571343177E-02 
467	 6.17318165184876E-02 
468	 6.17529589090608E-02 
469	 6.19507886367511E-02 
470	 6.20347690020935E-02 
471	 6.22294916113915E-02 
472	 6.23814363409875E-02 
473	 6.24040791556905E-02 
474	 6.25137388545657E-02 
475	 6.25397942200046E-02 
476	 6.25196189403859E-02 
477	 6.25994069078838E-02 
478	 0.063030705916718 
479	 6.32360815322791E-02 
480	 6.31216414251073E-02 
481	 6.33470609401877E-02 
482	 6.35497511234642E-02 
483	 6.36191811379289E-02 
484	 6.35889273380349E-02 
485	 6.38220961912353E-02 
486	 6.38278604082313E-02 
487	 6.36774194948281E-02 
488	 6.38898285481747E-02 
489	 6.40986679288774E-02 
490	 0.06420768242392 
491	 6.42091689878205E-02 
492	 6.41711046621506E-02 
493	 6.41972277094165E-02 
494	 6.43301045799679E-02 
495	 6.45610127590572E-02 
496	 6.48340952034853E-02 
497	 6.48478910668581E-02 
498	 6.46637708805832E-02 
499	 6.49064829344634E-02 
500	 6.49849106934404E-02 
501	 0.064986776510252 
502	 6.51081744061378E-02 
503	 6.51055311271492E-02 
504	 6.51058301129658E-02 
505	 6.51543781687533E-02 
506	 0.065211698531672 
507	 6.53110806710726E-02 
508	 6.53813430166914E-02 
509	 6.53929449185755E-02 
510	 6.54882603794739E-02 
511	 6.54849971566549E-02 
512	 6.54445933957657E-02 
513	 6.55498512289173E-02 
514	 0.065843556130699 
515	 6.58954161125084E-02 
516	 6.56819236675388E-02 
517	 6.59690515339302E-02 
518	 6.60533539691057E-02 
519	 6.59272951634336E-02 
520	 6.58237808913411E-02 
521	 6.59529406710642E-02 
522	 6.60769107924623E-02 
523	 6.60985685532835E-02 
524	 6.60968199278908E-02 
525	 6.61617753948214E-02 
526	 6.62314640427855E-02 
527	 6.62477263254043E-02 
528	 6.62910112508667E-02 
529	 6.62781310019878E-02 
530	 6.62744802376554E-02 
531	 6.64187294847543E-02 
532	 6.64854418878127E-02 
533	 6.65383738637316E-02 
534	 6.66164415335644E-02 
535	 6.66081268204778E-02 
536	 6.66445751539541E-02 
537	 0.066710594112434 
538	 6.67357131150282E-02 
539	 6.66993854435784E-02 
540	 6.66791682675755E-02 
541	 6.67186324351995E-02 
542	 6.68084576408876E-02 
543	 6.68679685100703E-02 
544	 6.69173582933047E-02 
545	 0.066982585415007 
546	 6.69855225051346E-02 
547	 0.066971512436678 
548	 0.066991177579924 
549	 6.70891724651047E-02 
550	 6.71772017876066E-02 
551	 6.72154538022297E-02 
552	 6.72192420604251E-02 
553	 6.73286987710441E-02 
554	 0.067343168849142 
555	 6.73312897261132E-02 
556	 6.74744713457522E-02 
557	 6.75908231672281E-02 
558	 6.76296151956687E-02 
559	 6.76287883415005E-02 
560	 6.77586140483974E-02 
561	 6.78237404370166E-02 
562	 0.067841508302048 
563	 6.78943980017403E-02 
564	 0.067992296004337 
565	 0.068049483116881 
566	 6.80502716638231E-02 
567	 6.80630785810728E-02 
568	 6.81450082066065E-02 
569	 6.82539204824821E-02 
570	 6.83436123498191E-02 
571	 0.068452703990863 
572	 6.85424007781515E-02 
573	 6.86145451000203E-02 
574	 6.86990450924261E-02 
575	 6.87798232440132E-02 
576	 6.88830523723611E-02 
577	 6.90012501483509E-02 
578	 6.90317571999785E-02 
579	 6.91084580626313E-02 
580	 6.91656432952319E-02 
581	 6.90875280830018E-02 
582	 6.90433082554299E-02 
583	 6.90453928236462E-02 
584	 6.90853102392601E-02 
585	 6.91463105899741E-02 
586	 0.069264776627999 
587	 6.93822352857465E-02 
588	 6.94395396867844E-02 
589	 6.94931590874442E-02 
590	 6.96129640535827E-02 
591	 6.97621172968914E-02 
592	 6.98154755816792E-02 
593	 6.99049352229947E-02 
594	 7.00328275531877E-02 
595	 7.01595161578203E-02 
596	 7.01999276248964E-02 
597	 7.02697554003404E-02 
598	 7.03204283586952E-02 
599	 7.02460004634327E-02 
600	 7.02843068726221E-02 
601	 7.03441353761813E-02 
602	 7.03602804423096E-02 
603	 7.03823491107858E-02 
604	 7.04248347747261E-02 
605	 7.04979201670301E-02 
606	 7.05896461398243E-02 
607	 0.070594682130857 
608	 7.05993236223652E-02 
609	 7.06618544468334E-02 
610	 7.07925558776905E-02 
611	 7.08371861418704E-02 
612	 7.08266639620405E-02 
613	 7.08200678849363E-02 
614	 7.07890801503632E-02 
615	 7.08057722808209E-02 
616	 7.08573038139947E-02 
617	 7.08763843895651E-02 
618	 7.09271806666099E-02 
619	 7.09536633304616E-02 
620	 7.09306919868041E-02 
621	 7.09340408865291E-02 
622	 7.09428347460005E-02 
623	 7.09483473426845E-02 
624	 7.09522539249538E-02 
625	 7.10113319571317E-02 
626	 7.10427056222142E-02 
627	 7.10229369714921E-02 
628	 7.10190848518703E-02 
629	 7.10957229243353E-02 
630	 7.11686963584165E-02 
631	 7.11569224926531E-02 
632	 7.11711322878337E-02 
633	 7.11572225859025E-02 
634	 7.11241635454709E-02 
635	 7.11330215328178E-02 
636	 7.11898612567275E-02 
637	 7.12237443935267E-02 
638	 0.071202148232164 
639	 7.12142843418648E-02 
640	 7.12660790891284E-02 
641	 7.13166235912312E-02 
642	 0.071317418011111 
643	 0.071373574608253 
644	 7.14101791757494E-02 
645	 7.14027567307976E-02 
646	 7.14236598431426E-02 
647	 7.14530326675049E-02 
648	 0.071466910415654 
649	 7.14575559033307E-02 
650	 7.15013044244232E-02 
651	 7.14913671330012E-02 
652	 7.14703941285657E-02 
653	 7.15950835891416E-02 
654	 7.15845752482732E-02 
655	 7.15684378891215E-02 
656	 7.16440377255893E-02 
657	 7.16329764479549E-02 
658	 7.16331435786351E-02 
659	 0.071667147650792 
660	 7.17155539362842E-02 
661	 7.17145150388737E-02 
662	 7.17291014415407E-02 
663	 7.17888429334293E-02 
664	 0.071855717046781 
665	 7.18793262691457E-02 
666	 7.18631967720754E-02 
667	 7.18430828485422E-02 
668	 7.19080732573685E-02 
669	 7.19254927951624E-02 
670	 7.18955139590124E-02 
671	 0.071929789777972 
672	 7.20020679438717E-02 
673	 7.20570494687044E-02 
674	 7.20671669731486E-02 
675	 7.20839433965445E-02 
676	 7.20773434704991E-02 
677	 7.20730596811388E-02 
678	 7.21075879973924E-02 
679	 7.21166970828708E-02 
680	 7.21307133084446E-02 
681	 7.21676069637854E-02 
682	 7.22191140539067E-02 
683	 7.22465089220375E-02 
684	 7.22478796529986E-02 
685	 7.22402559301012E-02 
686	 7.22648474839999E-02 
687	 7.22812772102371E-02 
688	 0.072301850519916 
689	 7.23662652345551E-02 
690	 7.23562105056146E-02 
691	 7.23566306248475E-02 
692	 0.072411266936985 
693	 7.24222396077672E-02 
694	 7.24309135512908E-02 
695	 7.24377508419272E-02 
696	 7.24383995143349E-02 
697	 7.24750037435078E-02 
698	 7.25068659037278E-02 
699	 7.25221439348092E-02 
700	 7.25436551985012E-02 
701	 7.25422674595389E-02 
702	 7.25528742960242E-02 
703	 7.25914823365368E-02 
704	 7.25826777146455E-02 
705	 7.25769556784363E-02 
706	 7.25830391169407E-02 
707	 7.25890418501728E-02 
708	 7.26055704870696E-02 
709	 7.26203265177393E-02 
710	 7.26279350729275E-02 
711	 7.26360484139751E-02 
712	 7.26541475344199E-02 
713	 7.26485838098794E-02 
714	 0.0726083023784 
715	 7.26552383770864E-02 
716	 7.26926187102461E-02 
717	 0.072688488852178 
718	 7.26679986053042E-02 
719	 7.26976753651358E-02 
720	 7.27115904795406E-02 
721	 7.26789113790832E-02 
722	 7.26706325678784E-02 
723	 7.27105842643145E-02 
724	 7.27449894832944E-02 
725	 0.072712833296916 
726	 7.26684177905514E-02 
727	 7.26618817639511E-02 
728	 0.072676406925622 
729	 0.072640105872922 
730	 7.26538155869077E-02 
731	 7.26686859933104E-02 
732	 0.072650198155346 
733	 7.26677743803735E-02 
734	 0.072651364187107 
735	 0.072619116906265 
736	 7.26150385280339E-02 
737	 7.25974677416676E-02 
738	 7.25897879864935E-02 
739	 7.26019901271679E-02 
740	 7.26231046413959E-02 
741	 7.25905119590623E-02 
742	 7.25349456223853E-02 
743	 7.25003220849582E-02 
744	 7.25090262748521E-02 
745	 7.25059971676889E-02 
746	 7.24905019986933E-02 
747	 7.24827495391618E-02 
748	 7.24428636537137E-02 
749	 7.24150775013507E-02 
750	 7.24085430692816E-02 
751	 7.23820251378507E-02 
752	 7.23439081763813E-02 
753	 7.23086352595027E-02 
754	 0.072286802431289 
755	 7.22717122749544E-02 
756	 7.22634272140979E-02 
757	 7.22600517776491E-02 
758	 7.22575899136009E-02 
759	 7.22481782281347E-02 
760	 7.22143841703846E-02 
761	 7.21685658516534E-02 
762	 7.21590899393594E-02 
763	 7.21535476183325E-02 
764	 7.21350211517272E-02 
765	 0.072098700213975 
766	 7.20609058458251E-02 
767	 7.20401105869115E-02 
768	 7.20312451975148E-02 
769	 7.20167408424569E-02 
770	 0.071993044936243 
771	 7.19641035628745E-02 
772	 7.19375037180791E-02 
773	 7.19229976866304E-02 
774	 7.18847122503928E-02 
775	 7.18416094277171E-02 
776	 7.18140661034769E-02 
777	 7.17895798505669E-02 
778	 7.17767375591397E-02 
779	 7.17776180743228E-02 
780	 7.17821942738184E-02 
781	 7.17258878251973E-02 
782	 7.16965651155654E-02 
783	 7.17029762787348E-02 
784	 7.16618757397853E-02 
785	 7.16325723199814E-02 
786	 7.16141473482855E-02 
787	 7.15905230333638E-02 
788	 7.15289124854277E-02 
789	 7.15385661727707E-02 
790	 7.15505045828544E-02 
791	 7.14681572472695E-02 
792	 7.14369872156509E-02 
793	 7.14168302160882E-02 
794	 7.13907020025751E-02 
795	 7.13684656508454E-02 
796	 7.13353968364854E-02 
797	 7.13041821814312E-02 
798	 7.12843464498377E-02 
799	 7.12731125216349E-02 
800	 7.12355457612416E-02 
801	 7.12051744251026E-02 
802	 7.12063865207268E-02 
803	 0.071139135571281 
804	 7.10901583044857E-02 
805	 7.10845133336836E-02 
806	 7.10958047173074E-02 
807	 7.10513705589764E-02 
808	 7.10231590491211E-02 
809	 7.10183742216807E-02 
810	 7.09429357916005E-02 
811	 7.09471579593802E-02 
812	 7.09580716250171E-02 
813	 7.09096522089581E-02 
814	 7.08973858314134E-02 
815	 7.08729610365942E-02 
816	 7.08349323534872E-02 
817	 7.08063070571804E-02 
818	 7.08361097712476E-02 
819	 0.070837505127174 
820	 0.070792600613946 
821	 7.07490587731119E-02 
822	 7.06995999012743E-02 
823	 7.06736102882043E-02 
824	 7.06778836387349E-02 
825	 7.06768637257294E-02 
826	 7.06516925969731E-02 
827	 7.06147481711195E-02 
828	 7.05853625773409E-02 
829	 7.05703033778401E-02 
830	 7.05551575075852E-02 
831	 0.0705355693609 
832	 7.05153900159683E-02 
833	 7.05114465773254E-02 
834	 7.05146593704867E-02 
835	 0.070506385595858 
836	 7.04680061722185E-02 
837	 7.04730473429751E-02 
838	 7.04927995725339E-02 
839	 7.04830981704911E-02 
840	 0.070403423078926 
841	 0.070386634330379 
842	 7.03804903170846E-02 
843	 7.03278197585732E-02 
844	 7.03298234016242E-02 
845	 7.03496601041346E-02 
846	 7.03511667669782E-02 
847	 7.03150249355611E-02 
848	 7.03136159752075E-02 
849	 7.03096387013434E-02 
850	 0.070282151505707 
851	 7.02367869267482E-02 
852	 7.02360926783064E-02 
853	 7.02502195806836E-02 
854	 7.02579236250501E-02 
855	 0.070271276571259 
856	 7.02537314229786E-02 
857	 7.02532339921853E-02 
858	 7.02877035122674E-02 
859	 7.02460093511164E-02 
860	 7.02055909021683E-02 
861	 7.01888779541216E-02 
862	 7.01930237157692E-02 
863	 7.01994356308585E-02 
864	 7.01884064513153E-02 
865	 7.01685513794738E-02 
866	 7.01622965149577E-02 
867	 7.01515221332521E-02 
868	 7.01387492717623E-02 
869	 7.01351569085443E-02 
870	 7.01545477051065E-02 
871	 7.01544236482809E-02 
872	 7.01377929965018E-02 
873	 7.01136887714579E-02 
874	 7.00868851553059E-02 
875	 7.00773279920009E-02 
876	 7.00644298889137E-02 
877	 7.00324371062229E-02 
878	 6.99990020206533E-02 
879	 7.00434847604303E-02 
880	 7.00866896271912E-02 
881	 7.00425203291628E-02 
882	 7.00493834500451E-02 
883	 7.00509434941444E-02 
884	 7.00416342112007E-02 
885	 7.00405172375436E-02 
886	 7.00190249497543E-02 
887	 7.00021565079094E-02 
888	 7.00170586895965E-02 
889	 7.00743211161005E-02 
890	 7.00542739868339E-02 
891	 7.00294350006826E-02 
892	 7.00285071058642E-02 
893	 6.99958754720389E-02 
894	 6.99679933955657E-02 
895	 6.99796160150047E-02 
896	 7.00146406965335E-02 
897	 6.99703494344145E-02 
898	 6.99789831897289E-02 
899	 7.00084608756851E-02 
900	 7.00099496202985E-02 
901	 7.00087196591683E-02 
902	 7.00348345864075E-02 
903	 7.00516746937863E-02 
904	 7.00304886675255E-02 
905	 7.00678316478124E-02 
906	 7.00749982365685E-02 
907	 0.070048707206371 
908	 7.00309325002233E-02 
909	 7.00532469061437E-02 
910	 7.00381155101077E-02 
911	 7.00180229852474E-02 
912	 7.00731322353699E-02 
913	 7.00563967449133E-02 
914	 7.00508425930827E-02 
915	 7.00524676137862E-02 
916	 0.069987167254744 
917	 7.00460926833133E-02 
918	 7.00883457244282E-02 
919	 7.00626545204357E-02 
920	 0.070066542464478 
921	 7.00774081725806E-02 
922	 7.00479840427043E-02 
923	 6.99951443398497E-02 
924	 7.00274840670105E-02 
925	 7.00563024167484E-02 
926	 7.01109293852331E-02 
927	 7.01747743397855E-02 
928	 0.070109174950208 
929	 7.01046551943237E-02 
930	 7.01517807951701E-02 
931	 0.070190207764161 
932	 7.01699632397448E-02 
933	 7.02061847234882E-02 
934	 7.02701735967375E-02 
935	 7.02998361305112E-02 
936	 7.02699344168321E-02 
937	 7.02693197930758E-02 
938	 7.02520447169606E-02 
939	 0.070177456080773 
940	 7.01816680802673E-02 
941	 7.02286690373678E-02 
942	 7.02996551592489E-02 
943	 7.03576075939967E-02 
944	 7.02722305691285E-02 
945	 7.02718808284104E-02 
946	 7.03196005059536E-02 
947	 7.02843619860635E-02 
948	 7.02237341366409E-02 
949	 7.02597175121171E-02 
950	 7.02968001797937E-02 
951	 7.02007877319331E-02 
952	 7.02355716567362E-02 
953	 7.03168245391829E-02 
954	 7.03349492046293E-02 
955	 0.070233968158326 
956	 7.02309098581175E-02 
957	 7.03215820357605E-02 
958	 0.070414725570722 
959	 7.04024165081902E-02 
960	 0.070348926248817 
961	 7.03473442870543E-02 
962	 7.03997473740083E-02 
963	 7.04351743496362E-02 
964	 7.03563492734836E-02 
965	 7.03635318182324E-02 
966	 7.04401013204121E-02 
967	 7.04391774673862E-02 
968	 0.070474150009464 
969	 7.05150691874597E-02 
970	 7.05017997055183E-02 
971	 7.04070254967969E-02 
972	 7.04624501317382E-02 
973	 7.04909829835263E-02 
974	 7.04657731034335E-02 
975	 7.04713832067559E-02 
976	 7.04651960769125E-02 
977	 7.05315845161803E-02 
978	 7.05645327378149E-02 
979	 7.04302141179307E-02 
980	 7.05800322682042E-02 
981	 7.06352636158563E-02 
982	 7.05490498460042E-02 
983	 7.05056682204275E-02 
984	 7.05207950982269E-02 
985	 7.04794122314386E-02 
986	 7.04112187293618E-02 
987	 7.04132753199817E-02 
988	 7.04348121938141E-02 
989	 7.05360936750913E-02 
990	 7.06059367145681E-02 
991	 7.05427832397327E-02 
992	 7.06988712771065E-02 
993	 7.07372477957013E-02 
994	 7.07073526338085E-02 
995	 7.07742948957938E-02 
996	 7.07424147056964E-02 
997	 7.07742054018001E-02 
998	 7.07982314766108E-02 
999	 7.07259280812129E-02 
1000	 7.07583433010118E-02 
1001	 6.99882851474147E-02 
1002	 7.00132709628448E-02 
1003	 7.00694302252942E-02 
1004	 7.00688472063082E-02 
1005	 7.00214791136954E-02 
1006	 7.00338968414621E-02 
1007	 7.00717026871525E-02 
1008	 7.00193676622224E-02 
1009	 6.99849693389879E-02 
1010	 6.99984000331079E-02 
1011	 6.99837205666306E-02 
1012	 6.99987273088101E-02 
1013	 7.00213248653009E-02 
1014	 0.070020967543548 
1015	 7.00494769398711E-02 
1016	 7.00692636284427E-02 
1017	 7.00968037589393E-02 
1018	 7.01709834200054E-02 
1019	 7.02359813517801E-02 
1020	 7.01951473693312E-02 
1021	 7.01577993362694E-02 
1022	 7.01499600858091E-02 
1023	 7.00882896045195E-02 
1024	 7.00376616291385E-02 
1025	 0.070040009528745 
1026	 7.00025662567493E-02 
1027	 6.99719873990265E-02 
1028	 7.00611138748964E-02 
1029	 7.01168285062803E-02 
1030	 7.01311978413274E-02 
1031	 7.01529071070617E-02 
1032	 7.02060759708073E-02 
1033	 7.01431772537439E-02 
1034	 7.00803262377288E-02 
1035	 7.00676039412331E-02 
1036	 7.00285457186187E-02 
1037	 7.00447818772947E-02 
1038	 7.00865007076103E-02 
1039	 0.070089455403152 
1040	 7.01032365812761E-02 
1041	 7.01067909879644E-02 
1042	 7.00575382799634E-02 
1043	 7.00516498359104E-02 
1044	 7.00308080759766E-02 
1045	 7.00021390729494E-02 
1046	 6.99454605099537E-02 
1047	 6.99723153673227E-02 
1048	 6.99908645691392E-02 
1049	 7.00317145406808E-02 
1050	 7.01305401481668E-02 
1051	 7.01573798066268E-02 
1052	 7.01107413369766E-02 
1053	 7.00872470690471E-02 
1054	 7.01069497347421E-02 
1055	 7.00732511136649E-02 
1056	 7.00659547777315E-02 
1057	 7.00725689496186E-02 
1058	 7.00388857024853E-02 
1059	 0.070041490157721 
1060	 0.070094347011703 
1061	 7.01419939951117E-02 
1062	 7.01318170028938E-02 
1063	 7.02096432440053E-02 
1064	 0.070230587160571 
1065	 7.02480919485302E-02 
1066	 7.03392367849569E-02 
1067	 7.03585833388112E-02 
1068	 7.03481139647321E-02 
1069	 7.03336805773728E-02 
1070	 7.03437094251606E-02 
1071	 7.03564905061177E-02 
1072	 7.03684588402979E-02 
1073	 7.04025019668866E-02 
1074	 7.04325818743335E-02 
1075	 7.04504548857269E-02 
1076	 7.04541860256893E-02 
1077	 7.05219476127425E-02 
1078	 7.05540006666343E-02 
1079	 7.05462980029445E-02 
1080	 7.05811423592083E-02 
1081	 0.070598631270036 
1082	 7.05986774598192E-02 
1083	 7.06027844471705E-02 
1084	 7.06248682319037E-02 
1085	 7.06352907871078E-02 
1086	 7.06268149148961E-02 
1087	 7.06274182396384E-02 
1088	 7.06524921379695E-02 
1089	 7.06358505276728E-02 
1090	 7.06279965689327E-02 
1091	 7.06484003407225E-02 
1092	 0.070667343662336 
1093	 7.07051099099285E-02 
1094	 7.07011408445073E-02 
1095	 7.06876415996327E-02 
1096	 7.07226193048916E-02 
1097	 7.07098586638999E-02 
1098	 7.07050722715994E-02 
1099	 7.07122766153994E-02 
1100	 7.07195789642556E-02 
1101	 7.07103344263659E-02 
1102	 7.07131230426796E-02 
1103	 7.07358586490188E-02 
1104	 7.07391628270987E-02 
1105	 0.070731504190971 
1106	 7.07260727810676E-02 
1107	 7.07492059101037E-02 
1108	 7.07354672683847E-02 
1109	 7.07409599376756E-02 
1110	 7.07545378696586E-02 
1111	 7.07486224329964E-02 
1112	 0.070731844150413 
1113	 7.07494121635415E-02 
1114	 0.070757442796432 
1115	 0.070772541086379 
1116	 7.08314636749655E-02 
1117	 7.08402040840735E-02 
1118	 7.08018940365864E-02 
1119	 7.08201162152029E-02 
1120	 7.08171070418485E-02 
1121	 7.07995366170078E-02 
1122	 7.08091075291284E-02 
1123	 7.08151199600127E-02 
1124	 7.08139983467652E-02 
1125	 7.08089026103365E-02 
1126	 7.08121611544362E-02 
1127	 7.08075335077439E-02 
1128	 7.08171966357131E-02 
1129	 7.08539701351247E-02 
1130	 7.08625160473684E-02 
1131	 7.08659979814105E-02 
1132	 7.08611580647957E-02 
1133	 7.08161876491216E-02 
1134	 0.070804655770267 
1135	 7.08057260481845E-02 
1136	 7.08197833701008E-02 
1137	 7.08234952731016E-02 
1138	 7.08516140482653E-02 
1139	 7.08691790783128E-02 
1140	 0.070880025351873 
1141	 7.08884058221972E-02 
1142	 7.09128479208037E-02 
1143	 0.070906322851452 
1144	 7.08696137318043E-02 
1145	 7.08528287011291E-02 
1146	 7.08219809149439E-02 
1147	 7.08130295493237E-02 
1148	 7.08350396112144E-02 
1149	 7.08344026130696E-02 
1150	 7.08321623673081E-02 
1151	 7.08255491857484E-02 
1152	 7.08075968049572E-02 
1153	 7.07846960648143E-02 
1154	 7.07747229428596E-02 
1155	 7.07731097174654E-02 
1156	 7.07690042309205E-02 
1157	 7.07652303303785E-02 
1158	 7.07664807349715E-02 
1159	 0.070780048150207 
1160	 7.07767864736453E-02 
1161	 7.07667769057291E-02 
1162	 7.07593055316616E-02 
1163	 7.07339017080113E-02 
1164	 7.07244094428244E-02 
1165	 7.07069775035839E-02 
1166	 7.07339250376929E-02 
1167	 7.07687730238535E-02 
1168	 0.07076302257652 
1169	 7.07762920355137E-02 
1170	 7.07971074500278E-02 
1171	 7.08066603374325E-02 
1172	 7.08096229712042E-02 
1173	 7.08209128404729E-02 
1174	 0.070825236929342 
1175	 7.08393169628726E-02 
1176	 7.08732438006903E-02 
1177	 7.08857712084022E-02 
1178	 7.08914028030586E-02 
1179	 7.08978184757391E-02 
1180	 7.08759651021572E-02 
1181	 7.08828898064325E-02 
1182	 7.09154110824728E-02 
1183	 7.09393004284569E-02 
1184	 7.09581636088767E-02 
1185	 7.09855718307341E-02 
1186	 7.10067643199968E-02 
1187	 7.10166804357567E-02 
1188	 7.10307469538571E-02 
1189	 7.10461511421837E-02 
1190	 7.10696881678267E-02 
1191	 7.11002357370107E-02 
1192	 7.11150316560964E-02 
1193	 7.11287753140655E-02 
1194	 7.11453048691758E-02 
1195	 7.11387342255962E-02 
1196	 7.11530780666799E-02 
1197	 7.11957594740941E-02 
1198	 7.12234960153874E-02 
1199	 7.12486807531648E-02 
1200	 0.07127742088316 
1201	 7.12931295327927E-02 
1202	 7.12884797891508E-02 
1203	 7.13127310041471E-02 
1204	 7.13502798208803E-02 
1205	 7.13717518314537E-02 
1206	 7.13983511925077E-02 
1207	 7.14254314997919E-02 
1208	 7.14387354394306E-02 
1209	 7.14598468682098E-02 
1210	 7.15034906882747E-02 
1211	 7.15257630607173E-02 
1212	 7.15284854198252E-02 
1213	 0.071539557549595 
1214	 7.15399730244881E-02 
1215	 7.15519219909612E-02 
1216	 7.15702299974245E-02 
1217	 7.16000194084398E-02 
1218	 7.16196054095044E-02 
1219	 7.16420797864279E-02 
1220	 7.16615248469615E-02 
1221	 7.16753039241989E-02 
1222	 7.16914391869945E-02 
1223	 7.17064307101544E-02 
1224	 7.17271663835522E-02 
1225	 7.17475889511695E-02 
1226	 7.17721655538799E-02 
1227	 7.18082170437935E-02 
1228	 7.18363903452993E-02 
1229	 0.071872033154489 
1230	 7.18899114443495E-02 
1231	 7.18885020750917E-02 
1232	 7.18958563111954E-02 
1233	 7.19014183658121E-02 
1234	 7.18948565511627E-02 
1235	 0.071904701301217 
1236	 7.19252001706666E-02 
1237	 7.19438862885447E-02 
1238	 7.19672033383418E-02 
1239	 7.19861005875094E-02 
1240	 7.20132107828184E-02 
1241	 0.072025132741047 
1242	 7.20227555914117E-02 
1243	 7.20292452356543E-02 
1244	 7.20251083921897E-02 
1245	 0.072034509857195 
1246	 7.20642390937542E-02 
1247	 7.20794230959588E-02 
1248	 7.20908515374922E-02 
1249	 7.21042637958144E-02 
1250	 7.21061669631649E-02 
1251	 7.21042981574204E-02 
1252	 7.21277222664809E-02 
1253	 0.072177322979289 
1254	 7.21906038744348E-02 
1255	 7.22014333666857E-02 
1256	 7.22139816792105E-02 
1257	 7.22058617637678E-02 
1258	 7.22036494112304E-02 
1259	 7.22138631760953E-02 
1260	 7.22175316989733E-02 
1261	 0.072207008182756 
1262	 7.22021640513016E-02 
1263	 0.072203855148484 
1264	 7.22058219111914E-02 
1265	 7.22075872714965E-02 
1266	 7.22047860157316E-02 
1267	 7.22001997702508E-02 
1268	 7.22004078109141E-02 
1269	 7.22004311616778E-02 
1270	 7.21911385757924E-02 
1271	 7.21971736039311E-02 
1272	 0.072216293505559 
1273	 0.072227836558532 
1274	 7.22351458792816E-02 
1275	 7.22586211538238E-02 
1276	 7.22951875933354E-02 
1277	 0.072318920630448 
1278	 7.23442298991044E-02 
1279	 0.072374110293976 
1280	 7.23973328267995E-02 
1281	 7.24232788456603E-02 
1282	 7.24473111834623E-02 
1283	 7.24901487536391E-02 
1284	 7.25449627478299E-02 
1285	 0.072593578209506 
1286	 7.26484874334877E-02 
1287	 7.27200913757171E-02 
1288	 7.27685429431679E-02 
1289	 7.27933712738809E-02 
1290	 0.072840796806508 
1291	 7.28918777396072E-02 
1292	 7.29423872145757E-02 
1293	 7.30053440210421E-02 
1294	 0.073053901964881 
1295	 7.30985697449397E-02 
1296	 7.31379326469904E-02 
1297	 7.31593402536525E-02 
1298	 0.073198845837459 
1299	 7.32452700223341E-02 
1300	 7.32867867152547E-02 
1301	 7.33433961786907E-02 
1302	 7.33881813092612E-02 
1303	 7.34222010604468E-02 
1304	 7.34543998291707E-02 
1305	 7.34915162839503E-02 
1306	 0.073497015195462 
1307	 7.35013244410326E-02 
1308	 7.35259178482933E-02 
1309	 7.35426768223592E-02 
1310	 7.35649037726433E-02 
1311	 7.35743159796686E-02 
1312	 7.35743883072977E-02 
1313	 7.35792817941072E-02 
1314	 7.35773705146325E-02 
1315	 7.35882055123042E-02 
1316	 7.36130876582078E-02 
1317	 7.36244879943337E-02 
1318	 7.36331022581857E-02 
1319	 7.36366907035673E-02 
1320	 7.36393738913376E-02 
1321	 7.36335663359995E-02 
1322	 0.073613595444202 
1323	 7.36087980975284E-02 
1324	 7.36115929921306E-02 
1325	 7.35780065854458E-02 
1326	 7.35533463813132E-02 
1327	 7.35376968678626E-02 
1328	 7.35119922842125E-02 
1329	 7.34985778099132E-02 
1330	 7.34913490062794E-02 
1331	 7.34966300743772E-02 
1332	 7.34999710425113E-02 
1333	 7.35148976057849E-02 
1334	 7.35099447904001E-02 
1335	 7.35047113790286E-02 
1336	 7.34908633134101E-02 
1337	 7.34540997742627E-02 
1338	 7.34328166868224E-02 
1339	 0.073405571659502 
1340	 7.33939724081438E-02 
1341	 7.34025543432753E-02 
1342	 7.33996206344974E-02 
1343	 7.33965869879468E-02 
1344	 7.34040502114203E-02 
1345	 7.33986988782526E-02 
1346	 0.073384398356565 
1347	 7.33799960354868E-02 
1348	 7.33811687979571E-02 
1349	 7.33839522846295E-02 
1350	 7.33850826673151E-02 
1351	 7.33813678922531E-02 
1352	 7.33679750017053E-02 
1353	 7.33758498655073E-02 
1354	 7.33973345406287E-02 
1355	 7.34007301966016E-02 
1356	 7.34161633818625E-02 
1357	 7.34116295620478E-02 
1358	 7.33679316261924E-02 
1359	 7.33571253890388E-02 
1360	 0.07336660580992 
1361	 7.33645350284842E-02 
1362	 0.07337393851769 
1363	 7.33707583143982E-02 
1364	 7.33448205547354E-02 
1365	 7.33331283552737E-02 
1366	 7.33251454000851E-02 
1367	 7.33234980887828E-02 
1368	 7.33254747929076E-02 
1369	 7.33032141465353E-02 
1370	 7.32682543211473E-02 
1371	 7.32297790466673E-02 
1372	 7.31775399649023E-02 
1373	 7.31401574339027E-02 
1374	 7.30832489545687E-02 
1375	 7.30087213383519E-02 
1376	 7.29488093752293E-02 
1377	 7.28828972821414E-02 
1378	 7.28225675984269E-02 
1379	 7.27838176319151E-02 
1380	 7.27217466337035E-02 
1381	 7.26507789065536E-02 
1382	 7.25705724806777E-02 
1383	 7.24787926151916E-02 
1384	 7.23815983675198E-02 
1385	 7.22749576524874E-02 
1386	 7.21697205136388E-02 
1387	 7.20633990722143E-02 
1388	 7.19473558342643E-02 
1389	 7.18307822337955E-02 
1390	 7.17037197045648E-02 
1391	 7.15538278056313E-02 
1392	 7.13928059973884E-02 
1393	 7.12414600577186E-02 
1394	 7.10736272132205E-02 
1395	 0.070903020043264 
1396	 7.07447044801444E-02 
1397	 7.05736317240716E-02 
1398	 7.03921606414905E-02 
1399	 7.02076191526893E-02 
1400	 7.00254092259031E-02 
1401	 6.98292590167428E-02 
1402	 6.96034371385903E-02 
1403	 6.94161743300706E-02 
1404	 0.069242477367407 
1405	 6.90655103439137E-02 
1406	 6.89080713256467E-02 
1407	 6.87428887095297E-02 
1408	 6.85598342364405E-02 
1409	 6.84002731514472E-02 
1410	 6.82549031933357E-02 
1411	 0.068115125200583 
1412	 6.79842166047689E-02 
1413	 6.78581564498825E-02 
1414	 6.77502544549438E-02 
1415	 6.76616966736639E-02 
1416	 6.75920062376415E-02 
1417	 0.067525193030487 
1418	 6.74726751976951E-02 
1419	 6.74221064709948E-02 
1420	 6.73580131129086E-02 
1421	 6.73168365501538E-02 
1422	 6.72606559139435E-02 
1423	 6.71956048292259E-02 
1424	 6.71565951900722E-02 
1425	 6.71351578351221E-02 
1426	 6.71071346543049E-02 
1427	 6.70941188860529E-02 
1428	 6.70730872300642E-02 
1429	 6.70381630822191E-02 
1430	 6.70223503469679E-02 
1431	 6.70191075143281E-02 
1432	 6.70106406170545E-02 
1433	 6.70122620168135E-02 
1434	 0.067011823502391 
1435	 6.69992485063693E-02 
1436	 6.69997356825812E-02 
1437	 6.70028398052907E-02 
1438	 6.70185821651069E-02 
1439	 6.70446366292441E-02 
1440	 6.70832088468618E-02 
1441	 6.71192274562784E-02 
1442	 6.71400264495709E-02 
1443	 6.71521136109622E-02 
1444	 6.71626126072851E-02 
1445	 6.71733317758527E-02 
1446	 6.71990456500352E-02 
1447	 6.72335461578838E-02 
1448	 6.72667023953939E-02 
1449	 6.72960904673133E-02 
1450	 6.73188317401864E-02 
1451	 6.73429114222561E-02 
1452	 6.73590416387573E-02 
1453	 0.067380878581374 
1454	 6.74047844084036E-02 
1455	 6.74334202006438E-02 
1456	 6.74620851621349E-02 
1457	 6.74908463050055E-02 
1458	 6.75303766118432E-02 
1459	 6.75584866462842E-02 
1460	 0.067573112443078 
1461	 0.067606578358326 
1462	 6.76428251881151E-02 
1463	 6.76818031172989E-02 
1464	 6.77350804189418E-02 
1465	 0.067780240386222 
1466	 0.067818206108584 
1467	 6.78674843288237E-02 
1468	 6.79273114733365E-02 
1469	 6.79788378443287E-02 
1470	 6.80326098165239E-02 
1471	 6.80763481123089E-02 
1472	 0.068131137762943 
1473	 6.81930411061286E-02 
1474	 6.82555811837152E-02 
1475	 6.83402033051679E-02 
1476	 6.84200923662458E-02 
1477	 6.84823167317846E-02 
1478	 6.85498009946881E-02 
1479	 6.86213871964398E-02 
1480	 6.86883052869701E-02 
1481	 6.87528836342315E-02 
1482	 0.068812991845935 
1483	 0.068866644218046 
1484	 6.89340769246525E-02 
1485	 6.89995250363596E-02 
1486	 6.90741590997871E-02 
1487	 6.91686302347916E-02 
1488	 6.92440640456525E-02 
1489	 6.93159597015127E-02 
1490	 6.93811087933236E-02 
1491	 6.94374748458465E-02 
1492	 6.94989851809776E-02 
1493	 6.95500308978481E-02 
1494	 6.96152104603625E-02 
1495	 6.96924972691968E-02 
1496	 6.97618044393745E-02 
1497	 6.98406151042796E-02 
1498	 6.99040580260441E-02 
1499	 6.99472762097537E-02 
1500	 7.00069519525739E-02 
1501	 7.00668281931779E-02 
1502	 7.01306182835708E-02 
1503	 7.02102030308085E-02 
1504	 7.02835905541257E-02 
1505	 7.03274049671782E-02 
1506	 7.03765903358348E-02 
1507	 7.04404814888054E-02 
1508	 7.05108021891666E-02 
1509	 7.05864039501239E-02 
1510	 7.06545408352386E-02 
1511	 7.07056161159267E-02 
1512	 7.07417355267767E-02 
1513	 7.07950986306908E-02 
1514	 7.08630892738129E-02 
1515	 7.09238078330464E-02 
1516	 7.09832243811734E-02 
1517	 7.10365689008566E-02 
1518	 7.10787792258377E-02 
1519	 0.071132611325258 
1520	 7.11920536116748E-02 
1521	 7.12411093092952E-02 
1522	 7.12890020364147E-02 
1523	 7.13348804281868E-02 
1524	 7.13705416359425E-02 
1525	 7.14162481938027E-02 
1526	 7.14693420291435E-02 
1527	 7.15186820348606E-02 
1528	 7.15767200833588E-02 
1529	 0.071615007872763 
1530	 7.16358140031493E-02 
1531	 7.16695305093213E-02 
1532	 7.16915131096138E-02 
1533	 7.17307634246818E-02 
1534	 7.17939583237266E-02 
1535	 7.18420789919882E-02 
1536	 7.18912000799652E-02 
1537	 7.19325241002172E-02 
1538	 7.19593062613816E-02 
1539	 0.071997359812454 
1540	 7.20450306313824E-02 
1541	 7.20773138993012E-02 
1542	 7.20947249170402E-02 
1543	 7.21306525956296E-02 
1544	 7.21684998981282E-02 
1545	 7.22076110434343E-02 
1546	 7.22611757774031E-02 
1547	 7.23197236460855E-02 
1548	 7.23552267441446E-02 
1549	 7.23859694569734E-02 
1550	 7.24037945738192E-02 
1551	 7.24192485095813E-02 
1552	 7.24592341042815E-02 
1553	 7.24925627079089E-02 
1554	 7.25298773073583E-02 
1555	 7.25734065694148E-02 
1556	 7.26006090969586E-02 
1557	 0.072614277163822 
1558	 7.26266878607409E-02 
1559	 7.26515393398078E-02 
1560	 7.26778568930583E-02 
1561	 7.26977578192728E-02 
1562	 0.072736823712833 
1563	 7.27985905066618E-02 
1564	 7.28321294280651E-02 
1565	 7.28640010315064E-02 
1566	 7.28934850759556E-02 
1567	 7.29055262241563E-02 
1568	 7.29305062198423E-02 
1569	 7.29680306991801E-02 
1570	 7.29891394033132E-02 
1571	 7.29964711565518E-02 
1572	 7.30174169401099E-02 
1573	 7.30467134503535E-02 
1574	 7.30598434819907E-02 
1575	 7.30623158737405E-02 
1576	 0.073087162791885 
1577	 7.31115274111298E-02 
1578	 7.31354274377196E-02 
1579	 7.31888215496928E-02 
1580	 7.32128003644443E-02 
1581	 7.32057152247785E-02 
1582	 7.32197088540189E-02 
1583	 7.32355060356837E-02 
1584	 7.32527582700408E-02 
1585	 7.32801544201166E-02 
1586	 7.33006289808102E-02 
1587	 7.33154114036192E-02 
1588	 7.33366472178764E-02 
1589	 7.33594001771531E-02 
1590	 7.33816096630623E-02 
1591	 0.073409372982058 
1592	 7.34312370098483E-02 
1593	 7.34491262391586E-02 
1594	 7.34684288749203E-02 
1595	 7.34882665837703E-02 
1596	 7.35033167281435E-02 
1597	 7.35125469713943E-02 
1598	 7.35278537810948E-02 
1599	 7.35435485993763E-02 
1600	 7.35574661008114E-02 
1601	 7.35826521148431E-02 
1602	 7.35943422767225E-02 
1603	 7.35938212899659E-02 
1604	 7.35947439430495E-02 
1605	 7.35804442710144E-02 
1606	 7.35805070339579E-02 
1607	 7.35896307879614E-02 
1608	 7.35991828329562E-02 
1609	 7.36160052507456E-02 
1610	 7.36320810625578E-02 
1611	 7.36434469820627E-02 
1612	 7.36603985858393E-02 
1613	 7.36801818120694E-02 
1614	 7.37042491175533E-02 
1615	 7.37107952619198E-02 
1616	 7.37136574751902E-02 
1617	 7.37200683696402E-02 
1618	 7.37059598102355E-02 
1619	 7.37096539341835E-02 
1620	 0.073731607394065 
1621	 7.37454052444084E-02 
1622	 7.37644324171646E-02 
1623	 7.37752095705075E-02 
1624	 7.37770221520452E-02 
1625	 7.37986650522533E-02 
1626	 7.38342829524205E-02 
1627	 7.38407164877843E-02 
1628	 7.38450160729247E-02 
1629	 7.38512879047466E-02 
1630	 7.38310011082974E-02 
1631	 7.38382000855453E-02 
1632	 7.38755712923946E-02 
1633	 0.07388331596501 
1634	 7.38775939715526E-02 
1635	 0.073880301967398 
1636	 0.073881544744153 
1637	 7.38766091319504E-02 
1638	 7.38645236317725E-02 
1639	 0.073872067583285 
1640	 7.38843620454434E-02 
1641	 7.38901507689103E-02 
1642	 7.39089924082559E-02 
1643	 0.073922085451149 
1644	 7.39199050769777E-02 
1645	 7.39299112913907E-02 
1646	 7.39641016791497E-02 
1647	 7.39630336726401E-02 
1648	 7.39429141276115E-02 
1649	 7.39281876951297E-02 
1650	 0.073889541284241 
1651	 0.073880363847777 
1652	 7.38848875484194E-02 
1653	 7.38918892780779E-02 
1654	 7.39198342955535E-02 
1655	 7.39261975482947E-02 
1656	 7.39293605490169E-02 
1657	 0.073925069954443 
1658	 7.38989314445088E-02 
1659	 7.38963360017862E-02 
1660	 7.39027064472739E-02 
1661	 7.39060240598904E-02 
1662	 7.39225922765719E-02 
1663	 7.39268296864359E-02 
1664	 7.39214970947464E-02 
1665	 7.39196758641843E-02 
1666	 7.39135604782201E-02 
1667	 7.39155060975017E-02 
1668	 7.39211080375705E-02 
1669	 7.39258556525608E-02 
1670	 0.07394158759657 
1671	 7.39414029816349E-02 
1672	 7.39305924629187E-02 
1673	 0.073924080651764 
1674	 7.39083552344242E-02 
1675	 7.39021856751246E-02 
1676	 7.38968432055739E-02 
1677	 7.39037956216694E-02 
1678	 7.39313804918546E-02 
1679	 7.39324741812525E-02 
1680	 7.39279238281575E-02 
1681	 7.39262033698226E-02 
1682	 7.39052600726973E-02 
1683	 7.38965983032502E-02 
1684	 7.39019509941203E-02 
1685	 7.39023202582292E-02 
1686	 7.39034342336464E-02 
1687	 7.38948081922552E-02 
1688	 7.38767024374502E-02 
1689	 7.38734066648622E-02 
1690	 7.38632376924765E-02 
1691	 7.38692472942719E-02 
1692	 7.39087443166127E-02 
1693	 7.39163092970309E-02 
1694	 7.39117466539129E-02 
1695	 7.39068353629092E-02 
1696	 7.38895199333983E-02 
1697	 7.38754472166061E-02 
1698	 7.38577688522376E-02 
1699	 7.38479091026493E-02 
1700	 7.38332854097868E-02 
1701	 7.38275501134115E-02 
1702	 7.38467358253224E-02 
1703	 7.38376577556761E-02 
1704	 0.073811757748069 
1705	 7.38004458991878E-02 
1706	 7.37774953324014E-02 
1707	 7.37648534769792E-02 
1708	 7.37740512157723E-02 
1709	 7.37641866237314E-02 
1710	 7.37378671556092E-02 
1711	 7.37299078080365E-02 
1712	 7.37270872613979E-02 
1713	 7.37224685774422E-02 
1714	 7.37318019125191E-02 
1715	 7.37262122845333E-02 
1716	 7.37036656994698E-02 
1717	 7.36967293835571E-02 
1718	 7.37012108511664E-02 
1719	 7.36843017556396E-02 
1720	 7.36554424983128E-02 
1721	 7.36492592639641E-02 
1722	 7.36444225021941E-02 
1723	 7.36315251579285E-02 
1724	 7.36398696330412E-02 
1725	 7.36233047528083E-02 
1726	 7.35664989729757E-02 
1727	 7.35443926178276E-02 
1728	 7.35421607924122E-02 
1729	 7.35286000326809E-02 
1730	 0.073525364967595 
1731	 7.35117981400506E-02 
1732	 0.073490469545335 
1733	 7.34600865466341E-02 
1734	 7.34173544192185E-02 
1735	 0.07338825584901 
1736	 7.33504983880902E-02 
1737	 7.33329128096355E-02 
1738	 7.33404158541722E-02 
1739	 7.33223135944636E-02 
1740	 7.33047892539063E-02 
1741	 7.32784797332351E-02 
1742	 7.32335865200307E-02 
1743	 7.32035178584604E-02 
1744	 7.31756263365266E-02 
1745	 7.31501050319522E-02 
1746	 7.31287678126971E-02 
1747	 7.31025403680202E-02 
1748	 7.30846120616189E-02 
1749	 7.30776147318871E-02 
1750	 7.30586765798655E-02 
1751	 7.30356919759065E-02 
1752	 7.30072062920159E-02 
1753	 7.29687634682696E-02 
1754	 7.29479693038869E-02 
1755	 7.29133196278452E-02 
1756	 7.28761149850323E-02 
1757	 7.28724152574444E-02 
1758	 7.28489716926693E-02 
1759	 7.28266417150668E-02 
1760	 7.28115145149833E-02 
1761	 7.27654777158829E-02 
1762	 7.27258231922202E-02 
1763	 7.26918947447198E-02 
1764	 7.26824272719682E-02 
1765	 7.26829216949202E-02 
1766	 7.26471455681243E-02 
1767	 7.26133150321971E-02 
1768	 7.25884042356265E-02 
1769	 7.25553818601311E-02 
1770	 7.25261982374868E-02 
1771	 7.25226500148033E-02 
1772	 7.25157429528338E-02 
1773	 7.24742780697884E-02 
1774	 7.24377183321647E-02 
1775	 7.24043638206577E-02 
1776	 0.072350004427508 
1777	 7.23109094736577E-02 
1778	 7.23034253122604E-02 
1779	 7.22842959743038E-02 
1780	 7.22655150046625E-02 
1781	 7.22627093236152E-02 
1782	 7.22484130856388E-02 
1783	 7.22607574019856E-02 
1784	 7.22468792967232E-02 
1785	 7.22207812608519E-02 
1786	 0.072195121866578 
1787	 7.21362905012642E-02 
1788	 7.21188437531542E-02 
1789	 7.21322022183982E-02 
1790	 7.21245802007461E-02 
1791	 7.21256227735957E-02 
1792	 7.21225111092068E-02 
1793	 7.21100634726522E-02 
1794	 7.20992679771662E-02 
1795	 7.20882699622776E-02 
1796	 7.20843116495396E-02 
1797	 7.20780938704078E-02 
1798	 7.20799968943579E-02 
1799	 7.21018526171133E-02 
1800	 7.21056148865854E-02 
1801	 0.069017374872155 
1802	 6.90303073291361E-02 
1803	 6.90516371387047E-02 
1804	 6.90425950728447E-02 
1805	 6.90507834473317E-02 
1806	 6.90765551506639E-02 
1807	 6.90741731845412E-02 
1808	 6.90996279767861E-02 
1809	 6.91685983980323E-02 
1810	 6.92019377455378E-02 
1811	 6.92314459352285E-02 
1812	 6.92495478016211E-02 
1813	 6.92480143665097E-02 
1814	 6.92144703332873E-02 
1815	 6.92297707751221E-02 
1816	 6.92614531967829E-02 
1817	 6.92693528109825E-02 
1818	 6.92841261078034E-02 
1819	 6.92969136523536E-02 
1820	 6.92968299500944E-02 
1821	 6.92857412721078E-02 
1822	 6.92926223913108E-02 
1823	 6.93049957189573E-02 
1824	 6.93033307168377E-02 
1825	 6.92945335544617E-02 
1826	 6.93028689796725E-02 
1827	 6.93233914546587E-02 
1828	 6.93105836372891E-02 
1829	 6.92645989265883E-02 
1830	 6.92493895411217E-02 
1831	 6.92340070012396E-02 
1832	 6.92006701257668E-02 
1833	 6.92060485483039E-02 
1834	 6.92144095851834E-02 
1835	 6.91996765846564E-02 
1836	 6.92027440610412E-02 
1837	 6.91966777487847E-02 
1838	 6.91991989591216E-02 
1839	 6.91966749291203E-02 
1840	 6.92006298691141E-02 
1841	 6.91725110428851E-02 
1842	 6.91648894850565E-02 
1843	 6.91534160621406E-02 
1844	 6.91191462186272E-02 
1845	 6.91049865213237E-02 
1846	 6.90805264266523E-02 
1847	 6.90461449015756E-02 
1848	 6.90164290805336E-02 
1849	 6.89960677706894E-02 
1850	 6.89700718379997E-02 
1851	 6.89500239815995E-02 
1852	 6.88927793237461E-02 
1853	 6.88421287828817E-02 
1854	 6.88066451979823E-02 
1855	 6.87212875559308E-02 
1856	 6.86405514456149E-02 
1857	 6.85764721196195E-02 
1858	 6.84724205880233E-02 
1859	 6.83767771395262E-02 
1860	 6.82893911314676E-02 
1861	 6.82188394667193E-02 
1862	 6.81286772098191E-02 
1863	 0.068044674749672 
1864	 6.79497874429214E-02 
1865	 6.78268188227417E-02 
1866	 6.76960949911488E-02 
1867	 6.75454148458365E-02 
1868	 6.73762497668766E-02 
1869	 6.72069211826322E-02 
1870	 6.70240270297669E-02 
1871	 6.68240896879101E-02 
1872	 6.66148431458655E-02 
1873	 6.63821484652354E-02 
1874	 6.61211531011637E-02 
1875	 0.065846415078514 
1876	 6.55425245191514E-02 
1877	 6.52307967164952E-02 
1878	 6.49203814531137E-02 
1879	 6.45820944291631E-02 
1880	 0.06421213997283 
1881	 6.38118645011946E-02 
1882	 6.34039828445411E-02 
1883	 6.29726445722125E-02 
1884	 6.25078932968641E-02 
1885	 6.20447099287681E-02 
1886	 6.15675039808205E-02 
1887	 0.061052889203468 
1888	 6.05172095189756E-02 
1889	 5.99658485027614E-02 
1890	 5.94065627168758E-02 
1891	 5.88620817145364E-02 
1892	 5.83218086234204E-02 
1893	 5.77754145704336E-02 
1894	 5.72354591257679E-02 
1895	 5.66902239711689E-02 
1896	 5.61285129802128E-02 
1897	 5.55902577792584E-02 
1898	 5.50734049362224E-02 
1899	 5.45878274819137E-02 
1900	 5.41353456693928E-02 
1901	 5.36870751309906E-02 
1902	 5.32690049862411E-02 
1903	 0.05288775135307 
1904	 5.25121834736232E-02 
1905	 5.21457962857755E-02 
1906	 5.18183916755766E-02 
1907	 5.15019140194835E-02 
1908	 5.12164026932604E-02 
1909	 5.09547367167273E-02 
1910	 5.06987770300568E-02 
1911	 5.04819412972708E-02 
1912	 5.02746660427888E-02 
1913	 5.00719715019554E-02 
1914	 4.98828543981121E-02 
1915	 4.97125623277757E-02 
1916	 4.95518931004316E-02 
1917	 4.93911152131611E-02 
1918	 4.92682307654872E-02 
1919	 4.91559662301168E-02 
1920	 0.049058192342017 
1921	 4.89782494635153E-02 
1922	 4.89020725954597E-02 
1923	 4.88592744660524E-02 
1924	 4.88173933926506E-02 
1925	 4.87944283717551E-02 
1926	 4.87608265246585E-02 
1927	 4.87345342281092E-02 
1928	 4.86940515659569E-02 
1929	 4.86799163406536E-02 
1930	 4.86779695430362E-02 
1931	 4.86747429875375E-02 
1932	 4.86946126409136E-02 
1933	 4.87127285858733E-02 
1934	 4.87328985400952E-02 
1935	 4.87596961053784E-02 
1936	 4.88074907260077E-02 
1937	 4.88482547269516E-02 
1938	 4.88709829410862E-02 
1939	 4.89189418440914E-02 
1940	 4.89875854563551E-02 
1941	 4.90591445155044E-02 
1942	 4.91171369617678E-02 
1943	 4.91924342028567E-02 
1944	 4.92636547312223E-02 
1945	 4.93283773956524E-02 
1946	 4.94027818317547E-02 
1947	 4.94865988036146E-02 
1948	 4.95717301507212E-02 
1949	 4.96621493513392E-02 
1950	 4.97528610201093E-02 
1951	 4.98442374107721E-02 
1952	 4.99456060928458E-02 
1953	 5.00560912470173E-02 
1954	 5.01514405583837E-02 
1955	 5.02569498926894E-02 
1956	 5.03766888231516E-02 
1957	 0.050493968681041 
1958	 5.06129279010052E-02 
1959	 5.07311455548518E-02 
1960	 0.050853938140723 
1961	 5.09735368239051E-02 
1962	 5.10862322690237E-02 
1963	 5.12074457474367E-02 
1964	 5.13341454930993E-02 
1965	 5.14602201930869E-02 
1966	 5.15870098299688E-02 
1967	 5.17223264680476E-02 
1968	 5.18581547923745E-02 
1969	 5.19983231846638E-02 
1970	 0.052131454246871 
1971	 5.22659079163587E-02 
1972	 5.23998690004398E-02 
1973	 5.25243640063914E-02 
1974	 5.26606123508854E-02 
1975	 5.28133568102548E-02 
1976	 5.29492575348724E-02 
1977	 5.30800906307803E-02 
1978	 5.32107968666412E-02 
1979	 5.33342042882336E-02 
1980	 5.34601266720168E-02 
1981	 5.35953830858771E-02 
1982	 5.37464560837956E-02 
1983	 5.38806704079941E-02 
1984	 5.40098479536852E-02 
1985	 5.41453628440016E-02 
1986	 5.42675395588162E-02 
1987	 5.44064101956214E-02 
1988	 5.45681979526712E-02 
1989	 0.054715968583739 
1990	 5.48586928521458E-02 
1991	 5.50019620759633E-02 
1992	 5.51417640553074E-02 
1993	 5.52694946690021E-02 
1994	 5.54125589398856E-02 
1995	 5.55618241082292E-02 
1996	 5.57087139451976E-02 
1997	 5.58730061839889E-02 
1998	 5.60113262015811E-02 
1999	 5.61378522846383E-02 
2000	 5.62639950074485E-02 
2001	 5.63679318475822E-02 
2002	 5.64723277555643E-02 
2003	 5.66298980945922E-02 
2004	 5.67747857682904E-02 
2005	 5.69103430801008E-02 
2006	 5.70683962708174E-02 
2007	 5.71930186992454E-02 
2008	 5.72736529310621E-02 
2009	 5.73859671650552E-02 
2010	 5.75028163840055E-02 
2011	 5.76225888271231E-02 
2012	 5.77561782180279E-02 
2013	 5.78793459811087E-02 
2014	 5.79979129641835E-02 
2015	 5.81193525677879E-02 
2016	 5.82313005061787E-02 
2017	 5.83470616409731E-02 
2018	 5.84715872400063E-02 
2019	 0.058607889607046 
2020	 5.87292022246405E-02 
2021	 5.88519452650447E-02 
2022	 5.89723300589808E-02 
2023	 5.90811256140788E-02 
2024	 0.05919461708239 
2025	 5.93161187462357E-02 
2026	 5.94301822693667E-02 
2027	 5.95410655442097E-02 
2028	 0.059640539372201 
2029	 5.97560437152077E-02 
2030	 5.98802428072444E-02 
2031	 0.059990520538248 
2032	 6.01044195296322E-02 
2033	 0.060211614164742 
2034	 0.060297973269872 
2035	 6.04024491935394E-02 
2036	 6.05199718695718E-02 
2037	 6.06299624790627E-02 
2038	 6.07469589134575E-02 
2039	 6.08539843560948E-02 
2040	 6.09509544755551E-02 
2041	 6.10487341978471E-02 
2042	 6.11525641722444E-02 
2043	 6.12479802953313E-02 
2044	 6.13406521341482E-02 
2045	 6.14328900604357E-02 
2046	 6.15212415043441E-02 
2047	 6.16041883798147E-02 
2048	 6.16841386361906E-02 
2049	 6.17565364124622E-02 
2050	 6.18380286626372E-02 
2051	 6.19122321097405E-02 
2052	 6.19986421707622E-02 
2053	 6.21104041382222E-02 
2054	 6.22033785752451E-02 
2055	 6.22974279488977E-02 
2056	 6.23751097223114E-02 
2057	 6.24567808597395E-02 
2058	 6.25240132192791E-02 
2059	 6.26031640971178E-02 
2060	 6.26959396181953E-02 
2061	 6.27701687371847E-02 
2062	 0.062834084694964 
2063	 6.29036604033158E-02 
2064	 6.29562630144006E-02 
2065	 6.30300467574631E-02 
2066	 6.31225629400523E-02 
2067	 6.32074803003415E-02 
2068	 6.33061856634928E-02 
2069	 6.33905241630789E-02 
2070	 6.34717787123911E-02 
2071	 6.35482791235793E-02 
2072	 6.36199487544083E-02 
2073	 6.36780065450156E-02 
2074	 6.37524070417837E-02 
2075	 6.38299575335064E-02 
2076	 6.39034877356012E-02 
2077	 6.39894135638265E-02 
2078	 6.40657293580686E-02 
2079	 0.064125132851383 
2080	 6.41975179879695E-02 
2081	 6.42722597618443E-02 
2082	 6.43506063898808E-02 
2083	 6.44320164772344E-02 
2084	 6.45309538015746E-02 
2085	 6.46027822930891E-02 
2086	 6.46696426415439E-02 
2087	 6.47300855519748E-02 
2088	 6.47678494425893E-02 
2089	 6.48234329012336E-02 
2090	 6.48876965950857E-02 
2091	 6.49478766936522E-02 
2092	 0.065010170612963 
2093	 6.50699099867059E-02 
2094	 6.51067523831794E-02 
2095	 6.51794721380826E-02 
2096	 6.52754820548025E-02 
2097	 6.53664799154219E-02 
2098	 0.065492709037044 
2099	 0.065604113313165 
2100	 6.56788530974075E-02 
2101	 6.57253773134276E-02 
2102	 6.57815783665313E-02 
2103	 6.58046722232233E-02 
2104	 6.58599763301655E-02 
2105	 6.59275960854855E-02 
2106	 6.59995366902471E-02 
2107	 6.60899802364135E-02 
2108	 6.61662938491564E-02 
2109	 6.62426766465855E-02 
2110	 6.63181093414318E-02 
2111	 6.63827577593191E-02 
2112	 6.64527501129843E-02 
2113	 6.65178237068488E-02 
2114	 6.66068071641997E-02 
2115	 6.66771803234218E-02 
2116	 6.67465429164124E-02 
2117	 6.68085082739737E-02 
2118	 6.68628684750752E-02 
2119	 6.69172279580585E-02 
2120	 6.69608473202653E-02 
2121	 6.70188512429473E-02 
2122	 0.067086101624734 
2123	 0.067144873200482 
2124	 6.72061545735518E-02 
2125	 6.72666910990393E-02 
2126	 6.73293409940278E-02 
2127	 6.73785124801365E-02 
2128	 6.74349091852792E-02 
2129	 6.74711291172824E-02 
2130	 0.067478895803199 
2131	 6.74785548709027E-02 
2132	 6.75106677721015E-02 
2133	 6.75497754984336E-02 
2134	 6.75844369334636E-02 
2135	 6.76602619747684E-02 
2136	 6.76769397420566E-02 
2137	 6.76417414458622E-02 
2138	 6.76460718316147E-02 
2139	 6.76370851916195E-02 
2140	 6.76460518477075E-02 
2141	 6.76983186747092E-02 
2142	 6.77170625980749E-02 
2143	 6.77224977719289E-02 
2144	 0.067723602916899 
2145	 6.77125395271446E-02 
2146	 6.76978194835331E-02 
2147	 6.76644556320274E-02 
2148	 6.76575320609585E-02 
2149	 6.76255807619822E-02 
2150	 6.75735474874775E-02 
2151	 6.75441710729937E-02 
2152	 6.75133696966571E-02 
2153	 6.74936765828291E-02 
2154	 6.75044556352103E-02 
2155	 6.74818872628323E-02 
2156	 6.74445099256626E-02 
2157	 6.74109318926622E-02 
2158	 0.067365058028225 
2159	 6.73214352439147E-02 
2160	 6.72767996422618E-02 
2161	 6.72374486289835E-02 
2162	 0.067194979475833 
2163	 6.71549424033662E-02 
2164	 6.71198111314541E-02 
2165	 6.70972696916949E-02 
2166	 6.70522683049419E-02 
2167	 6.69924008273474E-02 
2168	 0.066948278136482 
2169	 6.68983259483051E-02 
2170	 6.68552272615525E-02 
2171	 0.066827291204971 
2172	 6.67913214416773E-02 
2173	 6.67592557638429E-02 
2174	 6.67115681323589E-02 
2175	 6.66414139131406E-02 
2176	 6.65967845399168E-02 
2177	 0.066554486263308 
2178	 6.65137931707166E-02 
2179	 0.066507733284921 
2180	 6.64748216683586E-02 
2181	 6.64039799688738E-02 
2182	 6.63588690922321E-02 
2183	 6.63265528661254E-02 
2184	 6.62901940028099E-02 
2185	 6.62396917060713E-02 
2186	 6.61943553470053E-02 
2187	 6.61444822536599E-02 
2188	 6.60662427528746E-02 
2189	 6.60188644613685E-02 
2190	 0.065998449114712 
2191	 6.59591889924968E-02 
2192	 6.59172510465755E-02 
2193	 6.58760975431264E-02 
2194	 6.58283289978933E-02 
2195	 0.065787732964716 
2196	 6.57468438195381E-02 
2197	 6.57158147375368E-02 
2198	 0.065692234700176 
2199	 6.56705881497619E-02 
2200	 0.065659772073015 
2201	 6.56449079692808E-02 
2202	 0.065616399687904 
2203	 6.56164746388393E-02 
2204	 6.56031812281432E-02 
2205	 6.55862994128979E-02 
2206	 6.55799109625579E-02 
2207	 6.55778304885675E-02 
2208	 6.55714363803847E-02 
2209	 6.55716318086687E-02 
2210	 6.55706353746212E-02 
2211	 6.55593411170904E-02 
2212	 6.55662745388456E-02 
2213	 6.55937969145504E-02 
2214	 6.56000761557888E-02 
2215	 6.56017256931732E-02 
2216	 6.56079176930661E-02 
2217	 6.56040451390844E-02 
2218	 6.56050149283611E-02 
2219	 6.56217301137448E-02 
2220	 6.56238755387892E-02 
2221	 6.56160099982645E-02 
2222	 6.56070912512246E-02 
2223	 6.55871345496469E-02 
2224	 0.065566022804187 
2225	 6.55590361618465E-02 
2226	 6.55530539797074E-02 
2227	 6.55544163727005E-02 
2228	 6.55648586776245E-02 
2229	 6.55840023160105E-02 
2230	 6.56133081806259E-02 
2231	 6.56392062438002E-02 
2232	 6.56869522514049E-02 
2233	 6.57053699408447E-02 
2234	 6.57004264276122E-02 
2235	 6.57064154563045E-02 
2236	 6.57050760852301E-02 
2237	 6.57049863927242E-02 
2238	 6.57119031684424E-02 
2239	 6.57127581326582E-02 
2240	 6.56978909065426E-02 
2241	 6.56997879798553E-02 
2242	 6.57042010118581E-02 
2243	 6.57190801974444E-02 
2244	 6.57685989294991E-02 
2245	 6.57864905544765E-02 
2246	 6.57768669561217E-02 
2247	 0.065787396836557 
2248	 6.57788733037571E-02 
2249	 6.57406725147099E-02 
2250	 6.57224520063485E-02 
2251	 6.57057731769342E-02 
2252	 6.57089430469912E-02 
2253	 0.065724691230738 
2254	 6.57340092838033E-02 
2255	 6.57621150079832E-02 
2256	 6.57700576067546E-02 
2257	 6.57479350338147E-02 
2258	 6.57589958673535E-02 
2259	 6.57914690214303E-02 
2260	 6.58115694934305E-02 
2261	 6.58519089294456E-02 
2262	 6.58639925198531E-02 
2263	 6.58491164530842E-02 
2264	 6.58471526886925E-02 
2265	 6.58294815258378E-02 
2266	 6.58270968150648E-02 
2267	 6.58497646325108E-02 
2268	 6.58486544319758E-02 
2269	 6.58206294513872E-02 
2270	 6.58335476774621E-02 
2271	 6.58284703103494E-02 
2272	 0.065834933135855 
2273	 6.58646987183593E-02 
2274	 6.58786953863917E-02 
2275	 6.58800566408066E-02 
2276	 0.065865042003603 
2277	 6.58487947889212E-02 
2278	 6.58168713662511E-02 
2279	 6.58020553837565E-02 
2280	 6.57858472332964E-02 
2281	 6.57920537942707E-02 
2282	 6.58300153692213E-02 
2283	 6.58273722430478E-02 
2284	 6.58100661677399E-02 
2285	 0.065806553954853 
2286	 6.57846301365964E-02 
2287	 6.57767303051043E-02 
2288	 6.57872332524792E-02 
2289	 6.57988733016179E-02 
2290	 6.58115151832479E-02 
2291	 6.58213556261104E-02 
2292	 6.58568165024806E-02 
2293	 6.58591259199905E-02 
2294	 6.58322366269491E-02 
2295	 0.065809784564059 
2296	 6.57639648517046E-02 
2297	 6.57374343186761E-02 
2298	 0.065729305008444 
2299	 6.57096285329478E-02 
2300	 6.56752232779407E-02 
2301	 6.56893284029809E-02 
2302	 6.57002194932943E-02 
2303	 6.56765691933743E-02 
2304	 6.56727279960347E-02 
2305	 6.56397753594982E-02 
2306	 6.56073699010012E-02 
2307	 6.55530010439589E-02 
2308	 6.55188648164403E-02 
2309	 6.54997581292495E-02 
2310	 6.54562763655466E-02 
2311	 6.53970314005234E-02 
2312	 6.53644692999622E-02 
2313	 6.53105724522232E-02 
2314	 6.53016859730338E-02 
2315	 6.53491759478314E-02 
2316	 6.53573651514475E-02 
2317	 6.53865810212304E-02 
2318	 6.53772798681675E-02 
2319	 6.53280185251808E-02 
2320	 6.52915748349174E-02 
2321	 6.52267195546045E-02 
2322	 6.51871546793872E-02 
2323	 0.065158299908168 
2324	 6.51452293400403E-02 
2325	 6.51507521290614E-02 
2326	 6.51577439742102E-02 
2327	 6.51942792027621E-02 
2328	 6.51962510717035E-02 
2329	 6.51929745601681E-02 
2330	 6.51763071889428E-02 
2331	 6.51374207265398E-02 
2332	 6.51055205505638E-02 
2333	 6.50071225950244E-02 
2334	 6.49656344244799E-02 
2335	 6.49647242620536E-02 
2336	 6.48814487555181E-02 
2337	 6.48653821353126E-02 
2338	 6.48763908566374E-02 
2339	 6.48342227908828E-02 
2340	 6.48850895054161E-02 
2341	 6.49433114984304E-02 
2342	 6.49001421327805E-02 
2343	 6.48470295558924E-02 
2344	 6.47634899691894E-02 
2345	 6.46865410637733E-02 
2346	 6.45742998564642E-02 
2347	 6.45274212665686E-02 
2348	 0.064501146334909 
2349	 6.44889659743968E-02 
2350	 6.45345328840793E-02 
2351	 0.064508023441086 
2352	 6.44663729846407E-02 
2353	 0.064425527161138 
2354	 0.064317778790077 
2355	 6.42952864919256E-02 
2356	 6.43351808181089E-02 
2357	 6.43251048059785E-02 
2358	 6.43756412923252E-02 
2359	 0.064311587017994 
2360	 6.41468179543622E-02 
2361	 6.40303238193294E-02 
2362	 6.38292415428392E-02 
2363	 6.37269836547974E-02 
2364	 6.37143462343484E-02 
2365	 0.063662052099261 
2366	 0.063648497518141 
2367	 6.36073689125012E-02 
2368	 6.35279684965135E-02 
2369	 6.34521614087401E-02 
2370	 6.33605734280452E-02 
2371	 0.063293142981168 
2372	 6.32645383024073E-02 
2373	 6.32604419212972E-02 
2374	 6.32663065595821E-02 
2375	 6.32658627416499E-02 
2376	 6.31737068849083E-02 
2377	 6.31058476824379E-02 
2378	 6.30802357732936E-02 
2379	 6.29762091425577E-02 
2380	 6.28927184812658E-02 
2381	 6.28462603523059E-02 
2382	 6.27154849713839E-02 
2383	 6.26477335231758E-02 
2384	 6.26055972285047E-02 
2385	 6.24564140293841E-02 
2386	 6.23981067097152E-02 
2387	 6.23467699743321E-02 
2388	 6.22542911833137E-02 
2389	 6.22318512263192E-02 
2390	 6.21634306715173E-02 
2391	 6.20533774573936E-02 
2392	 6.19654263314625E-02 
2393	 6.18847347280948E-02 
2394	 0.06182237275889 
2395	 0.06174468976933 
2396	 6.16477998131339E-02 
2397	 6.16205080973498E-02 
2398	 6.15875657712445E-02 
2399	 0.061469760976305 
2400	 6.13970941734279E-02 
2401	 6.12979457746186E-02 
2402	 6.11303775246329E-02 
2403	 6.10419750203847E-02 
2404	 6.09779378367859E-02 
2405	 6.09192132173456E-02 
2406	 6.08835573415748E-02 
2407	 6.08902572124457E-02 
2408	 6.09165565208338E-02 
2409	 6.08415111758873E-02 
2410	 6.07630363033025E-02 
2411	 6.06716264680269E-02 
2412	 6.04329818770757E-02 
2413	 6.02697610915109E-02 
2414	 6.02431316873678E-02 
2415	 0.060143337385345 
2416	 6.00913807123321E-02 
2417	 6.01970359345758E-02 
2418	 0.060133281906552 
2419	 5.99826940066026E-02 
2420	 5.98389321898381E-02 
2421	 5.96071211186057E-02 
2422	 5.94320977316472E-02 
2423	 5.92212586453997E-02 
2424	 5.91097563760727E-02 
2425	 0.059118350509883 
2426	 5.90463228608291E-02 
2427	 0.058970916387354 
2428	 5.88834816640125E-02 
2429	 5.87593193787147E-02 
2430	 5.86634221206077E-02 
2431	 5.86072279623098E-02 
2432	 5.85229366356847E-02 
2433	 5.83841395082686E-02 
2434	 0.058256680484131 
2435	 5.81393038283722E-02 
2436	 5.80940085161679E-02 
2437	 5.81685586976314E-02 
2438	 5.80471165865816E-02 
2439	 5.77669238486435E-02 
2440	 5.76244903099475E-02 
2441	 5.74349883852628E-02 
2442	 5.73525403836605E-02 
2443	 5.74528080602597E-02 
2444	 5.74976496065674E-02 
2445	 5.74932231042911E-02 
2446	 5.74417085703075E-02 
2447	 5.74907927966045E-02 
2448	 0.05737117366946 
2449	 0.057089176916737 
2450	 0.056895641821581 
2451	 5.65807836821762E-02 
2452	 5.64741513661756E-02 
2453	 0.056569673239933 
2454	 5.65154662394965E-02 
2455	 5.64973806688683E-02 
2456	 5.64514763045968E-02 
2457	 5.62493007862641E-02 
2458	 5.61850941784619E-02 
2459	 0.056303694398753 
2460	 5.61888574413438E-02 
2461	 0.055910732040435 
2462	 0.055771226925533 
2463	 5.55608199400324E-02 
2464	 5.55002027425985E-02 
2465	 5.57308268844004E-02 
2466	 0.055695001032565 
2467	 5.55367469755497E-02 
2468	 5.54038024399726E-02 
2469	 0.055100953796009 
2470	 0.055041213255616 
2471	 5.49822450628554E-02 
2472	 5.48491606259209E-02 
2473	 5.48753980692668E-02 
2474	 5.49021017231999E-02 
2475	 5.47022803463945E-02 
2476	 5.45562472865751E-02 
2477	 5.44772803474664E-02 
2478	 5.42984613373504E-02 
2479	 5.43064769114748E-02 
2480	 5.44463383367641E-02 
2481	 5.44285939038309E-02 
2482	 5.44331224768179E-02 
2483	 5.44072501988242E-02 
2484	 5.42081228892264E-02 
2485	 5.40834359681559E-02 
2486	 5.39276576936259E-02 
2487	 5.36738664660736E-02 
2488	 5.36444753066937E-02 
2489	 5.35752504472712E-02 
2490	 5.34205882577473E-02 
2491	 5.34762346805651E-02 
2492	 5.35213261660562E-02 
2493	 5.35636926129332E-02 
2494	 5.35497947504379E-02 
2495	 5.34742169316251E-02 
2496	 0.053368875353132 
2497	 5.30415477189646E-02 
2498	 5.28603218777938E-02 
2499	 5.27539212916186E-02 
2500	 5.27339410554511E-02 
