Wavelength	MM_3100000.asd
350	 4.48960815720468E-02 
351	 6.10785061388867E-02 
352	 0.057990654599014 
353	 3.41605927794812E-02 
354	 4.59162288196753E-02 
355	 5.23639646046689E-02 
356	 5.05761708576666E-02 
357	 4.82736407512988E-02 
358	 5.47642439472723E-02 
359	 5.53337096633936E-02 
360	 5.20277248946735E-02 
361	 5.62231122210482E-02 
362	 0.0521646507815 
363	 0.049835518896112 
364	 5.33777833388656E-02 
365	 5.33070908202738E-02 
366	 5.09294618522766E-02 
367	 0.050093626603946 
368	 5.27678578962547E-02 
369	 5.06887734889727E-02 
370	 4.83439724946069E-02 
371	 4.85680967925166E-02 
372	 0.052088520315818 
373	 5.28140123733929E-02 
374	 5.42626974390228E-02 
375	 5.78433855240817E-02 
376	 5.94892720497129E-02 
377	 5.44748451697787E-02 
378	 5.06418128533305E-02 
379	 5.52421338157954E-02 
380	 5.67511719839955E-02 
381	 5.55724816256452E-02 
382	 5.48801929156243E-02 
383	 5.88583199497123E-02 
384	 0.060647326380035 
385	 6.02752038375466E-02 
386	 5.95747294169305E-02 
387	 6.19430243507255E-02 
388	 0.062633308954085 
389	 6.17762063894444E-02 
390	 6.09758244188944E-02 
391	 6.03896913344999E-02 
392	 6.08344404577561E-02 
393	 6.24858932897635E-02 
394	 6.48075672366435E-02 
395	 6.44618205044623E-02 
396	 0.064067196998571 
397	 6.54376023416648E-02 
398	 6.65968322383625E-02 
399	 6.78205413156666E-02 
400	 6.81175420394962E-02 
401	 0.066878444330244 
402	 0.067805600914052 
403	 6.82210797101983E-02 
404	 0.067447200512743 
405	 6.71741081410347E-02 
406	 0.067615127842445 
407	 0.068344726591452 
408	 6.86683560257578E-02 
409	 6.73384789575457E-02 
410	 0.067638035114072 
411	 6.90177541909291E-02 
412	 6.93566902820637E-02 
413	 6.97033678958396E-02 
414	 6.94691838157049E-02 
415	 0.068793393104653 
416	 6.88749206348358E-02 
417	 0.068802587252166 
418	 6.87107342771331E-02 
419	 6.89914864300993E-02 
420	 7.01885697959327E-02 
421	 7.05905661762291E-02 
422	 7.04653192292678E-02 
423	 7.12145045952124E-02 
424	 7.15816814919241E-02 
425	 7.12591885508904E-02 
426	 7.05837081728741E-02 
427	 7.08231926909315E-02 
428	 7.08036648251417E-02 
429	 7.05677586630007E-02 
430	 7.04568141443152E-02 
431	 7.01968541792669E-02 
432	 7.02233602253554E-02 
433	 7.05458268731484E-02 
434	 7.07610265544222E-02 
435	 7.12620235776329E-02 
436	 7.14140870202871E-02 
437	 0.070942194986453 
438	 7.09230449178745E-02 
439	 7.12836640071634E-02 
440	 7.18047414652532E-02 
441	 7.21790532227173E-02 
442	 7.22041443966966E-02 
443	 7.23197503577801E-02 
444	 7.26191843030901E-02 
445	 7.25796055407063E-02 
446	 7.26642275240082E-02 
447	 7.29646205802116E-02 
448	 7.33162605296736E-02 
449	 7.29026718145119E-02 
450	 7.30293451231425E-02 
451	 7.37011597102186E-02 
452	 7.38201421604018E-02 
453	 7.39192197141577E-02 
454	 7.40206685187942E-02 
455	 7.41239759033427E-02 
456	 7.44047222812015E-02 
457	 7.44278559195973E-02 
458	 7.44442604692124E-02 
459	 7.49041247962538E-02 
460	 7.52335265719941E-02 
461	 7.52358645649832E-02 
462	 7.50503141521405E-02 
463	 7.52124605278047E-02 
464	 7.55977744977673E-02 
465	 7.58556642384405E-02 
466	 7.57833136890628E-02 
467	 7.60759054326471E-02 
468	 7.61813660873983E-02 
469	 7.61006852088995E-02 
470	 7.62684573430187E-02 
471	 7.61919863170497E-02 
472	 7.63061581397727E-02 
473	 7.67870852087867E-02 
474	 0.076834692067527 
475	 7.70570891421218E-02 
476	 7.72314841119368E-02 
477	 7.69449641375153E-02 
478	 7.71366689262172E-02 
479	 7.73983029859352E-02 
480	 7.75289827666474E-02 
481	 7.77837139916576E-02 
482	 7.79225565746869E-02 
483	 7.80110823767542E-02 
484	 7.81793005953017E-02 
485	 7.84887937639318E-02 
486	 7.85657682085824E-02 
487	 7.84689292537978E-02 
488	 7.86041814055762E-02 
489	 7.87920875847621E-02 
490	 7.89015058467799E-02 
491	 0.078923505534474 
492	 7.91417600797889E-02 
493	 7.92984160609392E-02 
494	 7.92990932152096E-02 
495	 7.91973259242812E-02 
496	 7.95435956194362E-02 
497	 7.97536469669585E-02 
498	 0.079646998407484 
499	 7.97985764958264E-02 
500	 7.98407207394462E-02 
501	 7.98228625218695E-02 
502	 7.98800309843104E-02 
503	 7.99948526176535E-02 
504	 8.00360617800899E-02 
505	 8.00273503386087E-02 
506	 8.01307011304878E-02 
507	 8.03281113050455E-02 
508	 8.05425557871073E-02 
509	 8.06610021963818E-02 
510	 8.04697460300095E-02 
511	 8.04396607593204E-02 
512	 8.05804241256571E-02 
513	 8.06586731113746E-02 
514	 8.07216384109204E-02 
515	 8.07986668381211E-02 
516	 8.08918356850117E-02 
517	 8.09564260065742E-02 
518	 8.10397490128699E-02 
519	 8.10677339564956E-02 
520	 8.09880298198737E-02 
521	 8.10587603223436E-02 
522	 8.11541194579647E-02 
523	 8.12244158266018E-02 
524	 8.13216972552661E-02 
525	 8.14149411242274E-02 
526	 8.14318793509685E-02 
527	 0.081365396752316 
528	 8.14359700450921E-02 
529	 8.14944013894917E-02 
530	 8.15226117927284E-02 
531	 8.15847209150155E-02 
532	 8.16251484583508E-02 
533	 8.16267330097064E-02 
534	 8.16152779034497E-02 
535	 8.17009972819948E-02 
536	 8.17511954620564E-02 
537	 8.18036673827226E-02 
538	 8.19322908540821E-02 
539	 8.19809159901719E-02 
540	 8.19665835249683E-02 
541	 8.19702843386335E-02 
542	 8.21407383088625E-02 
543	 8.21694159785228E-02 
544	 8.22012245650073E-02 
545	 8.23916277510559E-02 
546	 8.24171709579552E-02 
547	 8.23738244237705E-02 
548	 8.23769666641529E-02 
549	 8.25298115906038E-02 
550	 8.25472794398515E-02 
551	 8.25709891463886E-02 
552	 8.26987328819038E-02 
553	 8.26994171308547E-02 
554	 8.26975753062546E-02 
555	 8.27526504999913E-02 
556	 8.28825039062261E-02 
557	 8.30524606158848E-02 
558	 8.31423205983902E-02 
559	 8.31466769817211E-02 
560	 8.32757734901376E-02 
561	 8.33575134185386E-02 
562	 0.08340885266875 
563	 8.34939291877612E-02 
564	 8.35771797795696E-02 
565	 8.35731171919842E-02 
566	 8.35164333120067E-02 
567	 8.35743806626874E-02 
568	 8.37166306105414E-02 
569	 0.083909009355996 
570	 8.41082736470624E-02 
571	 8.42639376975787E-02 
572	 8.43955311544843E-02 
573	 0.084524848970738 
574	 8.46691565981835E-02 
575	 8.47626319072552E-02 
576	 8.48544577939568E-02 
577	 8.49678339135118E-02 
578	 8.50301609202673E-02 
579	 8.50693908513367E-02 
580	 8.50527258669094E-02 
581	 8.49480279507486E-02 
582	 8.48848014688738E-02 
583	 8.48922054823147E-02 
584	 8.49616530484416E-02 
585	 8.50462523369591E-02 
586	 8.52250644080704E-02 
587	 8.54045743427371E-02 
588	 8.54998108329893E-02 
589	 8.57039680446322E-02 
590	 8.58434131773955E-02 
591	 8.59169772941253E-02 
592	 8.60848376304902E-02 
593	 8.62568824805036E-02 
594	 8.64179741702249E-02 
595	 8.65580999256725E-02 
596	 8.66525639153219E-02 
597	 8.66428931360686E-02 
598	 8.65881762949711E-02 
599	 8.65937089311368E-02 
600	 8.65238107773129E-02 
601	 8.65065356267746E-02 
602	 8.65858232866035E-02 
603	 8.66046484359822E-02 
604	 8.66304751689698E-02 
605	 8.66772444026001E-02 
606	 8.67357367192618E-02 
607	 8.67556315040287E-02 
608	 8.68071709979051E-02 
609	 8.69174772342348E-02 
610	 8.70552081872642E-02 
611	 8.70863515679597E-02 
612	 8.70681488179729E-02 
613	 8.70727611579243E-02 
614	 8.70384252928529E-02 
615	 8.70179250181613E-02 
616	 0.087024659510044 
617	 0.087045226602043 
618	 0.087114378549045 
619	 8.71471056752069E-02 
620	 8.71185036694279E-02 
621	 8.71713407540314E-02 
622	 8.72173936755818E-02 
623	 8.72269462885017E-02 
624	 8.72037579412321E-02 
625	 8.72164930960876E-02 
626	 8.72581464882071E-02 
627	 8.73037803650724E-02 
628	 8.73145151383564E-02 
629	 0.087331698905214 
630	 8.73620856566489E-02 
631	 8.73904101239165E-02 
632	 8.73495567289358E-02 
633	 8.73441064804755E-02 
634	 8.73796623548917E-02 
635	 8.73821745877258E-02 
636	 8.74155976248971E-02 
637	 0.087440266036731 
638	 8.74359504049315E-02 
639	 0.087474279366251 
640	 8.75003617879404E-02 
641	 8.75144713591842E-02 
642	 8.75441779994183E-02 
643	 8.76255197474988E-02 
644	 8.76527406026828E-02 
645	 8.76195417964218E-02 
646	 8.76827908554015E-02 
647	 8.77060644175323E-02 
648	 8.77089527888911E-02 
649	 0.087736909494786 
650	 0.087742405024987 
651	 8.77688102524257E-02 
652	 8.78079262656986E-02 
653	 8.78102160425662E-02 
654	 8.78541209510466E-02 
655	 0.087888535268191 
656	 8.78857324950898E-02 
657	 8.79369426734322E-02 
658	 8.79862827226379E-02 
659	 8.80250410127613E-02 
660	 0.088061499127818 
661	 8.80510111131128E-02 
662	 8.81076887583445E-02 
663	 8.82213099346201E-02 
664	 8.81813044277339E-02 
665	 8.81713909951395E-02 
666	 8.81952529866802E-02 
667	 0.088214870328681 
668	 8.82457701618466E-02 
669	 8.82694049719105E-02 
670	 8.82788264423306E-02 
671	 8.82805055652313E-02 
672	 8.83206572258205E-02 
673	 0.088389155869899 
674	 8.84560012461728E-02 
675	 8.84693397026349E-02 
676	 8.84744771246773E-02 
677	 8.84791938176826E-02 
678	 8.84810176305698E-02 
679	 8.85244375419287E-02 
680	 8.85468149688517E-02 
681	 8.85441383451621E-02 
682	 0.088599584229893 
683	 8.86379417654525E-02 
684	 8.86706509772553E-02 
685	 8.87128168180918E-02 
686	 8.87020857274445E-02 
687	 8.87376830123373E-02 
688	 8.88076299309033E-02 
689	 8.88225871918393E-02 
690	 8.87956971506248E-02 
691	 0.088793613804756 
692	 8.88418882023495E-02 
693	 8.88734570938513E-02 
694	 8.88656260119496E-02 
695	 8.88503061174825E-02 
696	 8.88685740098137E-02 
697	 8.88723368145457E-02 
698	 0.088886857953801 
699	 8.89164183917559E-02 
700	 8.89397244588954E-02 
701	 8.89677489330388E-02 
702	 8.90047546454268E-02 
703	 8.90415933267293E-02 
704	 8.90361120571165E-02 
705	 8.90092095754977E-02 
706	 8.89878397556669E-02 
707	 8.89972755566273E-02 
708	 8.90177847032664E-02 
709	 8.90408357330178E-02 
710	 8.90506313104199E-02 
711	 8.90176605554091E-02 
712	 8.90424596262256E-02 
713	 0.089062779917888 
714	 8.90140494416227E-02 
715	 8.90048625258637E-02 
716	 8.90226175185802E-02 
717	 0.089024614082597 
718	 8.89624174133136E-02 
719	 8.89804538075154E-02 
720	 8.89983724919203E-02 
721	 8.89688657746638E-02 
722	 8.89722501331222E-02 
723	 8.89875192279918E-02 
724	 8.89755090987632E-02 
725	 8.89147572194528E-02 
726	 8.89063625318257E-02 
727	 8.89147602158005E-02 
728	 8.89096755715067E-02 
729	 8.88758689975671E-02 
730	 8.88646898749567E-02 
731	 8.88502355253292E-02 
732	 8.88110049847386E-02 
733	 8.87675423738833E-02 
734	 8.87422972740759E-02 
735	 0.088731533735288 
736	 8.87169069872036E-02 
737	 8.86764045531757E-02 
738	 8.86300094849732E-02 
739	 0.088594565929753 
740	 8.85785609273752E-02 
741	 8.85664370602124E-02 
742	 8.85386940030981E-02 
743	 8.84849074041649E-02 
744	 8.84153965135702E-02 
745	 8.83545619175598E-02 
746	 8.83354420097257E-02 
747	 8.83718390468732E-02 
748	 8.83402141051303E-02 
749	 8.82542795082581E-02 
750	 8.81865412759458E-02 
751	 8.82570939941387E-02 
752	 8.82021030673204E-02 
753	 0.088080330621136 
754	 8.79983499565593E-02 
755	 8.79612813315015E-02 
756	 8.79523431589759E-02 
757	 8.79484089446434E-02 
758	 8.79251490510968E-02 
759	 0.087880402425526 
760	 8.77996359182299E-02 
761	 8.77144688139339E-02 
762	 8.77108784123383E-02 
763	 8.76822774451341E-02 
764	 8.76396159036898E-02 
765	 8.76079220849672E-02 
766	 8.75647447660066E-02 
767	 8.75402711975333E-02 
768	 8.75212013276269E-02 
769	 8.74757983123694E-02 
770	 0.08741160514621 
771	 8.73683548092399E-02 
772	 0.087351717720303 
773	 8.73238836990524E-02 
774	 8.72768890137191E-02 
775	 8.72269789511775E-02 
776	 8.71835431030734E-02 
777	 8.71162332284773E-02 
778	 0.087063120376365 
779	 8.70384426245376E-02 
780	 8.70329425556729E-02 
781	 0.08697413157668 
782	 8.69259289462441E-02 
783	 8.68937545453921E-02 
784	 8.68146452657553E-02 
785	 8.67700927698578E-02 
786	 8.67395868463659E-02 
787	 8.66961888622856E-02 
788	 8.66438921783503E-02 
789	 8.66197648073208E-02 
790	 8.65903678324343E-02 
791	 8.65147209088453E-02 
792	 8.64648124188135E-02 
793	 8.64233177431683E-02 
794	 8.63780066153743E-02 
795	 8.63246406516728E-02 
796	 8.62482090646496E-02 
797	 8.61916654668322E-02 
798	 8.61711664101826E-02 
799	 8.61384389709357E-02 
800	 8.61112177245531E-02 
801	 8.60870237856833E-02 
802	 8.60588063399057E-02 
803	 8.60248360682392E-02 
804	 8.59776255578415E-02 
805	 8.59198365463528E-02 
806	 8.58616412745703E-02 
807	 8.58134914290154E-02 
808	 8.57652695226158E-02 
809	 8.57188239936919E-02 
810	 0.085693624047694 
811	 0.085660439451323 
812	 0.085600554923608 
813	 8.55250275844871E-02 
814	 8.55189391918152E-02 
815	 8.54894002056467E-02 
816	 8.54148844699179E-02 
817	 8.53244821314452E-02 
818	 8.53357868753896E-02 
819	 8.53174403448021E-02 
820	 8.52518584127345E-02 
821	 8.52246488631866E-02 
822	 8.51731562045263E-02 
823	 8.51432646393474E-02 
824	 8.51391339030829E-02 
825	 8.50726419132647E-02 
826	 8.50303479353902E-02 
827	 8.50184416808148E-02 
828	 8.50084355667424E-02 
829	 8.49371206855047E-02 
830	 8.48613473358634E-02 
831	 8.48120892216406E-02 
832	 8.47976714940725E-02 
833	 8.47861216174472E-02 
834	 8.47569267798079E-02 
835	 8.47077997317024E-02 
836	 8.46561352890968E-02 
837	 8.46528460335634E-02 
838	 0.084643333200663 
839	 8.45866003779241E-02 
840	 8.44946941243737E-02 
841	 0.084438793469703 
842	 8.44340624159526E-02 
843	 8.44531494212352E-02 
844	 8.43949706176571E-02 
845	 8.43940935290782E-02 
846	 8.44005665496603E-02 
847	 8.43170690377698E-02 
848	 8.43123457989993E-02 
849	 8.42905848082895E-02 
850	 8.42184821533744E-02 
851	 8.41376914970307E-02 
852	 8.41321109209721E-02 
853	 8.41696588411894E-02 
854	 8.41853684822284E-02 
855	 8.41007442753747E-02 
856	 8.40586133842464E-02 
857	 8.40810470218597E-02 
858	 8.41222283574645E-02 
859	 8.40424106621467E-02 
860	 0.083992872176998 
861	 0.083986771285866 
862	 8.39820639150737E-02 
863	 8.39383233072588E-02 
864	 8.38870321408338E-02 
865	 8.38547913391919E-02 
866	 8.38536004341276E-02 
867	 8.38355392293935E-02 
868	 8.38193275231795E-02 
869	 8.38027515363171E-02 
870	 0.083761210502425 
871	 8.37469633530186E-02 
872	 8.37508330204996E-02 
873	 8.37448584384601E-02 
874	 8.36909096283966E-02 
875	 8.36567695287783E-02 
876	 8.36442167027289E-02 
877	 8.36280006494449E-02 
878	 0.083552694897177 
879	 8.35448017859166E-02 
880	 0.083589890805167 
881	 8.36198616123639E-02 
882	 8.35832155966704E-02 
883	 8.35756416145027E-02 
884	 8.35808567053857E-02 
885	 8.35361166170745E-02 
886	 8.35275757264133E-02 
887	 8.34982233045268E-02 
888	 8.34665217206466E-02 
889	 8.35034540183643E-02 
890	 8.34600543364485E-02 
891	 8.34162807361835E-02 
892	 8.34243593126381E-02 
893	 8.34602280109265E-02 
894	 8.34874098439067E-02 
895	 8.34393433254884E-02 
896	 8.33376047166817E-02 
897	 8.33601937515454E-02 
898	 8.33697569842912E-02 
899	 8.33538199744991E-02 
900	 8.33324982226811E-02 
901	 8.33162401300774E-02 
902	 8.33762588034788E-02 
903	 8.34061867232999E-02 
904	 8.33193290579049E-02 
905	 8.33401023922692E-02 
906	 8.33711286788434E-02 
907	 8.33724699127167E-02 
908	 0.083347395752175 
909	 8.33568513205556E-02 
910	 8.33253065205534E-02 
911	 8.32641547009785E-02 
912	 8.32445993432165E-02 
913	 0.083294183519209 
914	 8.32885863235441E-02 
915	 8.32510075859853E-02 
916	 8.33163677595681E-02 
917	 0.083265143190188 
918	 8.32230472774519E-02 
919	 8.32406707464325E-02 
920	 8.32337061232006E-02 
921	 8.32128642271568E-02 
922	 8.31815865346848E-02 
923	 8.31827760765736E-02 
924	 8.33018037245823E-02 
925	 8.32644393741407E-02 
926	 0.083218897978778 
927	 8.32655979591098E-02 
928	 8.32469357592924E-02 
929	 8.31860668175369E-02 
930	 8.31661085415452E-02 
931	 8.32173134843711E-02 
932	 8.32138010103538E-02 
933	 8.31954797374558E-02 
934	 8.31695952694547E-02 
935	 8.31489321130409E-02 
936	 8.31877214124623E-02 
937	 8.31717563046154E-02 
938	 8.31148505314354E-02 
939	 8.30896037077133E-02 
940	 8.32061863555847E-02 
941	 8.32216847495134E-02 
942	 8.31927677563977E-02 
943	 8.32427012498358E-02 
944	 8.32360258943933E-02 
945	 8.31761486271539E-02 
946	 8.31346677658849E-02 
947	 0.083173758640225 
948	 8.31759903458204E-02 
949	 0.083172162390843 
950	 8.31642870543308E-02 
951	 8.31500775841813E-02 
952	 8.31839154207597E-02 
953	 0.083244596818279 
954	 0.083249902279346 
955	 8.31522052772673E-02 
956	 8.32369177992058E-02 
957	 8.32874788041026E-02 
958	 8.32695238933146E-02 
959	 8.32708046753022E-02 
960	 8.32761774631267E-02 
961	 0.083210793294862 
962	 8.31509719899487E-02 
963	 8.32139076806031E-02 
964	 8.31404573286151E-02 
965	 0.083138910183481 
966	 8.31972006072962E-02 
967	 8.31752952080873E-02 
968	 8.32584132666376E-02 
969	 8.32758564413287E-02 
970	 8.32159797743071E-02 
971	 8.31731019998364E-02 
972	 0.083041977531138 
973	 8.30918929561968E-02 
974	 8.32193318265949E-02 
975	 8.31495734474724E-02 
976	 8.32968598040345E-02 
977	 8.32224436327689E-02 
978	 8.30113046274862E-02 
979	 8.30423033374154E-02 
980	 8.30529789016914E-02 
981	 8.31763602844417E-02 
982	 8.32593976406166E-02 
983	 8.30952557018001E-02 
984	 8.32139123194524E-02 
985	 8.32061320952448E-02 
986	 8.30595329889858E-02 
987	 8.30088829826443E-02 
988	 0.083128275374652 
989	 8.30780048779574E-02 
990	 8.29692525189726E-02 
991	 0.083074503331482 
992	 8.32068326097306E-02 
993	 8.31774846548055E-02 
994	 8.30917232296901E-02 
995	 8.31366744657031E-02 
996	 8.32248412993906E-02 
997	 8.31864551781217E-02 
998	 8.30767436585138E-02 
999	 8.30567209481109E-02 
1000	 8.33049931256641E-02 
1001	 8.17643153662598E-02 
1002	 8.18161803615482E-02 
1003	 8.18687269420912E-02 
1004	 8.18671699656156E-02 
1005	 8.17847258943667E-02 
1006	 8.17699284721833E-02 
1007	 8.17567001467501E-02 
1008	 8.17441081393564E-02 
1009	 8.17415411087796E-02 
1010	 8.17834232899562E-02 
1011	 8.17599041303524E-02 
1012	 8.17254172135429E-02 
1013	 8.17471737709759E-02 
1014	 8.17559746721218E-02 
1015	 8.17729178814938E-02 
1016	 8.17540332122275E-02 
1017	 8.17371189020979E-02 
1018	 8.17016463060062E-02 
1019	 8.16989226959315E-02 
1020	 8.16668782819504E-02 
1021	 8.16634498454776E-02 
1022	 8.16811956814179E-02 
1023	 8.16638545876078E-02 
1024	 8.16520058173325E-02 
1025	 8.16057426457927E-02 
1026	 8.15534829718603E-02 
1027	 8.15402334388145E-02 
1028	 8.15337627989669E-02 
1029	 8.15437621042619E-02 
1030	 8.15417805093962E-02 
1031	 8.15416502939942E-02 
1032	 8.15175710452969E-02 
1033	 8.15131879243265E-02 
1034	 8.15111139315293E-02 
1035	 0.081515576458518 
1036	 8.14904811893434E-02 
1037	 8.14057244027827E-02 
1038	 8.13286099196166E-02 
1039	 8.12751468740968E-02 
1040	 0.081243689131382 
1041	 8.12253177634717E-02 
1042	 8.12286808865707E-02 
1043	 8.12504933383317E-02 
1044	 8.12498082966044E-02 
1045	 8.12397405010883E-02 
1046	 8.12334336939349E-02 
1047	 8.12049292688353E-02 
1048	 8.11717832495532E-02 
1049	 8.11498837583559E-02 
1050	 8.11248419860129E-02 
1051	 8.11846786890412E-02 
1052	 8.12357624186763E-02 
1053	 8.12186869288901E-02 
1054	 8.12343363758202E-02 
1055	 8.12191414704001E-02 
1056	 8.11852490083863E-02 
1057	 8.11916462020493E-02 
1058	 8.12673560986746E-02 
1059	 8.12954149826138E-02 
1060	 8.13205749554825E-02 
1061	 8.13190814388445E-02 
1062	 8.13178929408337E-02 
1063	 8.13225415620432E-02 
1064	 8.12916017089205E-02 
1065	 8.13058255826383E-02 
1066	 8.13600600150052E-02 
1067	 8.13419939609238E-02 
1068	 8.13349326889919E-02 
1069	 8.13582353377374E-02 
1070	 8.13581729836583E-02 
1071	 8.13179052467105E-02 
1072	 0.081332959579061 
1073	 0.0813906142262 
1074	 8.13951346731176E-02 
1075	 8.13960525373546E-02 
1076	 8.13741482816001E-02 
1077	 8.13495635824046E-02 
1078	 8.13577081937072E-02 
1079	 8.13809390490065E-02 
1080	 8.14338059171654E-02 
1081	 8.14555528486766E-02 
1082	 8.14464198874914E-02 
1083	 8.14365833385488E-02 
1084	 0.081408197968468 
1085	 8.13838133064707E-02 
1086	 8.13297951418982E-02 
1087	 8.13266447216365E-02 
1088	 8.13598381501695E-02 
1089	 8.13637089483131E-02 
1090	 8.13590057219277E-02 
1091	 8.13900687358735E-02 
1092	 8.13542757148068E-02 
1093	 8.13371142838488E-02 
1094	 8.13696093218277E-02 
1095	 8.13715289978203E-02 
1096	 8.13748777467945E-02 
1097	 8.13704685914154E-02 
1098	 8.13544036353411E-02 
1099	 8.13061013308671E-02 
1100	 8.12914721850638E-02 
1101	 8.12832469442509E-02 
1102	 8.12830455983004E-02 
1103	 0.081295937601688 
1104	 8.13215662379069E-02 
1105	 8.13394422233259E-02 
1106	 8.13152212939346E-02 
1107	 8.13058671661226E-02 
1108	 8.13048957711859E-02 
1109	 8.12908220357413E-02 
1110	 8.13110465095644E-02 
1111	 8.13146728921295E-02 
1112	 8.12978186742182E-02 
1113	 8.13170974000843E-02 
1114	 8.13757555479291E-02 
1115	 8.13853846757807E-02 
1116	 8.13980027732746E-02 
1117	 8.14002642534971E-02 
1118	 8.13669229301688E-02 
1119	 8.13275379820613E-02 
1120	 8.13320700166714E-02 
1121	 8.13401381390253E-02 
1122	 8.13563222235524E-02 
1123	 8.13830947041022E-02 
1124	 0.081396406677376 
1125	 8.14078915619369E-02 
1126	 8.14184650925352E-02 
1127	 8.14152602562884E-02 
1128	 8.14285481947407E-02 
1129	 8.14660795986468E-02 
1130	 8.14793996966084E-02 
1131	 8.14760653485721E-02 
1132	 8.14875366139858E-02 
1133	 8.14920471435915E-02 
1134	 8.15002646122855E-02 
1135	 8.15244590919952E-02 
1136	 8.15501522653546E-02 
1137	 8.15571298925206E-02 
1138	 8.15503450974772E-02 
1139	 8.15365783521267E-02 
1140	 8.15012120994363E-02 
1141	 8.14936318977345E-02 
1142	 8.14797234162406E-02 
1143	 8.14879615519542E-02 
1144	 8.15320288142884E-02 
1145	 8.15479371563521E-02 
1146	 8.15642289750544E-02 
1147	 8.15699859188167E-02 
1148	 8.15518496676024E-02 
1149	 8.15519645398736E-02 
1150	 8.15623871513248E-02 
1151	 8.15674295081673E-02 
1152	 8.15685916843387E-02 
1153	 8.15544828428774E-02 
1154	 8.15535831801154E-02 
1155	 8.15447910828615E-02 
1156	 8.15441872100357E-02 
1157	 8.15597046408827E-02 
1158	 8.15627383216981E-02 
1159	 8.15543330494912E-02 
1160	 8.15538670146918E-02 
1161	 8.15635559685018E-02 
1162	 8.15628295338934E-02 
1163	 8.15497072269083E-02 
1164	 8.15460757286129E-02 
1165	 8.15387979222343E-02 
1166	 8.15355760806103E-02 
1167	 0.081557341392311 
1168	 8.15914002963398E-02 
1169	 8.16022661577903E-02 
1170	 8.16185653471601E-02 
1171	 8.16184719888881E-02 
1172	 8.15809231367234E-02 
1173	 8.15861355622202E-02 
1174	 8.16103909145877E-02 
1175	 8.16252954904375E-02 
1176	 8.16615060786798E-02 
1177	 8.16802073798374E-02 
1178	 8.16832252899557E-02 
1179	 8.16900810283029E-02 
1180	 8.16813903920951E-02 
1181	 8.16942716027442E-02 
1182	 8.17196860327866E-02 
1183	 8.17458509690083E-02 
1184	 8.17737678646658E-02 
1185	 8.18228079170487E-02 
1186	 8.18455280238295E-02 
1187	 8.18562816806969E-02 
1188	 8.18653453516237E-02 
1189	 8.18604581638244E-02 
1190	 8.18682746956449E-02 
1191	 8.18747279729816E-02 
1192	 8.18857562444861E-02 
1193	 8.19043945962456E-02 
1194	 8.19223711777518E-02 
1195	 8.19448467712226E-02 
1196	 8.19623220941655E-02 
1197	 8.19799359562257E-02 
1198	 8.19964846603248E-02 
1199	 8.20109145544719E-02 
1200	 0.082016454952518 
1201	 8.20359243994806E-02 
1202	 8.20581079721568E-02 
1203	 0.082087674895331 
1204	 0.082137728743532 
1205	 8.21596765326735E-02 
1206	 8.21706068080384E-02 
1207	 8.21878973037217E-02 
1208	 8.21840405296158E-02 
1209	 8.22011559493549E-02 
1210	 8.22507965804325E-02 
1211	 8.22702743499664E-02 
1212	 8.22668197353026E-02 
1213	 8.22836715767331E-02 
1214	 8.22975193744588E-02 
1215	 8.23120704523937E-02 
1216	 8.23327693284137E-02 
1217	 8.23755113174876E-02 
1218	 8.23988184669449E-02 
1219	 0.082407364827636 
1220	 8.24293815354124E-02 
1221	 8.24590222035708E-02 
1222	 8.24813086325443E-02 
1223	 8.25102143936342E-02 
1224	 8.25233991924046E-02 
1225	 8.25141991636626E-02 
1226	 8.25277347690498E-02 
1227	 8.25464777027094E-02 
1228	 8.25625030845008E-02 
1229	 8.25910772155766E-02 
1230	 8.26159608073373E-02 
1231	 0.082637993272711 
1232	 8.26536854895582E-02 
1233	 8.26673634002343E-02 
1234	 8.26828782419173E-02 
1235	 8.26986663670497E-02 
1236	 8.27076707185056E-02 
1237	 8.27191201225665E-02 
1238	 8.27338761265886E-02 
1239	 8.27509731291386E-02 
1240	 8.27649441440036E-02 
1241	 8.27822808349262E-02 
1242	 8.28059484047242E-02 
1243	 8.28290323652194E-02 
1244	 8.28603844492482E-02 
1245	 8.28756191192817E-02 
1246	 8.28804327365531E-02 
1247	 8.28923014041395E-02 
1248	 8.28977844292015E-02 
1249	 8.28956026056814E-02 
1250	 8.29189143828658E-02 
1251	 8.29520981342055E-02 
1252	 8.29718397158681E-02 
1253	 8.29952111359508E-02 
1254	 8.30061693440426E-02 
1255	 8.30005637262152E-02 
1256	 8.30074317265012E-02 
1257	 8.30163891843485E-02 
1258	 8.30228899880005E-02 
1259	 0.083032261937803 
1260	 8.30410839725864E-02 
1261	 8.30464269433759E-02 
1262	 8.30515767761978E-02 
1263	 0.08306043190858 
1264	 8.30661777809683E-02 
1265	 8.30692579034029E-02 
1266	 8.30713802020911E-02 
1267	 8.30773177650005E-02 
1268	 8.30682742093199E-02 
1269	 8.30706670302462E-02 
1270	 8.30706050960416E-02 
1271	 8.30784803179576E-02 
1272	 8.30870277788734E-02 
1273	 8.31143648521124E-02 
1274	 8.31662083296588E-02 
1275	 8.31891970396703E-02 
1276	 8.32042310879437E-02 
1277	 8.32344909522394E-02 
1278	 8.32507465488423E-02 
1279	 8.32805160356172E-02 
1280	 8.33372220269368E-02 
1281	 8.33849347079575E-02 
1282	 8.34187913196503E-02 
1283	 8.34655611315323E-02 
1284	 8.35297157581828E-02 
1285	 8.35847185445761E-02 
1286	 8.36278155820489E-02 
1287	 8.36941232475005E-02 
1288	 0.083745422332328 
1289	 8.37848329152318E-02 
1290	 8.38389711279297E-02 
1291	 8.39007390607191E-02 
1292	 8.39542891886671E-02 
1293	 8.40158803492626E-02 
1294	 8.40644482868019E-02 
1295	 8.40975381723309E-02 
1296	 8.41416248769899E-02 
1297	 8.41960914048216E-02 
1298	 8.42299195085938E-02 
1299	 8.42508089485931E-02 
1300	 8.42801095131253E-02 
1301	 0.08430154172978 
1302	 8.43215945630734E-02 
1303	 8.43430959458116E-02 
1304	 8.43732287408717E-02 
1305	 8.44074848275398E-02 
1306	 8.44197174891213E-02 
1307	 8.44363318896479E-02 
1308	 8.44607421391373E-02 
1309	 8.44726378254619E-02 
1310	 8.44678626792489E-02 
1311	 8.44709687414229E-02 
1312	 8.44715240206141E-02 
1313	 8.44826225996713E-02 
1314	 8.45054144971699E-02 
1315	 8.45124064829602E-02 
1316	 8.45125857428409E-02 
1317	 8.45208374694816E-02 
1318	 8.45134905721284E-02 
1319	 8.45240934496256E-02 
1320	 8.45669809859673E-02 
1321	 8.45874257415213E-02 
1322	 8.45989592604256E-02 
1323	 8.46146032085466E-02 
1324	 0.084619446174805 
1325	 8.46143676177219E-02 
1326	 8.46114970378791E-02 
1327	 8.46043797008203E-02 
1328	 8.46055958849151E-02 
1329	 8.46159195404409E-02 
1330	 8.46275899925561E-02 
1331	 8.46580570586008E-02 
1332	 8.46646301794717E-02 
1333	 8.46564914186903E-02 
1334	 0.084662609891579 
1335	 0.084664787474622 
1336	 8.46716476074338E-02 
1337	 8.46759479300923E-02 
1338	 8.47001132918833E-02 
1339	 8.47502169734476E-02 
1340	 8.47712874941771E-02 
1341	 8.47901380478816E-02 
1342	 8.48155890143815E-02 
1343	 8.48270477391701E-02 
1344	 8.48309792293453E-02 
1345	 8.48665677098353E-02 
1346	 8.48993580428525E-02 
1347	 8.49174199629428E-02 
1348	 8.49412482801937E-02 
1349	 0.084966457277061 
1350	 8.49907328172373E-02 
1351	 8.50168021019729E-02 
1352	 8.50450065585515E-02 
1353	 8.50689094046751E-02 
1354	 8.50922008540679E-02 
1355	 0.085117189942029 
1356	 8.51424043371649E-02 
1357	 0.085164052944592 
1358	 8.51844771724052E-02 
1359	 8.52046934792498E-02 
1360	 8.52116879117578E-02 
1361	 8.52389537495844E-02 
1362	 8.52940516240781E-02 
1363	 8.53195530456631E-02 
1364	 8.53428001280788E-02 
1365	 8.53608313715894E-02 
1366	 8.53602109217892E-02 
1367	 8.53508874310687E-02 
1368	 0.085361683090585 
1369	 0.085358645111127 
1370	 8.53679030202559E-02 
1371	 8.53797795443616E-02 
1372	 8.53638897266144E-02 
1373	 8.53621287164555E-02 
1374	 8.53556342271933E-02 
1375	 8.53231096585477E-02 
1376	 8.53225278632245E-02 
1377	 8.53517586166323E-02 
1378	 8.53584783963284E-02 
1379	 8.53687292445113E-02 
1380	 0.085373860328132 
1381	 8.53683797493123E-02 
1382	 8.53600699923746E-02 
1383	 8.53488952178148E-02 
1384	 0.085339750771968 
1385	 8.53280714004741E-02 
1386	 8.53164340467423E-02 
1387	 8.53093652526287E-02 
1388	 8.52944532691331E-02 
1389	 8.52763146231687E-02 
1390	 8.52503742321647E-02 
1391	 8.52202937190006E-02 
1392	 8.51889469313885E-02 
1393	 8.51543015953905E-02 
1394	 8.51220561355878E-02 
1395	 8.50869638627699E-02 
1396	 8.50486051406773E-02 
1397	 8.50067836986904E-02 
1398	 8.49608498419127E-02 
1399	 8.49078978511343E-02 
1400	 8.48504152341153E-02 
1401	 8.47919352188805E-02 
1402	 8.47226835243177E-02 
1403	 8.46670516362517E-02 
1404	 8.46191329223068E-02 
1405	 8.45645288943619E-02 
1406	 8.45128727459302E-02 
1407	 8.44597394947566E-02 
1408	 8.43965102314264E-02 
1409	 8.43428564155196E-02 
1410	 0.084291898367789 
1411	 8.42500912413273E-02 
1412	 8.42112923359049E-02 
1413	 8.41836583450913E-02 
1414	 8.41710849332022E-02 
1415	 8.41520153114598E-02 
1416	 8.41400030485423E-02 
1417	 8.41405914085992E-02 
1418	 8.41293022649413E-02 
1419	 8.41186901035586E-02 
1420	 8.41079933706193E-02 
1421	 8.41016029940511E-02 
1422	 8.41134533221576E-02 
1423	 8.41359303228735E-02 
1424	 8.41521003110842E-02 
1425	 8.41731997002468E-02 
1426	 8.41899562542233E-02 
1427	 8.42015019358469E-02 
1428	 8.42137418958558E-02 
1429	 8.42236999196583E-02 
1430	 8.42448561011639E-02 
1431	 8.42761785844441E-02 
1432	 8.42965160638803E-02 
1433	 8.43186739388567E-02 
1434	 8.43406550817859E-02 
1435	 8.43447066932548E-02 
1436	 8.43642477593861E-02 
1437	 8.44014184700482E-02 
1438	 8.44310730820387E-02 
1439	 8.44578942523248E-02 
1440	 8.44941454652939E-02 
1441	 8.45313911818703E-02 
1442	 8.45504127538326E-02 
1443	 8.45757809665426E-02 
1444	 8.46085766577404E-02 
1445	 8.46372012667407E-02 
1446	 8.46676270470313E-02 
1447	 8.46879536985601E-02 
1448	 8.47066535994323E-02 
1449	 8.47266495558575E-02 
1450	 8.47570698311292E-02 
1451	 8.47930870648706E-02 
1452	 8.48471624941409E-02 
1453	 8.48782259071705E-02 
1454	 8.49030259019842E-02 
1455	 8.49267382814623E-02 
1456	 8.49378548135201E-02 
1457	 8.49603192642779E-02 
1458	 8.49922628972107E-02 
1459	 8.50129792998708E-02 
1460	 8.50260680701853E-02 
1461	 8.50504143168804E-02 
1462	 8.50728871350566E-02 
1463	 8.50998300669364E-02 
1464	 8.51399561172291E-02 
1465	 8.51729773535842E-02 
1466	 8.52034663897116E-02 
1467	 8.52324247077558E-02 
1468	 8.52548561854817E-02 
1469	 8.52843795479995E-02 
1470	 8.53135237377345E-02 
1471	 8.53496747492621E-02 
1472	 8.53848153190432E-02 
1473	 8.54275047578089E-02 
1474	 8.54560806530472E-02 
1475	 8.54846598199938E-02 
1476	 8.55399739242206E-02 
1477	 8.55782249645004E-02 
1478	 8.56113918038627E-02 
1479	 8.56571322977245E-02 
1480	 8.56878787947348E-02 
1481	 8.57186064381484E-02 
1482	 0.085747879739688 
1483	 8.57764209106016E-02 
1484	 8.58161573321728E-02 
1485	 0.085855865278191 
1486	 8.58944623074335E-02 
1487	 8.59471297351485E-02 
1488	 0.085985803339323 
1489	 8.60143957534273E-02 
1490	 8.60471880844745E-02 
1491	 8.60813403473708E-02 
1492	 8.61114978474898E-02 
1493	 8.61318253180905E-02 
1494	 8.61640806213442E-02 
1495	 8.62053229971567E-02 
1496	 8.62366064720477E-02 
1497	 8.62682022233447E-02 
1498	 8.63001105405121E-02 
1499	 8.63235616697868E-02 
1500	 0.086351368006101 
1501	 8.63905372931279E-02 
1502	 8.64194093225177E-02 
1503	 8.64353678727238E-02 
1504	 0.086463332105176 
1505	 8.64936028129918E-02 
1506	 8.65220647771517E-02 
1507	 0.086558215687164 
1508	 8.65915329244548E-02 
1509	 8.66304662289458E-02 
1510	 8.66639495603312E-02 
1511	 8.66898365130634E-02 
1512	 8.67151273514161E-02 
1513	 8.67232751722898E-02 
1514	 8.67392705408714E-02 
1515	 8.67670197124516E-02 
1516	 8.67820339107318E-02 
1517	 8.68041936552013E-02 
1518	 8.68322386890952E-02 
1519	 8.68565148357543E-02 
1520	 0.086877500978416 
1521	 8.69118767442358E-02 
1522	 8.69533634908158E-02 
1523	 8.69847411111266E-02 
1524	 8.70239387637015E-02 
1525	 8.70459817955868E-02 
1526	 8.70519294118902E-02 
1527	 8.70709539061736E-02 
1528	 8.70857331022309E-02 
1529	 8.71071789883982E-02 
1530	 8.71357667310671E-02 
1531	 8.71607162020202E-02 
1532	 8.71860975071149E-02 
1533	 8.72140932681382E-02 
1534	 8.72504160662217E-02 
1535	 8.72750952787777E-02 
1536	 8.72939540161067E-02 
1537	 8.73125365978067E-02 
1538	 8.73232289595783E-02 
1539	 8.73349114492941E-02 
1540	 8.73419401495339E-02 
1541	 8.73589517434883E-02 
1542	 8.73771361931426E-02 
1543	 8.73994950241311E-02 
1544	 8.74356805821141E-02 
1545	 8.74671093377636E-02 
1546	 8.75029596791123E-02 
1547	 8.75296513295911E-02 
1548	 8.75361440682903E-02 
1549	 0.08754987485588 
1550	 8.75594077556413E-02 
1551	 8.75714032169982E-02 
1552	 8.76006309177737E-02 
1553	 8.76203828440585E-02 
1554	 8.76433603276953E-02 
1555	 8.76606560371764E-02 
1556	 8.76676817672402E-02 
1557	 8.76922066872138E-02 
1558	 8.77079398714077E-02 
1559	 8.77108681739758E-02 
1560	 8.77234168775642E-02 
1561	 8.77401702636159E-02 
1562	 8.77557135385727E-02 
1563	 8.77724849660806E-02 
1564	 8.77857846456869E-02 
1565	 8.77974763461139E-02 
1566	 8.78127018723444E-02 
1567	 8.78265957790643E-02 
1568	 8.78437000091579E-02 
1569	 8.78701834358693E-02 
1570	 8.78820359872649E-02 
1571	 8.78841381374108E-02 
1572	 0.087895649106798 
1573	 8.79010373121848E-02 
1574	 8.79178365096496E-02 
1575	 8.79501895802631E-02 
1576	 8.79662858157347E-02 
1577	 8.79840543241386E-02 
1578	 8.79903998907021E-02 
1579	 8.79752743124039E-02 
1580	 8.79801495792581E-02 
1581	 8.79909443621919E-02 
1582	 8.79976590905812E-02 
1583	 0.088015315092914 
1584	 8.80266205147991E-02 
1585	 8.80249779998079E-02 
1586	 8.80333310757464E-02 
1587	 8.80511697177691E-02 
1588	 8.80593488190111E-02 
1589	 8.80666268642828E-02 
1590	 8.80729482472331E-02 
1591	 8.80732749489078E-02 
1592	 0.088075807620284 
1593	 8.80681072558064E-02 
1594	 8.80818337332948E-02 
1595	 8.81201749355376E-02 
1596	 8.81342065475352E-02 
1597	 0.08815042308482 
1598	 8.81630106695433E-02 
1599	 8.81457607186955E-02 
1600	 8.81483851759718E-02 
1601	 8.81810749349192E-02 
1602	 8.81900335470661E-02 
1603	 8.81844604014886E-02 
1604	 8.81874882903826E-02 
1605	 8.81681250745755E-02 
1606	 8.81698031615561E-02 
1607	 8.81911595198137E-02 
1608	 8.82199092605741E-02 
1609	 8.82355345604247E-02 
1610	 0.088278733465926 
1611	 8.82983970340716E-02 
1612	 8.82944063365654E-02 
1613	 8.83140795389801E-02 
1614	 0.088322626500917 
1615	 8.83144834616088E-02 
1616	 8.83345722912807E-02 
1617	 8.83467778361221E-02 
1618	 8.83495200317339E-02 
1619	 8.83629235423822E-02 
1620	 8.83673181078281E-02 
1621	 8.83719852691954E-02 
1622	 8.83616585034635E-02 
1623	 0.088366524587844 
1624	 8.83873645187253E-02 
1625	 8.83830494009549E-02 
1626	 8.83685637144335E-02 
1627	 0.08835961398667 
1628	 8.83315255841947E-02 
1629	 0.08833897216719 
1630	 8.83677500321209E-02 
1631	 8.83859842557074E-02 
1632	 8.84170438265251E-02 
1633	 8.84394372167858E-02 
1634	 8.84571988092076E-02 
1635	 8.84728352229672E-02 
1636	 8.84937749068164E-02 
1637	 8.84984897189103E-02 
1638	 0.088490548760708 
1639	 8.84824262205454E-02 
1640	 8.84622909105389E-02 
1641	 8.84579179259454E-02 
1642	 8.84518341177741E-02 
1643	 8.84594494193269E-02 
1644	 8.84863267293189E-02 
1645	 8.84951357515917E-02 
1646	 0.088502586612652 
1647	 0.08851231984799 
1648	 8.85180317352012E-02 
1649	 0.088519150495392 
1650	 8.85224567508935E-02 
1651	 8.85220128462988E-02 
1652	 8.85052783350156E-02 
1653	 8.85090775466336E-02 
1654	 8.85309895593837E-02 
1655	 8.85350942384813E-02 
1656	 8.85374461220767E-02 
1657	 8.85399596318166E-02 
1658	 8.85293303303029E-02 
1659	 8.85323444931156E-02 
1660	 8.85494974500027E-02 
1661	 8.85549971299593E-02 
1662	 8.85586077339088E-02 
1663	 0.088560294031669 
1664	 8.85498049605514E-02 
1665	 8.85575603163152E-02 
1666	 8.85769328077261E-02 
1667	 0.088588484002183 
1668	 8.86075184534784E-02 
1669	 8.86207422911222E-02 
1670	 8.86272507142784E-02 
1671	 8.86328049563253E-02 
1672	 8.86390572109466E-02 
1673	 8.86436853021606E-02 
1674	 8.86441058009918E-02 
1675	 8.86425960169757E-02 
1676	 8.86404276233195E-02 
1677	 8.86387970853746E-02 
1678	 8.86297137312273E-02 
1679	 8.86293196177773E-02 
1680	 8.86378014520148E-02 
1681	 8.86403381226303E-02 
1682	 8.86425636833538E-02 
1683	 8.86457314689682E-02 
1684	 8.86438476450528E-02 
1685	 8.86501785047706E-02 
1686	 8.86582775221192E-02 
1687	 0.088674270002569 
1688	 8.87080665362769E-02 
1689	 8.87201458835989E-02 
1690	 8.87242871219595E-02 
1691	 8.87335852154169E-02 
1692	 8.87300247497939E-02 
1693	 8.87364105474988E-02 
1694	 8.87620833045718E-02 
1695	 8.87666963453724E-02 
1696	 0.088760012876536 
1697	 0.088753437905262 
1698	 8.87268175570944E-02 
1699	 8.87271895870202E-02 
1700	 8.87395857503701E-02 
1701	 8.87533345022933E-02 
1702	 8.87861458833497E-02 
1703	 8.88058844450573E-02 
1704	 8.88285617782946E-02 
1705	 8.88335309517481E-02 
1706	 8.88295013641549E-02 
1707	 8.88203125586779E-02 
1708	 8.87837984046522E-02 
1709	 8.87748061065168E-02 
1710	 8.87822109631599E-02 
1711	 8.87759677652915E-02 
1712	 8.87739893428178E-02 
1713	 8.87713905317224E-02 
1714	 8.87511922781046E-02 
1715	 8.87542678652531E-02 
1716	 0.088785302482953 
1717	 8.87906852441543E-02 
1718	 8.87938342889989E-02 
1719	 8.87882871000781E-02 
1720	 8.87629280048589E-02 
1721	 8.87515263448757E-02 
1722	 8.87373813215108E-02 
1723	 8.87406939183258E-02 
1724	 8.87645872684207E-02 
1725	 8.87570001155143E-02 
1726	 8.87476078188434E-02 
1727	 8.87316382839361E-02 
1728	 8.86813065395745E-02 
1729	 8.86732602390615E-02 
1730	 8.86920906266315E-02 
1731	 8.86979434708897E-02 
1732	 8.87152092932021E-02 
1733	 8.87189153673915E-02 
1734	 8.87157089482516E-02 
1735	 8.87064286934459E-02 
1736	 8.86914751189164E-02 
1737	 0.088674895569606 
1738	 8.86509999759863E-02 
1739	 8.86282403551088E-02 
1740	 8.86028863110215E-02 
1741	 8.85846759579923E-02 
1742	 0.088560409314334 
1743	 8.85550400370841E-02 
1744	 8.85672405184827E-02 
1745	 8.85607756972055E-02 
1746	 8.85567519329695E-02 
1747	 8.85432839438995E-02 
1748	 8.85397681494312E-02 
1749	 8.85569143253465E-02 
1750	 8.85707430033042E-02 
1751	 8.85701226624919E-02 
1752	 8.85679797894485E-02 
1753	 0.088565950553662 
1754	 8.85406186811048E-02 
1755	 8.84986495247307E-02 
1756	 8.84681375464879E-02 
1757	 8.84439251804581E-02 
1758	 8.84160470239169E-02 
1759	 8.84064074476362E-02 
1760	 8.83975508102349E-02 
1761	 8.83830125919284E-02 
1762	 8.83727943279775E-02 
1763	 8.83567623117922E-02 
1764	 8.83556016677699E-02 
1765	 8.83625464459288E-02 
1766	 8.83588762531519E-02 
1767	 8.83569111811297E-02 
1768	 8.83418201056477E-02 
1769	 8.83144014896401E-02 
1770	 8.83087361116937E-02 
1771	 8.83075332718558E-02 
1772	 8.82973182937447E-02 
1773	 8.82954936794081E-02 
1774	 8.82714716648529E-02 
1775	 8.82418940253412E-02 
1776	 8.82478629394863E-02 
1777	 8.82370060371429E-02 
1778	 8.82071559133624E-02 
1779	 0.088204203023584 
1780	 8.81908680104357E-02 
1781	 8.81675423832642E-02 
1782	 8.81925932144687E-02 
1783	 8.82195363989433E-02 
1784	 8.82126311198651E-02 
1785	 8.81945869687243E-02 
1786	 8.81780266924338E-02 
1787	 8.81282867789057E-02 
1788	 8.81173197726074E-02 
1789	 8.81490785291564E-02 
1790	 8.81557708913591E-02 
1791	 8.81357390335693E-02 
1792	 8.81445875909842E-02 
1793	 8.81751177151018E-02 
1794	 8.81812436671557E-02 
1795	 8.82036561691916E-02 
1796	 8.82203318943714E-02 
1797	 8.82034119024946E-02 
1798	 8.82078231628054E-02 
1799	 8.82357944504907E-02 
1800	 8.82514095084165E-02 
1801	 8.42375372881111E-02 
1802	 8.42853887907569E-02 
1803	 8.43231914737338E-02 
1804	 8.43701837182867E-02 
1805	 8.44380331761266E-02 
1806	 8.44691701496984E-02 
1807	 8.44896705102412E-02 
1808	 8.45212895355313E-02 
1809	 8.45397620222959E-02 
1810	 8.45731323627626E-02 
1811	 8.46292586692816E-02 
1812	 8.46685670702349E-02 
1813	 8.46976732297031E-02 
1814	 8.47131034574485E-02 
1815	 8.47159446499341E-02 
1816	 8.47318041632924E-02 
1817	 8.47505026562361E-02 
1818	 8.47819766375322E-02 
1819	 8.47995817557793E-02 
1820	 8.48138991848071E-02 
1821	 8.48234633493242E-02 
1822	 8.48410699020969E-02 
1823	 8.48374955458837E-02 
1824	 8.48440533910902E-02 
1825	 8.48973263650743E-02 
1826	 0.084952491276305 
1827	 0.084970592532707 
1828	 8.49875062637678E-02 
1829	 0.085006220335149 
1830	 8.50081587258482E-02 
1831	 8.49735200290586E-02 
1832	 8.49736718761557E-02 
1833	 8.50140958744132E-02 
1834	 8.50152719627626E-02 
1835	 8.50153626533989E-02 
1836	 8.50400902038017E-02 
1837	 0.085052608175682 
1838	 8.50586277118943E-02 
1839	 8.50662190168105E-02 
1840	 8.50845444281733E-02 
1841	 8.51013490949631E-02 
1842	 8.50973916906982E-02 
1843	 8.50828627958599E-02 
1844	 8.50810050405778E-02 
1845	 8.50904610093788E-02 
1846	 8.51012535589549E-02 
1847	 8.51186589476924E-02 
1848	 8.51405973664809E-02 
1849	 8.51497627810174E-02 
1850	 8.51475152736185E-02 
1851	 8.51333939825379E-02 
1852	 8.51152162542806E-02 
1853	 8.50895331180642E-02 
1854	 8.50715313646082E-02 
1855	 8.50710873422101E-02 
1856	 8.50663847973458E-02 
1857	 8.50596345612722E-02 
1858	 8.50518883874261E-02 
1859	 8.50328873762039E-02 
1860	 8.49969742461169E-02 
1861	 8.49475942250421E-02 
1862	 0.084888118381966 
1863	 8.48526372584537E-02 
1864	 8.48233069717166E-02 
1865	 8.48004055674209E-02 
1866	 8.48263904470368E-02 
1867	 8.48250630007183E-02 
1868	 8.47732197993684E-02 
1869	 8.47464292268817E-02 
1870	 8.46997826507269E-02 
1871	 8.46303526391312E-02 
1872	 8.45360206177866E-02 
1873	 8.44556772948024E-02 
1874	 8.43434819371392E-02 
1875	 8.42287062808284E-02 
1876	 8.41309676939576E-02 
1877	 8.40252010916068E-02 
1878	 0.083905805058998 
1879	 8.37486396311496E-02 
1880	 8.35957733680188E-02 
1881	 8.34216191070774E-02 
1882	 8.32594959986962E-02 
1883	 8.31029711377495E-02 
1884	 8.29413353107148E-02 
1885	 8.27608098021434E-02 
1886	 8.25450776614132E-02 
1887	 8.23207212154992E-02 
1888	 8.20966311273093E-02 
1889	 8.18742858731654E-02 
1890	 8.16503435784272E-02 
1891	 8.14111072903419E-02 
1892	 0.081160561891403 
1893	 8.09026738277998E-02 
1894	 8.06264368104588E-02 
1895	 8.03542781679371E-02 
1896	 8.00932665182797E-02 
1897	 7.98209557926167E-02 
1898	 7.95771913089583E-02 
1899	 7.93383273311908E-02 
1900	 7.90630395813172E-02 
1901	 7.88020395813926E-02 
1902	 7.85577821085492E-02 
1903	 7.83116707534653E-02 
1904	 7.80718291320534E-02 
1905	 7.78423372414271E-02 
1906	 7.76457551288744E-02 
1907	 7.74436113095186E-02 
1908	 7.72730561335876E-02 
1909	 7.71203827057779E-02 
1910	 7.69496408500297E-02 
1911	 7.67878214625738E-02 
1912	 7.66393382046816E-02 
1913	 0.076500852351993 
1914	 7.63841055293169E-02 
1915	 7.62654630078991E-02 
1916	 0.076150912461751 
1917	 7.60405459455622E-02 
1918	 7.59338108893729E-02 
1919	 7.58558879163442E-02 
1920	 7.57920943001951E-02 
1921	 7.57095531148723E-02 
1922	 7.56289427920832E-02 
1923	 7.55530157610296E-02 
1924	 7.54992748055673E-02 
1925	 7.54602631250494E-02 
1926	 7.54270126596168E-02 
1927	 7.54160856467268E-02 
1928	 7.54043009525538E-02 
1929	 7.53763815445161E-02 
1930	 7.53560811958624E-02 
1931	 7.53372642194641E-02 
1932	 7.53389887714779E-02 
1933	 7.53547192334887E-02 
1934	 7.53712374283086E-02 
1935	 7.53921051022299E-02 
1936	 7.54214999148255E-02 
1937	 7.54467534221992E-02 
1938	 7.54778200587208E-02 
1939	 7.55011402023473E-02 
1940	 7.55163576905828E-02 
1941	 7.55426291337955E-02 
1942	 7.55636725038369E-02 
1943	 7.55960919989171E-02 
1944	 7.56432056987363E-02 
1945	 7.57058844747331E-02 
1946	 7.57596010200642E-02 
1947	 7.58180639757376E-02 
1948	 7.58720977756113E-02 
1949	 0.075906189761093 
1950	 7.59665460828548E-02 
1951	 0.076042286589241 
1952	 7.61205048945687E-02 
1953	 7.61948107582807E-02 
1954	 7.62900739894153E-02 
1955	 7.63570073787821E-02 
1956	 7.64046929235902E-02 
1957	 0.076470181869502 
1958	 7.65376499956317E-02 
1959	 7.66073513638146E-02 
1960	 7.66791390110263E-02 
1961	 7.67603303237011E-02 
1962	 0.076851374179552 
1963	 7.69408095254286E-02 
1964	 0.077038568344625 
1965	 7.71286505825019E-02 
1966	 0.077231795360726 
1967	 7.73289136669529E-02 
1968	 7.74173511908342E-02 
1969	 7.74974970972666E-02 
1970	 7.75948459917244E-02 
1971	 0.077690226913073 
1972	 7.77857954903887E-02 
1973	 7.78993837619747E-02 
1974	 0.078003043586145 
1975	 7.81017012548123E-02 
1976	 7.81924155987554E-02 
1977	 7.82826202972183E-02 
1978	 7.83715706552717E-02 
1979	 7.84602940982556E-02 
1980	 7.85233098738634E-02 
1981	 7.86011565850816E-02 
1982	 7.86826643526675E-02 
1983	 7.87628012018737E-02 
1984	 7.88411995833671E-02 
1985	 7.89278489774428E-02 
1986	 7.90156688728246E-02 
1987	 7.91056535918496E-02 
1988	 7.91996460547414E-02 
1989	 7.93027520664858E-02 
1990	 7.93940871827223E-02 
1991	 7.94758933559826E-02 
1992	 7.95738227419692E-02 
1993	 7.96758911487915E-02 
1994	 7.97712586811492E-02 
1995	 0.07988739185255 
1996	 7.99765731795468E-02 
1997	 8.00322597753646E-02 
1998	 8.01165422863133E-02 
1999	 8.01989500272112E-02 
2000	 8.02870919290631E-02 
2001	 8.03919153501637E-02 
2002	 8.05016930233655E-02 
2003	 8.05928379497764E-02 
2004	 0.080697847693317 
2005	 8.07897905901534E-02 
2006	 8.08816462571198E-02 
2007	 8.09579235931941E-02 
2008	 8.10081165960098E-02 
2009	 8.10853944881531E-02 
2010	 8.11602010590318E-02 
2011	 0.08125070601821 
2012	 8.13712098447662E-02 
2013	 8.14774157114282E-02 
2014	 8.16018769967461E-02 
2015	 8.16915228667792E-02 
2016	 8.17479647668653E-02 
2017	 8.18317989933949E-02 
2018	 8.19019389371593E-02 
2019	 8.19413508651441E-02 
2020	 8.20156822695163E-02 
2021	 8.21113597419107E-02 
2022	 8.21994142375427E-02 
2023	 8.22952171923644E-02 
2024	 8.23943699440649E-02 
2025	 0.082509586778831 
2026	 8.26019374679066E-02 
2027	 8.26975726737389E-02 
2028	 8.27690608356372E-02 
2029	 8.28365057251523E-02 
2030	 8.28737617569407E-02 
2031	 8.29405888569518E-02 
2032	 8.30149381988459E-02 
2033	 8.30898508058072E-02 
2034	 8.31782315799259E-02 
2035	 0.083257044264764 
2036	 0.083329597819645 
2037	 8.34046869857765E-02 
2038	 8.34789912257858E-02 
2039	 8.35533737516186E-02 
2040	 8.36353321168801E-02 
2041	 8.37079402190671E-02 
2042	 8.37719696273316E-02 
2043	 0.083825119276133 
2044	 8.38794470015673E-02 
2045	 8.39191386835329E-02 
2046	 8.39739012733926E-02 
2047	 8.40362377475828E-02 
2048	 8.40936687169353E-02 
2049	 8.41554839272404E-02 
2050	 8.42116781816814E-02 
2051	 8.42625566077484E-02 
2052	 8.43154336099687E-02 
2053	 8.43701292159786E-02 
2054	 8.44205413886483E-02 
2055	 8.44700183175401E-02 
2056	 0.084510805657713 
2057	 0.084564085021277 
2058	 8.46160600291627E-02 
2059	 8.46741487001316E-02 
2060	 8.47500476978362E-02 
2061	 8.48087791209395E-02 
2062	 8.48570047220306E-02 
2063	 0.084913808137526 
2064	 8.49653718029703E-02 
2065	 8.50225810152442E-02 
2066	 8.50953762176743E-02 
2067	 8.51556965098866E-02 
2068	 8.52244429049137E-02 
2069	 8.52626586537993E-02 
2070	 8.53085839971898E-02 
2071	 8.53437148581943E-02 
2072	 8.53904425345274E-02 
2073	 8.54341402670526E-02 
2074	 8.54900645226869E-02 
2075	 8.55590431803886E-02 
2076	 8.56212979075001E-02 
2077	 8.56898152168245E-02 
2078	 8.57500003355078E-02 
2079	 8.58016421338181E-02 
2080	 8.58588086919232E-02 
2081	 8.59204833923436E-02 
2082	 8.59755457457755E-02 
2083	 8.60253947335347E-02 
2084	 8.60793909186863E-02 
2085	 8.61366233899862E-02 
2086	 8.61964815423117E-02 
2087	 8.62378219981819E-02 
2088	 8.62743650960821E-02 
2089	 8.63151736722844E-02 
2090	 8.63384479573338E-02 
2091	 8.63764034491057E-02 
2092	 8.64258901780216E-02 
2093	 8.64768877975076E-02 
2094	 8.65303005834725E-02 
2095	 8.65814468121338E-02 
2096	 8.66543193207466E-02 
2097	 0.086704442212958 
2098	 8.67384571293227E-02 
2099	 8.67555155021992E-02 
2100	 8.68070392484747E-02 
2101	 8.68629357180438E-02 
2102	 8.69168116569727E-02 
2103	 8.70033086826511E-02 
2104	 8.70528863640833E-02 
2105	 8.70625540875611E-02 
2106	 8.71082159623305E-02 
2107	 8.71670696643218E-02 
2108	 0.087215290984683 
2109	 8.72721305732382E-02 
2110	 8.73279381001717E-02 
2111	 8.73684388837151E-02 
2112	 0.087421686311199 
2113	 8.74907534252855E-02 
2114	 8.75572042525317E-02 
2115	 8.76180969614432E-02 
2116	 0.087674512135642 
2117	 8.77385761782465E-02 
2118	 8.78054535739419E-02 
2119	 8.78652063944608E-02 
2120	 8.79381466451531E-02 
2121	 8.79839976522531E-02 
2122	 8.80013289880565E-02 
2123	 8.80389679521721E-02 
2124	 8.80636623095817E-02 
2125	 8.81058603209343E-02 
2126	 0.088183536815553 
2127	 8.82304531753215E-02 
2128	 8.82658159170411E-02 
2129	 8.83017662896204E-02 
2130	 0.08830836462897 
2131	 8.83357529848438E-02 
2132	 0.088373685608573 
2133	 8.84397220991944E-02 
2134	 8.84622476479517E-02 
2135	 0.088478812704024 
2136	 8.84846625568747E-02 
2137	 8.84518889254345E-02 
2138	 8.84455463561094E-02 
2139	 8.84527661683607E-02 
2140	 8.84541762297844E-02 
2141	 8.84688125051912E-02 
2142	 8.84580209042619E-02 
2143	 8.84236563260369E-02 
2144	 0.088405459040801 
2145	 8.83952899047586E-02 
2146	 8.83610774223003E-02 
2147	 8.83305204082934E-02 
2148	 8.82820467307993E-02 
2149	 8.82315552732923E-02 
2150	 8.81393135393065E-02 
2151	 0.088096810735428 
2152	 8.80831602660132E-02 
2153	 8.80525613647664E-02 
2154	 8.80339427399111E-02 
2155	 8.80064761991975E-02 
2156	 8.79750960421426E-02 
2157	 8.79354108413272E-02 
2158	 8.78924204999686E-02 
2159	 8.78448983850048E-02 
2160	 0.087786412858145 
2161	 8.77273453763181E-02 
2162	 8.76638351679596E-02 
2163	 8.76045803488177E-02 
2164	 8.75503706794778E-02 
2165	 8.74823330563863E-02 
2166	 8.74171609116167E-02 
2167	 8.73534687551938E-02 
2168	 8.72906932133294E-02 
2169	 8.72249238941705E-02 
2170	 0.087156649578248 
2171	 8.70941412439484E-02 
2172	 8.70214771919106E-02 
2173	 8.69348498313707E-02 
2174	 8.68585365799312E-02 
2175	 0.086768369390074 
2176	 8.67084056116054E-02 
2177	 8.66746228941986E-02 
2178	 8.66265908728647E-02 
2179	 8.65943729607977E-02 
2180	 8.65567365103939E-02 
2181	 8.65051928293202E-02 
2182	 8.64587568870135E-02 
2183	 8.64173524046945E-02 
2184	 8.63777205474974E-02 
2185	 8.63370434883632E-02 
2186	 8.62970965844761E-02 
2187	 8.62454493218359E-02 
2188	 0.086184435828874 
2189	 8.61390147552672E-02 
2190	 0.086095418394542 
2191	 8.60450438657305E-02 
2192	 8.59942678329906E-02 
2193	 8.59587733947077E-02 
2194	 0.085917240492104 
2195	 8.58863299529016E-02 
2196	 8.58806174719104E-02 
2197	 8.58700471221545E-02 
2198	 8.58621991215298E-02 
2199	 8.58465412117835E-02 
2200	 8.58412139062257E-02 
2201	 8.58221561143103E-02 
2202	 8.57782276289054E-02 
2203	 8.57364044268637E-02 
2204	 8.57232932724557E-02 
2205	 8.57203261339522E-02 
2206	 8.57180481648604E-02 
2207	 8.57423980148789E-02 
2208	 8.57459071822717E-02 
2209	 8.57296072346369E-02 
2210	 8.57381217908609E-02 
2211	 8.57658359227905E-02 
2212	 8.57750536240437E-02 
2213	 8.57903230735647E-02 
2214	 8.57918263974226E-02 
2215	 8.57684745537421E-02 
2216	 8.57608400756179E-02 
2217	 8.57585003522051E-02 
2218	 8.57539754151967E-02 
2219	 8.57418108079857E-02 
2220	 8.57509056058573E-02 
2221	 8.57809967443335E-02 
2222	 8.57893967257251E-02 
2223	 8.58325795863153E-02 
2224	 8.58607315438147E-02 
2225	 8.58701686709741E-02 
2226	 8.58549994838492E-02 
2227	 8.58665231281046E-02 
2228	 8.58694856995284E-02 
2229	 8.58884021702808E-02 
2230	 8.59342756029036E-02 
2231	 8.59589426447411E-02 
2232	 0.085978919205613 
2233	 8.59979039083131E-02 
2234	 8.60093053365788E-02 
2235	 8.60227850430653E-02 
2236	 8.60366153251738E-02 
2237	 8.60505181814305E-02 
2238	 8.60672736924333E-02 
2239	 8.60795119273579E-02 
2240	 8.60891310678139E-02 
2241	 8.60972537550687E-02 
2242	 8.60900144523434E-02 
2243	 8.60956130362932E-02 
2244	 8.60857075166348E-02 
2245	 0.086125159506522 
2246	 8.61673223258661E-02 
2247	 8.62250039838703E-02 
2248	 8.62656592135953E-02 
2249	 8.63219273330134E-02 
2250	 0.086339255103688 
2251	 8.63336689309777E-02 
2252	 8.63209917615869E-02 
2253	 8.62668963067272E-02 
2254	 8.62691853512376E-02 
2255	 0.08628536504952 
2256	 8.63093743113789E-02 
2257	 8.63926649580522E-02 
2258	 8.64056766669656E-02 
2259	 8.63531115885188E-02 
2260	 8.63683048849693E-02 
2261	 8.63986022342516E-02 
2262	 8.64243605531664E-02 
2263	 0.086490510199982 
2264	 8.65380353104812E-02 
2265	 8.65525772623012E-02 
2266	 8.65799696349135E-02 
2267	 8.66487327432517E-02 
2268	 8.66813161045845E-02 
2269	 8.66865527359337E-02 
2270	 8.66863999251646E-02 
2271	 8.66905233392822E-02 
2272	 8.66748653487662E-02 
2273	 8.67181221841275E-02 
2274	 0.086793071683505 
2275	 0.086817354288495 
2276	 8.68426025633857E-02 
2277	 0.086855893793879 
2278	 8.68230508092983E-02 
2279	 8.68187794297369E-02 
2280	 8.68213564141135E-02 
2281	 8.68493150043924E-02 
2282	 8.68880852780422E-02 
2283	 0.086927694839106 
2284	 8.70202484589425E-02 
2285	 8.70460662422552E-02 
2286	 8.70232325256707E-02 
2287	 0.087027229125556 
2288	 8.70013992091212E-02 
2289	 8.70084135553493E-02 
2290	 8.70436195480166E-02 
2291	 0.087076381189484 
2292	 8.71393429545406E-02 
2293	 8.71636724143486E-02 
2294	 8.71639138412145E-02 
2295	 8.71763421211627E-02 
2296	 8.71514742297197E-02 
2297	 8.71699791521382E-02 
2298	 8.72226455870548E-02 
2299	 8.72454385019271E-02 
2300	 8.72929529711445E-02 
2301	 8.73105449412218E-02 
2302	 8.73076687345096E-02 
2303	 0.087344796656595 
2304	 8.73787140809098E-02 
2305	 8.73900590929002E-02 
2306	 8.73904271113046E-02 
2307	 0.087388219576197 
2308	 8.73646913153384E-02 
2309	 0.087293813290262 
2310	 8.72917818118651E-02 
2311	 8.73162923542921E-02 
2312	 8.73225289070965E-02 
2313	 8.73554320089833E-02 
2314	 8.73811989845486E-02 
2315	 8.73774002622396E-02 
2316	 8.74024640326283E-02 
2317	 8.74896756091191E-02 
2318	 8.75012398731833E-02 
2319	 8.74598095590622E-02 
2320	 8.74559422266575E-02 
2321	 8.74167384643762E-02 
2322	 0.087418727809273 
2323	 8.74726578448395E-02 
2324	 8.75148882248567E-02 
2325	 8.75750756115397E-02 
2326	 8.76070518991082E-02 
2327	 8.76230833367193E-02 
2328	 8.76434364923836E-02 
2329	 8.76835660251589E-02 
2330	 8.77087803251488E-02 
2331	 8.77055308601331E-02 
2332	 0.087716573588566 
2333	 8.76985865533731E-02 
2334	 8.76669047419468E-02 
2335	 8.76824178614101E-02 
2336	 8.77009440730685E-02 
2337	 8.76873495617499E-02 
2338	 8.77031900423417E-02 
2339	 8.77270979003189E-02 
2340	 8.77321785405255E-02 
2341	 8.77496678238694E-02 
2342	 8.77729591301577E-02 
2343	 8.77952917072139E-02 
2344	 0.087800134317556 
2345	 8.77914735226394E-02 
2346	 8.77492427710142E-02 
2347	 8.77497084449587E-02 
2348	 8.77688163394327E-02 
2349	 0.087780403970924 
2350	 8.78338931435559E-02 
2351	 8.78237085823674E-02 
2352	 8.77539504020839E-02 
2353	 8.77076510182445E-02 
2354	 8.76310745298382E-02 
2355	 8.76092912963806E-02 
2356	 8.76038066102791E-02 
2357	 0.087623868584059 
2358	 8.77120422934689E-02 
2359	 8.77443756382587E-02 
2360	 8.78112199272014E-02 
2361	 8.78111691835899E-02 
2362	 8.77023626791047E-02 
2363	 8.76698989360803E-02 
2364	 8.76237652568828E-02 
2365	 0.087598282747386 
2366	 8.76335042165727E-02 
2367	 8.76487784301786E-02 
2368	 8.76526092122571E-02 
2369	 8.76654486484608E-02 
2370	 8.76780903919572E-02 
2371	 8.77274177194722E-02 
2372	 8.77738740509637E-02 
2373	 8.78015084157091E-02 
2374	 8.77629368612275E-02 
2375	 8.77372345191684E-02 
2376	 8.76335704036722E-02 
2377	 8.75324935937174E-02 
2378	 8.75499625495832E-02 
2379	 8.75261661244482E-02 
2380	 8.75490575978033E-02 
2381	 8.76055702856209E-02 
2382	 8.75639741602724E-02 
2383	 0.087507231800726 
2384	 8.74635429104532E-02 
2385	 8.74127680927217E-02 
2386	 8.74183746402301E-02 
2387	 8.74935399894644E-02 
2388	 8.75142156767084E-02 
2389	 8.74294151848132E-02 
2390	 8.73676904583884E-02 
2391	 8.72574373546894E-02 
2392	 8.71223205455295E-02 
2393	 8.71511791746846E-02 
2394	 8.71619794309296E-02 
2395	 0.087115281349786 
2396	 8.71559348653357E-02 
2397	 8.71572230115482E-02 
2398	 0.08711272476513 
2399	 8.71373392206036E-02 
2400	 8.71066576378056E-02 
2401	 8.70047599822206E-02 
2402	 0.086936390881094 
2403	 8.68435659605346E-02 
2404	 8.67306186841095E-02 
2405	 8.66987001749615E-02 
2406	 8.67112203803921E-02 
2407	 0.086667365831706 
2408	 8.66824036702567E-02 
2409	 8.66954147269958E-02 
2410	 8.66358343810761E-02 
2411	 8.66311119836402E-02 
2412	 8.65487738838388E-02 
2413	 8.64825057120009E-02 
2414	 0.086463435191047 
2415	 8.63395102369712E-02 
2416	 8.62846211221569E-02 
2417	 8.62880309039506E-02 
2418	 0.086220233187033 
2419	 8.61268992197644E-02 
2420	 8.61245804987851E-02 
2421	 8.61022474571493E-02 
2422	 0.086159746225467 
2423	 0.086393142423195 
2424	 8.64063700376277E-02 
2425	 8.63396794690703E-02 
2426	 8.63064199806943E-02 
2427	 8.61511292934204E-02 
2428	 8.60605648956635E-02 
2429	 0.086066363039851 
2430	 8.59364895552781E-02 
2431	 8.56586457284928E-02 
2432	 8.55584041936139E-02 
2433	 8.54733932003472E-02 
2434	 8.54151440416932E-02 
2435	 8.55773071762469E-02 
2436	 8.55526436390186E-02 
2437	 8.53790019042007E-02 
2438	 8.53497327150394E-02 
2439	 8.52931903848177E-02 
2440	 8.52636981072816E-02 
2441	 8.53259055037398E-02 
2442	 8.53186718842336E-02 
2443	 8.52784702328201E-02 
2444	 8.53192978260747E-02 
2445	 0.08543819324402 
2446	 8.54450907614741E-02 
2447	 8.54594941590466E-02 
2448	 0.085357110645626 
2449	 8.50498800354045E-02 
2450	 8.49299560352904E-02 
2451	 8.48124355115075E-02 
2452	 8.47581079013482E-02 
2453	 8.48961869052925E-02 
2454	 8.48779007686366E-02 
2455	 8.48336630289696E-02 
2456	 8.48061941457111E-02 
2457	 8.46455580961762E-02 
2458	 8.45339048475205E-02 
2459	 8.44876690289783E-02 
2460	 8.44428365234079E-02 
2461	 8.43955790780128E-02 
2462	 8.44120426999251E-02 
2463	 8.45066601734299E-02 
2464	 0.084477574135287 
2465	 8.43827732022342E-02 
2466	 8.43640991911614E-02 
2467	 8.43692905597197E-02 
2468	 8.42746198584561E-02 
2469	 8.41793330218351E-02 
2470	 8.41048493040613E-02 
2471	 8.39180085209857E-02 
2472	 8.39334764246198E-02 
2473	 8.39238984166284E-02 
2474	 8.37045092165379E-02 
2475	 8.36475861825738E-02 
2476	 8.36010678414744E-02 
2477	 8.34695254920052E-02 
2478	 8.35081957047613E-02 
2479	 8.34601143589838E-02 
2480	 8.32895726882561E-02 
2481	 8.33094976783136E-02 
2482	 8.33635325229358E-02 
2483	 8.32540226091623E-02 
2484	 8.31483392298306E-02 
2485	 8.30984789908646E-02 
2486	 8.30537171792519E-02 
2487	 8.31406921487158E-02 
2488	 8.33332382631999E-02 
2489	 8.34962033403992E-02 
2490	 8.34310176056293E-02 
2491	 8.32174261841507E-02 
2492	 8.30106240481095E-02 
2493	 8.27471914198303E-02 
2494	 8.25807398417657E-02 
2495	 8.27320868702906E-02 
2496	 8.32005903568969E-02 
2497	 8.34367604048503E-02 
2498	 8.35629931097949E-02 
2499	 0.083639649658763 
2500	 8.32705717205942E-02 
