Wavelength	MM_3100009.asd
350	 4.77043502147846E-02 
351	 4.52038038458593E-02 
352	 4.45554309240499E-02 
353	 4.95879648043977E-02 
354	 4.84296080899156E-02 
355	 4.53157389680691E-02 
356	 4.44887005668744E-02 
357	 4.81985490405107E-02 
358	 5.21164135443132E-02 
359	 5.32942666688687E-02 
360	 0.050971132182334 
361	 4.64838883657169E-02 
362	 0.046993471615031 
363	 4.87237042749855E-02 
364	 4.90750788763615E-02 
365	 4.97503856470844E-02 
366	 0.046488494088084 
367	 4.45787721537531E-02 
368	 0.048937144776586 
369	 5.37391513486859E-02 
370	 5.35780441700149E-02 
371	 5.10160343736203E-02 
372	 5.31853793961706E-02 
373	 5.34763735689097E-02 
374	 5.34169536917945E-02 
375	 5.40524699794731E-02 
376	 5.37221597979322E-02 
377	 5.35952781871269E-02 
378	 5.50280844593109E-02 
379	 0.058123652250267 
380	 5.82720367402075E-02 
381	 5.57247109225049E-02 
382	 5.43492013967131E-02 
383	 5.93796907919882E-02 
384	 5.99145014009552E-02 
385	 5.70019427876167E-02 
386	 5.43050701212198E-02 
387	 5.69718460348833E-02 
388	 5.93471605737182E-02 
389	 5.95617923458307E-02 
390	 5.81148302741321E-02 
391	 6.04236524100163E-02 
392	 0.060438181993639 
393	 5.91104385689597E-02 
394	 6.29976740342949E-02 
395	 6.42868339692801E-02 
396	 6.40692108267167E-02 
397	 6.43239245928266E-02 
398	 6.58841368528462E-02 
399	 6.56614347606235E-02 
400	 6.51153146562036E-02 
401	 6.64703103064991E-02 
402	 6.60309131208197E-02 
403	 6.50950824847314E-02 
404	 0.06496782057195 
405	 6.65330299644261E-02 
406	 6.85050951831549E-02 
407	 6.93670840323556E-02 
408	 6.85870419245736E-02 
409	 6.77748673065808E-02 
410	 6.82607449161183E-02 
411	 0.069030576963467 
412	 6.83890202850978E-02 
413	 6.85838004386583E-02 
414	 6.90624413148484E-02 
415	 6.94709409876317E-02 
416	 7.00652877722807E-02 
417	 6.96681058544136E-02 
418	 6.92834435941326E-02 
419	 6.98728968936082E-02 
420	 7.05507017022402E-02 
421	 7.02616417508767E-02 
422	 6.94975462471671E-02 
423	 6.96099125092464E-02 
424	 6.97353997583526E-02 
425	 6.99401515616241E-02 
426	 7.01858176248028E-02 
427	 7.00468257209253E-02 
428	 6.95179411231493E-02 
429	 6.94638738895692E-02 
430	 0.070477447873823 
431	 7.04444788160438E-02 
432	 7.02827536139353E-02 
433	 7.04954757444984E-02 
434	 7.10120029970362E-02 
435	 0.071213249760587 
436	 7.11973629079791E-02 
437	 7.11160313179795E-02 
438	 7.07226856172001E-02 
439	 7.10952953965623E-02 
440	 7.18391164274141E-02 
441	 7.19175266041119E-02 
442	 7.16853819606856E-02 
443	 7.16070309105244E-02 
444	 7.18089571970629E-02 
445	 7.18980439268131E-02 
446	 7.23021537497387E-02 
447	 7.27620986910572E-02 
448	 0.072903527855331 
449	 7.26673478967969E-02 
450	 7.29293393497681E-02 
451	 7.34815905810895E-02 
452	 7.32718941848016E-02 
453	 7.35507631337388E-02 
454	 7.39310679177771E-02 
455	 0.074053887396215 
456	 7.43926553630498E-02 
457	 7.42670387886808E-02 
458	 7.40067509599145E-02 
459	 7.43013358314918E-02 
460	 7.48019488269309E-02 
461	 7.49057377132236E-02 
462	 7.46596611839238E-02 
463	 7.50292075165991E-02 
464	 7.53439420893041E-02 
465	 7.54250585353834E-02 
466	 7.53111631425759E-02 
467	 0.075296426521659 
468	 7.55958803565084E-02 
469	 7.59972042771895E-02 
470	 7.59983544112505E-02 
471	 7.62113526359794E-02 
472	 0.076333083290007 
473	 7.62184901340304E-02 
474	 0.076467553257245 
475	 7.66390969303931E-02 
476	 7.66619036192445E-02 
477	 7.66800531712455E-02 
478	 7.71814692123782E-02 
479	 7.74055278900162E-02 
480	 7.71666120558346E-02 
481	 7.72010836540281E-02 
482	 7.74082241075025E-02 
483	 0.077641914800645 
484	 7.77933566030135E-02 
485	 7.80612493335827E-02 
486	 7.81836895891826E-02 
487	 7.81442522002384E-02 
488	 7.81375555852246E-02 
489	 7.81564873682899E-02 
490	 7.83212227646886E-02 
491	 7.86132162437328E-02 
492	 7.86319651784039E-02 
493	 7.86857946378683E-02 
494	 7.88255502289572E-02 
495	 7.89825402649391E-02 
496	 7.91623742292587E-02 
497	 7.92451082180639E-02 
498	 7.92641998443639E-02 
499	 7.95021947755921E-02 
500	 7.95036147959428E-02 
501	 7.94312796704028E-02 
502	 7.95452600577401E-02 
503	 7.96815911578453E-02 
504	 7.97472068176935E-02 
505	 7.97711624926694E-02 
506	 0.079879645175168 
507	 7.98353959606698E-02 
508	 7.98757455583222E-02 
509	 8.01165010179749E-02 
510	 8.01164841413342E-02 
511	 8.00281996071982E-02 
512	 7.99771102641243E-02 
513	 8.00638621048737E-02 
514	 8.02627922764719E-02 
515	 8.03795125403891E-02 
516	 8.03589296335246E-02 
517	 8.04041150883126E-02 
518	 8.04537873543011E-02 
519	 8.04833458672996E-02 
520	 8.05074912783022E-02 
521	 8.07248031454151E-02 
522	 8.07787683636141E-02 
523	 8.06921909376178E-02 
524	 0.080900130584346 
525	 8.09125348438122E-02 
526	 8.08924417328787E-02 
527	 0.081018197284601 
528	 8.10458471072861E-02 
529	 8.10405232522984E-02 
530	 0.081085503785713 
531	 8.12423186986759E-02 
532	 8.11369032008112E-02 
533	 8.11251366097926E-02 
534	 8.13635444772386E-02 
535	 8.13843615328482E-02 
536	 8.13808470944706E-02 
537	 8.13979547217826E-02 
538	 8.14291521222028E-02 
539	 0.081457893203702 
540	 8.15020213886495E-02 
541	 8.15848885408393E-02 
542	 8.17379952693631E-02 
543	 8.17578837231146E-02 
544	 8.17526747742931E-02 
545	 8.18580097085071E-02 
546	 8.19518261164008E-02 
547	 8.19997807237131E-02 
548	 8.20142690006082E-02 
549	 8.20460121837877E-02 
550	 8.21309282344827E-02 
551	 8.21965845883623E-02 
552	 8.22176645352515E-02 
553	 8.23610854647963E-02 
554	 8.23932081251584E-02 
555	 8.23778296932385E-02 
556	 8.25106566305994E-02 
557	 8.26340557429272E-02 
558	 8.27611773860796E-02 
559	 0.082898916093442 
560	 8.30149599166794E-02 
561	 8.30286438039436E-02 
562	 8.30792397521832E-02 
563	 8.32971335137729E-02 
564	 8.33228149240649E-02 
565	 8.32745659757428E-02 
566	 8.32426500372527E-02 
567	 8.32524362138945E-02 
568	 8.34061397785184E-02 
569	 8.36243989241889E-02 
570	 8.38072199357452E-02 
571	 8.39485627235713E-02 
572	 8.41078804356244E-02 
573	 8.42563475254092E-02 
574	 8.43160015790361E-02 
575	 0.084443766986711 
576	 0.084584860289958 
577	 8.46726663900538E-02 
578	 8.46779385441621E-02 
579	 8.47359287944393E-02 
580	 8.47886467341152E-02 
581	 8.47170133313552E-02 
582	 8.46130981148477E-02 
583	 8.45575539989064E-02 
584	 8.45951488705206E-02 
585	 8.47251587838577E-02 
586	 8.48976867959931E-02 
587	 8.50697074171159E-02 
588	 8.52174540900743E-02 
589	 8.53855830471593E-02 
590	 8.55408346495586E-02 
591	 0.085677572153214 
592	 8.58188906234536E-02 
593	 8.59967068238477E-02 
594	 0.086154954333786 
595	 8.62542301026135E-02 
596	 8.63568984287729E-02 
597	 8.63548658967156E-02 
598	 8.62886352408224E-02 
599	 8.62722831785271E-02 
600	 8.62769592189961E-02 
601	 8.63037888105664E-02 
602	 8.63399948259193E-02 
603	 8.63405451207272E-02 
604	 8.63866090811971E-02 
605	 8.64372738768557E-02 
606	 8.64346231182785E-02 
607	 8.64786928289132E-02 
608	 8.65631822884608E-02 
609	 8.66674868257824E-02 
610	 8.67623452892773E-02 
611	 8.68044257863511E-02 
612	 8.68261487698239E-02 
613	 8.68572374481489E-02 
614	 8.68444496988661E-02 
615	 8.68291467165788E-02 
616	 8.68427177827464E-02 
617	 8.69010613154049E-02 
618	 8.69359689704301E-02 
619	 8.69441372178567E-02 
620	 8.69351260850416E-02 
621	 8.69156890332856E-02 
622	 8.69368277258605E-02 
623	 8.69719474366901E-02 
624	 0.086975458005554 
625	 8.70230501036517E-02 
626	 8.70467532580983E-02 
627	 8.70335326360901E-02 
628	 8.70564780695522E-02 
629	 8.70644622188155E-02 
630	 8.71057841323453E-02 
631	 0.087203779850322 
632	 8.71861708288509E-02 
633	 8.71412008254353E-02 
634	 8.71299144128495E-02 
635	 8.71785697372997E-02 
636	 0.087207061800465 
637	 8.71942506731051E-02 
638	 8.71601502015195E-02 
639	 8.71936272732508E-02 
640	 8.72596286601498E-02 
641	 0.087297098424521 
642	 8.72633212998771E-02 
643	 8.73749650976244E-02 
644	 8.74283218582005E-02 
645	 8.73691861273807E-02 
646	 8.74166494173512E-02 
647	 8.74467618477176E-02 
648	 8.74732453091595E-02 
649	 8.75205634698375E-02 
650	 8.74906845100516E-02 
651	 8.74980945698084E-02 
652	 8.75523473719681E-02 
653	 0.087571462885723 
654	 8.76328907898779E-02 
655	 0.087627563984755 
656	 8.75361326934739E-02 
657	 8.76515189615729E-02 
658	 8.77447164647348E-02 
659	 8.77748791025846E-02 
660	 0.087790725115038 
661	 8.78005245352482E-02 
662	 8.78324671596622E-02 
663	 8.78850982841418E-02 
664	 8.79148287579382E-02 
665	 8.78979917845902E-02 
666	 8.78814753574119E-02 
667	 8.79114961119758E-02 
668	 0.087936405570183 
669	 8.79671671968068E-02 
670	 8.79970339171771E-02 
671	 8.80073208357532E-02 
672	 8.80464141875346E-02 
673	 8.81194425963777E-02 
674	 8.81931707658606E-02 
675	 0.088153198758204 
676	 0.08816705724971 
677	 8.82108759444557E-02 
678	 0.088198492197838 
679	 8.82488010390468E-02 
680	 8.83027225223485E-02 
681	 8.83269752210503E-02 
682	 8.83414103909898E-02 
683	 8.83574212863475E-02 
684	 8.84008522283161E-02 
685	 8.84717381686008E-02 
686	 8.84661515364537E-02 
687	 8.84976427985638E-02 
688	 8.85605843423082E-02 
689	 8.85668495508456E-02 
690	 8.85473569518969E-02 
691	 8.85346172290465E-02 
692	 8.85437728606319E-02 
693	 8.85564636410444E-02 
694	 8.85563699767146E-02 
695	 8.85594603118007E-02 
696	 8.85871258681277E-02 
697	 8.86160588841941E-02 
698	 8.86388009862058E-02 
699	 8.86569831355786E-02 
700	 8.86807685628595E-02 
701	 8.87192494931401E-02 
702	 8.87580279150469E-02 
703	 8.87749657728541E-02 
704	 8.87332253888751E-02 
705	 8.87384894800837E-02 
706	 8.87513007915705E-02 
707	 8.86810746877578E-02 
708	 8.86982410001353E-02 
709	 0.088751925543428 
710	 8.87823220796301E-02 
711	 8.87506890225879E-02 
712	 8.87646681022197E-02 
713	 8.87762058219239E-02 
714	 8.87319066328134E-02 
715	 8.87328025296204E-02 
716	 8.87567681149362E-02 
717	 8.87675030910162E-02 
718	 8.87291143427719E-02 
719	 8.87227604564523E-02 
720	 0.08871319527056 
721	 8.86817860577853E-02 
722	 8.86751210301566E-02 
723	 8.86762492569661E-02 
724	 8.86755209909015E-02 
725	 8.86635419610336E-02 
726	 8.86204803527171E-02 
727	 8.86069012939239E-02 
728	 8.86229961186772E-02 
729	 8.86105527521106E-02 
730	 8.85607259900244E-02 
731	 8.85246941330285E-02 
732	 8.85247426059726E-02 
733	 8.84853911775624E-02 
734	 0.088463024151512 
735	 0.08843861220246 
736	 8.83769355514601E-02 
737	 8.83400576505739E-02 
738	 8.83128134274552E-02 
739	 8.82901331727118E-02 
740	 8.82828489557276E-02 
741	 8.82416007138816E-02 
742	 8.82129139704526E-02 
743	 8.82200750691152E-02 
744	 8.81650135916339E-02 
745	 8.81066336349895E-02 
746	 8.80673535930632E-02 
747	 8.80471037049401E-02 
748	 8.80208601150715E-02 
749	 8.79741372775613E-02 
750	 8.79143157547133E-02 
751	 8.78726729949405E-02 
752	 8.78470410092006E-02 
753	 8.78089242049107E-02 
754	 8.77412028060453E-02 
755	 8.76749191423478E-02 
756	 8.76297532194598E-02 
757	 8.76029904194029E-02 
758	 8.75778760169023E-02 
759	 8.75440690323943E-02 
760	 8.74884242795672E-02 
761	 8.74198990793851E-02 
762	 8.73735019521898E-02 
763	 8.73475422602478E-02 
764	 8.73245407467433E-02 
765	 8.72872254072131E-02 
766	 8.72309312600733E-02 
767	 8.71739635977788E-02 
768	 8.71432608596617E-02 
769	 8.71497216764189E-02 
770	 8.70703026669028E-02 
771	 8.69923002228789E-02 
772	 8.69635407341268E-02 
773	 8.69595208422701E-02 
774	 8.69257374740348E-02 
775	 8.68598769100436E-02 
776	 8.67851726718271E-02 
777	 8.67582499396622E-02 
778	 8.66935099543738E-02 
779	 8.66319588037879E-02 
780	 8.66434847327744E-02 
781	 0.086582999134851 
782	 8.65312595019335E-02 
783	 8.65048600586997E-02 
784	 8.64380275597721E-02 
785	 8.63856171530983E-02 
786	 0.086342007255108 
787	 8.62943377697868E-02 
788	 8.62372626776023E-02 
789	 8.62163260953014E-02 
790	 8.61889510150982E-02 
791	 8.61070642563853E-02 
792	 0.086086604694612 
793	 8.60344568846569E-02 
794	 8.59598713540306E-02 
795	 8.59565878840919E-02 
796	 8.58912731021988E-02 
797	 8.58344974210143E-02 
798	 8.58205324836761E-02 
799	 8.57579369173736E-02 
800	 8.57109840965175E-02 
801	 8.56832987877857E-02 
802	 8.56547589727126E-02 
803	 8.55870540884909E-02 
804	 8.55378525301938E-02 
805	 8.55061349216733E-02 
806	 8.54559528462262E-02 
807	 8.54113052105233E-02 
808	 8.53606401731998E-02 
809	 8.53014766770877E-02 
810	 8.52477113293325E-02 
811	 8.52386908020045E-02 
812	 8.52068030484278E-02 
813	 0.085116606072802 
814	 8.50848641032698E-02 
815	 8.50594552912388E-02 
816	 8.50154288464504E-02 
817	 0.084951751665216 
818	 8.49387558157781E-02 
819	 8.49064130471609E-02 
820	 8.48396155952436E-02 
821	 0.084778539708063 
822	 8.47413289674101E-02 
823	 8.47335484152187E-02 
824	 8.47368560143518E-02 
825	 8.47013022735527E-02 
826	 8.46455008696474E-02 
827	 8.45891561857233E-02 
828	 8.45457905606326E-02 
829	 8.45060974950844E-02 
830	 8.44623725717129E-02 
831	 8.44186561409465E-02 
832	 8.43843260927643E-02 
833	 8.43604753325697E-02 
834	 8.43392365977207E-02 
835	 8.43034012242396E-02 
836	 8.42360946100832E-02 
837	 8.42320386065464E-02 
838	 0.084223888696322 
839	 8.41630002401964E-02 
840	 8.40783150814887E-02 
841	 8.40250419566432E-02 
842	 8.40069820961401E-02 
843	 8.40059025421054E-02 
844	 8.39952883367239E-02 
845	 8.39752954824162E-02 
846	 8.39402895709829E-02 
847	 8.38928596344917E-02 
848	 8.38927796967136E-02 
849	 8.38524162709002E-02 
850	 8.37717854382444E-02 
851	 8.37284296796609E-02 
852	 8.36971254722131E-02 
853	 8.36942349073263E-02 
854	 0.083699911776053 
855	 0.08363974109649 
856	 8.36064078002013E-02 
857	 8.36206398009895E-02 
858	 8.36517521725691E-02 
859	 8.35831478405846E-02 
860	 0.083542649544923 
861	 8.35385554834705E-02 
862	 8.35325877961138E-02 
863	 8.34919742020337E-02 
864	 0.083456498297138 
865	 8.34296993340884E-02 
866	 0.083395310348138 
867	 8.33809606677591E-02 
868	 8.33666334815174E-02 
869	 8.33396513788168E-02 
870	 8.33027395014296E-02 
871	 8.32981464180733E-02 
872	 8.32925281721276E-02 
873	 8.32701258198146E-02 
874	 8.32639996470907E-02 
875	 8.32451403800055E-02 
876	 8.32071497269198E-02 
877	 8.31544702995723E-02 
878	 8.30971552503869E-02 
879	 8.30948070536559E-02 
880	 8.31244389145243E-02 
881	 8.31358133820763E-02 
882	 8.31084476536485E-02 
883	 8.31126583274727E-02 
884	 8.31135297016908E-02 
885	 8.30448528298858E-02 
886	 8.30438916041211E-02 
887	 8.30232895012346E-02 
888	 8.29813520170586E-02 
889	 8.29907322718444E-02 
890	 8.29688158220305E-02 
891	 8.29376167824639E-02 
892	 8.29186752274995E-02 
893	 8.29135849342655E-02 
894	 8.28910068311417E-02 
895	 8.28673872129397E-02 
896	 8.28606681685557E-02 
897	 8.28732357550995E-02 
898	 8.28713696403625E-02 
899	 8.28638783456018E-02 
900	 8.28658980156167E-02 
901	 8.28807678882556E-02 
902	 8.28439434979657E-02 
903	 8.28022075131716E-02 
904	 8.28146950020412E-02 
905	 8.28328151252956E-02 
906	 8.28149010693894E-02 
907	 8.27807709061123E-02 
908	 8.27768309361522E-02 
909	 8.28181991477039E-02 
910	 8.27751052062599E-02 
911	 8.26971779560164E-02 
912	 8.27251432588592E-02 
913	 8.27178518453664E-02 
914	 8.26996757745107E-02 
915	 0.082685602203567 
916	 8.26674536357759E-02 
917	 8.26078109791294E-02 
918	 8.25992799126525E-02 
919	 8.26441300290071E-02 
920	 8.26314918242463E-02 
921	 8.26191631884059E-02 
922	 8.26377582024753E-02 
923	 0.082682298764856 
924	 8.27035809148407E-02 
925	 8.26651114733132E-02 
926	 8.26648057986822E-02 
927	 8.27146792543261E-02 
928	 8.26222787837124E-02 
929	 8.26178219230773E-02 
930	 8.26340254152181E-02 
931	 8.26065149261743E-02 
932	 8.26609622933858E-02 
933	 8.26337691773858E-02 
934	 0.082615486926555 
935	 8.26821586143765E-02 
936	 8.26435911935502E-02 
937	 8.26440175292622E-02 
938	 8.26397860903843E-02 
939	 8.25789335575637E-02 
940	 8.26007664260827E-02 
941	 8.26108964529367E-02 
942	 8.26297975937803E-02 
943	 8.26791735794418E-02 
944	 0.082596009197512 
945	 8.25693191302923E-02 
946	 8.26150951027424E-02 
947	 8.26508495254307E-02 
948	 8.25770728090173E-02 
949	 8.25327708227326E-02 
950	 8.25513534754463E-02 
951	 8.25905852469673E-02 
952	 0.082576838360342 
953	 8.25788790774167E-02 
954	 0.082613140933654 
955	 0.082651009703948 
956	 8.26375868775659E-02 
957	 8.25584682124415E-02 
958	 8.24928761988399E-02 
959	 8.25390308311957E-02 
960	 8.25906374562475E-02 
961	 8.25997398045525E-02 
962	 0.082560713371464 
963	 8.25037422101532E-02 
964	 8.24770663078057E-02 
965	 8.24783283346107E-02 
966	 8.25238318020688E-02 
967	 8.26134679437632E-02 
968	 8.25758776217196E-02 
969	 8.25475879343371E-02 
970	 8.25301768388831E-02 
971	 8.24552769780849E-02 
972	 8.25128020110011E-02 
973	 8.25741985078257E-02 
974	 8.25961103390334E-02 
975	 8.26069006073946E-02 
976	 8.25776345732455E-02 
977	 8.26058833174815E-02 
978	 8.26100781030243E-02 
979	 8.24752090789585E-02 
980	 8.26038619878012E-02 
981	 8.27087785862357E-02 
982	 8.26570654308962E-02 
983	 8.25074344892498E-02 
984	 8.25685470004239E-02 
985	 8.25263584484808E-02 
986	 8.24179330594649E-02 
987	 8.24562516797977E-02 
988	 8.25392374564908E-02 
989	 8.26459352211929E-02 
990	 8.26060206022166E-02 
991	 8.23528003508286E-02 
992	 8.25815582101391E-02 
993	 8.25619656822881E-02 
994	 8.24251988951068E-02 
995	 8.25475980328991E-02 
996	 8.24642043015566E-02 
997	 8.24875119837701E-02 
998	 8.25175312540376E-02 
999	 8.24306437545367E-02 
1000	 8.26457282198937E-02 
1001	 8.10012768857375E-02 
1002	 8.09689790096709E-02 
1003	 8.10020283432556E-02 
1004	 8.10147555098555E-02 
1005	 8.10747476094568E-02 
1006	 0.081091920566771 
1007	 8.10789650696236E-02 
1008	 8.10495896333552E-02 
1009	 8.10338497982595E-02 
1010	 8.10503305829742E-02 
1011	 8.10796511011886E-02 
1012	 8.11106345868263E-02 
1013	 8.11064268706639E-02 
1014	 8.10333515101247E-02 
1015	 8.09660569024098E-02 
1016	 8.09152525364976E-02 
1017	 8.08951683487913E-02 
1018	 8.09120059071687E-02 
1019	 8.09854628218052E-02 
1020	 8.10196452118113E-02 
1021	 8.10042660567147E-02 
1022	 0.080966292108544 
1023	 8.08871617999642E-02 
1024	 8.08096244326932E-02 
1025	 8.07750333446295E-02 
1026	 8.07723582824918E-02 
1027	 8.08301353623911E-02 
1028	 8.08529253014866E-02 
1029	 8.08122115873029E-02 
1030	 8.08090700457748E-02 
1031	 8.07910014413514E-02 
1032	 8.07414699931454E-02 
1033	 8.07029590060056E-02 
1034	 8.07014451974283E-02 
1035	 0.0806620458718 
1036	 0.080612889333909 
1037	 8.05776279977687E-02 
1038	 8.05762681828089E-02 
1039	 8.05858396400989E-02 
1040	 8.05793570824705E-02 
1041	 8.05882897404928E-02 
1042	 8.06041751256682E-02 
1043	 8.06042844841212E-02 
1044	 0.080594739992813 
1045	 8.05880812254136E-02 
1046	 8.05777398231672E-02 
1047	 8.05604147168299E-02 
1048	 8.05343439548364E-02 
1049	 8.05022320117431E-02 
1050	 8.04717935183875E-02 
1051	 8.04743200134781E-02 
1052	 8.04518258366678E-02 
1053	 8.03878344949122E-02 
1054	 8.04239800282512E-02 
1055	 8.04287512380061E-02 
1056	 8.04006832943845E-02 
1057	 8.04333498777124E-02 
1058	 8.05646098743914E-02 
1059	 8.05882783412988E-02 
1060	 8.05664427401324E-02 
1061	 8.05966214815922E-02 
1062	 8.06019030235477E-02 
1063	 8.05996230639741E-02 
1064	 8.06362465479089E-02 
1065	 8.06709201983278E-02 
1066	 8.06509090434099E-02 
1067	 8.06412636593577E-02 
1068	 8.06863698797027E-02 
1069	 8.07110762535226E-02 
1070	 8.07264930117909E-02 
1071	 8.07727666674948E-02 
1072	 8.07844901418473E-02 
1073	 8.07424660081192E-02 
1074	 8.07308857871866E-02 
1075	 8.07345000235341E-02 
1076	 8.07266835149201E-02 
1077	 8.06945424919054E-02 
1078	 8.06553725724399E-02 
1079	 8.06710338948468E-02 
1080	 8.06741125459932E-02 
1081	 8.06521247108804E-02 
1082	 8.06890977388054E-02 
1083	 8.07009274620158E-02 
1084	 8.06952082962416E-02 
1085	 8.06821255950231E-02 
1086	 8.06695755517494E-02 
1087	 8.06409575859458E-02 
1088	 8.05886131669652E-02 
1089	 8.05359676267556E-02 
1090	 8.05105462794637E-02 
1091	 0.080534178931021 
1092	 8.05439544391203E-02 
1093	 8.05413584002249E-02 
1094	 8.05333316142767E-02 
1095	 8.05087533876003E-02 
1096	 8.04952927361194E-02 
1097	 8.04872028854903E-02 
1098	 8.04909218354166E-02 
1099	 8.05152900330976E-02 
1100	 8.05200018611092E-02 
1101	 8.05340345174304E-02 
1102	 8.05263445407327E-02 
1103	 8.04918449069233E-02 
1104	 8.04634932330748E-02 
1105	 8.04581167293357E-02 
1106	 8.04474319048717E-02 
1107	 8.04484084301447E-02 
1108	 8.04701531188404E-02 
1109	 8.04630333412721E-02 
1110	 8.04609849708383E-02 
1111	 8.04725383397521E-02 
1112	 8.04932725031831E-02 
1113	 8.04953297227943E-02 
1114	 8.05070704543521E-02 
1115	 8.05116203042619E-02 
1116	 8.04926436535891E-02 
1117	 8.04940010230374E-02 
1118	 8.05046619876049E-02 
1119	 8.05151367931152E-02 
1120	 8.05313793641974E-02 
1121	 8.05503138108746E-02 
1122	 8.05740809242529E-02 
1123	 8.05846444054326E-02 
1124	 8.06093598441313E-02 
1125	 8.06379294353396E-02 
1126	 8.06652114631674E-02 
1127	 0.080720356539018 
1128	 8.07274062651965E-02 
1129	 0.080698241491996 
1130	 8.06961576603107E-02 
1131	 8.06672102437067E-02 
1132	 8.06679045479215E-02 
1133	 8.07117661330257E-02 
1134	 0.080730797232675 
1135	 8.07506868686434E-02 
1136	 8.07612574642054E-02 
1137	 0.080748267675001 
1138	 8.07426510885285E-02 
1139	 8.07464158876774E-02 
1140	 8.07588130527164E-02 
1141	 0.080752454638398 
1142	 8.07288994672968E-02 
1143	 8.07373573652786E-02 
1144	 0.080760812611998 
1145	 8.07691256636452E-02 
1146	 8.08004357509955E-02 
1147	 8.08111835023211E-02 
1148	 8.07796053087852E-02 
1149	 8.07726991608014E-02 
1150	 0.080770468589493 
1151	 8.07948156304307E-02 
1152	 8.08074026159824E-02 
1153	 8.08013404639296E-02 
1154	 8.08053090732048E-02 
1155	 8.08036994104807E-02 
1156	 8.08071390655732E-02 
1157	 8.08206481655119E-02 
1158	 8.08222135010734E-02 
1159	 8.08069942454515E-02 
1160	 8.08114456370946E-02 
1161	 8.08365329992991E-02 
1162	 8.08358810707863E-02 
1163	 8.08262114315083E-02 
1164	 8.08249361734091E-02 
1165	 8.08013980184688E-02 
1166	 8.07943076603639E-02 
1167	 8.08314751962812E-02 
1168	 8.08453431755201E-02 
1169	 8.08516554555794E-02 
1170	 8.08607685089166E-02 
1171	 8.08537515046791E-02 
1172	 8.08166535713643E-02 
1173	 8.08121506679464E-02 
1174	 8.08159794449658E-02 
1175	 8.08186613694479E-02 
1176	 0.08082569421484 
1177	 8.08442906895729E-02 
1178	 8.08775950379537E-02 
1179	 8.08962072178162E-02 
1180	 8.09162525698773E-02 
1181	 8.09409852086611E-02 
1182	 8.09628231563589E-02 
1183	 8.09760722172939E-02 
1184	 0.080984920693456 
1185	 8.09981762828128E-02 
1186	 8.10096692190245E-02 
1187	 8.10016766610152E-02 
1188	 8.10157782425977E-02 
1189	 8.10557405620427E-02 
1190	 8.10715622701837E-02 
1191	 8.10733954033254E-02 
1192	 8.10897872477978E-02 
1193	 8.11052544158517E-02 
1194	 8.11213103142255E-02 
1195	 0.081153581924868 
1196	 8.11729356836982E-02 
1197	 8.11731318803507E-02 
1198	 8.11867833032921E-02 
1199	 8.12043330417777E-02 
1200	 8.12261442773406E-02 
1201	 8.12436271273112E-02 
1202	 8.12662846697293E-02 
1203	 8.12855570058095E-02 
1204	 8.13001787492718E-02 
1205	 8.13151035167785E-02 
1206	 8.13254662582976E-02 
1207	 8.13488926427328E-02 
1208	 8.13787091004644E-02 
1209	 8.14037817259441E-02 
1210	 8.14399517513992E-02 
1211	 8.14686415748866E-02 
1212	 8.14890142647726E-02 
1213	 8.15087181515316E-02 
1214	 8.15300069648267E-02 
1215	 8.15478743528206E-02 
1216	 8.15625143320474E-02 
1217	 8.15707981571373E-02 
1218	 8.15821322778361E-02 
1219	 0.081590254545194 
1220	 8.16053102490085E-02 
1221	 8.16225386750616E-02 
1222	 8.16407663947258E-02 
1223	 8.16585150582967E-02 
1224	 0.081686959557908 
1225	 8.17306517668057E-02 
1226	 8.17558184794254E-02 
1227	 8.17825537921943E-02 
1228	 8.18036588269707E-02 
1229	 8.18007111894353E-02 
1230	 8.18135935065398E-02 
1231	 8.18384623611508E-02 
1232	 8.18587474315679E-02 
1233	 8.18795889964122E-02 
1234	 8.19054202998679E-02 
1235	 8.19209404991073E-02 
1236	 8.19323406436868E-02 
1237	 8.19425404937204E-02 
1238	 8.19491429633675E-02 
1239	 0.081953174565328 
1240	 8.19430655865411E-02 
1241	 8.19562705429146E-02 
1242	 8.19804051691577E-02 
1243	 8.19996292641794E-02 
1244	 8.20384352122374E-02 
1245	 8.20625781730018E-02 
1246	 0.082068446825153 
1247	 0.082083604856404 
1248	 8.21084803595411E-02 
1249	 8.21213007622287E-02 
1250	 8.21205221791524E-02 
1251	 8.21407135156192E-02 
1252	 8.21474304113108E-02 
1253	 8.21391949852462E-02 
1254	 0.082151228671149 
1255	 8.21744469978273E-02 
1256	 8.21900254722042E-02 
1257	 0.082212817558611 
1258	 8.22292277826031E-02 
1259	 8.22410275241251E-02 
1260	 8.22507588338502E-02 
1261	 8.22613189414373E-02 
1262	 8.22661608115312E-02 
1263	 8.22585890222222E-02 
1264	 8.22607785525643E-02 
1265	 8.22763759953636E-02 
1266	 8.22743803386405E-02 
1267	 8.22723696676202E-02 
1268	 0.082247987863993 
1269	 8.22487618258543E-02 
1270	 8.22419590802467E-02 
1271	 8.22508101324634E-02 
1272	 8.22821835894915E-02 
1273	 8.23100324017985E-02 
1274	 8.23346029121082E-02 
1275	 8.23679748149259E-02 
1276	 8.24159103339324E-02 
1277	 8.24558688571719E-02 
1278	 8.24956804017164E-02 
1279	 8.25346873660371E-02 
1280	 8.25693358092879E-02 
1281	 8.26135444639237E-02 
1282	 0.082662124549169 
1283	 8.27083935445609E-02 
1284	 8.27533511537819E-02 
1285	 8.28119612842575E-02 
1286	 8.28686421033922E-02 
1287	 8.29182404668278E-02 
1288	 8.29656156365515E-02 
1289	 0.083009935772616 
1290	 8.30608440001742E-02 
1291	 8.31115156396976E-02 
1292	 0.083161290063542 
1293	 8.32168198411624E-02 
1294	 8.32715898777298E-02 
1295	 8.33237518259774E-02 
1296	 8.33693500957028E-02 
1297	 8.34268347828692E-02 
1298	 8.34605690698085E-02 
1299	 8.34710562431767E-02 
1300	 8.34911002701409E-02 
1301	 8.35048272233774E-02 
1302	 0.083514975435686 
1303	 8.35285810296679E-02 
1304	 0.083531885358267 
1305	 8.35282541686253E-02 
1306	 8.35383143072213E-02 
1307	 0.083550223032846 
1308	 8.35484094247922E-02 
1309	 8.35532370240838E-02 
1310	 8.35569377172629E-02 
1311	 8.35574988320774E-02 
1312	 8.35554372188256E-02 
1313	 8.35656064532879E-02 
1314	 8.35802010667963E-02 
1315	 8.35865187226686E-02 
1316	 8.36045619539463E-02 
1317	 8.36052658418747E-02 
1318	 8.35812367136954E-02 
1319	 8.35778065505037E-02 
1320	 8.35758386987667E-02 
1321	 8.35817249397604E-02 
1322	 8.36074656453834E-02 
1323	 0.083618803779817 
1324	 8.36139199987288E-02 
1325	 8.36105117652072E-02 
1326	 8.36167662945072E-02 
1327	 8.36163762641686E-02 
1328	 8.36257613143987E-02 
1329	 8.36495362820054E-02 
1330	 8.36521080119099E-02 
1331	 8.36284326258103E-02 
1332	 8.36363549835141E-02 
1333	 8.36519342545519E-02 
1334	 8.36675041754725E-02 
1335	 8.37036701045363E-02 
1336	 8.37235801592243E-02 
1337	 8.37316485271263E-02 
1338	 8.37457202672694E-02 
1339	 8.37526557919017E-02 
1340	 8.37711125041691E-02 
1341	 8.38003403420751E-02 
1342	 8.38273427020256E-02 
1343	 8.38612839371039E-02 
1344	 0.08389001715734 
1345	 8.39180028242542E-02 
1346	 8.39371406011191E-02 
1347	 8.39607818437147E-02 
1348	 8.39922660194806E-02 
1349	 8.40061402748315E-02 
1350	 8.40365694183194E-02 
1351	 8.40716581106657E-02 
1352	 8.41042993660521E-02 
1353	 8.41442590430785E-02 
1354	 8.42073694373486E-02 
1355	 8.42442084357198E-02 
1356	 8.42697781522561E-02 
1357	 8.43007910380013E-02 
1358	 8.43233999732284E-02 
1359	 8.43486359145322E-02 
1360	 8.43724220100488E-02 
1361	 8.44045669585694E-02 
1362	 8.44453771431259E-02 
1363	 8.44756795261565E-02 
1364	 8.45152899863232E-02 
1365	 8.45380569000952E-02 
1366	 8.45407482204246E-02 
1367	 8.45451579966051E-02 
1368	 0.084559329251279 
1369	 8.45765709006394E-02 
1370	 8.45926196247175E-02 
1371	 8.45971154133197E-02 
1372	 8.45870572068942E-02 
1373	 8.45714621429939E-02 
1374	 8.45595963994149E-02 
1375	 8.45424536582353E-02 
1376	 8.45356695342785E-02 
1377	 8.45356504852104E-02 
1378	 8.45290754326525E-02 
1379	 8.45271165938044E-02 
1380	 8.45221686401973E-02 
1381	 8.45131478582639E-02 
1382	 8.45029908341936E-02 
1383	 8.44910718686325E-02 
1384	 8.44778477401707E-02 
1385	 8.44598935822039E-02 
1386	 8.44450328769984E-02 
1387	 8.44465150118203E-02 
1388	 0.084425263011037 
1389	 8.43926531959491E-02 
1390	 8.43563326716549E-02 
1391	 8.43086354059218E-02 
1392	 8.42421865693984E-02 
1393	 8.41886834447334E-02 
1394	 8.41502060359353E-02 
1395	 8.41161559240791E-02 
1396	 8.40760438346388E-02 
1397	 8.40252469915694E-02 
1398	 8.39707849193775E-02 
1399	 8.39107439877451E-02 
1400	 8.38412505589711E-02 
1401	 8.37703744728802E-02 
1402	 8.36940404591916E-02 
1403	 8.36234574075942E-02 
1404	 8.35407670319872E-02 
1405	 8.34750799006714E-02 
1406	 0.083424808651927 
1407	 8.33681058068951E-02 
1408	 8.33177981769903E-02 
1409	 8.32650968453861E-02 
1410	 8.32070160773125E-02 
1411	 0.083159141379107 
1412	 8.31212015804133E-02 
1413	 8.30678900463321E-02 
1414	 8.30333830783842E-02 
1415	 8.29930246120289E-02 
1416	 8.29527734406811E-02 
1417	 8.29428507474698E-02 
1418	 8.29304790463117E-02 
1419	 0.082924284059738 
1420	 8.29257344645708E-02 
1421	 8.29191216244824E-02 
1422	 8.29126698482084E-02 
1423	 8.29093918477362E-02 
1424	 8.29059283819741E-02 
1425	 8.28951830763806E-02 
1426	 8.28993107035206E-02 
1427	 8.29147848536348E-02 
1428	 8.29258193092109E-02 
1429	 8.29460887559252E-02 
1430	 8.29581962003579E-02 
1431	 8.29591986758287E-02 
1432	 8.29714483980344E-02 
1433	 8.29865754062836E-02 
1434	 8.30073661817532E-02 
1435	 8.30403277918466E-02 
1436	 8.30626946217652E-02 
1437	 8.30787240742062E-02 
1438	 8.31010675592502E-02 
1439	 8.31214973944631E-02 
1440	 8.31444470177373E-02 
1441	 8.31794295629693E-02 
1442	 8.32178762798478E-02 
1443	 8.32439883226916E-02 
1444	 8.32691651793279E-02 
1445	 8.32979940638418E-02 
1446	 8.33199110530317E-02 
1447	 8.33518647145113E-02 
1448	 8.33931534462856E-02 
1449	 8.34226320407899E-02 
1450	 0.083450925626243 
1451	 8.34752285776795E-02 
1452	 8.34901205305343E-02 
1453	 8.35138390112281E-02 
1454	 0.083539702393148 
1455	 8.35660271916311E-02 
1456	 8.35960187212948E-02 
1457	 8.36246951103903E-02 
1458	 8.36545953353114E-02 
1459	 8.36803641526208E-02 
1460	 8.37028881101567E-02 
1461	 0.083730115148513 
1462	 8.37519617642785E-02 
1463	 8.37821775077185E-02 
1464	 8.38253412070128E-02 
1465	 8.38604990782158E-02 
1466	 8.38891084781088E-02 
1467	 8.39289211856323E-02 
1468	 8.39780783008636E-02 
1469	 8.40151366132363E-02 
1470	 0.084049723800845 
1471	 8.40926895180512E-02 
1472	 8.41240966626491E-02 
1473	 8.41544171438474E-02 
1474	 8.41921773531277E-02 
1475	 8.42312057459185E-02 
1476	 8.42688873560201E-02 
1477	 8.43087638230946E-02 
1478	 8.43589279385763E-02 
1479	 8.44063628288732E-02 
1480	 8.44420023683466E-02 
1481	 8.44764251458663E-02 
1482	 8.45150211877116E-02 
1483	 8.45512794065499E-02 
1484	 8.45853734911198E-02 
1485	 8.46195966186579E-02 
1486	 8.46609275579418E-02 
1487	 8.47022067771976E-02 
1488	 8.47445355299352E-02 
1489	 8.47982094874425E-02 
1490	 8.48453156186019E-02 
1491	 8.48795742741366E-02 
1492	 0.084924031565142 
1493	 8.49811525753409E-02 
1494	 8.50247050191493E-02 
1495	 8.50666657876323E-02 
1496	 8.51061101193837E-02 
1497	 8.51358475832224E-02 
1498	 8.51682414970694E-02 
1499	 8.52008245844616E-02 
1500	 8.52350623962698E-02 
1501	 0.08526649952986 
1502	 8.53007365953706E-02 
1503	 8.53413545329699E-02 
1504	 8.53741674371092E-02 
1505	 8.54069304394758E-02 
1506	 8.54412638744496E-02 
1507	 8.54785007610068E-02 
1508	 8.55153418386739E-02 
1509	 8.55513404356685E-02 
1510	 8.55983660780497E-02 
1511	 8.56184620273821E-02 
1512	 8.56274364049646E-02 
1513	 8.56518365723415E-02 
1514	 8.56720752229136E-02 
1515	 8.57093184938324E-02 
1516	 8.57610171822476E-02 
1517	 8.57998964684901E-02 
1518	 8.58351065286051E-02 
1519	 0.085866027776708 
1520	 8.58933814060057E-02 
1521	 8.59176469717895E-02 
1522	 8.59334398472202E-02 
1523	 8.59587745056355E-02 
1524	 8.59904997996017E-02 
1525	 8.60130434701295E-02 
1526	 8.60332016667246E-02 
1527	 8.60565280744182E-02 
1528	 0.086074235434639 
1529	 8.60951249257362E-02 
1530	 8.61222431053723E-02 
1531	 8.61457090654234E-02 
1532	 8.61659348343025E-02 
1533	 8.61879566103366E-02 
1534	 0.086205489355855 
1535	 0.086236242440716 
1536	 8.62848787952613E-02 
1537	 8.63098067699246E-02 
1538	 8.63213145279404E-02 
1539	 8.63489819971792E-02 
1540	 8.63703739941005E-02 
1541	 0.086393445779777 
1542	 8.64422471622552E-02 
1543	 8.64725628020171E-02 
1544	 8.64762192015867E-02 
1545	 8.64986316050124E-02 
1546	 8.65265704296948E-02 
1547	 8.65580964496485E-02 
1548	 8.65935438433161E-02 
1549	 8.66060550799621E-02 
1550	 8.66092904805679E-02 
1551	 0.086611972058174 
1552	 8.66284183719475E-02 
1553	 8.66458719871786E-02 
1554	 8.66608223527896E-02 
1555	 8.66776289524583E-02 
1556	 8.66876021530125E-02 
1557	 8.67059117859902E-02 
1558	 8.67239048063109E-02 
1559	 0.08674711126559 
1560	 8.67709405612092E-02 
1561	 8.67969966612588E-02 
1562	 8.68179650232686E-02 
1563	 8.68430390149969E-02 
1564	 8.68559435124489E-02 
1565	 8.68575756340687E-02 
1566	 8.68674694167296E-02 
1567	 8.68725371819847E-02 
1568	 8.68847484820689E-02 
1569	 8.69082643265868E-02 
1570	 8.69179429331134E-02 
1571	 8.69199481401702E-02 
1572	 8.69310148879383E-02 
1573	 8.69429837897891E-02 
1574	 8.69504964318213E-02 
1575	 8.69590438176014E-02 
1576	 8.69719229783181E-02 
1577	 8.69738678520489E-02 
1578	 8.69903386172302E-02 
1579	 8.70304709935803E-02 
1580	 8.70506220190677E-02 
1581	 8.70628265421905E-02 
1582	 0.08708164893175 
1583	 8.70945574941508E-02 
1584	 8.71094530909719E-02 
1585	 8.71372058246002E-02 
1586	 8.71503091360694E-02 
1587	 8.71466072619126E-02 
1588	 8.71551495197382E-02 
1589	 8.71661753915827E-02 
1590	 8.71743550495016E-02 
1591	 8.71844085537438E-02 
1592	 8.71991077895912E-02 
1593	 8.72150443589941E-02 
1594	 8.72270329970078E-02 
1595	 8.72383816594871E-02 
1596	 8.72562940449865E-02 
1597	 8.72796873281129E-02 
1598	 8.72921639380613E-02 
1599	 8.73088175210856E-02 
1600	 8.73202017455675E-02 
1601	 8.73154779397315E-02 
1602	 8.73138740874207E-02 
1603	 8.73116215118928E-02 
1604	 8.73133769649905E-02 
1605	 8.73147416428381E-02 
1606	 8.73175082532014E-02 
1607	 8.73252078185343E-02 
1608	 8.73353130941368E-02 
1609	 8.73352983842151E-02 
1610	 8.73386815987388E-02 
1611	 8.73496638231836E-02 
1612	 8.73667192367545E-02 
1613	 8.73717779884968E-02 
1614	 8.73591542131004E-02 
1615	 8.73596063222066E-02 
1616	 8.73578904873666E-02 
1617	 8.73585861154715E-02 
1618	 8.73907854276624E-02 
1619	 8.74150044748842E-02 
1620	 8.74217427443129E-02 
1621	 8.74339672682537E-02 
1622	 8.74511467871312E-02 
1623	 8.74622843360814E-02 
1624	 8.74675783332803E-02 
1625	 8.74713498833206E-02 
1626	 8.74743948988043E-02 
1627	 8.74793440495343E-02 
1628	 8.74762191240296E-02 
1629	 0.087486232784569 
1630	 8.75028238398802E-02 
1631	 8.75258843153961E-02 
1632	 8.75632010818347E-02 
1633	 8.75758243363815E-02 
1634	 0.087585140898339 
1635	 8.75942539698208E-02 
1636	 8.75801192447323E-02 
1637	 8.75953018363668E-02 
1638	 0.087635588151486 
1639	 8.76485440789894E-02 
1640	 0.087663683913216 
1641	 8.76640967421987E-02 
1642	 8.76391320648815E-02 
1643	 8.76342582025817E-02 
1644	 8.76307325643871E-02 
1645	 8.76315096508786E-02 
1646	 8.76434259369447E-02 
1647	 8.76456254223837E-02 
1648	 8.76404622277012E-02 
1649	 8.76480206032471E-02 
1650	 0.087659584645943 
1651	 8.76690959027364E-02 
1652	 8.76880922531827E-02 
1653	 8.76990759836799E-02 
1654	 8.77033245182895E-02 
1655	 8.77080026744012E-02 
1656	 8.77108466728875E-02 
1657	 8.77175923681416E-02 
1658	 8.77250776473781E-02 
1659	 8.77291165871766E-02 
1660	 0.08773468618972 
1661	 8.77400685998509E-02 
1662	 8.77401207194917E-02 
1663	 8.77439348673683E-02 
1664	 8.77557203375626E-02 
1665	 0.087757451586737 
1666	 8.77489165362298E-02 
1667	 8.77521358755412E-02 
1668	 8.77572143765339E-02 
1669	 8.77624746213056E-02 
1670	 8.77761451380696E-02 
1671	 8.77841564641652E-02 
1672	 8.77953695559775E-02 
1673	 8.77892327918341E-02 
1674	 8.77674200552596E-02 
1675	 8.77618262615858E-02 
1676	 8.77405930404992E-02 
1677	 8.77462334980893E-02 
1678	 8.77851032912833E-02 
1679	 8.78025395238044E-02 
1680	 8.78298120408376E-02 
1681	 8.78331823332376E-02 
1682	 8.78066032428033E-02 
1683	 8.78071630094844E-02 
1684	 8.78023184689047E-02 
1685	 8.78135766074092E-02 
1686	 8.78614596186826E-02 
1687	 8.78745378781818E-02 
1688	 8.78715895959483E-02 
1689	 8.78762088967901E-02 
1690	 8.78621523878436E-02 
1691	 8.78696821359447E-02 
1692	 8.78965601605747E-02 
1693	 8.79118131936303E-02 
1694	 8.79354596734788E-02 
1695	 8.79438843789913E-02 
1696	 8.79382032161702E-02 
1697	 8.79418866421015E-02 
1698	 8.79426568029134E-02 
1699	 8.79415629150973E-02 
1700	 8.79437107698077E-02 
1701	 8.79445285135209E-02 
1702	 8.79405829297679E-02 
1703	 8.79382192463649E-02 
1704	 8.79412786733075E-02 
1705	 8.79363237775831E-02 
1706	 8.79203317190813E-02 
1707	 8.79179127665876E-02 
1708	 8.79266066408156E-02 
1709	 8.79181530504311E-02 
1710	 8.79029550135478E-02 
1711	 8.78972997041138E-02 
1712	 8.78758355857088E-02 
1713	 8.78803778759715E-02 
1714	 8.79141747869477E-02 
1715	 8.79304852517922E-02 
1716	 8.79496078305576E-02 
1717	 8.79598027198822E-02 
1718	 8.79648001733782E-02 
1719	 8.79636309090479E-02 
1720	 8.79540539951531E-02 
1721	 8.79498306081778E-02 
1722	 8.79421611915107E-02 
1723	 8.79356984336115E-02 
1724	 8.79293763813819E-02 
1725	 8.79274923519482E-02 
1726	 8.79288312535052E-02 
1727	 0.087921625625422 
1728	 8.79135487705899E-02 
1729	 8.79137394436496E-02 
1730	 8.79112808436248E-02 
1731	 8.79042276348915E-02 
1732	 8.79078704120461E-02 
1733	 8.79011699219357E-02 
1734	 8.78750169177546E-02 
1735	 8.78699174657979E-02 
1736	 8.78804570880038E-02 
1737	 8.78667051979841E-02 
1738	 8.78463971608688E-02 
1739	 8.78338285866519E-02 
1740	 8.78104702448836E-02 
1741	 8.77982135304999E-02 
1742	 0.087799203452271 
1743	 8.77948670739549E-02 
1744	 8.77894625828063E-02 
1745	 8.77765376333831E-02 
1746	 8.77597242495087E-02 
1747	 8.77449446987647E-02 
1748	 8.77432296232821E-02 
1749	 8.77710186186152E-02 
1750	 8.77814442264229E-02 
1751	 8.77835551620695E-02 
1752	 8.77873311161719E-02 
1753	 0.087762216610517 
1754	 8.77422719958713E-02 
1755	 8.77177052369126E-02 
1756	 8.76727768760703E-02 
1757	 8.76468918233683E-02 
1758	 8.76535040081945E-02 
1759	 8.76841622610137E-02 
1760	 8.77174563500352E-02 
1761	 8.77400205271309E-02 
1762	 8.77259167238047E-02 
1763	 8.76728635623485E-02 
1764	 8.76384460270783E-02 
1765	 8.76121075961993E-02 
1766	 8.75908131635062E-02 
1767	 8.75980251072961E-02 
1768	 0.087590225446816 
1769	 8.75683629007896E-02 
1770	 8.75572325088231E-02 
1771	 8.75488667932928E-02 
1772	 8.75310297186942E-02 
1773	 8.75039194683228E-02 
1774	 8.74768672068638E-02 
1775	 8.74429871736894E-02 
1776	 8.74247768273026E-02 
1777	 8.74442306185832E-02 
1778	 8.74600240377317E-02 
1779	 8.74578709231898E-02 
1780	 8.74437191067843E-02 
1781	 8.74124416330896E-02 
1782	 8.73951294904249E-02 
1783	 8.74063079199867E-02 
1784	 0.087406327873667 
1785	 8.74061281342305E-02 
1786	 8.73949266416105E-02 
1787	 8.73664457788674E-02 
1788	 8.73626091135738E-02 
1789	 8.73608813322367E-02 
1790	 8.73687435877148E-02 
1791	 8.74049354814525E-02 
1792	 8.74262574762206E-02 
1793	 8.74499632801786E-02 
1794	 8.74654028354044E-02 
1795	 8.74631778180328E-02 
1796	 8.74733723682985E-02 
1797	 8.74850918168755E-02 
1798	 8.74933997966805E-02 
1799	 8.75226278801734E-02 
1800	 8.75265534474768E-02 
1801	 8.36774406913037E-02 
1802	 8.36702166491475E-02 
1803	 8.36956564999207E-02 
1804	 8.37105822746513E-02 
1805	 8.37064792556147E-02 
1806	 8.37417474599677E-02 
1807	 8.37991026175146E-02 
1808	 8.38447305217384E-02 
1809	 8.39061577394471E-02 
1810	 8.39437241553676E-02 
1811	 8.39829397534408E-02 
1812	 8.39810134293898E-02 
1813	 0.083988180429587 
1814	 8.39837303030787E-02 
1815	 8.39721393949228E-02 
1816	 8.40228668250181E-02 
1817	 8.40507372689707E-02 
1818	 0.084082359263805 
1819	 8.41006094704657E-02 
1820	 8.41191533547291E-02 
1821	 0.084114457892662 
1822	 8.41388218281203E-02 
1823	 8.41664906186531E-02 
1824	 8.41994903751694E-02 
1825	 8.42599881621046E-02 
1826	 8.42772040568007E-02 
1827	 8.42790433320897E-02 
1828	 8.42874919480384E-02 
1829	 0.084277301343133 
1830	 8.42832901064154E-02 
1831	 8.42964945395468E-02 
1832	 8.43180539174647E-02 
1833	 8.43323270775971E-02 
1834	 8.43600819620076E-02 
1835	 8.43897703322562E-02 
1836	 8.44054192694811E-02 
1837	 8.44232114921249E-02 
1838	 8.44201625546566E-02 
1839	 8.44217800660654E-02 
1840	 8.44056078147573E-02 
1841	 8.44162408035909E-02 
1842	 0.0844347271378 
1843	 8.44541369599878E-02 
1844	 8.44569508571759E-02 
1845	 8.44391892191119E-02 
1846	 8.44300315751521E-02 
1847	 8.44218381851213E-02 
1848	 8.43828339725647E-02 
1849	 8.43691767987097E-02 
1850	 8.43666096639161E-02 
1851	 8.43729586985127E-02 
1852	 8.43451690431392E-02 
1853	 8.43542785326367E-02 
1854	 0.084353828040619 
1855	 8.43027700535881E-02 
1856	 8.42664727045281E-02 
1857	 8.42604846658132E-02 
1858	 0.084241504866331 
1859	 8.41929487233546E-02 
1860	 0.084170387119765 
1861	 8.41645983510006E-02 
1862	 8.41463414368987E-02 
1863	 8.41179584051494E-02 
1864	 8.41199817259004E-02 
1865	 8.40781369382502E-02 
1866	 0.083999809716978 
1867	 8.39255780450899E-02 
1868	 8.38578710445834E-02 
1869	 0.083809999245735 
1870	 8.37428061449963E-02 
1871	 8.36656236066516E-02 
1872	 8.35790983385935E-02 
1873	 8.34967083971597E-02 
1874	 8.33932047072141E-02 
1875	 8.32828490741865E-02 
1876	 8.31676185364362E-02 
1877	 8.30205412132765E-02 
1878	 8.28436747974619E-02 
1879	 8.26491267932971E-02 
1880	 8.24497800138462E-02 
1881	 8.22223681504991E-02 
1882	 8.20167854616224E-02 
1883	 8.18205942821457E-02 
1884	 8.16092120858078E-02 
1885	 8.13818307501827E-02 
1886	 0.081142319060636 
1887	 0.080862728782585 
1888	 0.080586254486422 
1889	 8.03091994046771E-02 
1890	 8.00040911428965E-02 
1891	 7.96979537674707E-02 
1892	 7.93596838262911E-02 
1893	 7.90443991882083E-02 
1894	 0.078728228097815 
1895	 0.078436373626799 
1896	 7.81399092119541E-02 
1897	 7.78533721655212E-02 
1898	 7.75622947304059E-02 
1899	 7.72630498639135E-02 
1900	 0.076975441900901 
1901	 7.66823176639369E-02 
1902	 7.64009230709122E-02 
1903	 7.61312800590047E-02 
1904	 7.58640501027331E-02 
1905	 7.55893082245451E-02 
1906	 7.53451266132325E-02 
1907	 7.51312871912576E-02 
1908	 7.49194138152369E-02 
1909	 7.47444775399916E-02 
1910	 7.45728265638335E-02 
1911	 7.43871923374925E-02 
1912	 7.42112191052405E-02 
1913	 0.074055787760485 
1914	 7.39113334241552E-02 
1915	 7.37900321636102E-02 
1916	 7.36910350842928E-02 
1917	 7.36050038296286E-02 
1918	 7.35307897877812E-02 
1919	 7.34330109868207E-02 
1920	 7.33514631381725E-02 
1921	 7.32752519328796E-02 
1922	 7.32217575632663E-02 
1923	 7.31784668329468E-02 
1924	 7.31333803301136E-02 
1925	 7.30995440421091E-02 
1926	 7.30681028110048E-02 
1927	 7.30322285578899E-02 
1928	 7.30020021486872E-02 
1929	 7.30043472885387E-02 
1930	 7.30000388341696E-02 
1931	 7.29971028927026E-02 
1932	 7.30142485707565E-02 
1933	 7.30091867520886E-02 
1934	 7.29975930910175E-02 
1935	 7.30076459098566E-02 
1936	 7.30165439531708E-02 
1937	 7.30474046679223E-02 
1938	 7.31132994177564E-02 
1939	 7.31701407971566E-02 
1940	 7.32393902175872E-02 
1941	 0.07330077532025 
1942	 7.33555895356334E-02 
1943	 0.073390041073516 
1944	 7.34411732551825E-02 
1945	 7.34878087777872E-02 
1946	 7.35451525682851E-02 
1947	 0.07361578298518 
1948	 7.36884917612619E-02 
1949	 7.37678548521735E-02 
1950	 7.38450528229484E-02 
1951	 7.39283418272967E-02 
1952	 7.40029241220499E-02 
1953	 7.40947364919091E-02 
1954	 7.41803250538849E-02 
1955	 7.42619727183378E-02 
1956	 7.43468817125506E-02 
1957	 7.44201195651987E-02 
1958	 7.44624180702622E-02 
1959	 0.074540240519179 
1960	 7.46334913596786E-02 
1961	 7.47236577899716E-02 
1962	 7.48288840327548E-02 
1963	 7.49297742862063E-02 
1964	 7.50324693986056E-02 
1965	 7.51254135101307E-02 
1966	 7.52266252902891E-02 
1967	 7.53189847801588E-02 
1968	 0.075425762594309 
1969	 7.55438057972871E-02 
1970	 7.56516904368144E-02 
1971	 7.57726920751024E-02 
1972	 7.58758455895529E-02 
1973	 7.59484624143326E-02 
1974	 7.60432825104038E-02 
1975	 7.61454509812382E-02 
1976	 7.62454449148081E-02 
1977	 7.63489379005703E-02 
1978	 7.64608578613941E-02 
1979	 7.65571352004711E-02 
1980	 7.66474108083622E-02 
1981	 7.67477715088802E-02 
1982	 7.68527518327248E-02 
1983	 7.69574036701786E-02 
1984	 7.70663423867997E-02 
1985	 7.71748769336189E-02 
1986	 7.72911663131643E-02 
1987	 7.73943949421564E-02 
1988	 7.74982525693556E-02 
1989	 7.75896537338146E-02 
1990	 7.76659934662991E-02 
1991	 7.77451943453395E-02 
1992	 0.077830708190018 
1993	 7.79096484652926E-02 
1994	 7.80089130245486E-02 
1995	 7.81290748745849E-02 
1996	 7.82361590242062E-02 
1997	 7.83590558170332E-02 
1998	 7.84593503234396E-02 
1999	 7.85236885530167E-02 
2000	 7.86168012257903E-02 
2001	 7.87152384484884E-02 
2002	 0.078820556943875 
2003	 7.89248652537247E-02 
2004	 7.90511585076741E-02 
2005	 7.91568382107073E-02 
2006	 7.92494333230234E-02 
2007	 7.93401936996023E-02 
2008	 7.94282529940782E-02 
2009	 0.079514454422592 
2010	 7.95793333268384E-02 
2011	 7.96659377640414E-02 
2012	 7.97684876022269E-02 
2013	 7.98657365023145E-02 
2014	 7.99567640088019E-02 
2015	 8.00778029535047E-02 
2016	 8.01995230436195E-02 
2017	 8.02881372543382E-02 
2018	 8.03789871483758E-02 
2019	 8.04621815911636E-02 
2020	 8.05531821572437E-02 
2021	 8.06367080756729E-02 
2022	 8.07254332955771E-02 
2023	 0.080821972182068 
2024	 8.09161197622439E-02 
2025	 8.10013433460235E-02 
2026	 8.10945512403844E-02 
2027	 8.11934821710696E-02 
2028	 0.081303660575044 
2029	 8.14008259798095E-02 
2030	 8.15008198891959E-02 
2031	 8.15843466196518E-02 
2032	 8.16539758263389E-02 
2033	 8.17294982813872E-02 
2034	 8.17884035605181E-02 
2035	 8.18718609748866E-02 
2036	 8.19723768769004E-02 
2037	 8.20627377201669E-02 
2038	 8.21747305002919E-02 
2039	 0.082257421699912 
2040	 8.23099617035013E-02 
2041	 8.23831908715913E-02 
2042	 8.24333819531128E-02 
2043	 8.24732544318227E-02 
2044	 8.25394518747424E-02 
2045	 0.082617464107402 
2046	 8.26936618955372E-02 
2047	 8.27963602158637E-02 
2048	 8.28707361741627E-02 
2049	 8.29241723968543E-02 
2050	 8.29899175021145E-02 
2051	 8.30575404284635E-02 
2052	 8.31124783858244E-02 
2053	 0.083164212180181 
2054	 8.32183081922611E-02 
2055	 8.32540187852174E-02 
2056	 8.33061351905887E-02 
2057	 8.33524118646745E-02 
2058	 8.34021791706239E-02 
2059	 8.34565278757589E-02 
2060	 8.34955115217809E-02 
2061	 8.35683652194091E-02 
2062	 8.36798343828825E-02 
2063	 8.37623643439299E-02 
2064	 8.38630112036047E-02 
2065	 8.39343507893945E-02 
2066	 8.39683880027055E-02 
2067	 8.40155902709366E-02 
2068	 8.40568385379902E-02 
2069	 8.40961238810733E-02 
2070	 8.41475116765942E-02 
2071	 0.084206699018982 
2072	 8.42625714587963E-02 
2073	 8.43224772446109E-02 
2074	 8.43844580759894E-02 
2075	 8.44566390723946E-02 
2076	 8.45080723056113E-02 
2077	 8.45475440922642E-02 
2078	 8.45966992926055E-02 
2079	 0.08462899342954 
2080	 8.46771863288137E-02 
2081	 8.47462413687099E-02 
2082	 8.48087062125374E-02 
2083	 0.084876353389916 
2084	 8.49374446634789E-02 
2085	 8.49897135307358E-02 
2086	 8.50410641596321E-02 
2087	 8.50808432867546E-02 
2088	 8.50932028767098E-02 
2089	 0.085139805395356 
2090	 8.51975014789981E-02 
2091	 0.085251778451622 
2092	 8.53199530618511E-02 
2093	 8.53873237103862E-02 
2094	 8.54507967866501E-02 
2095	 0.085517289387445 
2096	 8.56044746646487E-02 
2097	 8.56718407171333E-02 
2098	 8.57284706327733E-02 
2099	 8.57731841722518E-02 
2100	 0.085830511381305 
2101	 8.58859116820442E-02 
2102	 8.59380360442239E-02 
2103	 8.59874845370728E-02 
2104	 8.60519505803326E-02 
2105	 8.61199122450369E-02 
2106	 8.61832330118515E-02 
2107	 8.62741490169379E-02 
2108	 8.63327677672551E-02 
2109	 8.63510534256118E-02 
2110	 8.63976402655051E-02 
2111	 8.64369485760144E-02 
2112	 8.64933210407935E-02 
2113	 8.65691231029859E-02 
2114	 8.66580357135274E-02 
2115	 0.08673111708763 
2116	 8.68123126462063E-02 
2117	 8.68721261164035E-02 
2118	 8.69151255273153E-02 
2119	 8.69647294627958E-02 
2120	 8.70031478927777E-02 
2121	 8.70516665856412E-02 
2122	 8.71033881477012E-02 
2123	 8.71586465373047E-02 
2124	 8.72212709334302E-02 
2125	 8.72768980480413E-02 
2126	 8.73389715953964E-02 
2127	 8.73890402750099E-02 
2128	 8.74352798024304E-02 
2129	 8.74713652465617E-02 
2130	 8.74891389985958E-02 
2131	 8.75168105134695E-02 
2132	 8.75330433715038E-02 
2133	 8.75306571881097E-02 
2134	 8.75517676268213E-02 
2135	 8.75861745448892E-02 
2136	 8.76040464974133E-02 
2137	 8.76387405792552E-02 
2138	 0.087640253482981 
2139	 8.76041987060137E-02 
2140	 8.75907694635186E-02 
2141	 8.75726466664685E-02 
2142	 8.75549469783726E-02 
2143	 8.75520623776156E-02 
2144	 8.75362239481421E-02 
2145	 8.75138350296172E-02 
2146	 8.74838332379104E-02 
2147	 8.74405109782023E-02 
2148	 8.74004405600795E-02 
2149	 8.73658061205792E-02 
2150	 8.73223420074807E-02 
2151	 8.72955425564037E-02 
2152	 0.087290158410832 
2153	 8.72636478171013E-02 
2154	 8.72338245792599E-02 
2155	 8.72037036211386E-02 
2156	 8.71652789487856E-02 
2157	 8.71288070509024E-02 
2158	 8.70974881635965E-02 
2159	 8.70579093583462E-02 
2160	 0.087014981692913 
2161	 8.69641046047515E-02 
2162	 8.69098429122811E-02 
2163	 8.68484559417518E-02 
2164	 8.67667636755156E-02 
2165	 8.66986669909667E-02 
2166	 8.66320157912679E-02 
2167	 8.65655849278348E-02 
2168	 8.64983648939477E-02 
2169	 8.64300739287892E-02 
2170	 8.63763678255724E-02 
2171	 8.63257697287854E-02 
2172	 8.62792548643438E-02 
2173	 8.62534461353836E-02 
2174	 8.62139961962427E-02 
2175	 8.61767793976167E-02 
2176	 8.61216924371237E-02 
2177	 8.60405493197663E-02 
2178	 8.59855314771914E-02 
2179	 0.085940597821582 
2180	 8.58801066113772E-02 
2181	 8.58293999836832E-02 
2182	 0.085776245996593 
2183	 8.56907600000499E-02 
2184	 8.56293369695721E-02 
2185	 0.085573611295742 
2186	 8.55350678798902E-02 
2187	 8.54870621665361E-02 
2188	 8.54344836480604E-02 
2189	 0.085398900288627 
2190	 8.53803273351641E-02 
2191	 8.53436486232106E-02 
2192	 8.53034680752243E-02 
2193	 0.085274373061592 
2194	 0.085240435795504 
2195	 8.52084784938452E-02 
2196	 8.52009889739512E-02 
2197	 8.51719668085594E-02 
2198	 8.51025338669552E-02 
2199	 0.085070429868935 
2200	 8.50645071612092E-02 
2201	 8.50424812051229E-02 
2202	 8.50232987128489E-02 
2203	 8.50240301972846E-02 
2204	 8.50067480621935E-02 
2205	 8.49657348710507E-02 
2206	 8.49470560940333E-02 
2207	 8.49356960759932E-02 
2208	 8.49345164191392E-02 
2209	 8.49474207888742E-02 
2210	 8.49488640786474E-02 
2211	 8.49557158362317E-02 
2212	 8.49584578102639E-02 
2213	 0.084944994031161 
2214	 8.49489233945059E-02 
2215	 8.49763576472946E-02 
2216	 0.084982170662147 
2217	 0.084965576374244 
2218	 8.49766694523994E-02 
2219	 8.49939281997006E-02 
2220	 8.50113795890153E-02 
2221	 8.50523554555466E-02 
2222	 8.50925602655894E-02 
2223	 8.51067737335854E-02 
2224	 8.51111838575199E-02 
2225	 8.51095884920053E-02 
2226	 8.50953179008089E-02 
2227	 8.50894848245784E-02 
2228	 8.50670115282342E-02 
2229	 8.50761835025727E-02 
2230	 8.51060080819481E-02 
2231	 0.085131688849793 
2232	 8.51798517965801E-02 
2233	 8.52058052439086E-02 
2234	 8.52205659427722E-02 
2235	 8.52358763980506E-02 
2236	 8.52416535259144E-02 
2237	 8.52531838486688E-02 
2238	 8.52757732184644E-02 
2239	 8.52789096765803E-02 
2240	 8.52450104785011E-02 
2241	 8.52588401428384E-02 
2242	 8.53058004298171E-02 
2243	 8.53267702159578E-02 
2244	 0.085361524424284 
2245	 8.54060779993232E-02 
2246	 8.53993417196554E-02 
2247	 0.085383170023068 
2248	 8.53917906317603E-02 
2249	 8.54101650387442E-02 
2250	 8.54338090713681E-02 
2251	 8.54707365091241E-02 
2252	 8.54957723616729E-02 
2253	 8.55307055810633E-02 
2254	 8.55468659914231E-02 
2255	 8.55502307897735E-02 
2256	 8.55555770118507E-02 
2257	 8.55476440312231E-02 
2258	 8.55482172585347E-02 
2259	 8.55392178378462E-02 
2260	 8.55522210120102E-02 
2261	 8.55815872728326E-02 
2262	 8.56102142237923E-02 
2263	 8.56607181398866E-02 
2264	 8.56963629195003E-02 
2265	 8.57264626206964E-02 
2266	 8.57518289737493E-02 
2267	 8.57633291656697E-02 
2268	 8.57856318324491E-02 
2269	 8.58175810890727E-02 
2270	 8.58322006620149E-02 
2271	 8.58539295192709E-02 
2272	 8.58988235843619E-02 
2273	 0.0859178633827 
2274	 0.085925936576646 
2275	 8.59429159769978E-02 
2276	 8.59566521640621E-02 
2277	 8.59667902120488E-02 
2278	 0.08598209736599 
2279	 8.59918851087213E-02 
2280	 8.59906536784824E-02 
2281	 8.59991863302409E-02 
2282	 8.60052684801807E-02 
2283	 8.60256882091469E-02 
2284	 8.60688545413313E-02 
2285	 8.60834994637208E-02 
2286	 8.60890711990123E-02 
2287	 0.086107093511876 
2288	 8.61029785452404E-02 
2289	 8.61149923321193E-02 
2290	 8.61446252325094E-02 
2291	 8.61810119174441E-02 
2292	 8.62452020940775E-02 
2293	 0.086274509631846 
2294	 0.086295991552965 
2295	 8.63152261184655E-02 
2296	 8.62912039855211E-02 
2297	 8.62908445645206E-02 
2298	 8.63370009042091E-02 
2299	 8.63883121310493E-02 
2300	 0.086439479573921 
2301	 8.64788767778439E-02 
2302	 8.64761728633719E-02 
2303	 8.64556766278555E-02 
2304	 8.64630360480994E-02 
2305	 8.64793871881443E-02 
2306	 8.64795497567888E-02 
2307	 8.64945976974998E-02 
2308	 8.64941274250814E-02 
2309	 8.64585266180074E-02 
2310	 8.64490480245507E-02 
2311	 8.64422828633223E-02 
2312	 8.64684708245475E-02 
2313	 8.65387009900141E-02 
2314	 0.086558680615568 
2315	 0.086583904522555 
2316	 8.65976892906883E-02 
2317	 8.65686622942334E-02 
2318	 0.086545289496059 
2319	 8.65180375981485E-02 
2320	 8.65161307026205E-02 
2321	 8.65026700303493E-02 
2322	 8.65137792254602E-02 
2323	 8.65724255184376E-02 
2324	 8.66122393217532E-02 
2325	 0.086662569947012 
2326	 0.086680711293806 
2327	 8.66724169678532E-02 
2328	 8.66891279102682E-02 
2329	 8.66770984669186E-02 
2330	 8.66689176951116E-02 
2331	 8.67082656484232E-02 
2332	 8.67114303210977E-02 
2333	 8.67066790625536E-02 
2334	 8.67227669328429E-02 
2335	 8.66891459124632E-02 
2336	 8.66683662061324E-02 
2337	 8.66924880899601E-02 
2338	 8.66965267362992E-02 
2339	 0.086705518677086 
2340	 0.086787831137033 
2341	 0.086816387193691 
2342	 8.67957891140097E-02 
2343	 8.68352986643207E-02 
2344	 8.68516798321319E-02 
2345	 8.68658881354678E-02 
2346	 8.68963755872006E-02 
2347	 8.69021802714136E-02 
2348	 8.68885583334089E-02 
2349	 8.68592320659596E-02 
2350	 8.68110465628914E-02 
2351	 8.67742539244021E-02 
2352	 8.67072620367859E-02 
2353	 8.66731240551236E-02 
2354	 8.66687316687917E-02 
2355	 8.66553001132235E-02 
2356	 8.66661194516244E-02 
2357	 0.086653276045383 
2358	 8.65953779037038E-02 
2359	 8.66005447223817E-02 
2360	 8.66409743160154E-02 
2361	 8.66462371898468E-02 
2362	 8.66940573326266E-02 
2363	 8.66845775054108E-02 
2364	 0.08658160718944 
2365	 8.65540751761879E-02 
2366	 8.65746416377856E-02 
2367	 8.65721887853354E-02 
2368	 8.65751824347902E-02 
2369	 8.65981307924622E-02 
2370	 8.66367205552911E-02 
2371	 8.66225732582705E-02 
2372	 8.66232028062076E-02 
2373	 8.65771053789775E-02 
2374	 0.08655387159807 
2375	 8.65243282797574E-02 
2376	 8.64412509674994E-02 
2377	 8.64342265945655E-02 
2378	 8.63248938392624E-02 
2379	 8.61704637889091E-02 
2380	 8.61950228804546E-02 
2381	 8.62281488317939E-02 
2382	 8.62677094399592E-02 
2383	 0.086336669412544 
2384	 8.63837366600609E-02 
2385	 8.63742494952837E-02 
2386	 8.62789784266164E-02 
2387	 8.61951169087268E-02 
2388	 8.60662139589382E-02 
2389	 0.085919046683442 
2390	 8.58837443547495E-02 
2391	 8.58531209533658E-02 
2392	 8.58516525225855E-02 
2393	 8.58748211048851E-02 
2394	 8.58145734384371E-02 
2395	 8.57510484545337E-02 
2396	 8.56564904046089E-02 
2397	 8.55972689502086E-02 
2398	 8.56207197236278E-02 
2399	 8.56707548138667E-02 
2400	 8.57138125748913E-02 
2401	 8.56678304331282E-02 
2402	 8.55996629381979E-02 
2403	 0.08555560770272 
2404	 8.55589573061323E-02 
2405	 8.55910266335514E-02 
2406	 8.55323498365177E-02 
2407	 8.54150142927217E-02 
2408	 8.53579559664438E-02 
2409	 8.53379454983017E-02 
2410	 8.53092938168974E-02 
2411	 8.53070180682023E-02 
2412	 8.52639186961667E-02 
2413	 8.52031272900741E-02 
2414	 8.52174775716219E-02 
2415	 8.51951781213657E-02 
2416	 0.085119833450346 
2417	 8.49226087011744E-02 
2418	 8.49172891276795E-02 
2419	 8.49699906762908E-02 
2420	 0.084999739102546 
2421	 8.51887281082516E-02 
2422	 8.51934886134486E-02 
2423	 8.50742691317881E-02 
2424	 8.50248653206075E-02 
2425	 8.49255419882651E-02 
2426	 8.48845589880087E-02 
2427	 8.48358695698971E-02 
2428	 8.48270082238187E-02 
2429	 8.49661112110664E-02 
2430	 0.084898384480139 
2431	 8.47113481349329E-02 
2432	 8.45926551109254E-02 
2433	 0.084324524124638 
2434	 8.42643902745904E-02 
2435	 8.44380841193522E-02 
2436	 8.44013492717868E-02 
2437	 8.43546527843055E-02 
2438	 8.42475527854157E-02 
2439	 8.39583023628807E-02 
2440	 0.083869936476422 
2441	 8.38270198614107E-02 
2442	 8.38287144570617E-02 
2443	 8.39789073284844E-02 
2444	 8.40007121866926E-02 
2445	 8.40641842306129E-02 
2446	 8.40322080112624E-02 
2447	 8.38401517426696E-02 
2448	 8.37630310811811E-02 
2449	 0.083683393716227 
2450	 8.35745558091114E-02 
2451	 0.083528706676315 
2452	 8.34183348635918E-02 
2453	 8.32214808637768E-02 
2454	 0.083110320808708 
2455	 8.30453293800446E-02 
2456	 8.29509509635939E-02 
2457	 8.28207023563018E-02 
2458	 8.27494679977812E-02 
2459	 8.27036519007284E-02 
2460	 8.26839260664776E-02 
2461	 0.082714224274835 
2462	 0.082808390531444 
2463	 8.30126405104165E-02 
2464	 8.29882863210723E-02 
2465	 8.29574258602838E-02 
2466	 8.27819660865677E-02 
2467	 8.22090540990917E-02 
2468	 8.20711040915061E-02 
2469	 0.082113336300674 
2470	 8.21299482614376E-02 
2471	 8.24232963919223E-02 
2472	 8.24065766896445E-02 
2473	 0.082369617984425 
2474	 8.24336769899878E-02 
2475	 0.082179986031285 
2476	 8.19372877641127E-02 
2477	 8.18307454705767E-02 
2478	 8.17408062799075E-02 
2479	 8.16496466407913E-02 
2480	 8.15697994699533E-02 
2481	 8.15387179308876E-02 
2482	 8.15048289759888E-02 
2483	 8.14664901788631E-02 
2484	 8.16166237724047E-02 
2485	 8.17363038899566E-02 
2486	 8.16651196506081E-02 
2487	 0.081849524218946 
2488	 8.18460242876478E-02 
2489	 8.15120210361815E-02 
2490	 8.14460775255421E-02 
2491	 8.14070779606873E-02 
2492	 8.13072016671259E-02 
2493	 8.13788656127784E-02 
2494	 8.14661516135205E-02 
2495	 8.12847629226413E-02 
2496	 8.11536400025387E-02 
2497	 8.10728674702216E-02 
2498	 8.08885213922294E-02 
2499	 8.09585151475825E-02 
2500	 8.10117991380603E-02 
