Wavelength	MM_3300007.asd
350	 3.93789738957644E-02 
351	 3.78901960776206E-02 
352	 3.93923099003095E-02 
353	 4.38501478361527E-02 
354	 3.41343313628765E-02 
355	 3.05262723772404E-02 
356	 3.15247079785641E-02 
357	 3.25614358897434E-02 
358	 4.22389846965197E-02 
359	 4.09712337699784E-02 
360	 0.033920093412171 
361	 3.98464249662934E-02 
362	 3.70707654511985E-02 
363	 3.39810890315359E-02 
364	 3.50332729227359E-02 
365	 3.24390108181261E-02 
366	 0.035101589340952 
367	 3.73640321777692E-02 
368	 3.37110621076651E-02 
369	 3.47884675921338E-02 
370	 3.73891261109408E-02 
371	 3.98453069071855E-02 
372	 4.15121380295833E-02 
373	 0.039313283696249 
374	 3.79231193264711E-02 
375	 3.97341441482655E-02 
376	 4.18434339423439E-02 
377	 0.041375813923781 
378	 3.92593174621546E-02 
379	 3.80390745080173E-02 
380	 4.09501816832768E-02 
381	 4.32661082365225E-02 
382	 4.35383378364337E-02 
383	 4.31759673148159E-02 
384	 4.36871994881747E-02 
385	 4.24694421033396E-02 
386	 3.96437508192598E-02 
387	 0.041740444531895 
388	 0.043195031158743 
389	 4.36370584933756E-02 
390	 4.40799837424275E-02 
391	 4.34912851926036E-02 
392	 4.50113940257109E-02 
393	 4.74372197887544E-02 
394	 4.62915504152547E-02 
395	 4.69499003495478E-02 
396	 4.80561790856826E-02 
397	 4.85482767407891E-02 
398	 5.07551557474683E-02 
399	 5.05900500156533E-02 
400	 5.01591105377882E-02 
401	 5.27485381660141E-02 
402	 5.48700228636803E-02 
403	 0.054627231197043 
404	 5.30652134017694E-02 
405	 0.053831383551553 
406	 5.45433117856583E-02 
407	 5.55563251570597E-02 
408	 5.69551762254369E-02 
409	 5.67308835796282E-02 
410	 5.65780931442397E-02 
411	 5.71401819107278E-02 
412	 0.058352995240114 
413	 5.92356040868925E-02 
414	 5.94525987188137E-02 
415	 5.90635410569743E-02 
416	 0.058461902370814 
417	 5.89690289188608E-02 
418	 5.99196950858837E-02 
419	 6.04850245640683E-02 
420	 6.12382544671072E-02 
421	 6.11848560801176E-02 
422	 6.08294825763783E-02 
423	 6.14680487348382E-02 
424	 6.18128644218666E-02 
425	 6.16168240494042E-02 
426	 0.061339563431374 
427	 6.25983497922259E-02 
428	 6.26201672629893E-02 
429	 0.062058470835583 
430	 6.23116031633625E-02 
431	 6.25022424555899E-02 
432	 6.23518342245632E-02 
433	 6.21489113787075E-02 
434	 6.26379666932479E-02 
435	 6.30111077148049E-02 
436	 0.063343602133713 
437	 6.37284700320876E-02 
438	 6.38022945298871E-02 
439	 6.39850151355834E-02 
440	 6.44403415792843E-02 
441	 6.51081694996743E-02 
442	 0.065328491156264 
443	 6.54176585822698E-02 
444	 6.56196149600885E-02 
445	 6.59177483476135E-02 
446	 6.61181454969046E-02 
447	 6.64333188258576E-02 
448	 6.69939614078168E-02 
449	 6.70281414277074E-02 
450	 6.74263335762544E-02 
451	 6.81041418518894E-02 
452	 6.81638445485697E-02 
453	 6.81089670388235E-02 
454	 6.81739861011987E-02 
455	 6.84704760308749E-02 
456	 6.90198070434414E-02 
457	 6.89940118976196E-02 
458	 6.87726867402377E-02 
459	 0.069157966955236 
460	 6.94786783680731E-02 
461	 6.95466558792406E-02 
462	 0.069486829275495 
463	 6.97868247235654E-02 
464	 7.01858043537208E-02 
465	 7.04554685220092E-02 
466	 7.04787346012005E-02 
467	 0.070550489480996 
468	 7.05107252061324E-02 
469	 7.04888756533696E-02 
470	 7.08016017521523E-02 
471	 0.070765492922194 
472	 7.07267657876793E-02 
473	 7.09472641842487E-02 
474	 0.071088397060599 
475	 7.11119017589833E-02 
476	 7.12049281234214E-02 
477	 7.15735742262285E-02 
478	 7.17309710977741E-02 
479	 7.18009881115513E-02 
480	 7.18431309615742E-02 
481	 7.17390394463272E-02 
482	 7.19534256016464E-02 
483	 7.23024285894534E-02 
484	 7.24680442390842E-02 
485	 7.23972050318394E-02 
486	 7.23755645541422E-02 
487	 7.24126866113216E-02 
488	 7.23043371549153E-02 
489	 7.24095666345262E-02 
490	 0.072662588409579 
491	 7.28954339481914E-02 
492	 7.28775221832386E-02 
493	 7.28605411393208E-02 
494	 7.28322130765701E-02 
495	 7.27226531459904E-02 
496	 7.30259390417923E-02 
497	 7.33092273631748E-02 
498	 7.34257190542148E-02 
499	 7.37964548001506E-02 
500	 7.38574739841104E-02 
501	 7.37495130947471E-02 
502	 7.37559645199086E-02 
503	 0.07378715516191 
504	 7.38234965910354E-02 
505	 7.38770742118571E-02 
506	 0.073984609959745 
507	 7.41039054789426E-02 
508	 7.42143148760923E-02 
509	 7.42945087683594E-02 
510	 7.43171330966442E-02 
511	 7.41895755618228E-02 
512	 7.41214136883909E-02 
513	 7.43986371617236E-02 
514	 0.074421550265714 
515	 0.074466826562898 
516	 0.074657968522731 
517	 7.46877442856622E-02 
518	 7.47003649613628E-02 
519	 7.47342450680105E-02 
520	 7.48051917626045E-02 
521	 7.49866192011779E-02 
522	 7.50999061544763E-02 
523	 7.51055581062188E-02 
524	 7.51217491907989E-02 
525	 7.51367135782302E-02 
526	 7.52117250114525E-02 
527	 7.53627230150721E-02 
528	 7.54316672352646E-02 
529	 7.54796054532795E-02 
530	 7.55355900792601E-02 
531	 7.56026635932499E-02 
532	 7.56236231797236E-02 
533	 7.57259219832096E-02 
534	 7.59249598672826E-02 
535	 7.59498269759926E-02 
536	 7.59560903390294E-02 
537	 7.59907500434555E-02 
538	 0.076055229736188 
539	 7.61070423778738E-02 
540	 0.076216169674832 
541	 7.63851317125551E-02 
542	 7.65207550597997E-02 
543	 7.65221885045459E-02 
544	 7.65631816514795E-02 
545	 7.67809572645147E-02 
546	 7.68388147944338E-02 
547	 7.69235294041836E-02 
548	 7.70808055383432E-02 
549	 7.72242450859959E-02 
550	 0.077320014076275 
551	 7.74081275102858E-02 
552	 7.75453849153163E-02 
553	 7.78169898568874E-02 
554	 7.79482582032197E-02 
555	 7.79824298377378E-02 
556	 0.078119073933927 
557	 7.82763431144423E-02 
558	 7.84550940377111E-02 
559	 7.86542175081194E-02 
560	 7.88651850952813E-02 
561	 7.89443459998708E-02 
562	 7.90440912935364E-02 
563	 7.93472319400796E-02 
564	 7.95888445299289E-02 
565	 7.97915944078395E-02 
566	 8.00383086583424E-02 
567	 8.04541401678141E-02 
568	 8.07869300861256E-02 
569	 8.10290251119687E-02 
570	 8.12421771410627E-02 
571	 8.14932428510425E-02 
572	 8.17569098274426E-02 
573	 8.20424720042138E-02 
574	 8.23718100170852E-02 
575	 8.25890416196337E-02 
576	 8.29050768887923E-02 
577	 0.083396898114289 
578	 8.37156901338162E-02 
579	 8.41071787453268E-02 
580	 8.45305133275589E-02 
581	 8.48453255673383E-02 
582	 8.51082869031622E-02 
583	 8.53547603074848E-02 
584	 8.55965106244196E-02 
585	 8.58103318837272E-02 
586	 8.61639534237293E-02 
587	 8.65454949212129E-02 
588	 8.68257733649534E-02 
589	 8.72036441053579E-02 
590	 8.75367474464334E-02 
591	 8.77962017366804E-02 
592	 8.80653934904052E-02 
593	 0.088307389487686 
594	 8.85225019055392E-02 
595	 8.87485223628087E-02 
596	 8.90995063093947E-02 
597	 8.95676127827438E-02 
598	 9.00651722215585E-02 
599	 9.04809810045731E-02 
600	 9.09506075897594E-02 
601	 0.09135442009899 
602	 9.16235655229855E-02 
603	 9.18253470558187E-02 
604	 9.20174800649657E-02 
605	 9.22620702382591E-02 
606	 0.092580888010956 
607	 9.28073757896491E-02 
608	 9.30045448764678E-02 
609	 9.32183895533904E-02 
610	 9.34586569463773E-02 
611	 9.36795140369102E-02 
612	 9.38967706006195E-02 
613	 9.41221852033398E-02 
614	 9.43014460467221E-02 
615	 9.44770551272145E-02 
616	 9.46632645710101E-02 
617	 9.48494343730608E-02 
618	 9.50029883934836E-02 
619	 9.51121730341219E-02 
620	 9.51897462062675E-02 
621	 0.095285039022732 
622	 0.095431165496138 
623	 9.55940055155803E-02 
624	 9.57164792139286E-02 
625	 9.58149677475593E-02 
626	 9.59131488914853E-02 
627	 9.60190694964039E-02 
628	 9.61184881316914E-02 
629	 9.62354561851384E-02 
630	 9.63632494128478E-02 
631	 9.64842165254314E-02 
632	 9.65729257777016E-02 
633	 9.66672249845687E-02 
634	 9.67691150958395E-02 
635	 9.68552808404659E-02 
636	 0.097014301141986 
637	 9.71431950578688E-02 
638	 9.71711558385313E-02 
639	 9.71739799398023E-02 
640	 0.09724475504498 
641	 9.73524331533996E-02 
642	 0.097420694223398 
643	 0.097560624231251 
644	 9.76841547790325E-02 
645	 0.097761533724775 
646	 9.78737710642805E-02 
647	 9.79721841243616E-02 
648	 9.80335943197762E-02 
649	 9.80743585590174E-02 
650	 9.82521346962157E-02 
651	 9.83574580227898E-02 
652	 0.098385943078932 
653	 0.098511520105756 
654	 9.86342092875647E-02 
655	 9.87186646825966E-02 
656	 9.87657708308989E-02 
657	 0.09883007501955 
658	 9.89488420243472E-02 
659	 9.91002878821793E-02 
660	 9.92301715332628E-02 
661	 9.93050611050553E-02 
662	 9.93902412888536E-02 
663	 9.95011066857872E-02 
664	 0.099565422243526 
665	 9.96700846493116E-02 
666	 9.97883591870944E-02 
667	 9.98783949517792E-02 
668	 9.99760400899648E-02 
669	 0.100101462381771 
670	 0.100248387756918 
671	 0.10038759974854 
672	 0.100491695537386 
673	 0.100612638142732 
674	 0.100776414589239 
675	 0.100920983460434 
676	 0.101010567791019 
677	 0.101095087791581 
678	 0.101249805699302 
679	 0.101424422543832 
680	 0.101533026377567 
681	 0.10160175739119 
682	 0.101803656673378 
683	 0.101958556824027 
684	 0.102084642922884 
685	 0.102228628925236 
686	 0.102342410495278 
687	 0.102449285723798 
688	 0.102579601396112 
689	 0.102758290654586 
690	 0.102898074330887 
691	 0.103023154137492 
692	 0.103165726625699 
693	 0.103343769290931 
694	 0.103493584558609 
695	 0.10362258526059 
696	 0.103762641674517 
697	 0.103918689107263 
698	 0.104048225294343 
699	 0.104166190517905 
700	 0.104346268278627 
701	 0.104490858165801 
702	 0.104619933948848 
703	 0.104762630457406 
704	 0.104901132206008 
705	 0.105022468218203 
706	 0.105145932393865 
707	 0.105300726747352 
708	 0.105444346819261 
709	 0.105595281394019 
710	 0.105755046640603 
711	 0.105893207847227 
712	 0.106003541264495 
713	 0.10609916724896 
714	 0.106203075629323 
715	 0.106352389424939 
716	 0.106465100587524 
717	 0.106558881796564 
718	 0.106714285556141 
719	 0.106819399153423 
720	 0.106916436943882 
721	 0.107031671987329 
722	 0.107114916857323 
723	 0.107211111257255 
724	 0.107336731835125 
725	 0.107479306095079 
726	 0.107544115645552 
727	 0.107577331772121 
728	 0.107629934468064 
729	 0.107744231673889 
730	 0.107864536246084 
731	 0.107947098931408 
732	 0.107986912185991 
733	 0.108061359390717 
734	 0.108132841049724 
735	 0.108181478638098 
736	 0.108201894490519 
737	 0.108231241622868 
738	 0.108288034902649 
739	 0.108353727028708 
740	 0.10837427904311 
741	 0.108405341819199 
742	 0.108434470907443 
743	 0.10844394785481 
744	 0.108439388688179 
745	 0.108442551549627 
746	 0.108460211280664 
747	 0.10848505027557 
748	 0.108479471199707 
749	 0.10845142117852 
750	 0.1084222952896 
751	 0.108422480504917 
752	 0.10840349571784 
753	 0.10837361736269 
754	 0.108349210079923 
755	 0.108328667070014 
756	 0.108313390963478 
757	 0.108283820526144 
758	 0.108221066960526 
759	 0.108194516415975 
760	 0.108143180244901 
761	 0.108074624101823 
762	 0.108093397742679 
763	 0.108035676653557 
764	 0.107936575703026 
765	 0.107861750861839 
766	 0.107819268887188 
767	 0.107769584374307 
768	 0.107706135397037 
769	 0.107641540022445 
770	 0.107588187169732 
771	 0.107530772102546 
772	 0.107458457365108 
773	 0.107369947177451 
774	 0.10729844702312 
775	 0.107243244916154 
776	 0.107190630710181 
777	 0.107115858872673 
778	 0.107041340445133 
779	 0.106977029916309 
780	 0.106920392131423 
781	 0.106832643682558 
782	 0.106742443940792 
783	 0.106662484389102 
784	 0.106583015500721 
785	 0.106513702377669 
786	 0.106428141340595 
787	 0.106321503085765 
788	 0.106254865961202 
789	 0.106205498954224 
790	 0.106141970674148 
791	 0.10604113338976 
792	 0.105942045739818 
793	 0.105877723258175 
794	 0.105841638147547 
795	 0.105792478494445 
796	 0.10570152850101 
797	 0.105600758129944 
798	 0.105520676027292 
799	 0.105470600330498 
800	 0.105402405361876 
801	 0.105309727406316 
802	 0.105206216407781 
803	 0.105114720727291 
804	 0.105082072530932 
805	 0.10505821970314 
806	 0.104954132058069 
807	 0.104912585506449 
808	 0.104861714180226 
809	 0.104767693915725 
810	 0.1046769318655 
811	 0.10465550155244 
812	 0.104587319053404 
813	 0.104423195081358 
814	 0.10441151180206 
815	 0.104376044669684 
816	 0.10430819684742 
817	 0.104263057017496 
818	 0.104242462103877 
819	 0.104217803223411 
820	 0.104161412070767 
821	 0.104057172438948 
822	 0.103975443730039 
823	 0.103912627489099 
824	 0.103860219230631 
825	 0.103822315135259 
826	 0.10379639397705 
827	 0.103745207852796 
828	 0.103659548587308 
829	 0.103648814608135 
830	 0.103610962832017 
831	 0.103555169802631 
832	 0.103537079410151 
833	 0.103531927869151 
834	 0.103503710379814 
835	 0.103438429210546 
836	 0.103352128371278 
837	 0.103350530904421 
838	 0.103356700540621 
839	 0.103316097493566 
840	 0.103266309871694 
841	 0.103233598273733 
842	 0.103210697585283 
843	 0.103186710194187 
844	 0.103177462849047 
845	 0.103165934895531 
846	 0.103136128261433 
847	 0.103089594158167 
848	 0.103117392876928 
849	 0.103118078176155 
850	 0.103070532321842 
851	 0.103033330606169 
852	 0.103023467359243 
853	 0.103019924163943 
854	 0.103001360792864 
855	 0.102957719885852 
856	 0.103011095917324 
857	 0.103069272052404 
858	 0.103046291251752 
859	 0.103000254093391 
860	 0.103023668287299 
861	 0.103059706894152 
862	 0.103027384287119 
863	 0.103006453187462 
864	 0.103024162797564 
865	 0.103068620981341 
866	 0.103099480436226 
867	 0.103072316868836 
868	 0.103029961214707 
869	 0.103017937520418 
870	 0.1030647542591 
871	 0.103077762435326 
872	 0.103091910670266 
873	 0.103131731677277 
874	 0.103169767963729 
875	 0.103170479592167 
876	 0.103131890066129 
877	 0.103099324481528 
878	 0.103221155373465 
879	 0.103281187912432 
880	 0.103278221105815 
881	 0.103291912486699 
882	 0.10337971444851 
883	 0.103441413923431 
884	 0.10345237519022 
885	 0.103449107268084 
886	 0.103521644014736 
887	 0.103610768558721 
888	 0.103651220873314 
889	 0.103609423298617 
890	 0.10368136430596 
891	 0.10374954547666 
892	 0.103769774458364 
893	 0.103836683762937 
894	 0.10387383194095 
895	 0.10392628913356 
896	 0.104018292945759 
897	 0.104097687614994 
898	 0.104124243525138 
899	 0.104142905844126 
900	 0.104194030401282 
901	 0.104235402919163 
902	 0.104313137340512 
903	 0.104415879504012 
904	 0.104503182438649 
905	 0.104509575887958 
906	 0.104522152141433 
907	 0.104592438970044 
908	 0.104728423929082 
909	 0.104849838787999 
910	 0.10493101967209 
911	 0.10500879212115 
912	 0.105138328150599 
913	 0.105211457436234 
914	 0.105287993253504 
915	 0.105375644656888 
916	 0.105431742565873 
917	 0.105517213263427 
918	 0.105610425366462 
919	 0.105678018697993 
920	 0.105697223515989 
921	 0.105792713915033 
922	 0.10593592301537 
923	 0.106070956133449 
924	 0.106151415804446 
925	 0.10623793390429 
926	 0.106351530256419 
927	 0.106462631013373 
928	 0.10647033741754 
929	 0.106601617904666 
930	 0.106753116326567 
931	 0.106831285347909 
932	 0.106969799692242 
933	 0.107108555483003 
934	 0.107195911946492 
935	 0.107235103947344 
936	 0.107377682038891 
937	 0.107491972895281 
938	 0.107553018269776 
939	 0.107614174853234 
940	 0.107860889465903 
941	 0.108031839247649 
942	 0.108086601471972 
943	 0.108105771724227 
944	 0.108223611146629 
945	 0.108332538047247 
946	 0.108445501739035 
947	 0.108600488702982 
948	 0.108677807376505 
949	 0.10878438197825 
950	 0.108914308341879 
951	 0.109010531349783 
952	 0.109094836713078 
953	 0.109209253619553 
954	 0.10932038666762 
955	 0.109385484501109 
956	 0.109557140162827 
957	 0.109710417816798 
958	 0.109787382674628 
959	 0.109820485632299 
960	 0.110011719287359 
961	 0.110164574912475 
962	 0.110296015202623 
963	 0.110522116852095 
964	 0.110578317232659 
965	 0.110602603137483 
966	 0.110690822592757 
967	 0.110880485630949 
968	 0.11121167530792 
969	 0.111377682297031 
970	 0.11139290291976 
971	 0.111481555780448 
972	 0.111554927149258 
973	 0.111791881555118 
974	 0.112048286632059 
975	 0.112058521995925 
976	 0.112219324302556 
977	 0.112517401942162 
978	 0.112726478961236 
979	 0.112636485436282 
980	 0.11279119257069 
981	 0.112941879235263 
982	 0.11300926036047 
983	 0.113077045669522 
984	 0.113296248483321 
985	 0.113505447581735 
986	 0.113604994449932 
987	 0.113626037697528 
988	 0.113941440995452 
989	 0.114167330476392 
990	 0.114248187146435 
991	 0.114335466246171 
992	 0.11453537918682 
993	 0.114725032546203 
994	 0.114897969760936 
995	 0.115073008018158 
996	 0.115111308947839 
997	 0.115251320248817 
998	 0.115396548862441 
999	 0.115455160970378 
1000	 0.115871679211198 
1001	 0.11387529664961 
1002	 0.114040506465307 
1003	 0.114159507075262 
1004	 0.114258897408333 
1005	 0.114348388178053 
1006	 0.114446452565961 
1007	 0.114504556228216 
1008	 0.114616400662505 
1009	 0.114739426358471 
1010	 0.114855824001093 
1011	 0.114979111163965 
1012	 0.115072970969561 
1013	 0.115177583561978 
1014	 0.115315278195903 
1015	 0.115440338419622 
1016	 0.115517748472054 
1017	 0.115608665091065 
1018	 0.115698499548873 
1019	 0.115807067784703 
1020	 0.115884255530494 
1021	 0.115971813335419 
1022	 0.116082289682701 
1023	 0.116131019319182 
1024	 0.116146965515754 
1025	 0.116229546564717 
1026	 0.11631361619896 
1027	 0.116389419860687 
1028	 0.116510868416686 
1029	 0.116590091801447 
1030	 0.116619439366414 
1031	 0.116671692722598 
1032	 0.116719564170197 
1033	 0.116769249268773 
1034	 0.116814657965828 
1035	 0.116894735020012 
1036	 0.116988866612341 
1037	 0.117038768726667 
1038	 0.117094824781886 
1039	 0.117193529513813 
1040	 0.117274568001929 
1041	 0.11735921882676 
1042	 0.117467971983572 
1043	 0.117552961314794 
1044	 0.117615559707792 
1045	 0.117646632997464 
1046	 0.117683042442501 
1047	 0.117754126394132 
1048	 0.117835849251605 
1049	 0.117954649716742 
1050	 0.118107206324185 
1051	 0.118194275105214 
1052	 0.118256490100473 
1053	 0.118347658518499 
1054	 0.118395374811121 
1055	 0.118460032366241 
1056	 0.118574752499694 
1057	 0.118652986793081 
1058	 0.118689854001202 
1059	 0.118769660403525 
1060	 0.118879139909634 
1061	 0.118946249573562 
1062	 0.119003527936994 
1063	 0.119045061161855 
1064	 0.119067697230223 
1065	 0.119105034249683 
1066	 0.119155041750036 
1067	 0.119223568577388 
1068	 0.119280074388221 
1069	 0.119321119992102 
1070	 0.119378072081965 
1071	 0.119454798650265 
1072	 0.119506899182204 
1073	 0.119561543485075 
1074	 0.119593584135378 
1075	 0.119599587278995 
1076	 0.119608323372445 
1077	 0.119602928914748 
1078	 0.119639283837619 
1079	 0.119693875871763 
1080	 0.119710731524953 
1081	 0.119717477584547 
1082	 0.119701393842468 
1083	 0.119717187424842 
1084	 0.119727097469576 
1085	 0.119767028198155 
1086	 0.119863245139522 
1087	 0.11990043026435 
1088	 0.119931301144221 
1089	 0.119925924376014 
1090	 0.11987947294568 
1091	 0.119878299252872 
1092	 0.119895692383068 
1093	 0.119879723783694 
1094	 0.119894855969104 
1095	 0.119941514229009 
1096	 0.11993954433765 
1097	 0.119938549261136 
1098	 0.119934413801475 
1099	 0.11989041012045 
1100	 0.11988780908869 
1101	 0.119917986999695 
1102	 0.119938322037269 
1103	 0.119967892842596 
1104	 0.120004559181757 
1105	 0.120042576096933 
1106	 0.120045487109037 
1107	 0.120057937396834 
1108	 0.120094940846636 
1109	 0.120094662489883 
1110	 0.120114846887163 
1111	 0.120140420310913 
1112	 0.120174741745921 
1113	 0.120187089763825 
1114	 0.120192149658247 
1115	 0.120215277261084 
1116	 0.120231774934882 
1117	 0.120259062428169 
1118	 0.120320867758917 
1119	 0.120349121756539 
1120	 0.120359277232863 
1121	 0.120377424151143 
1122	 0.120425912865138 
1123	 0.120480563210721 
1124	 0.120517816791615 
1125	 0.120576508080276 
1126	 0.120594437997931 
1127	 0.120574749399977 
1128	 0.120575433603708 
1129	 0.120566984716954 
1130	 0.120568442072283 
1131	 0.120569176756076 
1132	 0.120575026075943 
1133	 0.120593080895222 
1134	 0.120600597067704 
1135	 0.12060076965433 
1136	 0.120621643647638 
1137	 0.120624864076506 
1138	 0.120638694993346 
1139	 0.120618558657674 
1140	 0.120587071137607 
1141	 0.1205431371108 
1142	 0.120453778755874 
1143	 0.120404268969904 
1144	 0.120371526745361 
1145	 0.12033175941412 
1146	 0.120307269396779 
1147	 0.120272673597759 
1148	 0.12023015743217 
1149	 0.12018482819298 
1150	 0.12011834727956 
1151	 0.120083740917631 
1152	 0.12006702744538 
1153	 0.120032821455507 
1154	 0.120021540685606 
1155	 0.120031666695035 
1156	 0.120042515146915 
1157	 0.120072411949197 
1158	 0.120074444846054 
1159	 0.120070968678802 
1160	 0.120070843324017 
1161	 0.120055469621711 
1162	 0.120041034242763 
1163	 0.120033076867662 
1164	 0.120025998052991 
1165	 0.120006793915787 
1166	 0.119988003773914 
1167	 0.119999028814575 
1168	 0.120028304517099 
1169	 0.120048330325659 
1170	 0.120078824643301 
1171	 0.120102249376801 
1172	 0.120121282588253 
1173	 0.120142724823375 
1174	 0.120170664794956 
1175	 0.120187738496209 
1176	 0.120198273518819 
1177	 0.120208975638678 
1178	 0.120211188147156 
1179	 0.120220463493877 
1180	 0.120238245026551 
1181	 0.120246794251956 
1182	 0.120251865302645 
1183	 0.120251485430569 
1184	 0.120268049293232 
1185	 0.120286834716904 
1186	 0.120305593930088 
1187	 0.120347684426097 
1188	 0.120359129185907 
1189	 0.12033984519224 
1190	 0.120351159656424 
1191	 0.1203718697049 
1192	 0.120381868400619 
1193	 0.120399691039526 
1194	 0.120417814907975 
1195	 0.120423314091289 
1196	 0.120434556947508 
1197	 0.120464328315069 
1198	 0.120480631401568 
1199	 0.120490800835428 
1200	 0.120488154124695 
1201	 0.120500121475219 
1202	 0.120509578786817 
1203	 0.120528616419074 
1204	 0.120565904351767 
1205	 0.120581503074078 
1206	 0.12058750331605 
1207	 0.120601172118774 
1208	 0.120601075571287 
1209	 0.120617890185179 
1210	 0.120654099160781 
1211	 0.120680165525818 
1212	 0.120706801338188 
1213	 0.120733263607271 
1214	 0.120750034207519 
1215	 0.120777487328604 
1216	 0.12081023906234 
1217	 0.120856447722106 
1218	 0.120879117889959 
1219	 0.12089469792974 
1220	 0.120918789466318 
1221	 0.120936278262948 
1222	 0.12095016470953 
1223	 0.120969652460724 
1224	 0.120988494187798 
1225	 0.120994453993035 
1226	 0.121007288575371 
1227	 0.121034586321499 
1228	 0.121052715900594 
1229	 0.121057227463845 
1230	 0.121072798207389 
1231	 0.121090263775669 
1232	 0.121112401498296 
1233	 0.121139409833947 
1234	 0.121177991286313 
1235	 0.121202615295509 
1236	 0.121228265299999 
1237	 0.121247375523275 
1238	 0.121253304007727 
1239	 0.121269584455765 
1240	 0.12128790239312 
1241	 0.121307301307487 
1242	 0.1213364360116 
1243	 0.121352865537034 
1244	 0.12136095231754 
1245	 0.121372199089738 
1246	 0.121373668001804 
1247	 0.121384432876266 
1248	 0.121404851910644 
1249	 0.121422816466464 
1250	 0.121438643065925 
1251	 0.121451403348537 
1252	 0.121461490405741 
1253	 0.121462800475174 
1254	 0.121474649168639 
1255	 0.12149215266132 
1256	 0.121501009537876 
1257	 0.1215123971443 
1258	 0.121519646086554 
1259	 0.121522420056726 
1260	 0.121519678568359 
1261	 0.121512307751343 
1262	 0.121505017298453 
1263	 0.121475829121856 
1264	 0.121474375937567 
1265	 0.121499003094979 
1266	 0.121509577111553 
1267	 0.121523681856351 
1268	 0.121545783617536 
1269	 0.121557760672011 
1270	 0.121550651894102 
1271	 0.121568825367079 
1272	 0.121599356969337 
1273	 0.121627439229607 
1274	 0.121671507930162 
1275	 0.121693734115722 
1276	 0.121704687913502 
1277	 0.121719715125887 
1278	 0.12171648212718 
1279	 0.121735846863243 
1280	 0.121773044644533 
1281	 0.121803454445912 
1282	 0.121845709727195 
1283	 0.121876347260837 
1284	 0.121900232882245 
1285	 0.121920484682411 
1286	 0.121931352417207 
1287	 0.121949060932723 
1288	 0.12196793666859 
1289	 0.121982720599626 
1290	 0.12200922674743 
1291	 0.122059154173261 
1292	 0.122065429008267 
1293	 0.12206485762081 
1294	 0.122049304484731 
1295	 0.121991607505111 
1296	 0.121958970111006 
1297	 0.121930774681986 
1298	 0.121901189924902 
1299	 0.12188780602026 
1300	 0.121848843533384 
1301	 0.121811985094754 
1302	 0.12174670714631 
1303	 0.121635476240991 
1304	 0.121540673080495 
1305	 0.121470400753052 
1306	 0.121392959287213 
1307	 0.121351033828069 
1308	 0.121311838586161 
1309	 0.121242701061067 
1310	 0.121152084860592 
1311	 0.121064898607134 
1312	 0.120958947157554 
1313	 0.120870089325355 
1314	 0.120788619704964 
1315	 0.120701646316482 
1316	 0.120624691046861 
1317	 0.120532116121836 
1318	 0.120420404366918 
1319	 0.120321545750217 
1320	 0.120231685239518 
1321	 0.120128755842199 
1322	 0.120010507124679 
1323	 0.119919472443707 
1324	 0.119828204820543 
1325	 0.119716366496765 
1326	 0.119631489871315 
1327	 0.119537901914006 
1328	 0.119419571283694 
1329	 0.119320348599108 
1330	 0.119221386079287 
1331	 0.119127126505344 
1332	 0.119024911058481 
1333	 0.118920128647404 
1334	 0.118822637101043 
1335	 0.118718907752386 
1336	 0.118627660621567 
1337	 0.11855372052957 
1338	 0.118472754757595 
1339	 0.118388933221709 
1340	 0.118310804450543 
1341	 0.118250511944684 
1342	 0.118164249457419 
1343	 0.118073230377695 
1344	 0.117961818623222 
1345	 0.117854066362853 
1346	 0.117755165216625 
1347	 0.117665311659506 
1348	 0.117577381375111 
1349	 0.117461370943978 
1350	 0.11733558655833 
1351	 0.117211344096885 
1352	 0.11707005411094 
1353	 0.116952169449801 
1354	 0.116847133026683 
1355	 0.116729536752655 
1356	 0.116613292186791 
1357	 0.116503406842223 
1358	 0.1163874250275 
1359	 0.116277566844843 
1360	 0.116179791348987 
1361	 0.116078068124778 
1362	 0.115969066686502 
1363	 0.115871099603976 
1364	 0.115787593475864 
1365	 0.115692928009237 
1366	 0.115603372767391 
1367	 0.115503184811537 
1368	 0.11539364719787 
1369	 0.115278760990685 
1370	 0.115128793575884 
1371	 0.114965404695641 
1372	 0.114788546281204 
1373	 0.114559720118053 
1374	 0.114305915309845 
1375	 0.114041157465105 
1376	 0.113709391845232 
1377	 0.113327197043143 
1378	 0.112910995403808 
1379	 0.112429175125272 
1380	 0.111957226261214 
1381	 0.111465084802857 
1382	 0.110947947851852 
1383	 0.110433197561695 
1384	 0.109864353634833 
1385	 0.109272070744723 
1386	 0.108628117288633 
1387	 0.107938341104934 
1388	 0.107218855915915 
1389	 0.106460587975598 
1390	 0.1056583098135 
1391	 0.10482897447584 
1392	 0.103974009624933 
1393	 0.103064490821787 
1394	 0.102133066251084 
1395	 0.101178952614366 
1396	 0.100228262375251 
1397	 9.93001772154296E-02 
1398	 9.83803269704625E-02 
1399	 9.74663216796227E-02 
1400	 9.65547136419129E-02 
1401	 9.56713401104628E-02 
1402	 0.09479011966305 
1403	 9.39556514252756E-02 
1404	 9.31470216691158E-02 
1405	 9.23850392438382E-02 
1406	 9.16515939772902E-02 
1407	 9.09606132728924E-02 
1408	 9.03157143353359E-02 
1409	 8.97035761428657E-02 
1410	 8.91223225406031E-02 
1411	 8.85872138514176E-02 
1412	 8.80960770651836E-02 
1413	 8.76331490803214E-02 
1414	 8.72140281632845E-02 
1415	 0.086837017632746 
1416	 8.64930022599393E-02 
1417	 8.61806051330952E-02 
1418	 0.085888547561547 
1419	 8.56135306365831E-02 
1420	 8.53692301785527E-02 
1421	 8.51432256039441E-02 
1422	 8.49340355976588E-02 
1423	 8.47464897489123E-02 
1424	 8.45529453943055E-02 
1425	 8.43520699620889E-02 
1426	 8.41791147836055E-02 
1427	 8.40199360184478E-02 
1428	 8.38722466520541E-02 
1429	 8.37381519221889E-02 
1430	 8.36219591043303E-02 
1431	 8.35235692366047E-02 
1432	 8.34250196425547E-02 
1433	 8.33393282161556E-02 
1434	 8.32610049818762E-02 
1435	 8.31836704962107E-02 
1436	 8.31208253559885E-02 
1437	 8.30788266069118E-02 
1438	 8.30382121367834E-02 
1439	 8.30096816761778E-02 
1440	 0.082969172424289 
1441	 8.29350436297364E-02 
1442	 8.29058615566153E-02 
1443	 8.28842698615238E-02 
1444	 8.28672415534822E-02 
1445	 8.28677059845992E-02 
1446	 8.28726841861084E-02 
1447	 8.28657169873044E-02 
1448	 8.28713955353351E-02 
1449	 8.28815074650672E-02 
1450	 8.28915530144927E-02 
1451	 8.29070160821032E-02 
1452	 8.29284635002922E-02 
1453	 8.29551328490237E-02 
1454	 8.29876387836948E-02 
1455	 8.30181237096405E-02 
1456	 8.30542947276878E-02 
1457	 8.30927631840917E-02 
1458	 8.31211950576874E-02 
1459	 8.31703716075321E-02 
1460	 8.32239439384422E-02 
1461	 8.33051426984757E-02 
1462	 0.083412575695013 
1463	 8.35134330865915E-02 
1464	 8.36318135028334E-02 
1465	 0.083751178264759 
1466	 8.38597759531148E-02 
1467	 8.39905288538564E-02 
1468	 8.41378292260025E-02 
1469	 8.42924039442873E-02 
1470	 0.084453823773395 
1471	 8.46370969473063E-02 
1472	 8.48272629965431E-02 
1473	 0.085007813836537 
1474	 8.51974960188372E-02 
1475	 0.085399234287961 
1476	 8.56073355351479E-02 
1477	 8.58293963670245E-02 
1478	 8.60604303023386E-02 
1479	 8.62879548890512E-02 
1480	 8.65197423967009E-02 
1481	 8.67488512729339E-02 
1482	 8.69696723075176E-02 
1483	 8.71812415602135E-02 
1484	 8.74037955293609E-02 
1485	 8.76162106513874E-02 
1486	 8.78517635454113E-02 
1487	 8.81063628118526E-02 
1488	 8.83508960338292E-02 
1489	 8.86106157355924E-02 
1490	 0.08885584685829 
1491	 8.90934930113115E-02 
1492	 8.93255520785408E-02 
1493	 8.95393568416382E-02 
1494	 8.97720900595285E-02 
1495	 9.00125133242407E-02 
1496	 9.02495387468626E-02 
1497	 9.04980087377493E-02 
1498	 9.07393116450477E-02 
1499	 9.09714346789404E-02 
1500	 0.091208157631427 
1501	 9.14519145691379E-02 
1502	 9.16863210888951E-02 
1503	 9.19228009628741E-02 
1504	 9.21421769032117E-02 
1505	 9.23460282665317E-02 
1506	 9.25625165613285E-02 
1507	 9.27824716924631E-02 
1508	 9.29929334570128E-02 
1509	 9.32078344989121E-02 
1510	 9.34382189179866E-02 
1511	 9.36578256643398E-02 
1512	 9.38627269715041E-02 
1513	 9.40729763831329E-02 
1514	 9.42778562573041E-02 
1515	 9.44752360105299E-02 
1516	 9.46802332068353E-02 
1517	 9.48785874530101E-02 
1518	 9.50714864396594E-02 
1519	 9.52641824536528E-02 
1520	 9.54540540348092E-02 
1521	 9.56474029872189E-02 
1522	 0.095838887294733 
1523	 9.60331552577874E-02 
1524	 9.62383801264917E-02 
1525	 9.64271071548401E-02 
1526	 0.096607905260079 
1527	 9.67895932120706E-02 
1528	 0.096959497311539 
1529	 9.71351611313928E-02 
1530	 9.73194334662906E-02 
1531	 9.74950348599656E-02 
1532	 9.76753512164691E-02 
1533	 9.78330359151968E-02 
1534	 9.79677732020949E-02 
1535	 9.81159054249867E-02 
1536	 9.82454274702421E-02 
1537	 9.83975445575637E-02 
1538	 9.85714430653792E-02 
1539	 9.87380134086272E-02 
1540	 9.89174839278899E-02 
1541	 9.90861000784069E-02 
1542	 9.92609458370008E-02 
1543	 9.94117590189302E-02 
1544	 0.099529485031081 
1545	 9.96681988498113E-02 
1546	 9.98057907975775E-02 
1547	 9.99393175243725E-02 
1548	 0.100092273908194 
1549	 0.100234998059438 
1550	 0.100343952628781 
1551	 0.100469872723333 
1552	 0.1006055504532 
1553	 0.100726849630444 
1554	 0.100848987383773 
1555	 0.100969229091266 
1556	 0.101073094018624 
1557	 0.101167957752644 
1558	 0.101283580989835 
1559	 0.101400976324282 
1560	 0.101513741159433 
1561	 0.101633459894152 
1562	 0.101745502054887 
1563	 0.101846083392476 
1564	 0.101953140551503 
1565	 0.102065642859243 
1566	 0.102171281339572 
1567	 0.102282760090944 
1568	 0.102374253181677 
1569	 0.102449694686681 
1570	 0.10252906683259 
1571	 0.102594646032898 
1572	 0.102667342629551 
1573	 0.102747256156824 
1574	 0.102825103011937 
1575	 0.102898409683323 
1576	 0.102975227677679 
1577	 0.103055167088372 
1578	 0.103131358704341 
1579	 0.103209163451023 
1580	 0.103284346044759 
1581	 0.103354227100152 
1582	 0.103432731001096 
1583	 0.103521629689871 
1584	 0.103592448335142 
1585	 0.103653134288926 
1586	 0.10372143211843 
1587	 0.103781859898355 
1588	 0.103842827123392 
1589	 0.103925907402739 
1590	 0.103982102468808 
1591	 0.104005038816809 
1592	 0.104050274899568 
1593	 0.104098462157944 
1594	 0.104145527061835 
1595	 0.104209977646306 
1596	 0.104257464604486 
1597	 0.104283692607135 
1598	 0.104319321487555 
1599	 0.10434908927815 
1600	 0.104391587596857 
1601	 0.104458578724526 
1602	 0.104503914372666 
1603	 0.104531151700137 
1604	 0.104577335876248 
1605	 0.104629542115692 
1606	 0.104668113049046 
1607	 0.104718202584337 
1608	 0.10475895874424 
1609	 0.104774613071299 
1610	 0.104794492746833 
1611	 0.104830341697179 
1612	 0.104870881199124 
1613	 0.10489900285811 
1614	 0.104923478667164 
1615	 0.104944435533039 
1616	 0.104964262442786 
1617	 0.104995485093709 
1618	 0.10504175812013 
1619	 0.105080884056909 
1620	 0.105102155345198 
1621	 0.105118379965905 
1622	 0.105117397502603 
1623	 0.105135670799617 
1624	 0.10515219636124 
1625	 0.105180002059309 
1626	 0.105225771513521 
1627	 0.105249880305326 
1628	 0.105268584585002 
1629	 0.105289522664675 
1630	 0.105300551651415 
1631	 0.105322227057045 
1632	 0.105358550156504 
1633	 0.10536891601811 
1634	 0.105365450569356 
1635	 0.105375102081151 
1636	 0.105372012889499 
1637	 0.105385661195346 
1638	 0.105424152399761 
1639	 0.105435730260966 
1640	 0.105435875010491 
1641	 0.105443067112537 
1642	 0.105445556680437 
1643	 0.105444974915304 
1644	 0.105444892979812 
1645	 0.105446899288904 
1646	 0.105443968134515 
1647	 0.105440252226301 
1648	 0.105436925988876 
1649	 0.105443587020648 
1650	 0.105454164507461 
1651	 0.105455957378477 
1652	 0.105470129409604 
1653	 0.105466413694838 
1654	 0.105437534846946 
1655	 0.10542641078581 
1656	 0.105420875175396 
1657	 0.105412538704903 
1658	 0.10540992159438 
1659	 0.105398682028105 
1660	 0.105379936164873 
1661	 0.105366471100907 
1662	 0.105349916377988 
1663	 0.105338104837767 
1664	 0.10534244429855 
1665	 0.105318372376935 
1666	 0.105279032777963 
1667	 0.105245076745744 
1668	 0.105184655693373 
1669	 0.105157352509836 
1670	 0.105149454601172 
1671	 0.105142700076079 
1672	 0.105155879606296 
1673	 0.105153368532369 
1674	 0.105152814977553 
1675	 0.105141504506539 
1676	 0.105120115790743 
1677	 0.105097216652601 
1678	 0.105067340401212 
1679	 0.105037834387051 
1680	 0.10500102825573 
1681	 0.104973407789816 
1682	 0.104946239511961 
1683	 0.104926058232371 
1684	 0.104923127947061 
1685	 0.104897990746955 
1686	 0.104870493834205 
1687	 0.104831029314377 
1688	 0.104765856739706 
1689	 0.104720843021696 
1690	 0.104670986854212 
1691	 0.104639948656985 
1692	 0.104635524088592 
1693	 0.104607427070408 
1694	 0.104579539647558 
1695	 0.104549608803026 
1696	 0.10450377087085 
1697	 0.104465244988198 
1698	 0.104441628576227 
1699	 0.104397565467866 
1700	 0.104337741948191 
1701	 0.104287007912333 
1702	 0.104224521666286 
1703	 0.10417891340474 
1704	 0.104139847631104 
1705	 0.104111686847833 
1706	 0.104110844510299 
1707	 0.104074507692707 
1708	 0.104032105659548 
1709	 0.103986415697779 
1710	 0.103922451754046 
1711	 0.103852575320209 
1712	 0.103783448754083 
1713	 0.103706484731304 
1714	 0.103594588650718 
1715	 0.103524099159199 
1716	 0.103476761886368 
1717	 0.103421841297589 
1718	 0.103389626866806 
1719	 0.103333100195751 
1720	 0.103259111482512 
1721	 0.103199150195183 
1722	 0.103140354946785 
1723	 0.103073500604185 
1724	 0.103019032969704 
1725	 0.102934847178292 
1726	 0.102831591234171 
1727	 0.102719225399507 
1728	 0.102572682172428 
1729	 0.102470041354135 
1730	 0.102370969121337 
1731	 0.102289783328089 
1732	 0.102258043076666 
1733	 0.102175261856883 
1734	 0.10207796096494 
1735	 0.10196967776703 
1736	 0.101819435247207 
1737	 0.10172589745812 
1738	 0.101660226166303 
1739	 0.101567994463326 
1740	 0.10149068419687 
1741	 0.101398763268031 
1742	 0.101283859346339 
1743	 0.101178214256039 
1744	 0.101084481936449 
1745	 0.100979623170007 
1746	 0.100849811954162 
1747	 0.100737727009288 
1748	 0.100664653268899 
1749	 0.100579278099496 
1750	 0.10047668056127 
1751	 0.100351675708294 
1752	 0.100223978320675 
1753	 0.100097447304537 
1754	 9.99686259061053E-02 
1755	 9.98662511299263E-02 
1756	 9.97495133303486E-02 
1757	 9.96087086805108E-02 
1758	 9.95067186797461E-02 
1759	 9.94307477558611E-02 
1760	 9.93404442849262E-02 
1761	 9.92452823700603E-02 
1762	 9.91134854957012E-02 
1763	 9.89590263474731E-02 
1764	 9.88407625417878E-02 
1765	 9.87234423014621E-02 
1766	 9.86431693865042E-02 
1767	 9.85912014272737E-02 
1768	 9.84607840507017E-02 
1769	 9.83370707303862E-02 
1770	 9.82479370179229E-02 
1771	 9.81106698188028E-02 
1772	 9.79916721671797E-02 
1773	 9.79135805679024E-02 
1774	 9.78122684837442E-02 
1775	 9.77186005272872E-02 
1776	 9.76718813871248E-02 
1777	 9.76017467105359E-02 
1778	 9.75108133590054E-02 
1779	 9.74477586547648E-02 
1780	 0.097369619950515 
1781	 9.72937249808133E-02 
1782	 9.72427147097193E-02 
1783	 9.71830426850757E-02 
1784	 9.71337887846484E-02 
1785	 9.71036208507116E-02 
1786	 9.70607484456607E-02 
1787	 9.70112136596813E-02 
1788	 9.69711660938993E-02 
1789	 0.096939827534505 
1790	 9.68997398091034E-02 
1791	 9.68650769396747E-02 
1792	 0.096812332744653 
1793	 9.67253041970961E-02 
1794	 9.66849107396295E-02 
1795	 9.66693204850264E-02 
1796	 9.66437379717677E-02 
1797	 9.66372603040051E-02 
1798	 9.66039759374915E-02 
1799	 9.65439328641721E-02 
1800	 0.096515479735868 
1801	 9.43835880088377E-02 
1802	 9.44514749780036E-02 
1803	 9.45380425905038E-02 
1804	 9.46354215117952E-02 
1805	 0.094703261569075 
1806	 9.47832070869621E-02 
1807	 9.48431979050934E-02 
1808	 9.48858220552582E-02 
1809	 9.49155390243994E-02 
1810	 9.49342021116525E-02 
1811	 9.49217310356287E-02 
1812	 9.49316692010141E-02 
1813	 9.49374266758036E-02 
1814	 9.49375339662301E-02 
1815	 9.49717989571129E-02 
1816	 9.49716030333527E-02 
1817	 9.49594471340782E-02 
1818	 9.49306283883803E-02 
1819	 9.49110200186373E-02 
1820	 9.48750831437747E-02 
1821	 9.48545968070503E-02 
1822	 9.48320840195845E-02 
1823	 0.094823169427658 
1824	 9.47963700748714E-02 
1825	 9.47458901799383E-02 
1826	 9.47246134825813E-02 
1827	 9.46742299465942E-02 
1828	 9.46175597502467E-02 
1829	 9.45618508847968E-02 
1830	 9.44906216493916E-02 
1831	 0.094389923773529 
1832	 9.43177046373861E-02 
1833	 0.094231944125549 
1834	 9.41362201256063E-02 
1835	 9.40560083159851E-02 
1836	 9.39713656076586E-02 
1837	 0.093894721054785 
1838	 9.37978803213004E-02 
1839	 9.37104266079576E-02 
1840	 9.36318607525272E-02 
1841	 9.35385971363711E-02 
1842	 9.34118783901763E-02 
1843	 9.33215813623892E-02 
1844	 9.32316560802224E-02 
1845	 9.31036834245402E-02 
1846	 9.29864990505636E-02 
1847	 9.28815816730872E-02 
1848	 9.27206053686479E-02 
1849	 9.25214802317281E-02 
1850	 9.23312894220709E-02 
1851	 9.21394259874451E-02 
1852	 9.19151853647024E-02 
1853	 9.16640191629014E-02 
1854	 9.14117374763519E-02 
1855	 9.11442238577687E-02 
1856	 9.08309396823582E-02 
1857	 9.05039633598771E-02 
1858	 9.01776537683962E-02 
1859	 8.98085828321653E-02 
1860	 8.94121105073283E-02 
1861	 8.89915229412593E-02 
1862	 8.85464477143358E-02 
1863	 8.80423527600178E-02 
1864	 8.74762661039438E-02 
1865	 8.68595721602437E-02 
1866	 8.61910866761744E-02 
1867	 8.54963053511584E-02 
1868	 8.47847811172772E-02 
1869	 8.40228041395848E-02 
1870	 8.32375616959752E-02 
1871	 8.24192291404123E-02 
1872	 8.15652541773917E-02 
1873	 0.080682620795999 
1874	 7.98060447406431E-02 
1875	 7.88888723271242E-02 
1876	 7.79315853668972E-02 
1877	 7.69515030825438E-02 
1878	 7.59090870499877E-02 
1879	 7.48011209024286E-02 
1880	 7.36773086913599E-02 
1881	 7.25144755549427E-02 
1882	 7.13283144913466E-02 
1883	 0.07010857453716 
1884	 6.88539033423928E-02 
1885	 6.75912139501883E-02 
1886	 6.62972732170834E-02 
1887	 6.49754396181221E-02 
1888	 6.36946578002124E-02 
1889	 6.24162677512143E-02 
1890	 6.11343669061218E-02 
1891	 5.99055246239969E-02 
1892	 5.86916052821277E-02 
1893	 5.75374716585037E-02 
1894	 5.64227110813526E-02 
1895	 5.53645808043566E-02 
1896	 5.43416298937976E-02 
1897	 5.33658507934386E-02 
1898	 5.24171214097308E-02 
1899	 5.15362033318526E-02 
1900	 5.07181310502793E-02 
1901	 4.99640645107031E-02 
1902	 4.92736199304547E-02 
1903	 4.86651334584184E-02 
1904	 4.80868569264665E-02 
1905	 4.75585297774537E-02 
1906	 4.70903170312627E-02 
1907	 4.66727189167989E-02 
1908	 4.63058612433525E-02 
1909	 4.59812019640568E-02 
1910	 4.56720066534992E-02 
1911	 4.53765841416051E-02 
1912	 4.51008560321181E-02 
1913	 4.48404011756268E-02 
1914	 4.45865258774141E-02 
1915	 4.43747234302993E-02 
1916	 4.41946195685719E-02 
1917	 4.40211281973215E-02 
1918	 4.38830487731463E-02 
1919	 4.37737779503609E-02 
1920	 4.36671747417647E-02 
1921	 4.35651419569167E-02 
1922	 4.34780188790569E-02 
1923	 4.34047915790602E-02 
1924	 4.33493612701566E-02 
1925	 4.33204959079403E-02 
1926	 4.32872949847183E-02 
1927	 4.32644961232847E-02 
1928	 4.32450334368292E-02 
1929	 4.32425916539104E-02 
1930	 4.32404695068237E-02 
1931	 4.32571795694048E-02 
1932	 4.32964143987856E-02 
1933	 4.33316638382172E-02 
1934	 4.33758983879439E-02 
1935	 4.34352387412573E-02 
1936	 4.35128108677066E-02 
1937	 4.35903375323442E-02 
1938	 4.36841812659686E-02 
1939	 4.37754318852812E-02 
1940	 4.38673067191559E-02 
1941	 4.39610933342692E-02 
1942	 4.40744593677548E-02 
1943	 4.41847990711046E-02 
1944	 4.42868610456211E-02 
1945	 4.44076227878624E-02 
1946	 4.45362146897759E-02 
1947	 4.46664949665075E-02 
1948	 4.47973910198875E-02 
1949	 4.49444278708225E-02 
1950	 4.50919086947075E-02 
1951	 4.52320313246407E-02 
1952	 4.53834706364122E-02 
1953	 4.55502266723818E-02 
1954	 4.57137272990017E-02 
1955	 4.58754749599211E-02 
1956	 4.60346920195592E-02 
1957	 4.62097960134892E-02 
1958	 4.63948042799831E-02 
1959	 4.65818632684588E-02 
1960	 4.67861419593787E-02 
1961	 4.69795758233341E-02 
1962	 4.71656302175585E-02 
1963	 4.73609049373073E-02 
1964	 4.75555298020098E-02 
1965	 4.77526450618902E-02 
1966	 4.79822506935187E-02 
1967	 4.81954584180921E-02 
1968	 4.83912257163457E-02 
1969	 4.85731177599526E-02 
1970	 4.87716533795661E-02 
1971	 4.89494555546821E-02 
1972	 4.91549194814727E-02 
1973	 0.049400600174001 
1974	 4.96174157497025E-02 
1975	 4.98229031526979E-02 
1976	 5.00267366422027E-02 
1977	 5.02659687940742E-02 
1978	 0.050491669507981 
1979	 5.07121823739819E-02 
1980	 5.09536924606445E-02 
1981	 5.11779888654318E-02 
1982	 5.13691597219855E-02 
1983	 5.15925482615276E-02 
1984	 5.18360285331537E-02 
1985	 0.052067466828591 
1986	 5.22952874515751E-02 
1987	 5.25323043906045E-02 
1988	 5.27689486410533E-02 
1989	 5.30269045871512E-02 
1990	 0.053259233786312 
1991	 5.34845286597322E-02 
1992	 5.37091650172135E-02 
1993	 5.39070021715922E-02 
1994	 5.41298766697698E-02 
1995	 5.43728971386987E-02 
1996	 5.46016272552003E-02 
1997	 5.48299089773898E-02 
1998	 5.50607941857117E-02 
1999	 0.055287808960405 
2000	 5.55160054453955E-02 
2001	 5.57506416752869E-02 
2002	 0.055977389672667 
2003	 5.62025214714537E-02 
2004	 5.64274130493286E-02 
2005	 5.66552618221561E-02 
2006	 5.68802902639444E-02 
2007	 5.71167779107274E-02 
2008	 5.73664070138665E-02 
2009	 5.76020692886024E-02 
2010	 5.78379106561416E-02 
2011	 5.80735553858838E-02 
2012	 5.83028340832703E-02 
2013	 5.85313581925401E-02 
2014	 5.87630526765034E-02 
2015	 5.89899311761217E-02 
2016	 5.92249395521613E-02 
2017	 5.94510952658294E-02 
2018	 5.96698621759256E-02 
2019	 5.98871050347297E-02 
2020	 6.01055579448452E-02 
2021	 6.03061968966513E-02 
2022	 6.05208926288484E-02 
2023	 6.07567784218925E-02 
2024	 6.09752113488938E-02 
2025	 0.061176927285599 
2026	 6.13948181481576E-02 
2027	 6.16196149514975E-02 
2028	 6.18380052055038E-02 
2029	 6.20558914574939E-02 
2030	 6.22864866695073E-02 
2031	 6.24993747324813E-02 
2032	 6.26959805315293E-02 
2033	 6.28986979081079E-02 
2034	 6.30974094513464E-02 
2035	 6.33000329690896E-02 
2036	 6.35046267259411E-02 
2037	 6.37070989337866E-02 
2038	 6.39139530344137E-02 
2039	 6.41137191194473E-02 
2040	 6.43120197979931E-02 
2041	 6.45054564883449E-02 
2042	 6.46772187360256E-02 
2043	 6.48492675884357E-02 
2044	 6.50302469662774E-02 
2045	 6.52049896531854E-02 
2046	 0.065386101917312 
2047	 6.55782893429378E-02 
2048	 6.57700237582765E-02 
2049	 6.59661824399873E-02 
2050	 0.066151577290035 
2051	 6.63378811792391E-02 
2052	 6.65230666640965E-02 
2053	 6.66899454085716E-02 
2054	 6.68696167699873E-02 
2055	 6.70677322855207E-02 
2056	 6.72556843152505E-02 
2057	 6.74328953264235E-02 
2058	 6.76009020257391E-02 
2059	 6.77805653583327E-02 
2060	 6.79505778869151E-02 
2061	 6.81321741198001E-02 
2062	 6.83364623421449E-02 
2063	 6.85193758549951E-02 
2064	 6.86980124080598E-02 
2065	 6.88675486768428E-02 
2066	 6.90144327638537E-02 
2067	 6.91788488211702E-02 
2068	 6.93411228877754E-02 
2069	 6.95152574212885E-02 
2070	 6.96836983478102E-02 
2071	 6.98638416985814E-02 
2072	 7.00294334247839E-02 
2073	 7.01796153915132E-02 
2074	 7.03453562513057E-02 
2075	 7.05185647234658E-02 
2076	 0.070685559751736 
2077	 7.08599862997318E-02 
2078	 7.10236324659468E-02 
2079	 7.11800464692857E-02 
2080	 7.13326536813094E-02 
2081	 7.14721317617203E-02 
2082	 7.16226288985543E-02 
2083	 7.17845520262706E-02 
2084	 7.19332579604175E-02 
2085	 7.20678283574209E-02 
2086	 7.21947349321929E-02 
2087	 7.23322645293237E-02 
2088	 7.24431503176585E-02 
2089	 7.25921444805831E-02 
2090	 7.27868576171033E-02 
2091	 7.29423880299495E-02 
2092	 7.30915398656169E-02 
2093	 7.32397882288498E-02 
2094	 7.33590797903327E-02 
2095	 7.35035189027176E-02 
2096	 7.36741726683688E-02 
2097	 7.38280618753872E-02 
2098	 7.39773199796133E-02 
2099	 7.41351032103914E-02 
2100	 7.42856270740471E-02 
2101	 0.074426522874143 
2102	 7.45696080671754E-02 
2103	 7.47157311292048E-02 
2104	 7.48576360052799E-02 
2105	 0.074991690815952 
2106	 7.51294019879286E-02 
2107	 7.52753390182489E-02 
2108	 7.54103155392494E-02 
2109	 7.55428774499342E-02 
2110	 7.56670181150241E-02 
2111	 7.57692670061884E-02 
2112	 7.58900567433402E-02 
2113	 7.60293885309631E-02 
2114	 7.61399241578757E-02 
2115	 7.62674441516013E-02 
2116	 0.07640868717371 
2117	 7.65398042504779E-02 
2118	 7.66630247643602E-02 
2119	 7.67955413906088E-02 
2120	 0.076943868951972 
2121	 7.70658592178104E-02 
2122	 7.71723400196284E-02 
2123	 7.72882332732231E-02 
2124	 7.73970571040651E-02 
2125	 7.75020121880701E-02 
2126	 7.76118327154045E-02 
2127	 7.77179204552923E-02 
2128	 7.78103764696749E-02 
2129	 7.79067933014312E-02 
2130	 7.80049817337459E-02 
2131	 0.078117249331003 
2132	 7.82011526658461E-02 
2133	 0.078271019218326 
2134	 7.83452664360656E-02 
2135	 7.84045440124054E-02 
2136	 7.84722872539307E-02 
2137	 7.85468816097476E-02 
2138	 7.86158456315527E-02 
2139	 7.86928424556286E-02 
2140	 7.87457707345468E-02 
2141	 7.87862921598699E-02 
2142	 7.88239272299411E-02 
2143	 7.88360745568763E-02 
2144	 7.88596973486702E-02 
2145	 7.88881585439421E-02 
2146	 7.89158387248696E-02 
2147	 7.89472095738202E-02 
2148	 7.89834905221307E-02 
2149	 7.89873339264043E-02 
2150	 7.89737953481972E-02 
2151	 7.89698889620653E-02 
2152	 7.89373198703713E-02 
2153	 7.89339091387332E-02 
2154	 7.89616919287157E-02 
2155	 7.89627733698591E-02 
2156	 7.89588997166557E-02 
2157	 7.89523930738682E-02 
2158	 7.89517586803052E-02 
2159	 7.89202185906579E-02 
2160	 7.88635916791559E-02 
2161	 7.88152399597533E-02 
2162	 7.87297073303137E-02 
2163	 7.86743704150444E-02 
2164	 0.078648000990444 
2165	 7.86250046484533E-02 
2166	 7.85756982759732E-02 
2167	 0.07852305160822 
2168	 7.84675651403362E-02 
2169	 7.83824478383089E-02 
2170	 7.83290585604381E-02 
2171	 7.83099960615295E-02 
2172	 7.82480769045025E-02 
2173	 7.81621646131994E-02 
2174	 7.81021052141528E-02 
2175	 0.078032250860689 
2176	 7.79688259139454E-02 
2177	 7.79397547019792E-02 
2178	 7.78827330822052E-02 
2179	 7.78013302886238E-02 
2180	 7.77260857705655E-02 
2181	 7.76464757575729E-02 
2182	 7.75689004403737E-02 
2183	 7.75002524706715E-02 
2184	 7.74077605841137E-02 
2185	 7.73336021947988E-02 
2186	 7.72649865547078E-02 
2187	 7.71913425553789E-02 
2188	 7.71168659180071E-02 
2189	 7.70514945326519E-02 
2190	 7.69830897436162E-02 
2191	 7.69255793228269E-02 
2192	 7.68917213080098E-02 
2193	 0.076834957226223 
2194	 7.67689746879309E-02 
2195	 7.67057984192896E-02 
2196	 7.66232609769479E-02 
2197	 7.65610318507562E-02 
2198	 7.65061518082139E-02 
2199	 7.64639446504513E-02 
2200	 7.64356393084755E-02 
2201	 7.64141842454619E-02 
2202	 7.64119876286578E-02 
2203	 7.63992967107979E-02 
2204	 0.07640128477286 
2205	 7.64220284430411E-02 
2206	 7.64121894271361E-02 
2207	 7.63860062075493E-02 
2208	 7.63867727753369E-02 
2209	 7.63766804757794E-02 
2210	 0.07638635837166 
2211	 7.64375701440364E-02 
2212	 7.64596012809499E-02 
2213	 7.64786004711407E-02 
2214	 7.64809681822137E-02 
2215	 7.64570609584411E-02 
2216	 7.64529642668032E-02 
2217	 7.64457924572859E-02 
2218	 7.64397882364874E-02 
2219	 7.64489562184505E-02 
2220	 7.64555962641906E-02 
2221	 7.64606975663512E-02 
2222	 7.64590111337013E-02 
2223	 7.64523603940703E-02 
2224	 7.64431636668581E-02 
2225	 7.64301821021806E-02 
2226	 7.63941254978985E-02 
2227	 7.63882547986837E-02 
2228	 7.64002415006978E-02 
2229	 7.64035324308865E-02 
2230	 7.64262964930525E-02 
2231	 7.64191359169847E-02 
2232	 7.63934684927084E-02 
2233	 7.63680688896229E-02 
2234	 7.63171825587415E-02 
2235	 7.62935438186176E-02 
2236	 7.62888062717807E-02 
2237	 7.62696648287422E-02 
2238	 7.62558511887329E-02 
2239	 7.62375058876713E-02 
2240	 0.076206445532948 
2241	 7.61810472617815E-02 
2242	 7.61600724386398E-02 
2243	 7.61383220607744E-02 
2244	 7.61289474879315E-02 
2245	 7.60946480798461E-02 
2246	 0.076043289041079 
2247	 7.60044026386803E-02 
2248	 7.59524025875728E-02 
2249	 0.075878214115663 
2250	 7.58208447596267E-02 
2251	 7.57645792720911E-02 
2252	 7.57240467866306E-02 
2253	 0.075686650343786 
2254	 7.56574711405621E-02 
2255	 7.56621938553094E-02 
2256	 7.56250481727146E-02 
2257	 7.55697697774712E-02 
2258	 7.55182306165042E-02 
2259	 7.54510505317344E-02 
2260	 7.53888977931639E-02 
2261	 7.53208280040316E-02 
2262	 7.52656355085072E-02 
2263	 7.52089405405273E-02 
2264	 7.51549135869312E-02 
2265	 7.51135859449956E-02 
2266	 7.50783215635412E-02 
2267	 7.50543529239105E-02 
2268	 7.50185697460904E-02 
2269	 7.49961708856873E-02 
2270	 7.49472511022075E-02 
2271	 7.48791116473984E-02 
2272	 7.48246287091375E-02 
2273	 7.47575811966619E-02 
2274	 7.46910293146359E-02 
2275	 7.46229236957855E-02 
2276	 7.45449966601141E-02 
2277	 7.44804720416278E-02 
2278	 0.074425458126828 
2279	 7.43614124821805E-02 
2280	 7.42932335125111E-02 
2281	 7.42442420284016E-02 
2282	 7.42106830112957E-02 
2283	 0.074154085241775 
2284	 7.41067682727886E-02 
2285	 7.40433764996027E-02 
2286	 7.39332100697095E-02 
2287	 7.38576450721493E-02 
2288	 7.38050281502778E-02 
2289	 7.37440550246303E-02 
2290	 7.37090136523597E-02 
2291	 7.36432346274344E-02 
2292	 0.073552114851854 
2293	 0.073466800087385 
2294	 7.33406576807962E-02 
2295	 0.073259744127619 
2296	 7.32106927550101E-02 
2297	 7.31642746229608E-02 
2298	 7.31255205493002E-02 
2299	 7.30896032658492E-02 
2300	 7.29969351806472E-02 
2301	 7.28882491681565E-02 
2302	 7.28142615898446E-02 
2303	 7.26922104169689E-02 
2304	 7.25700366714607E-02 
2305	 7.25216474399198E-02 
2306	 7.24465721712753E-02 
2307	 7.23672587992883E-02 
2308	 7.22754686329388E-02 
2309	 7.21815810318081E-02 
2310	 7.20953059958439E-02 
2311	 7.20013937596137E-02 
2312	 7.19168394011749E-02 
2313	 7.18605415299627E-02 
2314	 7.17812068664399E-02 
2315	 7.16794548150582E-02 
2316	 7.15703972193921E-02 
2317	 7.14613137596364E-02 
2318	 7.13429814444894E-02 
2319	 7.12068031580955E-02 
2320	 7.10793368202393E-02 
2321	 7.09398644798871E-02 
2322	 0.070815649821239 
2323	 7.06844957361587E-02 
2324	 7.05832719219043E-02 
2325	 7.05392385117472E-02 
2326	 7.04559718195531E-02 
2327	 7.03528166937422E-02 
2328	 7.02696882510682E-02 
2329	 7.02042512037958E-02 
2330	 7.00873427157866E-02 
2331	 6.99979182723386E-02 
2332	 6.98948977212599E-02 
2333	 6.97484750534471E-02 
2334	 6.96306361350322E-02 
2335	 6.95097821906924E-02 
2336	 6.93680865793226E-02 
2337	 6.92365882751664E-02 
2338	 6.90784635312168E-02 
2339	 6.89672004685497E-02 
2340	 6.89057778364985E-02 
2341	 6.88066382046489E-02 
2342	 6.87406868736679E-02 
2343	 6.86330550374121E-02 
2344	 6.84954664670306E-02 
2345	 6.83936318876003E-02 
2346	 6.83035617203416E-02 
2347	 6.81970806100727E-02 
2348	 6.81314480007813E-02 
2349	 6.79855536655331E-02 
2350	 6.77670416136821E-02 
2351	 6.76212085767785E-02 
2352	 6.74541338893009E-02 
2353	 6.73130870826564E-02 
2354	 6.72498661256396E-02 
2355	 6.71192021466748E-02 
2356	 6.69491179135125E-02 
2357	 6.67968655165445E-02 
2358	 6.66181364521704E-02 
2359	 6.64792972545733E-02 
2360	 6.63776831220304E-02 
2361	 0.066241637374014 
2362	 6.60903871048913E-02 
2363	 6.59589129089716E-02 
2364	 6.58538983313941E-02 
2365	 6.57032027991971E-02 
2366	 6.55338865842159E-02 
2367	 6.53929944675848E-02 
2368	 6.52045160936686E-02 
2369	 6.50406551536417E-02 
2370	 6.49182316751614E-02 
2371	 6.48171137770364E-02 
2372	 6.46383730254267E-02 
2373	 6.44538111986074E-02 
2374	 6.43272762448901E-02 
2375	 6.41954830723129E-02 
2376	 6.41240027496361E-02 
2377	 6.40359583600883E-02 
2378	 6.38706361571664E-02 
2379	 6.37613926712821E-02 
2380	 6.36201109590976E-02 
2381	 6.34546973209769E-02 
2382	 6.33487334289542E-02 
2383	 6.31608200867492E-02 
2384	 6.29745011918638E-02 
2385	 6.28245154512807E-02 
2386	 6.25729282582203E-02 
2387	 6.23821929933379E-02 
2388	 6.22589353960893E-02 
2389	 6.21450017609064E-02 
2390	 6.20606731888669E-02 
2391	 6.19413830296022E-02 
2392	 6.18439311292693E-02 
2393	 6.16755642788014E-02 
2394	 6.15310091300627E-02 
2395	 6.14544057740714E-02 
2396	 0.061223878920499 
2397	 0.060998420416644 
2398	 6.07764049905073E-02 
2399	 6.05716178170268E-02 
2400	 6.04563669489055E-02 
2401	 0.060299630791176 
2402	 6.01566233095195E-02 
2403	 6.00084641765933E-02 
2404	 5.98197478703278E-02 
2405	 5.95595493877563E-02 
2406	 5.93479375758016E-02 
2407	 5.91836165895804E-02 
2408	 0.058980385806664 
2409	 0.058918149057643 
2410	 5.88289933428668E-02 
2411	 5.86870833842053E-02 
2412	 5.85709713040728E-02 
2413	 5.83417261815874E-02 
2414	 0.058053500847823 
2415	 5.77854533515385E-02 
2416	 5.75937979487227E-02 
2417	 5.74405726226953E-02 
2418	 0.057247603026968 
2419	 5.71276445055477E-02 
2420	 5.69995817081559E-02 
2421	 5.68156656223285E-02 
2422	 5.66758799626066E-02 
2423	 5.66069826224388E-02 
2424	 5.64668568033879E-02 
2425	 5.62666491871001E-02 
2426	 5.60987323592953E-02 
2427	 5.59594710481299E-02 
2428	 5.58026069555909E-02 
2429	 5.56285544453833E-02 
2430	 5.54576134008447E-02 
2431	 0.055300048032836 
2432	 5.51147490456708E-02 
2433	 5.48764556487219E-02 
2434	 5.46831562558952E-02 
2435	 5.45181465283833E-02 
2436	 5.43239393461818E-02 
2437	 0.054134806318686 
2438	 5.39597318808731E-02 
2439	 5.37551016195578E-02 
2440	 0.053585135989398 
2441	 0.053470721758797 
2442	 5.33297836005827E-02 
2443	 5.31950551426595E-02 
2444	 5.30070537296658E-02 
2445	 5.27792589511459E-02 
2446	 5.25709694187794E-02 
2447	 5.23793479729432E-02 
2448	 5.21422053360402E-02 
2449	 5.18133909125795E-02 
2450	 5.15875609903613E-02 
2451	 5.13842620588464E-02 
2452	 5.12252314490683E-02 
2453	 0.051197916725308 
2454	 0.051167222110405 
2455	 5.11412764720625E-02 
2456	 5.09692829329615E-02 
2457	 5.07223690900755E-02 
2458	 5.05247577388564E-02 
2459	 5.02488663454919E-02 
2460	 5.00860718848179E-02 
2461	 5.00802088391757E-02 
2462	 4.99510682612514E-02 
2463	 4.97472862373766E-02 
2464	 4.96325750904031E-02 
2465	 4.95158203946574E-02 
2466	 4.93468121435988E-02 
2467	 4.92347897911355E-02 
2468	 0.04904728212505 
2469	 4.87687373819591E-02 
2470	 4.86871279170204E-02 
2471	 4.85990238729377E-02 
2472	 4.84286305266643E-02 
2473	 4.81929063942289E-02 
2474	 4.79857102576996E-02 
2475	 0.047621473480687 
2476	 4.74438437300879E-02 
2477	 4.74785784093868E-02 
2478	 4.73922343561629E-02 
2479	 4.72007805646016E-02 
2480	 0.046967818656756 
2481	 4.68110087988646E-02 
2482	 4.67959232948506E-02 
2483	 4.67347888929628E-02 
2484	 4.67582741990676E-02 
2485	 4.66997117855358E-02 
2486	 4.64430183436765E-02 
2487	 4.64274632010597E-02 
2488	 4.62457140149324E-02 
2489	 4.60746375704533E-02 
2490	 4.61018458837102E-02 
2491	 4.58828974897793E-02 
2492	 4.58029163013534E-02 
2493	 0.045893914136625 
2494	 4.57852339623131E-02 
2495	 4.57245274314301E-02 
2496	 0.045775409531095 
2497	 4.55333201235721E-02 
2498	 4.53729334739666E-02 
2499	 4.52865230611048E-02 
2500	 4.51452092112245E-02 
