Wavelength	MM_3300001.asd
350	 4.91519021746107E-02 
351	 4.70799644890552E-02 
352	 3.94626114883505E-02 
353	 3.48393483493311E-02 
354	 3.92126626703303E-02 
355	 4.23702611401001E-02 
356	 4.30958223305488E-02 
357	 4.25918712279048E-02 
358	 4.09048543972116E-02 
359	 3.98095179909701E-02 
360	 3.77203810242229E-02 
361	 3.19145277626524E-02 
362	 3.09709856369874E-02 
363	 0.032402398933517 
364	 0.033405116188303 
365	 3.28240055834084E-02 
366	 3.56546945638503E-02 
367	 3.70293598676305E-02 
368	 3.32451749376731E-02 
369	 3.57196057571889E-02 
370	 3.89520413264864E-02 
371	 3.96425644143602E-02 
372	 3.69708659441041E-02 
373	 0.038013030191965 
374	 3.96515519078981E-02 
375	 3.93592135559986E-02 
376	 0.037869772692175 
377	 3.79235353788011E-02 
378	 3.85093713434504E-02 
379	 0.038464149908962 
380	 4.19951020938612E-02 
381	 4.12485469533169E-02 
382	 3.80956897529027E-02 
383	 4.09384784704972E-02 
384	 3.90089270224581E-02 
385	 3.67944736540906E-02 
386	 3.76682122396979E-02 
387	 3.88558103042412E-02 
388	 4.02276714089418E-02 
389	 4.17852327447989E-02 
390	 4.34390263480332E-02 
391	 4.41814965030889E-02 
392	 4.42644711626258E-02 
393	 4.45733204946696E-02 
394	 4.62578954976561E-02 
395	 4.69868575726059E-02 
396	 4.72103909284561E-02 
397	 4.77749163372445E-02 
398	 4.94324368979797E-02 
399	 5.07481676384753E-02 
400	 5.11783805321591E-02 
401	 5.08784670418529E-02 
402	 5.16242589138944E-02 
403	 5.23431063260913E-02 
404	 5.27244889405053E-02 
405	 5.34037845842887E-02 
406	 5.44240741186777E-02 
407	 5.46519067216398E-02 
408	 5.38628758897586E-02 
409	 5.46293162987938E-02 
410	 0.055618256707106 
411	 0.056186869687398 
412	 5.62601215336463E-02 
413	 5.74641850272651E-02 
414	 5.79699079427502E-02 
415	 5.74228779618999E-02 
416	 5.76819690795977E-02 
417	 5.78067768339582E-02 
418	 5.81763374810113E-02 
419	 0.05897611907512 
420	 5.87776507897502E-02 
421	 5.81326825026134E-02 
422	 5.82195441588149E-02 
423	 6.01459507124318E-02 
424	 5.99942769852436E-02 
425	 5.94652020001109E-02 
426	 5.97418483143138E-02 
427	 5.97157693065358E-02 
428	 5.98148805169249E-02 
429	 0.059997512918175 
430	 6.00802484800561E-02 
431	 5.98430975644659E-02 
432	 5.98278443258564E-02 
433	 6.01916673331463E-02 
434	 6.06856508547024E-02 
435	 6.10375809405507E-02 
436	 6.11481761313213E-02 
437	 0.061087294231867 
438	 0.06118061712581 
439	 6.16139101866855E-02 
440	 6.20884557480237E-02 
441	 6.21777944042999E-02 
442	 6.26223781008873E-02 
443	 6.30630002936255E-02 
444	 6.32727399253859E-02 
445	 6.33802875240794E-02 
446	 6.34471698686819E-02 
447	 6.36187895040764E-02 
448	 6.39527505389903E-02 
449	 6.40454694371571E-02 
450	 6.44219771029263E-02 
451	 6.49913224586293E-02 
452	 6.51602445020547E-02 
453	 6.54008782841052E-02 
454	 0.065546447360396 
455	 6.55389135598778E-02 
456	 6.58677935573387E-02 
457	 6.60986918857908E-02 
458	 6.63083930806576E-02 
459	 6.66932008518613E-02 
460	 6.64862518660219E-02 
461	 6.64244428391247E-02 
462	 6.67748839735089E-02 
463	 6.69733217991374E-02 
464	 6.70740370386971E-02 
465	 6.72374948197057E-02 
466	 0.067539367077699 
467	 6.75301118282181E-02 
468	 6.76334436802648E-02 
469	 6.78888129862499E-02 
470	 6.80135404941277E-02 
471	 6.80258354158704E-02 
472	 6.79729274204811E-02 
473	 6.79365894579957E-02 
474	 6.80381252566708E-02 
475	 0.068412230115993 
476	 6.86928280592994E-02 
477	 0.068457380023264 
478	 6.86291461448197E-02 
479	 6.87941658108014E-02 
480	 6.87854051984092E-02 
481	 6.89371132279439E-02 
482	 6.91650077333461E-02 
483	 6.93284333838151E-02 
484	 0.069323368944641 
485	 6.92438157994339E-02 
486	 0.069358043049713 
487	 6.95472954210494E-02 
488	 6.94125776422234E-02 
489	 6.95242127275346E-02 
490	 6.97377656927196E-02 
491	 6.98756541362141E-02 
492	 7.00111827651738E-02 
493	 7.00234664679805E-02 
494	 7.00099169483481E-02 
495	 7.01414916464733E-02 
496	 7.03077237115726E-02 
497	 7.02979029793562E-02 
498	 7.01656027493424E-02 
499	 7.03610205553561E-02 
500	 0.070588591326909 
501	 7.07637837063049E-02 
502	 7.08629080526771E-02 
503	 7.08444259666054E-02 
504	 7.09110270280903E-02 
505	 0.071034227803488 
506	 7.09857071146905E-02 
507	 7.10430844205045E-02 
508	 7.11108084998514E-02 
509	 7.11209850062621E-02 
510	 7.12894578279092E-02 
511	 7.14316699143573E-02 
512	 7.13973550463663E-02 
513	 7.11402692338734E-02 
514	 7.13321952755163E-02 
515	 7.15769167221245E-02 
516	 0.071636601747708 
517	 7.17612203997503E-02 
518	 7.17471900724425E-02 
519	 7.16842327812598E-02 
520	 7.17388945317899E-02 
521	 0.071971714335168 
522	 7.20387044040539E-02 
523	 7.19604572744409E-02 
524	 7.21478032408178E-02 
525	 7.21727716475375E-02 
526	 7.21548511699242E-02 
527	 7.22417416564171E-02 
528	 7.22642705083479E-02 
529	 7.23621028069563E-02 
530	 7.24967052780636E-02 
531	 7.25304811090252E-02 
532	 7.26382895123747E-02 
533	 0.072794838033286 
534	 7.29220027894815E-02 
535	 7.28720764523417E-02 
536	 7.28985594497683E-02 
537	 7.30100681951822E-02 
538	 7.31139537049385E-02 
539	 7.31705824503345E-02 
540	 7.32029880083846E-02 
541	 7.32593960886822E-02 
542	 7.34152427514581E-02 
543	 7.34821783871025E-02 
544	 7.35348612836234E-02 
545	 7.36634643822423E-02 
546	 7.36992115862966E-02 
547	 7.37811000178939E-02 
548	 7.39693891584057E-02 
549	 7.42368792593492E-02 
550	 7.43220786366555E-02 
551	 0.074342680317873 
552	 7.44424766713874E-02 
553	 7.46455544563624E-02 
554	 7.48112246599284E-02 
555	 7.49361621280062E-02 
556	 7.50873259577659E-02 
557	 0.075238808768485 
558	 7.53579616510396E-02 
559	 7.54695023553543E-02 
560	 7.57125519843796E-02 
561	 0.075815264849151 
562	 7.59025837929519E-02 
563	 7.61819754363281E-02 
564	 7.64981742516535E-02 
565	 7.67780467716923E-02 
566	 7.70222862577133E-02 
567	 7.73076212218905E-02 
568	 7.76182758693806E-02 
569	 7.79210020378226E-02 
570	 7.81861650084003E-02 
571	 7.84053179584012E-02 
572	 7.86827851814053E-02 
573	 7.89911308877974E-02 
574	 7.92212700822419E-02 
575	 7.95251464773456E-02 
576	 7.98689012006177E-02 
577	 8.02173115043306E-02 
578	 8.05970355718385E-02 
579	 8.10246637320307E-02 
580	 8.14149715421097E-02 
581	 8.16774072203842E-02 
582	 8.20320515127972E-02 
583	 8.23306441199689E-02 
584	 8.25201865217816E-02 
585	 8.27222989936161E-02 
586	 8.30985858263033E-02 
587	 8.35233518080784E-02 
588	 8.38412424985787E-02 
589	 8.42034509697651E-02 
590	 8.45384364220853E-02 
591	 0.084828412895557 
592	 8.51105402601207E-02 
593	 8.53483568277161E-02 
594	 8.55766012772985E-02 
595	 8.58452872930437E-02 
596	 8.62102146530599E-02 
597	 0.086628553347535 
598	 8.70737572853096E-02 
599	 8.75256976567621E-02 
600	 8.79434868265053E-02 
601	 8.82901760870632E-02 
602	 8.85649362827471E-02 
603	 8.88295513657982E-02 
604	 8.90399402389286E-02 
605	 8.92538828396251E-02 
606	 8.95385436567741E-02 
607	 8.98105884448997E-02 
608	 9.00796975343148E-02 
609	 9.03284151047859E-02 
610	 9.05059066959863E-02 
611	 9.07579586388412E-02 
612	 9.10277821723074E-02 
613	 9.12292331661588E-02 
614	 9.13540954525093E-02 
615	 9.14982408819812E-02 
616	 9.16704865635397E-02 
617	 9.18211282026341E-02 
618	 9.20224449982514E-02 
619	 9.21809552168477E-02 
620	 9.22667553607635E-02 
621	 9.24439757682344E-02 
622	 9.25719718279611E-02 
623	 9.26552918289623E-02 
624	 9.27525741989354E-02 
625	 9.28692332800169E-02 
626	 0.092968529131739 
627	 9.30489439561861E-02 
628	 9.31592922097278E-02 
629	 9.32815387646929E-02 
630	 9.33773909996826E-02 
631	 9.34327281052622E-02 
632	 9.35458085539267E-02 
633	 0.093680045920486 
634	 9.38031473693319E-02 
635	 9.38934457715618E-02 
636	 9.40049873464324E-02 
637	 9.41101314216864E-02 
638	 9.41821582583842E-02 
639	 9.42280641103698E-02 
640	 9.42840613703656E-02 
641	 0.094388113628757 
642	 9.45562802274447E-02 
643	 9.46602676041955E-02 
644	 9.47352092035675E-02 
645	 9.48157237163305E-02 
646	 9.49119799836302E-02 
647	 9.49595116815748E-02 
648	 9.50175508631184E-02 
649	 9.51495308660179E-02 
650	 9.52801068048417E-02 
651	 9.53778908732193E-02 
652	 9.54483732404953E-02 
653	 9.55302972252514E-02 
654	 9.56771801379977E-02 
655	 9.57844984970508E-02 
656	 9.58097663021328E-02 
657	 9.59434861322545E-02 
658	 9.60394623887674E-02 
659	 9.61156399923882E-02 
660	 9.62505710421756E-02 
661	 0.096356134353598 
662	 9.64693935921539E-02 
663	 9.65880461855786E-02 
664	 0.096633629362409 
665	 9.67427341735042E-02 
666	 9.68620535979274E-02 
667	 0.096931608790315 
668	 9.71116995306341E-02 
669	 9.72600666155741E-02 
670	 9.73494675829912E-02 
671	 9.74541490692327E-02 
672	 9.75615243480165E-02 
673	 9.77130335186473E-02 
674	 9.78991767997976E-02 
675	 9.79680246526538E-02 
676	 9.80463484376435E-02 
677	 9.81735675846563E-02 
678	 9.83389050823541E-02 
679	 9.84619166703889E-02 
680	 9.86066406777147E-02 
681	 9.87929030014529E-02 
682	 9.89679727532413E-02 
683	 9.90673783593788E-02 
684	 9.91726266318673E-02 
685	 9.93537062768888E-02 
686	 9.94884091478891E-02 
687	 9.96239496692117E-02 
688	 0.099766801362155 
689	 9.98961331966833E-02 
690	 0.100045101620034 
691	 0.100194737242132 
692	 0.100334520452199 
693	 0.100487739086572 
694	 0.100626788988678 
695	 0.100759517650456 
696	 0.100906516585845 
697	 0.101082158730576 
698	 0.101244297986962 
699	 0.101380287501638 
700	 0.10151338449048 
701	 0.101697429614488 
702	 0.101864822375538 
703	 0.101970021119299 
704	 0.102102995755036 
705	 0.102239980874505 
706	 0.102374498633854 
707	 0.102508470857609 
708	 0.102643069508358 
709	 0.102812065011782 
710	 0.103004484491662 
711	 0.103142644321122 
712	 0.103267764341096 
713	 0.103387077271364 
714	 0.103504928281058 
715	 0.103644596959451 
716	 0.10380193720733 
717	 0.103934413224121 
718	 0.10398751331647 
719	 0.104108389878063 
720	 0.104227340163456 
721	 0.104304578244944 
722	 0.104421127766386 
723	 0.104535663160693 
724	 0.104655459131525 
725	 0.104789504056365 
726	 0.104880111411675 
727	 0.104942990831782 
728	 0.105004305523774 
729	 0.105093826536835 
730	 0.105203503290167 
731	 0.105279957797602 
732	 0.105311204273546 
733	 0.105402436205941 
734	 0.105497643906774 
735	 0.105543717103516 
736	 0.105522251903392 
737	 0.105620611141568 
738	 0.105703019114853 
739	 0.105726000218637 
740	 0.105771729068599 
741	 0.10580833965322 
742	 0.105829440700144 
743	 0.10583480230898 
744	 0.105828290862956 
745	 0.10579831179516 
746	 0.10579927517942 
747	 0.105881292091007 
748	 0.105839082879576 
749	 0.105785249421361 
750	 0.105781746296291 
751	 0.105793194433473 
752	 0.105782481716074 
753	 0.10575992355878 
754	 0.105743109733702 
755	 0.105734488035772 
756	 0.105705490637087 
757	 0.105650633231173 
758	 0.10558402957533 
759	 0.105559273526936 
760	 0.105513538082743 
761	 0.10544036358607 
762	 0.105415600880303 
763	 0.105371110622666 
764	 0.105319847907188 
765	 0.105277084749592 
766	 0.105205105494738 
767	 0.105146175989861 
768	 0.105095611886051 
769	 0.105027820214001 
770	 0.104956511255197 
771	 0.104886465459955 
772	 0.104818239588398 
773	 0.104748048187318 
774	 0.104667062777974 
775	 0.104596629099336 
776	 0.104540944216616 
777	 0.104435227128943 
778	 0.104354567162387 
779	 0.104298665315746 
780	 0.104232717051986 
781	 0.104150029641156 
782	 0.104063349791091 
783	 0.103977807661836 
784	 0.103888922020655 
785	 0.103810429267108 
786	 0.103715773528995 
787	 0.103606858982784 
788	 0.103574325073669 
789	 0.103542139808113 
790	 0.103479340919203 
791	 0.103378279183879 
792	 0.103249112698596 
793	 0.103172281346321 
794	 0.103139961445691 
795	 0.103067887668111 
796	 0.102960092702427 
797	 0.102858736060574 
798	 0.102784340114446 
799	 0.102705454268434 
800	 0.102626262901081 
801	 0.102541883619906 
802	 0.102451151917791 
803	 0.102370498713964 
804	 0.102317441982035 
805	 0.102275461258187 
806	 0.102210124620973 
807	 0.102135649942812 
808	 0.102063112393273 
809	 0.101993300386186 
810	 0.101914115646029 
811	 0.101865732576603 
812	 0.10179596856994 
813	 0.101689699471084 
814	 0.101696964867737 
815	 0.101636813285136 
816	 0.101528837296881 
817	 0.101465609207579 
818	 0.101434268315608 
819	 0.101397537606558 
820	 0.101329009175646 
821	 0.101224655167738 
822	 0.101197573589766 
823	 0.101144611639213 
824	 0.101037625569777 
825	 0.101024243717364 
826	 0.101013664254771 
827	 0.100956770766824 
828	 0.100855183665047 
829	 0.100833309931892 
830	 0.100796663811835 
831	 0.100742753399914 
832	 0.100712133562289 
833	 0.10071053568067 
834	 0.100672104836748 
835	 0.100589269060547 
836	 0.100518425886314 
837	 0.100534188044342 
838	 0.100566212477628 
839	 0.100553887484188 
840	 0.100498868883149 
841	 0.100425332893743 
842	 0.100392561792026 
843	 0.10041890779148 
844	 0.100370730896489 
845	 0.100343947272072 
846	 0.100332653744579 
847	 0.100294271666136 
848	 0.100268955095792 
849	 0.100259356810761 
850	 0.100239399022731 
851	 0.100173523455875 
852	 0.100174140151924 
853	 0.10017769012855 
854	 0.100149578758022 
855	 0.100134651351031 
856	 0.10019876757138 
857	 0.100247892133114 
858	 0.100209745331432 
859	 0.100160700087482 
860	 0.100168906354006 
861	 0.100217667604865 
862	 0.100247294572058 
863	 0.100179373959239 
864	 0.100170325284866 
865	 0.10023365257317 
866	 0.10028151638071 
867	 0.100244070532175 
868	 0.100215638296906 
869	 0.10023241846834 
870	 0.100254431935413 
871	 0.100289160677897 
872	 0.100313135456598 
873	 0.100320690582554 
874	 0.100340539509583 
875	 0.100356956356394 
876	 0.100344016991871 
877	 0.100315912470457 
878	 0.100401644940284 
879	 0.10045138220733 
880	 0.100470304944273 
881	 0.10050910833325 
882	 0.100556511543164 
883	 0.100605065108652 
884	 0.100647300410378 
885	 0.100677321185053 
886	 0.100688918052459 
887	 0.100745236864271 
888	 0.100825531978755 
889	 0.100851455704662 
890	 0.100960067638798 
891	 0.101032654437606 
892	 0.101018349676621 
893	 0.100995175732422 
894	 0.101050453160108 
895	 0.10112270818668 
896	 0.10117820522494 
897	 0.101292784885718 
898	 0.101308173439296 
899	 0.101314595434969 
900	 0.101409896779603 
901	 0.101537541235179 
902	 0.101594114386665 
903	 0.101627419476949 
904	 0.101706246390934 
905	 0.101745873101029 
906	 0.101824320600009 
907	 0.101925498847291 
908	 0.102001935949927 
909	 0.102109587981609 
910	 0.102167016464933 
911	 0.102216499810403 
912	 0.102357485159866 
913	 0.102462859688929 
914	 0.102552527368648 
915	 0.102623837807035 
916	 0.10265799059719 
917	 0.102778109005987 
918	 0.102868826521587 
919	 0.102902185208871 
920	 0.10298153316225 
921	 0.103093521246713 
922	 0.103166798579228 
923	 0.103213527551251 
924	 0.103372540885439 
925	 0.103513776876837 
926	 0.103662888089438 
927	 0.103813499436638 
928	 0.103845283076171 
929	 0.103896304187834 
930	 0.104028214649477 
931	 0.104207167355745 
932	 0.104237924975732 
933	 0.104342976891768 
934	 0.10447968003228 
935	 0.104570319289742 
936	 0.104672263740888 
937	 0.104808294409019 
938	 0.104959778513631 
939	 0.105091624342274 
940	 0.105165375645877 
941	 0.105329745310193 
942	 0.105516666332738 
943	 0.105611836689026 
944	 0.105700929604487 
945	 0.105720035321846 
946	 0.105774039245623 
947	 0.105970276675183 
948	 0.106086386667321 
949	 0.106170979321226 
950	 0.106282553847913 
951	 0.106452531863739 
952	 0.106580607053075 
953	 0.106708212621099 
954	 0.106810672811084 
955	 0.106856921744077 
956	 0.106989003705381 
957	 0.107193685645934 
958	 0.107357139953705 
959	 0.107376309200604 
960	 0.10751374527874 
961	 0.107654349340997 
962	 0.107792544323689 
963	 0.107981907138863 
964	 0.108101409278521 
965	 0.108182082411436 
966	 0.108256723202924 
967	 0.108362642077504 
968	 0.108601131715796 
969	 0.108821261279518 
970	 0.108965734006021 
971	 0.109074747341955 
972	 0.109247103702987 
973	 0.109391645215047 
974	 0.109513958237827 
975	 0.109684105504206 
976	 0.109886024211327 
977	 0.110021678416279 
978	 0.110106983023698 
979	 0.110227677475939 
980	 0.110382818648593 
981	 0.110478949479256 
982	 0.110540932755777 
983	 0.110676362095777 
984	 0.110993371325274 
985	 0.111148503821587 
986	 0.111185133089204 
987	 0.111361664561227 
988	 0.111708626309542 
989	 0.111942240108137 
990	 0.11200062874885 
991	 0.112004301672652 
992	 0.112201383883953 
993	 0.112394972789886 
994	 0.112591428208811 
995	 0.112841270654992 
996	 0.112950951752373 
997	 0.113022124679445 
998	 0.113100118262563 
999	 0.113235960605775 
1000	 0.113598541561801 
1001	 0.1114502150607 
1002	 0.111581188831543 
1003	 0.111735298527719 
1004	 0.111861782239475 
1005	 0.111902397529559 
1006	 0.111997266215897 
1007	 0.112129684988357 
1008	 0.11225354726043 
1009	 0.112340873930376 
1010	 0.112410388200961 
1011	 0.112479798725238 
1012	 0.112593344946996 
1013	 0.11266647284754 
1014	 0.112762602040443 
1015	 0.112915666265807 
1016	 0.112989571152453 
1017	 0.11310659483674 
1018	 0.113261503061776 
1019	 0.113446266479522 
1020	 0.113563587762161 
1021	 0.113713079993692 
1022	 0.113798655255524 
1023	 0.113830608808752 
1024	 0.113900130562482 
1025	 0.113925202757874 
1026	 0.113949033176772 
1027	 0.114011733863729 
1028	 0.114066785074356 
1029	 0.11414679031232 
1030	 0.114259946022805 
1031	 0.114342872574316 
1032	 0.114424415575066 
1033	 0.114496119247571 
1034	 0.11454712897789 
1035	 0.114549922679141 
1036	 0.114598840345418 
1037	 0.114688603282757 
1038	 0.114759067903782 
1039	 0.114839364228497 
1040	 0.11492443134861 
1041	 0.114960103915139 
1042	 0.114994308545175 
1043	 0.115063115797226 
1044	 0.115134798112154 
1045	 0.115221677634426 
1046	 0.115313239050754 
1047	 0.115396636319364 
1048	 0.115476268061852 
1049	 0.115560618209966 
1050	 0.115650060888492 
1051	 0.11572070321877 
1052	 0.115827367773143 
1053	 0.115977459372968 
1054	 0.116059768921258 
1055	 0.116140373282714 
1056	 0.116199314066366 
1057	 0.116255460924828 
1058	 0.11628320630183 
1059	 0.11632705153051 
1060	 0.116365861234536 
1061	 0.116435826252549 
1062	 0.116495567713594 
1063	 0.116553871596191 
1064	 0.116660690094152 
1065	 0.116746649423885 
1066	 0.11683100116214 
1067	 0.116903365618617 
1068	 0.116929761009731 
1069	 0.116958827785035 
1070	 0.116999004419595 
1071	 0.117024207803103 
1072	 0.117067684827015 
1073	 0.117127213156234 
1074	 0.117180787028691 
1075	 0.117249618744776 
1076	 0.117301687157434 
1077	 0.11730111249583 
1078	 0.117324452567594 
1079	 0.117243077570537 
1080	 0.117211204874221 
1081	 0.117323449133144 
1082	 0.117371654618006 
1083	 0.11740942812191 
1084	 0.11750804878321 
1085	 0.117534237399117 
1086	 0.117463095074592 
1087	 0.117466352214465 
1088	 0.117505268422818 
1089	 0.117514031920035 
1090	 0.117539392184353 
1091	 0.117571186127395 
1092	 0.117563277144732 
1093	 0.117574313881844 
1094	 0.117564228385768 
1095	 0.117529609729093 
1096	 0.117537532580193 
1097	 0.117556350040704 
1098	 0.117571943127147 
1099	 0.117594480630328 
1100	 0.117620001342692 
1101	 0.117650090350145 
1102	 0.117673454168407 
1103	 0.117697835168924 
1104	 0.117733668856201 
1105	 0.117737244509948 
1106	 0.117733567135783 
1107	 0.117750057338666 
1108	 0.11778649379086 
1109	 0.117802683264847 
1110	 0.117810842738488 
1111	 0.117828015670902 
1112	 0.117823135983862 
1113	 0.117832514832193 
1114	 0.117872754695154 
1115	 0.117896357167007 
1116	 0.11788826959741 
1117	 0.117915769213968 
1118	 0.11795807997349 
1119	 0.118006797772098 
1120	 0.118071956778692 
1121	 0.118137475784821 
1122	 0.118187395756698 
1123	 0.118223267170085 
1124	 0.118248301470656 
1125	 0.118246695375854 
1126	 0.118273975866519 
1127	 0.118317030643922 
1128	 0.118332107926991 
1129	 0.11835229941037 
1130	 0.118357437737981 
1131	 0.118317248737938 
1132	 0.118312641577095 
1133	 0.118318888155993 
1134	 0.118332468232233 
1135	 0.118375697494642 
1136	 0.118408386671123 
1137	 0.118398620614531 
1138	 0.118382918346661 
1139	 0.118363843234641 
1140	 0.118316460326866 
1141	 0.118285863798139 
1142	 0.118268568228201 
1143	 0.118237808040723 
1144	 0.118189299546088 
1145	 0.118154085055694 
1146	 0.118137014101236 
1147	 0.118098652143655 
1148	 0.118049334982747 
1149	 0.118005429259161 
1150	 0.117943548803014 
1151	 0.117891160059251 
1152	 0.117857883134305 
1153	 0.117843537892444 
1154	 0.117838421241179 
1155	 0.117851877569637 
1156	 0.117859339514881 
1157	 0.117877717853398 
1158	 0.11788799610368 
1159	 0.117901424738032 
1160	 0.117905156184782 
1161	 0.11790309665298 
1162	 0.117904490878219 
1163	 0.117891361408055 
1164	 0.117892774334106 
1165	 0.117911899535949 
1166	 0.117914376980846 
1167	 0.117918913030373 
1168	 0.11794501132661 
1169	 0.117956120940412 
1170	 0.117957293840117 
1171	 0.117973191070257 
1172	 0.117994910464104 
1173	 0.118013718941224 
1174	 0.118045232118985 
1175	 0.118061305766268 
1176	 0.118064561452934 
1177	 0.118074135294217 
1178	 0.118085375172128 
1179	 0.118088988646086 
1180	 0.118083927753778 
1181	 0.118089280023391 
1182	 0.118092175042163 
1183	 0.118099137865667 
1184	 0.118108086667247 
1185	 0.118122763840534 
1186	 0.11814711353614 
1187	 0.118183713589334 
1188	 0.118197534609186 
1189	 0.118219604889498 
1190	 0.118223191835024 
1191	 0.118176740015528 
1192	 0.118183401686811 
1193	 0.118216215628075 
1194	 0.11824253178755 
1195	 0.118304352135727 
1196	 0.118337556174993 
1197	 0.118343541044941 
1198	 0.118362193423014 
1199	 0.118381031561792 
1200	 0.118396342954813 
1201	 0.118410770112468 
1202	 0.118426236903645 
1203	 0.118448432410139 
1204	 0.118466848016887 
1205	 0.118491631802157 
1206	 0.118539145809815 
1207	 0.118559797007377 
1208	 0.118560548870123 
1209	 0.1185747925948 
1210	 0.118573657986814 
1211	 0.118593549166572 
1212	 0.118642881881607 
1213	 0.118673333365899 
1214	 0.118710283692796 
1215	 0.118734578697444 
1216	 0.118749036736887 
1217	 0.118743139470548 
1218	 0.118755007745535 
1219	 0.118768012869493 
1220	 0.118778297374737 
1221	 0.118787564053363 
1222	 0.118806763542925 
1223	 0.118829363478423 
1224	 0.118848620418891 
1225	 0.118878749690904 
1226	 0.118901011422143 
1227	 0.118910171986212 
1228	 0.118927520417901 
1229	 0.118951032962566 
1230	 0.118972293245119 
1231	 0.118995412191987 
1232	 0.11901560199286 
1233	 0.119034362107059 
1234	 0.119055887032149 
1235	 0.119064361592842 
1236	 0.119060763559097 
1237	 0.119071812387384 
1238	 0.119074655538815 
1239	 0.119093873103299 
1240	 0.119137083080257 
1241	 0.119161875787596 
1242	 0.119189804507212 
1243	 0.119205691282593 
1244	 0.119203174812637 
1245	 0.119211286846497 
1246	 0.119209070039404 
1247	 0.119223448102889 
1248	 0.119260242243588 
1249	 0.119285279146597 
1250	 0.119301728356472 
1251	 0.119322324347283 
1252	 0.11933730989113 
1253	 0.119341921881427 
1254	 0.119344323868066 
1255	 0.119343088872457 
1256	 0.119351060282481 
1257	 0.119351132048845 
1258	 0.119360852507861 
1259	 0.119391675419719 
1260	 0.119406263827877 
1261	 0.119414369596146 
1262	 0.119421021251023 
1263	 0.119420079876041 
1264	 0.119423957741431 
1265	 0.119431376696784 
1266	 0.11943092964055 
1267	 0.119424111431352 
1268	 0.119424070608989 
1269	 0.119424102238195 
1270	 0.11941977534294 
1271	 0.11942148656442 
1272	 0.119422390922922 
1273	 0.119440318616534 
1274	 0.119467061702368 
1275	 0.119490583517258 
1276	 0.119531742904493 
1277	 0.119563496224264 
1278	 0.119578574668204 
1279	 0.119611864004427 
1280	 0.119665262039701 
1281	 0.119701838060327 
1282	 0.119741565535863 
1283	 0.119772030536718 
1284	 0.119793437011327 
1285	 0.119798504861788 
1286	 0.11982079446369 
1287	 0.11985395601246 
1288	 0.119868384691117 
1289	 0.119878645647956 
1290	 0.119896843219777 
1291	 0.119904711569558 
1292	 0.119917431944076 
1293	 0.119953311182441 
1294	 0.119957115893609 
1295	 0.119945230685045 
1296	 0.119926674046861 
1297	 0.119886771985017 
1298	 0.119856442756447 
1299	 0.11982409405685 
1300	 0.119787135311188 
1301	 0.119757990148248 
1302	 0.119714464201929 
1303	 0.119655606209429 
1304	 0.119599166460377 
1305	 0.119538971248985 
1306	 0.119471136993265 
1307	 0.119411040972068 
1308	 0.119345879836513 
1309	 0.119272380955384 
1310	 0.119195761600004 
1311	 0.1191098829919 
1312	 0.119010800471888 
1313	 0.118917062732314 
1314	 0.118818598331745 
1315	 0.118724555449054 
1316	 0.11862906795561 
1317	 0.118541493908962 
1318	 0.11845837968418 
1319	 0.118373524512467 
1320	 0.11831282622455 
1321	 0.118219752924753 
1322	 0.118100018797666 
1323	 0.117992066418741 
1324	 0.11788706822039 
1325	 0.117776714184509 
1326	 0.117690960126073 
1327	 0.117616797877418 
1328	 0.117528332465674 
1329	 0.117425024889524 
1330	 0.11733714202074 
1331	 0.117263101120036 
1332	 0.117164070099371 
1333	 0.117055002629134 
1334	 0.11695767288525 
1335	 0.116836439049045 
1336	 0.116748434291836 
1337	 0.116695200782025 
1338	 0.116622369415224 
1339	 0.116557070935952 
1340	 0.116480684769019 
1341	 0.116385035319732 
1342	 0.116306885540821 
1343	 0.116236449520025 
1344	 0.116164673739882 
1345	 0.116097788877983 
1346	 0.116011818812918 
1347	 0.115894246571599 
1348	 0.115775084815326 
1349	 0.115656229962133 
1350	 0.115530517687695 
1351	 0.115416765835421 
1352	 0.115314556236987 
1353	 0.115209211212471 
1354	 0.115105614666343 
1355	 0.114999908028447 
1356	 0.114894959989089 
1357	 0.114787776413341 
1358	 0.114671975681735 
1359	 0.114569441447661 
1360	 0.114476446166077 
1361	 0.11438101624253 
1362	 0.114295088039091 
1363	 0.11420049330337 
1364	 0.114091413648987 
1365	 0.113995280912603 
1366	 0.113907493919529 
1367	 0.113817043925168 
1368	 0.11372783555814 
1369	 0.11363645341358 
1370	 0.113493067718294 
1371	 0.11334217891522 
1372	 0.113172568209043 
1373	 0.11295691705962 
1374	 0.112715849629413 
1375	 0.112456733235827 
1376	 0.112146127046917 
1377	 0.111795299288439 
1378	 0.111408604976738 
1379	 0.110982045291311 
1380	 0.110526069972263 
1381	 0.110013361622617 
1382	 0.109508984421934 
1383	 0.108994969735728 
1384	 0.1084500591339 
1385	 0.107917889628765 
1386	 0.107322079010664 
1387	 0.106680254073799 
1388	 0.1060107353801 
1389	 0.105313071085717 
1390	 0.104561094684 
1391	 0.103761026415908 
1392	 0.102923025754927 
1393	 0.102045918479297 
1394	 0.101164314602433 
1395	 0.100278123293424 
1396	 9.93893770447633E-02 
1397	 9.85087312503155E-02 
1398	 9.76133939655409E-02 
1399	 9.67437454429028E-02 
1400	 0.095888061112028 
1401	 9.50477002034573E-02 
1402	 9.42070258112742E-02 
1403	 9.34117295246512E-02 
1404	 9.26277983151187E-02 
1405	 9.18984608356549E-02 
1406	 9.12198688638222E-02 
1407	 9.05532519423058E-02 
1408	 8.99116385547559E-02 
1409	 8.93139051389683E-02 
1410	 0.088727802700302 
1411	 8.82044165493807E-02 
1412	 8.77420081429349E-02 
1413	 8.73052630729173E-02 
1414	 8.69108577611663E-02 
1415	 8.65452465225064E-02 
1416	 8.61945533603719E-02 
1417	 8.58721924267543E-02 
1418	 8.55765283929985E-02 
1419	 8.53193668928997E-02 
1420	 8.50892849799154E-02 
1421	 8.48834367347671E-02 
1422	 8.46916240236832E-02 
1423	 8.44887435717696E-02 
1424	 8.42943285562805E-02 
1425	 8.40947453954791E-02 
1426	 8.39250689751014E-02 
1427	 8.37686108911796E-02 
1428	 8.36257931148455E-02 
1429	 8.35022878362218E-02 
1430	 8.33902092317263E-02 
1431	 8.32946112002106E-02 
1432	 8.31958285916842E-02 
1433	 8.31037409325714E-02 
1434	 8.30258481433847E-02 
1435	 8.29506338259409E-02 
1436	 8.28876569220071E-02 
1437	 8.28490000631907E-02 
1438	 8.28038961584467E-02 
1439	 8.27632672302332E-02 
1440	 8.27154068339929E-02 
1441	 0.08266908814204 
1442	 8.26411128981496E-02 
1443	 8.26144023694022E-02 
1444	 8.25951382321671E-02 
1445	 8.25994462318015E-02 
1446	 8.25988539042231E-02 
1447	 8.25961851590495E-02 
1448	 8.25981633774039E-02 
1449	 8.25935358060574E-02 
1450	 8.25979501476941E-02 
1451	 8.26075014039274E-02 
1452	 8.26263270486053E-02 
1453	 8.26457205589208E-02 
1454	 8.26659492192787E-02 
1455	 8.26916256573677E-02 
1456	 0.082724234902186 
1457	 8.27574764037489E-02 
1458	 8.27836554331297E-02 
1459	 8.28364050378086E-02 
1460	 8.29033435835058E-02 
1461	 8.29737147775754E-02 
1462	 0.083062729745294 
1463	 8.31535357066306E-02 
1464	 8.32411550019077E-02 
1465	 0.083340189323703 
1466	 8.34453545641514E-02 
1467	 8.35714640640029E-02 
1468	 0.083706402094382 
1469	 8.38585928833248E-02 
1470	 8.40450274121631E-02 
1471	 8.42221204878827E-02 
1472	 8.43774251687628E-02 
1473	 8.45480162249682E-02 
1474	 8.47172146559161E-02 
1475	 8.48905369777335E-02 
1476	 8.50921062273216E-02 
1477	 8.53098956125449E-02 
1478	 8.55370030813537E-02 
1479	 8.57532411407066E-02 
1480	 0.0859589001584 
1481	 8.61780817040094E-02 
1482	 8.63947637000799E-02 
1483	 8.66021395904115E-02 
1484	 8.68262361705907E-02 
1485	 8.70660353583203E-02 
1486	 8.72888431848656E-02 
1487	 8.75088945102357E-02 
1488	 8.77304901881313E-02 
1489	 8.79454687774666E-02 
1490	 8.81696322395778E-02 
1491	 8.84034686666434E-02 
1492	 8.86288220272776E-02 
1493	 8.88446634714487E-02 
1494	 8.90770567562715E-02 
1495	 8.93216727130838E-02 
1496	 8.95530096315797E-02 
1497	 8.97974251256667E-02 
1498	 9.00221969159682E-02 
1499	 9.02171175409776E-02 
1500	 0.090428962738309 
1501	 9.06355103061362E-02 
1502	 0.0908541539049 
1503	 9.10824777431229E-02 
1504	 9.13227778261059E-02 
1505	 9.15514018282851E-02 
1506	 9.17803810361338E-02 
1507	 0.091989440445159 
1508	 9.21858541731441E-02 
1509	 9.23920557989325E-02 
1510	 9.25901120414063E-02 
1511	 9.27899379821114E-02 
1512	 9.29956468186938E-02 
1513	 9.31932581165662E-02 
1514	 9.33908855345174E-02 
1515	 9.36005838620658E-02 
1516	 9.38056793625846E-02 
1517	 9.39922760391348E-02 
1518	 9.41648833209858E-02 
1519	 9.43476989388094E-02 
1520	 9.45179213806844E-02 
1521	 9.46981591385734E-02 
1522	 9.48942734303025E-02 
1523	 9.50764753631002E-02 
1524	 9.52489191106823E-02 
1525	 9.54261969091905E-02 
1526	 9.56047603260606E-02 
1527	 9.57766724526364E-02 
1528	 9.59461046130043E-02 
1529	 9.61152156377845E-02 
1530	 9.62826813467848E-02 
1531	 9.64450763375392E-02 
1532	 9.66069439309468E-02 
1533	 9.67650383350992E-02 
1534	 9.69132791019153E-02 
1535	 9.70641183332272E-02 
1536	 9.72116367883962E-02 
1537	 9.73661228515283E-02 
1538	 9.75280245983281E-02 
1539	 9.76808567169025E-02 
1540	 9.78355057325315E-02 
1541	 9.79831947222257E-02 
1542	 9.81261237524041E-02 
1543	 9.82616381493192E-02 
1544	 9.83861602067279E-02 
1545	 9.85196406729965E-02 
1546	 9.86538585353121E-02 
1547	 9.87759426113555E-02 
1548	 9.89102550656777E-02 
1549	 9.90442864005041E-02 
1550	 9.91624383534237E-02 
1551	 9.92740306422373E-02 
1552	 9.94011131064742E-02 
1553	 9.95220476692508E-02 
1554	 9.96364554672914E-02 
1555	 9.97577326400672E-02 
1556	 9.98486265451971E-02 
1557	 9.99407402193481E-02 
1558	 0.100056108575841 
1559	 0.100160272805631 
1560	 0.100263695726986 
1561	 0.100375206767747 
1562	 0.100478929066803 
1563	 0.100570466553975 
1564	 0.100669927206016 
1565	 0.100780451557923 
1566	 0.100874528401527 
1567	 0.100957308058922 
1568	 0.101042355023914 
1569	 0.101128755029663 
1570	 0.101199571866185 
1571	 0.101253505052062 
1572	 0.101331897905071 
1573	 0.101404583169351 
1574	 0.101488013688081 
1575	 0.101602883347397 
1576	 0.101692282773847 
1577	 0.101768640260821 
1578	 0.101848963911234 
1579	 0.101928338345977 
1580	 0.10199904079276 
1581	 0.102064145192897 
1582	 0.102130966336906 
1583	 0.102188280092636 
1584	 0.102253054983683 
1585	 0.102328075592517 
1586	 0.102390684174838 
1587	 0.102450240106569 
1588	 0.102506320027102 
1589	 0.102551577746453 
1590	 0.102603226660089 
1591	 0.102663476450443 
1592	 0.102709384213047 
1593	 0.102740328463346 
1594	 0.102783545206042 
1595	 0.10282948430493 
1596	 0.102868078327478 
1597	 0.102912204777611 
1598	 0.102955362522219 
1599	 0.102983890914012 
1600	 0.103021211573809 
1601	 0.10307598826516 
1602	 0.103116003425011 
1603	 0.10314489172626 
1604	 0.103179496436397 
1605	 0.103201901539732 
1606	 0.103238236346195 
1607	 0.103288938611897 
1608	 0.103341527676383 
1609	 0.103375223377531 
1610	 0.10340950465402 
1611	 0.103459214521323 
1612	 0.103488187523238 
1613	 0.103532405380446 
1614	 0.103580938659241 
1615	 0.103601626648308 
1616	 0.103617599050308 
1617	 0.103623705985299 
1618	 0.103643025802577 
1619	 0.103658915833476 
1620	 0.103676137121841 
1621	 0.103700701526515 
1622	 0.103736987259486 
1623	 0.103758601220727 
1624	 0.103775616871251 
1625	 0.103797662003244 
1626	 0.103814240231784 
1627	 0.103836457934323 
1628	 0.103871602551062 
1629	 0.103887237862534 
1630	 0.103891851334848 
1631	 0.103903602870237 
1632	 0.10390736590143 
1633	 0.10392122346006 
1634	 0.10394878933532 
1635	 0.103957941988371 
1636	 0.103954549672248 
1637	 0.103969647011941 
1638	 0.103988219135474 
1639	 0.103997406175013 
1640	 0.10401187074112 
1641	 0.104029443989162 
1642	 0.104048214549882 
1643	 0.104041743724886 
1644	 0.104031319313359 
1645	 0.104024345802685 
1646	 0.103984255625558 
1647	 0.103978222490025 
1648	 0.104003664360661 
1649	 0.104011750005748 
1650	 0.104025815294363 
1651	 0.104017712905517 
1652	 0.103992362667998 
1653	 0.103985568961976 
1654	 0.103967936271963 
1655	 0.10396386420706 
1656	 0.103989120232765 
1657	 0.103985600712303 
1658	 0.103963794229141 
1659	 0.103954752894908 
1660	 0.103943335810956 
1661	 0.103932297825336 
1662	 0.103931692236007 
1663	 0.103916588046185 
1664	 0.103887125960089 
1665	 0.103868385328345 
1666	 0.103847773710309 
1667	 0.103831632438722 
1668	 0.103828076303396 
1669	 0.103808636018036 
1670	 0.103780278910645 
1671	 0.103756942154247 
1672	 0.103721032729918 
1673	 0.103704088459416 
1674	 0.103703036808118 
1675	 0.103693420040774 
1676	 0.103697845531537 
1677	 0.10367897400697 
1678	 0.10364041309678 
1679	 0.103612886453728 
1680	 0.103576722109509 
1681	 0.103548335908029 
1682	 0.103526123953503 
1683	 0.103508445368844 
1684	 0.10350028069595 
1685	 0.103475850744839 
1686	 0.103452511779431 
1687	 0.10342281032896 
1688	 0.103375036392782 
1689	 0.103336336761931 
1690	 0.103302071311197 
1691	 0.10326509991277 
1692	 0.103228566861267 
1693	 0.103186579325737 
1694	 0.10313941493497 
1695	 0.103099106034725 
1696	 0.103056317310619 
1697	 0.103015973548663 
1698	 0.102979125522736 
1699	 0.102950121704205 
1700	 0.102925144666142 
1701	 0.102899467829109 
1702	 0.102894047646534 
1703	 0.102855515699114 
1704	 0.102798830861724 
1705	 0.102739908449478 
1706	 0.102648733943358 
1707	 0.102595439448087 
1708	 0.102563607497253 
1709	 0.102518566153992 
1710	 0.102489138772536 
1711	 0.10244403359115 
1712	 0.102379145348359 
1713	 0.102323735405 
1714	 0.102275333100088 
1715	 0.102218716196046 
1716	 0.102153840573513 
1717	 0.102097114633221 
1718	 0.102041137226716 
1719	 0.101984410490544 
1720	 0.101942066762562 
1721	 0.101872138655541 
1722	 0.101784787077422 
1723	 0.101702334301283 
1724	 0.10160824023585 
1725	 0.101516783117757 
1726	 0.101419498561388 
1727	 0.101338810176868 
1728	 0.101268681519282 
1729	 0.101182969910049 
1730	 0.101099084852275 
1731	 0.101020542543472 
1732	 0.100930545687222 
1733	 0.100848501362029 
1734	 0.100793163569643 
1735	 0.100706746182463 
1736	 0.100594591116384 
1737	 0.100492697273838 
1738	 0.100389271380226 
1739	 0.100282939410989 
1740	 0.100178004869879 
1741	 0.100071008633875 
1742	 9.99479695543916E-02 
1743	 9.98488042147353E-02 
1744	 9.97594953245683E-02 
1745	 9.96779285062393E-02 
1746	 0.099619544503787 
1747	 9.95266533395617E-02 
1748	 9.94378401404978E-02 
1749	 9.93468959903454E-02 
1750	 9.92338846933648E-02 
1751	 9.91303423246334E-02 
1752	 9.90233873411634E-02 
1753	 9.88767554338679E-02 
1754	 9.87436965043396E-02 
1755	 9.86264822551911E-02 
1756	 9.84999206707731E-02 
1757	 9.84131131305979E-02 
1758	 9.83322377813006E-02 
1759	 9.82305767148713E-02 
1760	 9.81318366109551E-02 
1761	 9.80027661976139E-02 
1762	 9.78722997063653E-02 
1763	 9.77713213046483E-02 
1764	 9.76794918864999E-02 
1765	 9.75906294766873E-02 
1766	 9.75098731346954E-02 
1767	 9.74322598172811E-02 
1768	 9.73275104319799E-02 
1769	 9.72119872668923E-02 
1770	 9.70965941293541E-02 
1771	 9.69732873497526E-02 
1772	 0.096874157394893 
1773	 9.68039434178732E-02 
1774	 9.67308321732356E-02 
1775	 9.66396980016025E-02 
1776	 9.65289116128444E-02 
1777	 9.64184178608177E-02 
1778	 9.63360029471135E-02 
1779	 9.62657434587224E-02 
1780	 9.62028540737828E-02 
1781	 0.096154501697958 
1782	 9.61026404522922E-02 
1783	 9.60650584932074E-02 
1784	 9.60245647205879E-02 
1785	 9.59866764293987E-02 
1786	 9.59396103111727E-02 
1787	 9.58795311477069E-02 
1788	 9.58355967782499E-02 
1789	 9.57991241648766E-02 
1790	 9.57581822332014E-02 
1791	 9.57244708303712E-02 
1792	 9.56868215802879E-02 
1793	 9.56344714566385E-02 
1794	 9.56004649604389E-02 
1795	 0.095583987240989 
1796	 9.55651313072316E-02 
1797	 9.55499378250433E-02 
1798	 9.55349171995503E-02 
1799	 9.55276740447171E-02 
1800	 9.54931476338671E-02 
1801	 9.34221819854071E-02 
1802	 9.34863185679097E-02 
1803	 9.35565010624284E-02 
1804	 9.36634446411053E-02 
1805	 0.093745108702052 
1806	 9.38033687335183E-02 
1807	 9.38530526462941E-02 
1808	 9.38962051453633E-02 
1809	 9.39297586726951E-02 
1810	 9.39517709519383E-02 
1811	 9.39700739463514E-02 
1812	 9.39761849628203E-02 
1813	 9.39515627300874E-02 
1814	 9.39118821835912E-02 
1815	 0.093892193195656 
1816	 9.38702754207951E-02 
1817	 9.38477767353211E-02 
1818	 9.38274985793565E-02 
1819	 9.38196151650079E-02 
1820	 9.38208185744624E-02 
1821	 9.38040359995106E-02 
1822	 9.37873702373211E-02 
1823	 9.37798748057394E-02 
1824	 9.37438239068854E-02 
1825	 9.37034672161229E-02 
1826	 9.36740061186064E-02 
1827	 9.36305182580875E-02 
1828	 9.35869134068955E-02 
1829	 0.09354251470473 
1830	 0.093483357793604 
1831	 9.34196243119114E-02 
1832	 9.33492832179279E-02 
1833	 9.32516908132165E-02 
1834	 9.31726441510821E-02 
1835	 9.30863836590697E-02 
1836	 9.29769997793111E-02 
1837	 0.092898731828291 
1838	 0.092808169806717 
1839	 9.27136900597094E-02 
1840	 9.26158252038499E-02 
1841	 9.25398146088094E-02 
1842	 9.24373338191322E-02 
1843	 9.23479852195574E-02 
1844	 9.22547747819972E-02 
1845	 9.21296208571025E-02 
1846	 9.20343585339582E-02 
1847	 9.19145736733728E-02 
1848	 9.17661640951578E-02 
1849	 9.16181893229653E-02 
1850	 9.14430325673115E-02 
1851	 9.12352669825119E-02 
1852	 9.10133692369617E-02 
1853	 9.07861769051191E-02 
1854	 9.05358279178131E-02 
1855	 9.02726627505041E-02 
1856	 8.99881581097727E-02 
1857	 8.96742182462813E-02 
1858	 8.93611714819368E-02 
1859	 8.90503028178567E-02 
1860	 8.86848510307358E-02 
1861	 8.82925113337069E-02 
1862	 8.78541499860156E-02 
1863	 8.73464800183692E-02 
1864	 8.67741997193321E-02 
1865	 8.61948729032777E-02 
1866	 8.55808621431504E-02 
1867	 8.49519381484449E-02 
1868	 8.42921653736046E-02 
1869	 8.35606527204405E-02 
1870	 8.28095512833085E-02 
1871	 8.20240723539069E-02 
1872	 8.11988523601072E-02 
1873	 8.03636458200309E-02 
1874	 7.95204442526781E-02 
1875	 7.86342586165386E-02 
1876	 7.77387083284966E-02 
1877	 7.68062455228446E-02 
1878	 7.58132810923291E-02 
1879	 7.47636121259265E-02 
1880	 7.36722731380045E-02 
1881	 7.24960714328464E-02 
1882	 7.13362638393203E-02 
1883	 7.01468402137821E-02 
1884	 6.89352687566264E-02 
1885	 6.77261092332427E-02 
1886	 6.65068575164008E-02 
1887	 6.52626042958185E-02 
1888	 6.40228925433889E-02 
1889	 6.27888237015388E-02 
1890	 6.15805508871556E-02 
1891	 6.03894572619466E-02 
1892	 5.91898382629448E-02 
1893	 5.80488743253994E-02 
1894	 5.69333004312395E-02 
1895	 0.055855724766968 
1896	 5.48317993856521E-02 
1897	 5.38828834050228E-02 
1898	 5.29641039731975E-02 
1899	 5.21037760311765E-02 
1900	 5.13255866300314E-02 
1901	 5.05990057086052E-02 
1902	 4.99340735715535E-02 
1903	 4.93673101011257E-02 
1904	 0.048814212867817 
1905	 4.82957732604553E-02 
1906	 4.78360554985756E-02 
1907	 4.74225593213012E-02 
1908	 4.70225517457002E-02 
1909	 4.66622741625168E-02 
1910	 0.046336168834866 
1911	 4.60357896753262E-02 
1912	 4.57670317210747E-02 
1913	 4.55126885177142E-02 
1914	 4.52808296053764E-02 
1915	 4.50720830115567E-02 
1916	 4.48806338731322E-02 
1917	 4.47110873833617E-02 
1918	 0.044579053883825 
1919	 4.44665926918211E-02 
1920	 4.43590140793741E-02 
1921	 4.42624684450226E-02 
1922	 4.41859404893708E-02 
1923	 4.41126735479508E-02 
1924	 4.40463441119608E-02 
1925	 0.043989676511341 
1926	 4.39516838533712E-02 
1927	 4.39230798524842E-02 
1928	 4.39014044159074E-02 
1929	 4.38951202243723E-02 
1930	 4.38873046642626E-02 
1931	 4.38870753560196E-02 
1932	 4.38993391232718E-02 
1933	 4.39402950888343E-02 
1934	 4.40026788304639E-02 
1935	 4.40629186343223E-02 
1936	 0.044138743099792 
1937	 4.42057838805652E-02 
1938	 4.42688097035496E-02 
1939	 4.43415819569301E-02 
1940	 4.44115015475771E-02 
1941	 4.44930615887986E-02 
1942	 4.45878714879751E-02 
1943	 4.47017552862596E-02 
1944	 4.48236384124901E-02 
1945	 4.49375000783908E-02 
1946	 4.50602970740742E-02 
1947	 4.51921194459447E-02 
1948	 0.045316943697583 
1949	 4.54348875800078E-02 
1950	 4.55705782766621E-02 
1951	 4.57165494469465E-02 
1952	 4.58529880602545E-02 
1953	 4.60040757974223E-02 
1954	 4.61710746438114E-02 
1955	 4.63239172477375E-02 
1956	 4.64781501947421E-02 
1957	 4.66445142500677E-02 
1958	 4.68195544734102E-02 
1959	 4.69906449272578E-02 
1960	 4.71741435511213E-02 
1961	 4.73504783217535E-02 
1962	 4.75099908010719E-02 
1963	 4.76906180421556E-02 
1964	 4.78853405661587E-02 
1965	 4.80746006573286E-02 
1966	 4.82674394405039E-02 
1967	 4.84650537283962E-02 
1968	 4.86679393682953E-02 
1969	 4.88683334337321E-02 
1970	 0.049075387604959 
1971	 4.93028351608327E-02 
1972	 4.95122516717834E-02 
1973	 4.97085709755867E-02 
1974	 4.99133523971838E-02 
1975	 5.01137618130951E-02 
1976	 5.03191259831468E-02 
1977	 5.05351799729643E-02 
1978	 5.07620561587733E-02 
1979	 5.09880677371104E-02 
1980	 5.12078160694653E-02 
1981	 0.051423942238165 
1982	 5.16307762769747E-02 
1983	 5.18449236532319E-02 
1984	 5.20523150042979E-02 
1985	 5.22743212177522E-02 
1986	 5.25193938289226E-02 
1987	 5.27426914980802E-02 
1988	 5.29611041743994E-02 
1989	 5.31765575943945E-02 
1990	 5.33929404405723E-02 
1991	 5.36105486573256E-02 
1992	 5.38324629464898E-02 
1993	 5.40732067764891E-02 
1994	 5.42967187810516E-02 
1995	 5.45066343955858E-02 
1996	 5.47256720801364E-02 
1997	 0.054945666955335 
1998	 5.51674192128475E-02 
1999	 5.53957549637415E-02 
2000	 5.56167409841779E-02 
2001	 5.58296543083419E-02 
2002	 5.60487321261238E-02 
2003	 5.62818085568531E-02 
2004	 5.65090320109968E-02 
2005	 5.67334218649527E-02 
2006	 5.69697019154236E-02 
2007	 5.71896841960891E-02 
2008	 5.73844007003515E-02 
2009	 5.76022408880162E-02 
2010	 5.78254103166689E-02 
2011	 5.80530038794135E-02 
2012	 5.82995767439215E-02 
2013	 5.85330544840804E-02 
2014	 5.87682833454716E-02 
2015	 5.89886113682546E-02 
2016	 5.92109342306526E-02 
2017	 5.94400423217433E-02 
2018	 5.96539027244294E-02 
2019	 5.98631665228528E-02 
2020	 6.00698615335046E-02 
2021	 6.02597528108554E-02 
2022	 6.04593323791705E-02 
2023	 6.06662208433043E-02 
2024	 6.08695213524613E-02 
2025	 6.10645220138926E-02 
2026	 6.12715396177616E-02 
2027	 6.14869344595883E-02 
2028	 0.061698157725959 
2029	 6.19124962116749E-02 
2030	 6.21430627638304E-02 
2031	 6.23428297357464E-02 
2032	 6.25210668199051E-02 
2033	 6.27190177503164E-02 
2034	 6.29089865822684E-02 
2035	 0.06310723024677 
2036	 6.33347019186366E-02 
2037	 6.35289909230714E-02 
2038	 0.063690690692145 
2039	 6.38769136732026E-02 
2040	 6.40655874931464E-02 
2041	 6.42513993142075E-02 
2042	 6.44406934155386E-02 
2043	 6.46331702975085E-02 
2044	 6.48293820254617E-02 
2045	 6.50178468550352E-02 
2046	 6.52115352403744E-02 
2047	 6.54230079582899E-02 
2048	 6.56181669945197E-02 
2049	 6.58051248275764E-02 
2050	 6.59862159842364E-02 
2051	 6.61577118650115E-02 
2052	 6.63353373070338E-02 
2053	 6.65110956002803E-02 
2054	 6.66813097399585E-02 
2055	 6.68549831592778E-02 
2056	 6.70258641084146E-02 
2057	 6.71889974865169E-02 
2058	 6.73362815579303E-02 
2059	 6.74977874831852E-02 
2060	 6.76594528383174E-02 
2061	 6.78289200633502E-02 
2062	 6.80108151691075E-02 
2063	 6.81816685132688E-02 
2064	 6.83474191992902E-02 
2065	 6.85200385887161E-02 
2066	 6.86951855250893E-02 
2067	 6.88658274975168E-02 
2068	 6.90423842824503E-02 
2069	 6.92137511474344E-02 
2070	 6.93819764721321E-02 
2071	 6.95452703870471E-02 
2072	 6.97005091331142E-02 
2073	 6.98440034121082E-02 
2074	 7.00072797312815E-02 
2075	 7.01739563617983E-02 
2076	 7.03335997381077E-02 
2077	 7.05129084788001E-02 
2078	 7.06704397474922E-02 
2079	 0.070801342972992 
2080	 7.09436056171288E-02 
2081	 7.10818857669156E-02 
2082	 7.12272164365368E-02 
2083	 7.13754834862293E-02 
2084	 7.15305138268296E-02 
2085	 7.16786028076608E-02 
2086	 0.071828122653936 
2087	 7.19779584943101E-02 
2088	 7.21254757217658E-02 
2089	 7.22712204539493E-02 
2090	 0.072421273593488 
2091	 7.25648592327944E-02 
2092	 7.26909608204917E-02 
2093	 0.072838344699648 
2094	 7.30043627402837E-02 
2095	 7.31545971964228E-02 
2096	 0.07331496390978 
2097	 7.34616863624665E-02 
2098	 7.35927476292699E-02 
2099	 0.0737175908112 
2100	 7.38407603045749E-02 
2101	 7.39554389615958E-02 
2102	 7.40784188884707E-02 
2103	 7.41868540072725E-02 
2104	 7.43289183027105E-02 
2105	 7.45023417997803E-02 
2106	 7.46511491817812E-02 
2107	 7.48207565028789E-02 
2108	 0.074958799164269 
2109	 7.50406036338538E-02 
2110	 7.51746239233188E-02 
2111	 7.53430232592272E-02 
2112	 7.54829034264517E-02 
2113	 7.56542169150779E-02 
2114	 7.57863954862747E-02 
2115	 7.59013770440641E-02 
2116	 7.59621638888518E-02 
2117	 7.60759187331828E-02 
2118	 7.61969924973908E-02 
2119	 7.63254932890124E-02 
2120	 7.64846048461022E-02 
2121	 7.66132228187256E-02 
2122	 7.67334536660961E-02 
2123	 7.68480443367195E-02 
2124	 7.69459839373206E-02 
2125	 7.70501317879742E-02 
2126	 7.71548794456289E-02 
2127	 7.72555943512159E-02 
2128	 7.73614715635663E-02 
2129	 7.74533891552295E-02 
2130	 7.75248835501846E-02 
2131	 7.76101988665896E-02 
2132	 7.76931503326219E-02 
2133	 7.77709913852143E-02 
2134	 7.78490951825196E-02 
2135	 7.79387417121172E-02 
2136	 7.80089417264147E-02 
2137	 7.80700015210169E-02 
2138	 7.81217100753842E-02 
2139	 7.81636056193586E-02 
2140	 7.81999221329057E-02 
2141	 7.82195313985006E-02 
2142	 7.82453816702118E-02 
2143	 7.82609852532189E-02 
2144	 7.82906335480762E-02 
2145	 7.83468668542818E-02 
2146	 7.83737108722762E-02 
2147	 7.83878984584451E-02 
2148	 7.84073654562605E-02 
2149	 7.84131359681534E-02 
2150	 7.83853954646491E-02 
2151	 7.83919734204981E-02 
2152	 7.84170133534445E-02 
2153	 7.84268390805756E-02 
2154	 0.078447051281606 
2155	 7.84467664096178E-02 
2156	 7.84330525223688E-02 
2157	 7.84166887227146E-02 
2158	 7.83888874950619E-02 
2159	 7.83601778145352E-02 
2160	 7.83232686961371E-02 
2161	 7.82900587514117E-02 
2162	 7.82643504564585E-02 
2163	 7.82236771206434E-02 
2164	 7.81741467163365E-02 
2165	 0.078123757912468 
2166	 7.80724410532753E-02 
2167	 7.80062255621474E-02 
2168	 7.79535573492111E-02 
2169	 0.077911759089694 
2170	 7.78609152214205E-02 
2171	 7.78105255547045E-02 
2172	 0.077755904232556 
2173	 7.77023024597479E-02 
2174	 7.76374172056985E-02 
2175	 0.07756189788679 
2176	 7.74872874424223E-02 
2177	 7.73994684033992E-02 
2178	 7.73234831386773E-02 
2179	 7.72626645323536E-02 
2180	 7.71864282839244E-02 
2181	 7.70935905088824E-02 
2182	 7.70190405027336E-02 
2183	 7.69534655274796E-02 
2184	 7.68757894634784E-02 
2185	 7.68023670137859E-02 
2186	 7.67459255946806E-02 
2187	 7.66741698272498E-02 
2188	 7.65937424132415E-02 
2189	 7.65029662473612E-02 
2190	 7.63910027782251E-02 
2191	 7.63154209349446E-02 
2192	 7.62314449533059E-02 
2193	 7.61763370107133E-02 
2194	 7.61800175995639E-02 
2195	 7.61443435258636E-02 
2196	 7.60909204427085E-02 
2197	 7.60538265404355E-02 
2198	 7.60149145048575E-02 
2199	 7.59767131985785E-02 
2200	 7.59516180946806E-02 
2201	 7.59231158212179E-02 
2202	 7.58726914291466E-02 
2203	 7.58482891626326E-02 
2204	 7.58328414110403E-02 
2205	 7.58288515510407E-02 
2206	 7.58256701788519E-02 
2207	 0.07583874427248 
2208	 7.58410555494236E-02 
2209	 7.58414839916204E-02 
2210	 7.58472630188803E-02 
2211	 7.58497235824471E-02 
2212	 7.58620543698319E-02 
2213	 7.58856177087698E-02 
2214	 7.59008436186287E-02 
2215	 7.59238923303694E-02 
2216	 7.59355884706313E-02 
2217	 7.59254237250187E-02 
2218	 7.59377274566077E-02 
2219	 7.59695827200932E-02 
2220	 7.59810764885529E-02 
2221	 7.59996807203049E-02 
2222	 7.60039674172976E-02 
2223	 7.59915974897945E-02 
2224	 7.59774960601097E-02 
2225	 7.59808669789479E-02 
2226	 7.60014801430915E-02 
2227	 0.076007007655718 
2228	 7.60094767687146E-02 
2229	 7.60179448990323E-02 
2230	 7.60396504696563E-02 
2231	 7.60212899636528E-02 
2232	 7.59858369866227E-02 
2233	 7.59643461263834E-02 
2234	 7.59085635447362E-02 
2235	 7.58788656068513E-02 
2236	 7.58893549549201E-02 
2237	 7.58664842285176E-02 
2238	 7.58183630649646E-02 
2239	 0.075792136232486 
2240	 7.57754987100155E-02 
2241	 7.57450181994938E-02 
2242	 7.57170810721662E-02 
2243	 7.56866077692525E-02 
2244	 7.56313557984309E-02 
2245	 7.55980929567378E-02 
2246	 7.55762079054602E-02 
2247	 7.55535956926417E-02 
2248	 7.55247972235442E-02 
2249	 7.54913121850164E-02 
2250	 7.54668024602476E-02 
2251	 7.54502177056591E-02 
2252	 7.54065502574909E-02 
2253	 7.53596600903261E-02 
2254	 7.53144693419579E-02 
2255	 7.52493995262774E-02 
2256	 7.51911498111344E-02 
2257	 7.51422675609075E-02 
2258	 7.50862507795607E-02 
2259	 7.50141370768805E-02 
2260	 7.49525872743033E-02 
2261	 7.48885094428839E-02 
2262	 7.48451363215964E-02 
2263	 7.48215427076757E-02 
2264	 0.074787181905637 
2265	 7.47710264487355E-02 
2266	 7.47432778102827E-02 
2267	 7.46943030062242E-02 
2268	 0.074653113353517 
2269	 7.46290165982381E-02 
2270	 7.45784486355163E-02 
2271	 0.074539460676405 
2272	 7.44765894629064E-02 
2273	 7.43600599365453E-02 
2274	 7.43034613671339E-02 
2275	 7.42522629679124E-02 
2276	 7.42026832434231E-02 
2277	 7.41637769312877E-02 
2278	 7.41665520709135E-02 
2279	 7.41279918576028E-02 
2280	 7.40704250328064E-02 
2281	 7.40196981797684E-02 
2282	 7.39689954583649E-02 
2283	 7.39038127649389E-02 
2284	 7.38147413148755E-02 
2285	 7.37548885865423E-02 
2286	 7.37120173372471E-02 
2287	 7.36434890225126E-02 
2288	 7.35670983373286E-02 
2289	 7.35172940716947E-02 
2290	 7.34694738093464E-02 
2291	 7.34075276783971E-02 
2292	 7.33702277833065E-02 
2293	 7.33121054680181E-02 
2294	 7.32173737573453E-02 
2295	 7.31313500726465E-02 
2296	 7.30375743353979E-02 
2297	 7.29774376840721E-02 
2298	 7.28943698543496E-02 
2299	 7.28007403933253E-02 
2300	 7.27520517086045E-02 
2301	 7.26925641890087E-02 
2302	 7.26138332568144E-02 
2303	 7.25179480868583E-02 
2304	 7.24296122282124E-02 
2305	 7.23311656068823E-02 
2306	 7.22244324441797E-02 
2307	 7.21253050760112E-02 
2308	 7.20309016832061E-02 
2309	 7.19003337687022E-02 
2310	 7.18204350432484E-02 
2311	 7.17972889279713E-02 
2312	 7.17290977035402E-02 
2313	 7.16708992570852E-02 
2314	 7.15837093160264E-02 
2315	 7.14559881179014E-02 
2316	 0.07135017748329 
2317	 7.12349641832874E-02 
2318	 7.11246996501843E-02 
2319	 7.10285308235743E-02 
2320	 7.09168252683442E-02 
2321	 7.07821646059591E-02 
2322	 7.06875053158089E-02 
2323	 7.06275003755651E-02 
2324	 7.05305100904263E-02 
2325	 7.04425578445178E-02 
2326	 7.03337175857857E-02 
2327	 7.01688763064752E-02 
2328	 7.00368190499406E-02 
2329	 6.99569661020511E-02 
2330	 6.98814299429186E-02 
2331	 6.98317794908621E-02 
2332	 6.98012300270317E-02 
2333	 6.96944650319846E-02 
2334	 0.069613968641148 
2335	 6.95752526545382E-02 
2336	 6.94356717289736E-02 
2337	 6.92658872424218E-02 
2338	 6.90814719042266E-02 
2339	 6.88596238591233E-02 
2340	 6.86581181559034E-02 
2341	 6.85534304166113E-02 
2342	 6.84591585704658E-02 
2343	 6.83173951627708E-02 
2344	 6.82566970279975E-02 
2345	 0.068169922378365 
2346	 6.80820232183214E-02 
2347	 6.79858082017141E-02 
2348	 6.78940277988478E-02 
2349	 6.77749711791794E-02 
2350	 6.76231662144666E-02 
2351	 6.75089174660898E-02 
2352	 6.74097191570404E-02 
2353	 6.72979601580304E-02 
2354	 0.067195302932437 
2355	 6.71014342849744E-02 
2356	 6.70252262301359E-02 
2357	 6.69058596693897E-02 
2358	 6.67752105799771E-02 
2359	 0.066626732966545 
2360	 0.066441131817629 
2361	 6.62420405924959E-02 
2362	 6.60030367508721E-02 
2363	 6.58218713016723E-02 
2364	 6.56254533720931E-02 
2365	 6.54793831751016E-02 
2366	 6.54367963963469E-02 
2367	 6.53384636225886E-02 
2368	 6.51907178277573E-02 
2369	 0.065089817745499 
2370	 6.49967254929636E-02 
2371	 6.49456479224923E-02 
2372	 6.48457611809158E-02 
2373	 6.48128643248176E-02 
2374	 6.46982234653762E-02 
2375	 6.45072992597175E-02 
2376	 6.43573251711005E-02 
2377	 6.41618983965785E-02 
2378	 6.40609041091909E-02 
2379	 6.39501235711195E-02 
2380	 6.37381864593208E-02 
2381	 6.35811970418826E-02 
2382	 6.33718510465959E-02 
2383	 6.31297918256452E-02 
2384	 6.30064089375522E-02 
2385	 0.062919388559551 
2386	 6.27971379906233E-02 
2387	 6.26705022198004E-02 
2388	 6.25221446607288E-02 
2389	 6.23707282194214E-02 
2390	 6.22403233576135E-02 
2391	 6.20834867590053E-02 
2392	 6.19307282479687E-02 
2393	 6.18107876665524E-02 
2394	 6.16697899306883E-02 
2395	 6.15507945734255E-02 
2396	 6.14349321887328E-02 
2397	 6.12180827741961E-02 
2398	 6.10051039879443E-02 
2399	 6.08218185060818E-02 
2400	 6.06728131405014E-02 
2401	 6.05347729259721E-02 
2402	 6.03505530257881E-02 
2403	 6.02343947459772E-02 
2404	 6.01320986662619E-02 
2405	 5.99961519291961E-02 
2406	 5.97992352059406E-02 
2407	 5.95333348002064E-02 
2408	 5.93090008317693E-02 
2409	 5.91517176476797E-02 
2410	 0.059043231009424 
2411	 5.89003300866932E-02 
2412	 5.87122583023534E-02 
2413	 5.85344107506441E-02 
2414	 5.83924147946187E-02 
2415	 5.83171165574898E-02 
2416	 5.82002581460661E-02 
2417	 5.80677590024645E-02 
2418	 5.78540415814865E-02 
2419	 5.75952291852789E-02 
2420	 5.74207862958013E-02 
2421	 5.72489561661089E-02 
2422	 5.70503579886058E-02 
2423	 5.68312457024811E-02 
2424	 0.05665048208069 
2425	 5.64457809976821E-02 
2426	 5.62913682395579E-02 
2427	 5.62939012981343E-02 
2428	 5.61992133945218E-02 
2429	 5.60037529582846E-02 
2430	 5.58643236849731E-02 
2431	 0.055744744205784 
2432	 5.55574476017528E-02 
2433	 5.53581087493069E-02 
2434	 5.51444715422139E-02 
2435	 5.48939230771219E-02 
2436	 5.47076124523809E-02 
2437	 5.45098249901057E-02 
2438	 5.43619534094349E-02 
2439	 5.42909231733991E-02 
2440	 5.41191339572024E-02 
2441	 5.39032412392407E-02 
2442	 5.37601086702015E-02 
2443	 5.36546259705642E-02 
2444	 5.35001937417371E-02 
2445	 5.33230579903711E-02 
2446	 5.31690548339158E-02 
2447	 0.052973327174396 
2448	 5.27536627561314E-02 
2449	 5.26138308529883E-02 
2450	 5.24698454761038E-02 
2451	 5.22572187106031E-02 
2452	 5.20726259600605E-02 
2453	 5.18872923307155E-02 
2454	 5.17347064328232E-02 
2455	 5.16369341266516E-02 
2456	 5.15046452199885E-02 
2457	 5.14118666166251E-02 
2458	 5.12383450312735E-02 
2459	 5.08994343872641E-02 
2460	 5.07472282933051E-02 
2461	 5.07109451521777E-02 
2462	 5.05849488383552E-02 
2463	 5.05684952643212E-02 
2464	 5.04778536996734E-02 
2465	 5.02326863093234E-02 
2466	 5.00410638969209E-02 
2467	 4.98707903698122E-02 
2468	 4.96786121192749E-02 
2469	 4.94287110101608E-02 
2470	 4.92525044399409E-02 
2471	 4.92486262960692E-02 
2472	 4.92384103601703E-02 
2473	 4.90798089133503E-02 
2474	 4.90178773656012E-02 
2475	 4.87795172459495E-02 
2476	 4.84179456238035E-02 
2477	 4.83473015970198E-02 
2478	 4.83068651724886E-02 
2479	 4.83015580181629E-02 
2480	 4.83483637218374E-02 
2481	 4.83461345858421E-02 
2482	 4.82213994326638E-02 
2483	 4.78603987723329E-02 
2484	 4.75018980521332E-02 
2485	 4.73318211636514E-02 
2486	 4.72772003625275E-02 
2487	 4.72030634207324E-02 
2488	 0.047206698607248 
2489	 4.71422270466211E-02 
2490	 4.67006200882372E-02 
2491	 4.64708170157576E-02 
2492	 4.65076113589998E-02 
2493	 0.046417582528592 
2494	 4.65619367848389E-02 
2495	 0.046555505064531 
2496	 4.62914056020589E-02 
2497	 4.62292950544102E-02 
2498	 4.60055203337151E-02 
2499	 4.59685521100452E-02 
2500	 4.61600200985113E-02 
