Wavelength	MM_3400009.asd
350	 5.60216715472403E-02 
351	 5.47676582446203E-02 
352	 5.20712912583742E-02 
353	 5.10870020394712E-02 
354	 4.80980428895226E-02 
355	 4.67734486800634E-02 
356	 4.41556380286035E-02 
357	 3.95749654012857E-02 
358	 4.76592778719821E-02 
359	 5.19144667284979E-02 
360	 0.050859515458826 
361	 5.23508460693667E-02 
362	 4.80444127290816E-02 
363	 0.048824489881661 
364	 5.55141126965031E-02 
365	 4.98784770440805E-02 
366	 4.73146839868649E-02 
367	 4.79466093822417E-02 
368	 4.89498623029737E-02 
369	 5.43845053848673E-02 
370	 5.57154653821909E-02 
371	 5.27891622391968E-02 
372	 5.13731365789153E-02 
373	 5.21587992438269E-02 
374	 5.42130226169162E-02 
375	 5.58454117293374E-02 
376	 5.44463162708861E-02 
377	 0.053778329502624 
378	 5.50438255271722E-02 
379	 0.057745344049184 
380	 5.83845989818411E-02 
381	 5.90640736965136E-02 
382	 6.02426544485047E-02 
383	 6.09155788918782E-02 
384	 6.01726140132393E-02 
385	 5.71951966029848E-02 
386	 5.40248251730834E-02 
387	 5.83321639068785E-02 
388	 5.97728548037943E-02 
389	 0.058546965231459 
390	 5.78215882867459E-02 
391	 5.68586166099475E-02 
392	 5.73236794403354E-02 
393	 5.91632891801563E-02 
394	 6.08253716798516E-02 
395	 6.16508612514394E-02 
396	 6.16223289963856E-02 
397	 6.13291675797402E-02 
398	 6.23721792743717E-02 
399	 6.32413187840972E-02 
400	 0.063435487105596 
401	 6.30755724418005E-02 
402	 6.34022263656743E-02 
403	 6.33761963535976E-02 
404	 0.062956897762995 
405	 6.31886381016395E-02 
406	 6.28266048949732E-02 
407	 6.30766155639704E-02 
408	 6.43924132423871E-02 
409	 6.41714749902987E-02 
410	 6.38468424805203E-02 
411	 0.063374038886754 
412	 0.06238320581548 
413	 6.34451435200446E-02 
414	 6.38002266099885E-02 
415	 6.32164958133956E-02 
416	 6.52781148583258E-02 
417	 6.44280179103196E-02 
418	 6.33687264007994E-02 
419	 6.48365877738441E-02 
420	 6.46895245071207E-02 
421	 6.41608763248337E-02 
422	 6.39673617160124E-02 
423	 6.43072231850521E-02 
424	 6.41267204797996E-02 
425	 6.40566626574002E-02 
426	 0.064356105231243 
427	 6.42321777427587E-02 
428	 6.39350391254014E-02 
429	 0.063775782243941 
430	 6.39786096365918E-02 
431	 6.42618284461006E-02 
432	 6.40968924288364E-02 
433	 6.37261096334555E-02 
434	 0.064058705301569 
435	 6.37934345665296E-02 
436	 6.35065960870138E-02 
437	 6.37054095253039E-02 
438	 6.37524736952219E-02 
439	 6.38903690316824E-02 
440	 6.40170735982402E-02 
441	 0.063936134656642 
442	 6.41131350159591E-02 
443	 0.064338308029112 
444	 0.06434776523377 
445	 6.38689146808328E-02 
446	 6.37988784274863E-02 
447	 0.064063617807074 
448	 6.42631784878152E-02 
449	 0.063964295810476 
450	 6.38786377747842E-02 
451	 6.39992520294867E-02 
452	 6.37278003328849E-02 
453	 6.37148575847883E-02 
454	 6.37702288102754E-02 
455	 6.37896422468158E-02 
456	 6.43407277212952E-02 
457	 6.42890196374748E-02 
458	 6.38127405040482E-02 
459	 6.36561545357836E-02 
460	 6.37830388999215E-02 
461	 0.063675176287156 
462	 6.33540779487436E-02 
463	 6.36522085303062E-02 
464	 6.38974141528214E-02 
465	 6.39584765980567E-02 
466	 6.38851206381035E-02 
467	 6.37849179422261E-02 
468	 6.38845278365975E-02 
469	 6.39924330997353E-02 
470	 6.36472251393264E-02 
471	 6.37346721179632E-02 
472	 6.38427459819133E-02 
473	 6.36571881207328E-02 
474	 6.36182704957563E-02 
475	 6.35407669061217E-02 
476	 6.34950161125159E-02 
477	 6.36161732416333E-02 
478	 6.37373155748729E-02 
479	 6.36762021896244E-02 
480	 6.35352410508149E-02 
481	 6.38091389942066E-02 
482	 6.37621069138865E-02 
483	 6.36661954266236E-02 
484	 6.38539429998948E-02 
485	 6.37182854131231E-02 
486	 6.34780272308357E-02 
487	 6.33249750484015E-02 
488	 6.33956516094154E-02 
489	 6.36305528250278E-02 
490	 6.37322592794924E-02 
491	 6.35761178891971E-02 
492	 6.35329185828707E-02 
493	 0.063507213731437 
494	 6.34787778946729E-02 
495	 6.34701524917031E-02 
496	 6.36542730763036E-02 
497	 6.35867854666504E-02 
498	 6.32622271640577E-02 
499	 6.34035668911339E-02 
500	 6.34461739992222E-02 
501	 6.34341356407295E-02 
502	 6.35159578217663E-02 
503	 6.34912654384291E-02 
504	 6.35201526145545E-02 
505	 6.35730113859655E-02 
506	 6.34536149709867E-02 
507	 6.34127561165727E-02 
508	 6.34407655913028E-02 
509	 6.34420175284599E-02 
510	 6.31917908975731E-02 
511	 6.32306436413897E-02 
512	 6.34132854264793E-02 
513	 6.32971950049923E-02 
514	 6.34214139639188E-02 
515	 6.33965983548892E-02 
516	 6.31397530655301E-02 
517	 6.32676182577503E-02 
518	 6.33091246184154E-02 
519	 6.32086528818182E-02 
520	 6.30878253353263E-02 
521	 6.32572074717142E-02 
522	 6.33380976967828E-02 
523	 6.32268541968004E-02 
524	 6.31451889327249E-02 
525	 6.31248439449293E-02 
526	 6.31478685675486E-02 
527	 6.31695511090473E-02 
528	 6.31207306165771E-02 
529	 6.30550689089184E-02 
530	 6.30269176642764E-02 
531	 6.30763814440209E-02 
532	 6.30663597689286E-02 
533	 6.31471175590279E-02 
534	 6.33361206155977E-02 
535	 6.32905838034476E-02 
536	 6.31679778437079E-02 
537	 6.31212989012995E-02 
538	 6.32450511846461E-02 
539	 6.32124083218542E-02 
540	 6.31565776647954E-02 
541	 6.31553119585599E-02 
542	 0.063162357926127 
543	 6.31965872666567E-02 
544	 6.32311770913016E-02 
545	 6.32517745237291E-02 
546	 6.33521413684532E-02 
547	 6.33925337906092E-02 
548	 0.063364441794781 
549	 6.33689242511633E-02 
550	 6.32684397521937E-02 
551	 6.32363442880606E-02 
552	 0.063369128338579 
553	 6.34305472088926E-02 
554	 6.34617955007563E-02 
555	 0.063529701289608 
556	 6.36924833091747E-02 
557	 6.37581355735479E-02 
558	 6.37701068796904E-02 
559	 6.38228814205491E-02 
560	 6.40694196875504E-02 
561	 6.41539265545546E-02 
562	 6.41479030816408E-02 
563	 6.42441903049987E-02 
564	 6.43937141518251E-02 
565	 6.45147828487146E-02 
566	 6.45787016577007E-02 
567	 6.46200922603713E-02 
568	 6.47649783949072E-02 
569	 6.49652366209512E-02 
570	 6.51639228276513E-02 
571	 6.54446579607675E-02 
572	 6.57055901538189E-02 
573	 6.59232234951651E-02 
574	 6.61332671338579E-02 
575	 6.63376428588603E-02 
576	 6.65872356940225E-02 
577	 6.68846375481887E-02 
578	 6.71104678196605E-02 
579	 6.73627916720374E-02 
580	 6.76012580994976E-02 
581	 6.77564020381101E-02 
582	 6.79818182281439E-02 
583	 6.82183531265663E-02 
584	 6.84449902933768E-02 
585	 6.87213732273569E-02 
586	 0.069063325901728 
587	 0.06940870362301 
588	 6.97038691507617E-02 
589	 7.00405614092628E-02 
590	 7.04494365557395E-02 
591	 7.08645697624451E-02 
592	 7.11505238573947E-02 
593	 7.15616120026149E-02 
594	 7.20146881529499E-02 
595	 7.24030795044189E-02 
596	 0.072751896858213 
597	 0.073022473059293 
598	 7.32458935771077E-02 
599	 7.34846494257803E-02 
600	 7.36855121932745E-02 
601	 7.39042238973215E-02 
602	 7.41702829666124E-02 
603	 0.074452743706992 
604	 7.47018663104244E-02 
605	 7.49259772412421E-02 
606	 7.51574947465208E-02 
607	 7.54190957829956E-02 
608	 7.56721448874026E-02 
609	 7.59173975482253E-02 
610	 7.62022729736867E-02 
611	 7.63688609977055E-02 
612	 7.65157039078764E-02 
613	 7.67270043232393E-02 
614	 7.68083653357936E-02 
615	 7.69325144718681E-02 
616	 7.71034990295528E-02 
617	 7.72132074895806E-02 
618	 7.73533872787555E-02 
619	 7.74661876465607E-02 
620	 7.75295634550608E-02 
621	 7.76439564029914E-02 
622	 7.77654661679756E-02 
623	 7.78566154813591E-02 
624	 7.78990227438429E-02 
625	 7.79986549924544E-02 
626	 7.80860393196628E-02 
627	 7.81466161486525E-02 
628	 7.82571611622971E-02 
629	 7.83180214428659E-02 
630	 7.83609269325203E-02 
631	 7.84371101766028E-02 
632	 7.85297359080081E-02 
633	 0.078576867638214 
634	 7.86042853311369E-02 
635	 7.87017360194634E-02 
636	 7.87608826407741E-02 
637	 7.88089142711232E-02 
638	 7.88731745825598E-02 
639	 7.89218998115279E-02 
640	 7.89755243446176E-02 
641	 7.90299235286204E-02 
642	 7.90776361165873E-02 
643	 7.91809536938431E-02 
644	 7.92411423568128E-02 
645	 0.079246786038423 
646	 7.93335930935703E-02 
647	 7.94257336011865E-02 
648	 7.95091650650673E-02 
649	 7.95798298736012E-02 
650	 7.95957872661549E-02 
651	 7.96686416937643E-02 
652	 7.97848541625203E-02 
653	 7.98273577281405E-02 
654	 7.99159491255973E-02 
655	 7.99751539244933E-02 
656	 7.99818254120021E-02 
657	 8.01418272095121E-02 
658	 0.08024166419912 
659	 8.02920531549121E-02 
660	 8.03965652471262E-02 
661	 8.04831473229809E-02 
662	 8.05758104626366E-02 
663	 8.06838362225237E-02 
664	 8.07828132316939E-02 
665	 0.08089007207168 
666	 8.09871659084914E-02 
667	 8.10637876734551E-02 
668	 8.11867662817985E-02 
669	 8.12787268012607E-02 
670	 8.13612662556246E-02 
671	 8.15284403901004E-02 
672	 0.081612835999929 
673	 0.081707611031098 
674	 8.18694431899401E-02 
675	 0.081956837081453 
676	 8.20706344271721E-02 
677	 8.22044078098754E-02 
678	 8.23148889169685E-02 
679	 0.082440687310515 
680	 8.25823462505042E-02 
681	 8.27139916529576E-02 
682	 8.27800699032635E-02 
683	 8.28897962001442E-02 
684	 8.30371807682861E-02 
685	 8.31882431086936E-02 
686	 8.33300408423061E-02 
687	 8.34912977771745E-02 
688	 8.36545454339079E-02 
689	 8.37738331331047E-02 
690	 8.38818413014738E-02 
691	 8.40204758633646E-02 
692	 8.42005248057554E-02 
693	 8.43742316600553E-02 
694	 8.45199176692472E-02 
695	 8.46554987935223E-02 
696	 8.48072118918012E-02 
697	 8.49463158945542E-02 
698	 8.50736549374913E-02 
699	 8.52068532066351E-02 
700	 8.53764275699427E-02 
701	 8.55145958272799E-02 
702	 8.56482868011573E-02 
703	 0.085802251406183 
704	 8.59346281337181E-02 
705	 8.60743798567583E-02 
706	 8.62132558359778E-02 
707	 8.63334094548193E-02 
708	 8.65102851062383E-02 
709	 8.66804720599756E-02 
710	 8.68188359288144E-02 
711	 8.69774768398894E-02 
712	 8.71119612892977E-02 
713	 8.72332012878625E-02 
714	 8.73600692884837E-02 
715	 0.087476169323925 
716	 8.76208226614887E-02 
717	 8.77698068377611E-02 
718	 8.78621083039289E-02 
719	 0.087992040925624 
720	 8.81262381581923E-02 
721	 0.088231261654722 
722	 8.83073227195673E-02 
723	 8.83906853612141E-02 
724	 8.85185986345834E-02 
725	 8.86917334112217E-02 
726	 8.87427386162333E-02 
727	 8.88128480821037E-02 
728	 8.89193417275945E-02 
729	 8.89583400570914E-02 
730	 8.90585849431674E-02 
731	 8.91409274961345E-02 
732	 8.91594567077044E-02 
733	 8.92357079263014E-02 
734	 8.93325343435567E-02 
735	 8.94004362324327E-02 
736	 0.089404769423961 
737	 8.94492828122372E-02 
738	 8.94813570832922E-02 
739	 8.95019351443934E-02 
740	 8.95784569505015E-02 
741	 8.95990205455124E-02 
742	 8.95972387062464E-02 
743	 8.96178041847781E-02 
744	 8.96509301277547E-02 
745	 0.089642556209008 
746	 8.96264509899353E-02 
747	 8.96576797183966E-02 
748	 8.96121554248673E-02 
749	 8.95615752656935E-02 
750	 0.089538275763577 
751	 8.95061174234972E-02 
752	 8.94859377483007E-02 
753	 8.94468124080632E-02 
754	 8.93744535681943E-02 
755	 8.93343145750973E-02 
756	 8.93013195607706E-02 
757	 8.92759643066071E-02 
758	 8.92628612009181E-02 
759	 0.089208625133482 
760	 8.91136627793972E-02 
761	 8.90137453265137E-02 
762	 8.89780794257188E-02 
763	 8.89121306817751E-02 
764	 8.88234373480552E-02 
765	 8.87415680998111E-02 
766	 8.86849038662545E-02 
767	 8.86270172855001E-02 
768	 0.088567814944218 
769	 8.85127246579871E-02 
770	 8.84046115306273E-02 
771	 8.82936935608901E-02 
772	 8.82064071502208E-02 
773	 0.08812848539861 
774	 8.80559797383453E-02 
775	 0.087970718191632 
776	 8.78632421824843E-02 
777	 8.77497276613141E-02 
778	 8.76636277290535E-02 
779	 0.087583006298528 
780	 8.74728980006155E-02 
781	 8.73971742374051E-02 
782	 8.73462133033512E-02 
783	 8.72730991064556E-02 
784	 8.71065953176304E-02 
785	 8.69624562323943E-02 
786	 8.68804193419385E-02 
787	 0.086838801888016 
788	 8.67084664415569E-02 
789	 8.66097660125965E-02 
790	 8.65256632752279E-02 
791	 8.64095814074113E-02 
792	 8.63487268628414E-02 
793	 8.62657570384882E-02 
794	 0.086150045925684 
795	 8.60538069994389E-02 
796	 8.59608987469662E-02 
797	 8.58686753797719E-02 
798	 8.57808624235207E-02 
799	 8.57112028656073E-02 
800	 8.56195671037627E-02 
801	 8.55398931863074E-02 
802	 8.54965240591056E-02 
803	 0.085384831329637 
804	 8.52809969352495E-02 
805	 8.52054214170247E-02 
806	 8.51377509337808E-02 
807	 8.50649690893105E-02 
808	 8.49573779325044E-02 
809	 8.48351602863628E-02 
810	 8.47802136644901E-02 
811	 8.47268394060154E-02 
812	 8.46542652281728E-02 
813	 8.45675707416713E-02 
814	 8.45168127795052E-02 
815	 8.44179644528515E-02 
816	 8.43155032817146E-02 
817	 8.42828475193442E-02 
818	 8.42388652722219E-02 
819	 8.41767560141291E-02 
820	 8.40988950392286E-02 
821	 8.40151906305005E-02 
822	 8.39559335540647E-02 
823	 8.38991697538783E-02 
824	 0.083839843315015 
825	 8.38147995125557E-02 
826	 8.37693263943553E-02 
827	 8.37185878115982E-02 
828	 8.36816640585141E-02 
829	 8.36250413735085E-02 
830	 8.35598035837419E-02 
831	 8.35116925562983E-02 
832	 8.34991387450515E-02 
833	 8.34535344389258E-02 
834	 8.34148315039751E-02 
835	 8.33892151376791E-02 
836	 8.33475466161319E-02 
837	 8.33309009226564E-02 
838	 8.33168298153887E-02 
839	 8.32823666830368E-02 
840	 8.32215460960415E-02 
841	 0.083167398854542 
842	 8.31308510147505E-02 
843	 8.31112159072885E-02 
844	 0.083093704242754 
845	 8.31163829449949E-02 
846	 8.31148665386426E-02 
847	 8.30226321992561E-02 
848	 8.30442476959559E-02 
849	 0.083048870347951 
850	 8.30049816525937E-02 
851	 8.29800413485162E-02 
852	 8.29439005920743E-02 
853	 8.29423961890528E-02 
854	 8.29769459377818E-02 
855	 8.29737042686196E-02 
856	 8.29472271783955E-02 
857	 8.29453213406107E-02 
858	 8.29902135873767E-02 
859	 8.30218187095086E-02 
860	 8.30244919979443E-02 
861	 8.30088061240097E-02 
862	 8.29969765210253E-02 
863	 8.30022055813817E-02 
864	 8.29972535493772E-02 
865	 8.30026265031306E-02 
866	 8.30554417088099E-02 
867	 8.30875590199045E-02 
868	 8.31146921219281E-02 
869	 8.31291884217996E-02 
870	 8.31009024975159E-02 
871	 8.31270345952696E-02 
872	 8.31661794424836E-02 
873	 8.31896537715646E-02 
874	 8.32279899017828E-02 
875	 0.083258655413662 
876	 8.32928652657918E-02 
877	 8.33303755000742E-02 
878	 8.33071824560892E-02 
879	 8.34015001061479E-02 
880	 8.35136758366315E-02 
881	 8.35116449884253E-02 
882	 8.35715404307718E-02 
883	 8.36386321426329E-02 
884	 8.36719802043249E-02 
885	 8.36604988816472E-02 
886	 8.36974098209342E-02 
887	 8.37648034170948E-02 
888	 8.38418622332668E-02 
889	 8.39112452221319E-02 
890	 8.39399023128876E-02 
891	 8.39783903003989E-02 
892	 8.40529817638536E-02 
893	 8.41411644855784E-02 
894	 8.41547046291712E-02 
895	 8.41694956812779E-02 
896	 8.42362039161958E-02 
897	 8.42983570706749E-02 
898	 8.43981987998594E-02 
899	 0.084507271272384 
900	 8.45919850895136E-02 
901	 8.46549741994501E-02 
902	 8.46991134437943E-02 
903	 8.47430456067874E-02 
904	 8.48210009693841E-02 
905	 8.50152877352274E-02 
906	 8.51004805646308E-02 
907	 8.51296655973774E-02 
908	 8.52517085368895E-02 
909	 8.53281735319977E-02 
910	 8.54052345023212E-02 
911	 8.55023865872241E-02 
912	 8.56083506305069E-02 
913	 8.56720659313263E-02 
914	 8.57444820573285E-02 
915	 8.58452334601425E-02 
916	 8.59547227782663E-02 
917	 8.60431038463728E-02 
918	 8.61699411960309E-02 
919	 8.63185552944345E-02 
920	 8.63834024748893E-02 
921	 8.64449014324838E-02 
922	 8.65389523109318E-02 
923	 8.66546710336348E-02 
924	 8.67297280806337E-02 
925	 8.68285106399736E-02 
926	 8.69834118658595E-02 
927	 8.71549649324982E-02 
928	 8.71943598494753E-02 
929	 0.08729677004049 
930	 8.74558945239083E-02 
931	 8.76138381170007E-02 
932	 8.77246962419772E-02 
933	 8.78501225453787E-02 
934	 8.79660945811255E-02 
935	 8.80645036169681E-02 
936	 8.82680375413422E-02 
937	 8.83558860706742E-02 
938	 8.83723625884376E-02 
939	 8.84490567531758E-02 
940	 8.86677506427392E-02 
941	 8.88803477467654E-02 
942	 8.90616953779831E-02 
943	 0.089217883992069 
944	 0.089239054081885 
945	 8.94014820041872E-02 
946	 0.089607904781553 
947	 8.96677028042629E-02 
948	 8.98245934712668E-02 
949	 8.99761856936842E-02 
950	 9.00952828459354E-02 
951	 9.02155717755861E-02 
952	 9.04444754608757E-02 
953	 9.05118093163921E-02 
954	 0.090552707977081 
955	 9.08397465613913E-02 
956	 9.10255978182125E-02 
957	 9.11852660136932E-02 
958	 9.13151573867395E-02 
959	 9.13803586492047E-02 
960	 9.14973020200017E-02 
961	 9.17047790649642E-02 
962	 9.19209263486889E-02 
963	 9.20207491792228E-02 
964	 9.20740054086703E-02 
965	 9.22214097946558E-02 
966	 9.24572040058593E-02 
967	 9.26724869987184E-02 
968	 9.28427948448088E-02 
969	 9.29147483870964E-02 
970	 9.29737520865262E-02 
971	 9.31413762272561E-02 
972	 9.31666416656255E-02 
973	 0.093280710038368 
974	 9.35127235128878E-02 
975	 9.37313769620989E-02 
976	 9.39063162357381E-02 
977	 9.39780438132266E-02 
978	 9.40022899758399E-02 
979	 9.41113242733467E-02 
980	 9.44285642430329E-02 
981	 9.45512083406945E-02 
982	 9.45587536193358E-02 
983	 9.47703929540463E-02 
984	 9.49330055024887E-02 
985	 9.50392118300268E-02 
986	 9.51560988288741E-02 
987	 9.53512261971127E-02 
988	 9.55189949713596E-02 
989	 9.55660279768754E-02 
990	 9.56163907824186E-02 
991	 9.58376049877712E-02 
992	 0.096091377476607 
993	 9.60087777425919E-02 
994	 9.59669160076499E-02 
995	 9.63720097165275E-02 
996	 9.62794475419211E-02 
997	 9.64893188284047E-02 
998	 9.67697361663572E-02 
999	 9.67216536476821E-02 
1000	 9.69494075655216E-02 
1001	 9.57723384409966E-02 
1002	 9.58765130311034E-02 
1003	 9.59887485071743E-02 
1004	 9.60897500679371E-02 
1005	 0.096176508659642 
1006	 9.62509975907597E-02 
1007	 9.63207456566846E-02 
1008	 9.63788028059704E-02 
1009	 9.64482942924473E-02 
1010	 0.096535437891356 
1011	 9.66332751980099E-02 
1012	 9.67288721289755E-02 
1013	 0.096782284244974 
1014	 9.68546280393319E-02 
1015	 9.69379116138967E-02 
1016	 9.70128535782619E-02 
1017	 9.70962958814515E-02 
1018	 9.72055127082626E-02 
1019	 9.72866003475804E-02 
1020	 9.73575589938893E-02 
1021	 0.09744270231524 
1022	 9.75032422364927E-02 
1023	 9.75530258698949E-02 
1024	 9.75985884537969E-02 
1025	 9.76129908701356E-02 
1026	 9.76706589200764E-02 
1027	 9.77722264340417E-02 
1028	 9.78355600358292E-02 
1029	 9.79125566524579E-02 
1030	 0.097981090352174 
1031	 0.098029479922565 
1032	 9.80410904984564E-02 
1033	 9.80706761517792E-02 
1034	 9.81081771570331E-02 
1035	 9.81727799369356E-02 
1036	 9.81867908058131E-02 
1037	 9.81834137283073E-02 
1038	 9.82417941585368E-02 
1039	 9.82601243839021E-02 
1040	 9.83347233040044E-02 
1041	 9.84281832969781E-02 
1042	 9.84010281824814E-02 
1043	 9.84145610087926E-02 
1044	 9.84736144613736E-02 
1045	 9.85521666667254E-02 
1046	 9.86155576211544E-02 
1047	 9.87067628569502E-02 
1048	 9.87316297938626E-02 
1049	 9.87056266206861E-02 
1050	 9.87150132481651E-02 
1051	 9.87337272919154E-02 
1052	 9.87789707860115E-02 
1053	 9.88075193855222E-02 
1054	 0.098831959051115 
1055	 9.89311280566078E-02 
1056	 9.90493902918584E-02 
1057	 9.91068693949804E-02 
1058	 9.91369435109164E-02 
1059	 9.91651117837996E-02 
1060	 9.91410821669751E-02 
1061	 9.91384937427487E-02 
1062	 9.91887095440399E-02 
1063	 9.92783314237135E-02 
1064	 9.94058256217471E-02 
1065	 9.94979368894725E-02 
1066	 9.95521971074916E-02 
1067	 9.95943751522038E-02 
1068	 0.099608703023908 
1069	 9.96636821390757E-02 
1070	 9.97195979759926E-02 
1071	 9.98154297457101E-02 
1072	 9.98875356410768E-02 
1073	 9.99370615015663E-02 
1074	 9.99821867584627E-02 
1075	 0.100018382813271 
1076	 0.10007146737391 
1077	 0.100128555764469 
1078	 0.100240457239653 
1079	 0.100322399351621 
1080	 0.10036163042087 
1081	 0.100422657743971 
1082	 0.100469047608704 
1083	 0.100536689394346 
1084	 0.100661673061221 
1085	 0.100730655818931 
1086	 0.100766701563477 
1087	 0.100809767663558 
1088	 0.10084224059083 
1089	 0.100853849291296 
1090	 0.10088758575379 
1091	 0.100944936156335 
1092	 0.100999022814316 
1093	 0.101029472374006 
1094	 0.101049390644734 
1095	 0.101120935732429 
1096	 0.101173577482964 
1097	 0.101219145247175 
1098	 0.1012733145019 
1099	 0.101333156748752 
1100	 0.101376549919406 
1101	 0.101432568966997 
1102	 0.101467088139869 
1103	 0.101492343307528 
1104	 0.101492015654406 
1105	 0.101500362748119 
1106	 0.10152682110049 
1107	 0.101565696065363 
1108	 0.101619682192008 
1109	 0.101643496066361 
1110	 0.101656828562331 
1111	 0.10165992775622 
1112	 0.101625947063307 
1113	 0.101630685125763 
1114	 0.10164355968212 
1115	 0.101658309286822 
1116	 0.101696755756081 
1117	 0.101722046361047 
1118	 0.101742822760077 
1119	 0.101763723257876 
1120	 0.101789867195533 
1121	 0.101810415020933 
1122	 0.101809974559444 
1123	 0.101807798425529 
1124	 0.101815759749212 
1125	 0.101809534459102 
1126	 0.101830000282438 
1127	 0.101879283100532 
1128	 0.101905759115384 
1129	 0.101941301549042 
1130	 0.101949954044674 
1131	 0.101929732307962 
1132	 0.101932950416008 
1133	 0.101926651233251 
1134	 0.101930479450244 
1135	 0.101956058705452 
1136	 0.101979819266891 
1137	 0.101963823286466 
1138	 0.101964568807878 
1139	 0.101968545895671 
1140	 0.101954303984061 
1141	 0.101970810344434 
1142	 0.102024716809897 
1143	 0.102044901038315 
1144	 0.102077219651887 
1145	 0.1020766951846 
1146	 0.102022488857487 
1147	 0.102013344027667 
1148	 0.102004471748431 
1149	 0.102005611112532 
1150	 0.10202406125464 
1151	 0.102076601220943 
1152	 0.10209586344648 
1153	 0.102088914745419 
1154	 0.10208749274466 
1155	 0.102067560082176 
1156	 0.102070166889095 
1157	 0.102078756376336 
1158	 0.102091026940998 
1159	 0.102120135998457 
1160	 0.102135394123352 
1161	 0.102146479093098 
1162	 0.102155026358792 
1163	 0.102151272958301 
1164	 0.102161931488707 
1165	 0.102181850843605 
1166	 0.10219904880624 
1167	 0.10220332421511 
1168	 0.102200013890098 
1169	 0.102205533798949 
1170	 0.102194301916669 
1171	 0.102201898236033 
1172	 0.102225838839771 
1173	 0.102250144143618 
1174	 0.102283693322166 
1175	 0.102301186831907 
1176	 0.102319641260013 
1177	 0.102337532737368 
1178	 0.10233268208687 
1179	 0.102347269791921 
1180	 0.102384010808724 
1181	 0.102409232648695 
1182	 0.102432125501385 
1183	 0.102452459251703 
1184	 0.102486268855971 
1185	 0.102530676530207 
1186	 0.10255051846697 
1187	 0.102568463883953 
1188	 0.102589362439443 
1189	 0.102585869848263 
1190	 0.10260471848732 
1191	 0.102658231931291 
1192	 0.102676313203851 
1193	 0.102669245135689 
1194	 0.1026815731102 
1195	 0.102682564430881 
1196	 0.102696383468918 
1197	 0.102740330034768 
1198	 0.102766213839077 
1199	 0.102786556717732 
1200	 0.102798624235939 
1201	 0.102818721843505 
1202	 0.102829624836375 
1203	 0.10285726324585 
1204	 0.102900420849635 
1205	 0.102932390748005 
1206	 0.102970448288118 
1207	 0.102998125789632 
1208	 0.10301429034092 
1209	 0.103036734057422 
1210	 0.103068338891635 
1211	 0.10308151560774 
1212	 0.103077306913693 
1213	 0.103086942412599 
1214	 0.103093011100989 
1215	 0.103097433028127 
1216	 0.103104973527556 
1217	 0.103127614979904 
1218	 0.103135639058423 
1219	 0.103130802918135 
1220	 0.103135485310444 
1221	 0.103134939010636 
1222	 0.103154060176963 
1223	 0.10319109080877 
1224	 0.103211737848301 
1225	 0.103245175619966 
1226	 0.103262448467676 
1227	 0.103255324088081 
1228	 0.103259372040789 
1229	 0.103266949444868 
1230	 0.103271805712243 
1231	 0.103262977628605 
1232	 0.103274432742185 
1233	 0.103294804370119 
1234	 0.103329411162919 
1235	 0.103340491155306 
1236	 0.103359920684673 
1237	 0.10336532318609 
1238	 0.103337336373098 
1239	 0.103340075059829 
1240	 0.103365390365285 
1241	 0.103371037802399 
1242	 0.103370374242481 
1243	 0.103378121124095 
1244	 0.103381595971834 
1245	 0.103386235337343 
1246	 0.103405844091526 
1247	 0.10341301133925 
1248	 0.10340716603663 
1249	 0.103406263494573 
1250	 0.103394297144465 
1251	 0.103386036375662 
1252	 0.103393154159984 
1253	 0.103412260855603 
1254	 0.103417916261091 
1255	 0.103436025705284 
1256	 0.103436815850686 
1257	 0.10341521133428 
1258	 0.103408363872234 
1259	 0.103401109951952 
1260	 0.10340116913518 
1261	 0.103408549174083 
1262	 0.10341268094159 
1263	 0.103433519171277 
1264	 0.10343183557014 
1265	 0.103410858077009 
1266	 0.103397254006945 
1267	 0.103375796735826 
1268	 0.103344909296197 
1269	 0.103337759314419 
1270	 0.103348869937046 
1271	 0.103348213116979 
1272	 0.10335544160672 
1273	 0.103352287365339 
1274	 0.103333613538627 
1275	 0.103332758702202 
1276	 0.103335489312321 
1277	 0.103347489595974 
1278	 0.103369108751923 
1279	 0.103394519043236 
1280	 0.10342729352292 
1281	 0.103460182474401 
1282	 0.103502433504876 
1283	 0.10354079881445 
1284	 0.103585062891815 
1285	 0.10362033643898 
1286	 0.103630572084832 
1287	 0.103655883842424 
1288	 0.103684687830333 
1289	 0.103707974917011 
1290	 0.103736445946395 
1291	 0.103776703712295 
1292	 0.103812745274156 
1293	 0.103836101263494 
1294	 0.103882070808258 
1295	 0.103958679614669 
1296	 0.104002114383076 
1297	 0.104037141856373 
1298	 0.104074467368549 
1299	 0.104088012195638 
1300	 0.104118161166097 
1301	 0.104163019935001 
1302	 0.104204377998366 
1303	 0.104246769260618 
1304	 0.104294072993393 
1305	 0.104327517178766 
1306	 0.104344007969173 
1307	 0.10436253497242 
1308	 0.104373137658598 
1309	 0.104397643491885 
1310	 0.104437268128883 
1311	 0.104462416272292 
1312	 0.104480421635986 
1313	 0.104511084442146 
1314	 0.104546621395165 
1315	 0.1045767046666 
1316	 0.104614170868458 
1317	 0.104642526807989 
1318	 0.104666984084885 
1319	 0.104679553379111 
1320	 0.10468087453311 
1321	 0.104691110468009 
1322	 0.104699385503941 
1323	 0.104696536904831 
1324	 0.104714179889732 
1325	 0.104710517518738 
1326	 0.104686563902941 
1327	 0.104673074812306 
1328	 0.104659968945162 
1329	 0.104657604156547 
1330	 0.104642183198628 
1331	 0.104626268628389 
1332	 0.104607327982131 
1333	 0.104579448955707 
1334	 0.104557209520339 
1335	 0.104537589105861 
1336	 0.104520764331642 
1337	 0.104508057489356 
1338	 0.104482193826458 
1339	 0.104444871787107 
1340	 0.104430047440105 
1341	 0.104427801934013 
1342	 0.10440445310362 
1343	 0.10438966887595 
1344	 0.104366046195098 
1345	 0.104306570208895 
1346	 0.104264604030487 
1347	 0.10423722315556 
1348	 0.104213648383652 
1349	 0.104193250674648 
1350	 0.104166432767066 
1351	 0.104134793478895 
1352	 0.104098021557117 
1353	 0.104060211489824 
1354	 0.10401096165873 
1355	 0.103977102722596 
1356	 0.103946986197649 
1357	 0.103924325046005 
1358	 0.103913118349646 
1359	 0.103900449266789 
1360	 0.103897078876011 
1361	 0.103879995626754 
1362	 0.103857964680554 
1363	 0.103835726751291 
1364	 0.103805059431849 
1365	 0.103780137540045 
1366	 0.103764533503835 
1367	 0.103737039940562 
1368	 0.103705645010533 
1369	 0.103662322819153 
1370	 0.103623936776231 
1371	 0.103575292731915 
1372	 0.103506333186634 
1373	 0.103460277339405 
1374	 0.103412675402147 
1375	 0.1033536380405 
1376	 0.103314162778417 
1377	 0.10329916248673 
1378	 0.103257060906878 
1379	 0.103201630471129 
1380	 0.103164231166569 
1381	 0.10313426649635 
1382	 0.10309042025929 
1383	 0.103047174133745 
1384	 0.103006422792543 
1385	 0.102955152990192 
1386	 0.102906551429169 
1387	 0.10287577175564 
1388	 0.102826704926485 
1389	 0.102760116881094 
1390	 0.102696163004749 
1391	 0.102631999675113 
1392	 0.102569402977545 
1393	 0.102506535844305 
1394	 0.102418738367586 
1395	 0.102318871021913 
1396	 0.102226185193786 
1397	 0.102137145799082 
1398	 0.102053573400128 
1399	 0.101953603376842 
1400	 0.101852971408508 
1401	 0.101747620579993 
1402	 0.101619229060693 
1403	 0.101515080674626 
1404	 0.101429168752205 
1405	 0.10132668773735 
1406	 0.101221771709154 
1407	 0.101120260672204 
1408	 0.101007211969837 
1409	 0.100908643359081 
1410	 0.100816889073709 
1411	 0.100733770320483 
1412	 0.100656738743694 
1413	 0.100590052695949 
1414	 0.100528046454249 
1415	 0.100469536284749 
1416	 0.100427447888254 
1417	 0.10038860327848 
1418	 0.100358025314701 
1419	 0.100341561152106 
1420	 0.100322670111223 
1421	 0.100298694386377 
1422	 0.1002725854982 
1423	 0.100250551658723 
1424	 0.100234585712773 
1425	 0.100226453347805 
1426	 0.100206773443498 
1427	 0.100185096418851 
1428	 0.100168101254169 
1429	 0.10013729263438 
1430	 0.100122709212121 
1431	 0.100129239800887 
1432	 0.100125219149699 
1433	 0.100110808943264 
1434	 0.100115296327955 
1435	 0.100132057810144 
1436	 0.100140349132223 
1437	 0.100160468451638 
1438	 0.100175430062055 
1439	 0.100187035583903 
1440	 0.100181768690585 
1441	 0.100198796535062 
1442	 0.100212128889232 
1443	 0.10021127416424 
1444	 0.100230645959917 
1445	 0.100243724695757 
1446	 0.100239807137644 
1447	 0.100244668727641 
1448	 0.100246279533657 
1449	 0.10025238026836 
1450	 0.100277986205429 
1451	 0.10029908754016 
1452	 0.100334366311183 
1453	 0.100351631875157 
1454	 0.100355882284779 
1455	 0.100368866618491 
1456	 0.100380189842697 
1457	 0.100394039766698 
1458	 0.10041271883137 
1459	 0.100431428756451 
1460	 0.10044513421036 
1461	 0.100466746819241 
1462	 0.100498000833598 
1463	 0.100522882144732 
1464	 0.100550287535909 
1465	 0.100573906914035 
1466	 0.100594948037359 
1467	 0.100613387874342 
1468	 0.100627078517375 
1469	 0.100644906207921 
1470	 0.100658973601106 
1471	 0.100673664085269 
1472	 0.100715951191575 
1473	 0.100740831067321 
1474	 0.100762901969093 
1475	 0.100801582817779 
1476	 0.100821690817642 
1477	 0.100849666971983 
1478	 0.100885884337602 
1479	 0.100917375826504 
1480	 0.100956434272167 
1481	 0.100985665879153 
1482	 0.101017498830506 
1483	 0.101051146007916 
1484	 0.101082199750385 
1485	 0.101105663672588 
1486	 0.101139157693268 
1487	 0.101177146816142 
1488	 0.101213064175663 
1489	 0.101258519440264 
1490	 0.101296302567008 
1491	 0.101330301058705 
1492	 0.101353981474013 
1493	 0.101364480007375 
1494	 0.101388295923638 
1495	 0.101407764161499 
1496	 0.101438548213612 
1497	 0.101489166829535 
1498	 0.101526551229393 
1499	 0.101562798184059 
1500	 0.101592502006464 
1501	 0.101611909384185 
1502	 0.10163782664256 
1503	 0.101661578958248 
1504	 0.101688890507554 
1505	 0.101725092623779 
1506	 0.101742710531054 
1507	 0.101759259632011 
1508	 0.101783870604274 
1509	 0.101799596340749 
1510	 0.101825927975063 
1511	 0.101853998668797 
1512	 0.101870030040748 
1513	 0.101892859731498 
1514	 0.101910069480737 
1515	 0.101933197966534 
1516	 0.101970242084128 
1517	 0.101986857601168 
1518	 0.10200150148239 
1519	 0.102011477526198 
1520	 0.101993192132836 
1521	 0.102010823961031 
1522	 0.102056583072472 
1523	 0.102072969141752 
1524	 0.102085443558633 
1525	 0.102107969190258 
1526	 0.102116606125975 
1527	 0.1021335688213 
1528	 0.10217666303276 
1529	 0.10219780424127 
1530	 0.102202485636393 
1531	 0.102212620885508 
1532	 0.102217424622208 
1533	 0.102228115570495 
1534	 0.10223563520561 
1535	 0.102248430305306 
1536	 0.102272763132046 
1537	 0.102292011446357 
1538	 0.102314260992906 
1539	 0.102331180710606 
1540	 0.102333324656144 
1541	 0.10234904954891 
1542	 0.102375781992354 
1543	 0.102391940388331 
1544	 0.102416204726989 
1545	 0.102434546175344 
1546	 0.102441071144913 
1547	 0.102443055661815 
1548	 0.102459004585239 
1549	 0.102474319923928 
1550	 0.102483197146335 
1551	 0.102504229242784 
1552	 0.102531705093068 
1553	 0.102544513217007 
1554	 0.102567105927766 
1555	 0.102596847822157 
1556	 0.102616333047679 
1557	 0.102636544789462 
1558	 0.102646980966047 
1559	 0.102649547372229 
1560	 0.102662885297876 
1561	 0.102679701450063 
1562	 0.10268748176701 
1563	 0.102697469582532 
1564	 0.102704362607148 
1565	 0.102698149665412 
1566	 0.102705833483056 
1567	 0.102728717551304 
1568	 0.102731980787171 
1569	 0.102721900335686 
1570	 0.102728764240387 
1571	 0.102733312558085 
1572	 0.102745194862254 
1573	 0.102777825839105 
1574	 0.10279273723568 
1575	 0.102796877917887 
1576	 0.102805214351803 
1577	 0.102810044009099 
1578	 0.102820829321966 
1579	 0.102839675733416 
1580	 0.102845500286151 
1581	 0.102846604058642 
1582	 0.102848384252944 
1583	 0.102835240024211 
1584	 0.102840370749024 
1585	 0.102868850805865 
1586	 0.102870824665878 
1587	 0.102855716313228 
1588	 0.102860996609531 
1589	 0.102863153168905 
1590	 0.102867024702688 
1591	 0.102893226638608 
1592	 0.102906229855982 
1593	 0.102899502073269 
1594	 0.102905766707099 
1595	 0.10292370672515 
1596	 0.102931941388775 
1597	 0.10294238366745 
1598	 0.102947176067958 
1599	 0.102940971917694 
1600	 0.102939650437946 
1601	 0.102934147319039 
1602	 0.102933727089296 
1603	 0.102942436932059 
1604	 0.102944153570107 
1605	 0.102948293324023 
1606	 0.102945390749154 
1607	 0.10293202728312 
1608	 0.102923695118673 
1609	 0.102902658973226 
1610	 0.102875891681584 
1611	 0.102863791219704 
1612	 0.102861849947611 
1613	 0.102876519466814 
1614	 0.102896747820601 
1615	 0.102892461080104 
1616	 0.102884079745771 
1617	 0.102884554001706 
1618	 0.102887169671794 
1619	 0.10288985834105 
1620	 0.102891209824304 
1621	 0.102896565590362 
1622	 0.102892464497997 
1623	 0.102900384322727 
1624	 0.102927620961386 
1625	 0.102931513261195 
1626	 0.102924774205221 
1627	 0.102920723018701 
1628	 0.102904148999497 
1629	 0.102906343159456 
1630	 0.102923162880368 
1631	 0.102921670459692 
1632	 0.102916999433447 
1633	 0.102919407793935 
1634	 0.102912333885327 
1635	 0.102915475673793 
1636	 0.102933899490271 
1637	 0.10294250553421 
1638	 0.102948474656676 
1639	 0.102947276441589 
1640	 0.10294166063967 
1641	 0.102943469680002 
1642	 0.102943678062181 
1643	 0.102937378222724 
1644	 0.102934137845023 
1645	 0.102929510112425 
1646	 0.102909911367728 
1647	 0.102908562678612 
1648	 0.102921571699875 
1649	 0.102929436595034 
1650	 0.102952614578782 
1651	 0.102941150828496 
1652	 0.102908373163862 
1653	 0.102890854917807 
1654	 0.102853552127076 
1655	 0.102835552901665 
1656	 0.102837579532105 
1657	 0.102835710669836 
1658	 0.102832975426617 
1659	 0.102832289787991 
1660	 0.102849671457706 
1661	 0.102839842093177 
1662	 0.102807265232056 
1663	 0.102794159254504 
1664	 0.102767313749607 
1665	 0.102767724852583 
1666	 0.102797822181216 
1667	 0.102812027329058 
1668	 0.102829434231156 
1669	 0.10284784544559 
1670	 0.102879543550863 
1671	 0.102873750198064 
1672	 0.102850187457661 
1673	 0.102831097257241 
1674	 0.102773979980869 
1675	 0.102753543461048 
1676	 0.102761439843899 
1677	 0.102757690673235 
1678	 0.102758692833391 
1679	 0.102755989383762 
1680	 0.102756715550104 
1681	 0.10274691154178 
1682	 0.102728222126181 
1683	 0.102716318986853 
1684	 0.102695627434611 
1685	 0.102686741402736 
1686	 0.102688472905269 
1687	 0.10268935155531 
1688	 0.102704827801127 
1689	 0.102695218495625 
1690	 0.102668381678436 
1691	 0.102655299222173 
1692	 0.102619055606477 
1693	 0.10262303775907 
1694	 0.102679790192727 
1695	 0.10268180966149 
1696	 0.102674545813465 
1697	 0.102661852382057 
1698	 0.102598869214608 
1699	 0.102587123491715 
1700	 0.102604869514606 
1701	 0.102619580755057 
1702	 0.102660115070472 
1703	 0.10267882394142 
1704	 0.102694150204716 
1705	 0.102700982225117 
1706	 0.102700381020468 
1707	 0.102685848868228 
1708	 0.102653935911795 
1709	 0.102634276350764 
1710	 0.102603802142417 
1711	 0.102586933146718 
1712	 0.102588710684187 
1713	 0.10257771255258 
1714	 0.102559830089279 
1715	 0.102548404109852 
1716	 0.10253701707956 
1717	 0.102530265486382 
1718	 0.102532143967509 
1719	 0.102522815057172 
1720	 0.102510064237603 
1721	 0.102494945039792 
1722	 0.102471131927164 
1723	 0.102460474431864 
1724	 0.102460847922493 
1725	 0.102441275682363 
1726	 0.102413414377478 
1727	 0.102395199807755 
1728	 0.102369082515166 
1729	 0.10235389565446 
1730	 0.102355511737313 
1731	 0.102340728390874 
1732	 0.102316780533115 
1733	 0.102294193323882 
1734	 0.102277888872392 
1735	 0.102241291723862 
1736	 0.102183762260418 
1737	 0.102155412365255 
1738	 0.102117947715697 
1739	 0.102105142232503 
1740	 0.10213556438149 
1741	 0.102122754303014 
1742	 0.102097396198847 
1743	 0.102077675025296 
1744	 0.10204737657232 
1745	 0.102013306115418 
1746	 0.101972026134028 
1747	 0.101946897181871 
1748	 0.101928553329916 
1749	 0.10193074988815 
1750	 0.101939003723872 
1751	 0.101902826328054 
1752	 0.101856047283235 
1753	 0.101817001926282 
1754	 0.101781311916391 
1755	 0.101751314846123 
1756	 0.101729113610746 
1757	 0.101713400109301 
1758	 0.101677294608705 
1759	 0.101648750320142 
1760	 0.101639507601368 
1761	 0.101616620343264 
1762	 0.101594815467554 
1763	 0.101576088426304 
1764	 0.101541245128675 
1765	 0.101511995125529 
1766	 0.101488553293153 
1767	 0.101458414011938 
1768	 0.10143289304014 
1769	 0.10140028652597 
1770	 0.101370575619065 
1771	 0.101376810870834 
1772	 0.101391725685748 
1773	 0.101382306113097 
1774	 0.101366908800387 
1775	 0.101316411993571 
1776	 0.101249218663032 
1777	 0.101220738371203 
1778	 0.101186034527249 
1779	 0.101168315909575 
1780	 0.101180632811701 
1781	 0.101156208719088 
1782	 0.10113263178256 
1783	 0.101104394767784 
1784	 0.101081187448125 
1785	 0.101072143153648 
1786	 0.101051628961368 
1787	 0.101016355354772 
1788	 0.101008522176077 
1789	 0.101014538956401 
1790	 0.101015524981447 
1791	 0.101037516280498 
1792	 0.101046399210681 
1793	 0.101043092949252 
1794	 0.101028422816038 
1795	 0.101021045011745 
1796	 0.10098826240282 
1797	 0.100886178883285 
1798	 0.100876269205074 
1799	 0.100914109971648 
1800	 0.100936481497939 
1801	 9.68507506012196E-02 
1802	 9.68578546072701E-02 
1803	 9.68770063754158E-02 
1804	 9.68948744062018E-02 
1805	 9.69216228644896E-02 
1806	 9.69653370481232E-02 
1807	 9.69931820889989E-02 
1808	 0.097028206565039 
1809	 9.70749408705277E-02 
1810	 9.71189892276306E-02 
1811	 9.71668046912952E-02 
1812	 9.71985135854338E-02 
1813	 9.72423252728356E-02 
1814	 9.72670633420669E-02 
1815	 9.72685500530337E-02 
1816	 9.72709285634304E-02 
1817	 0.097272470019445 
1818	 9.72630913276296E-02 
1819	 9.72486236055918E-02 
1820	 9.72111273775694E-02 
1821	 9.72324764922692E-02 
1822	 9.72464410874705E-02 
1823	 9.72664591115104E-02 
1824	 9.73292147898564E-02 
1825	 9.73660878311057E-02 
1826	 9.73872316054194E-02 
1827	 9.74002789610157E-02 
1828	 9.74087939212441E-02 
1829	 9.74098770450921E-02 
1830	 9.74046024728985E-02 
1831	 9.73842265910879E-02 
1832	 9.73769653163266E-02 
1833	 9.73790389930084E-02 
1834	 9.73696693236396E-02 
1835	 9.73775947439021E-02 
1836	 9.74080698455642E-02 
1837	 0.097420610357776 
1838	 9.74098267888725E-02 
1839	 9.74091872539562E-02 
1840	 9.74040659270872E-02 
1841	 9.74018157094126E-02 
1842	 9.74153546180665E-02 
1843	 9.74210712242802E-02 
1844	 9.74127033179691E-02 
1845	 0.097412057074343 
1846	 0.097400495057586 
1847	 9.73893572017287E-02 
1848	 9.73935658644743E-02 
1849	 9.73832708083503E-02 
1850	 0.097367596857935 
1851	 9.73300092617981E-02 
1852	 9.73199354282097E-02 
1853	 9.73257830037353E-02 
1854	 9.73254250982514E-02 
1855	 9.73205494049561E-02 
1856	 9.72899693542049E-02 
1857	 9.72466372890642E-02 
1858	 9.72008280800335E-02 
1859	 9.71398355714289E-02 
1860	 9.70869071271349E-02 
1861	 9.70428227389115E-02 
1862	 9.69971690990921E-02 
1863	 9.69351241364966E-02 
1864	 9.68828033297262E-02 
1865	 9.68279214811029E-02 
1866	 9.67564376814004E-02 
1867	 9.66862113660348E-02 
1868	 9.66094523383504E-02 
1869	 0.096530824055605 
1870	 9.64641652021201E-02 
1871	 9.63754259537092E-02 
1872	 9.62784131846057E-02 
1873	 9.61671553798998E-02 
1874	 9.60423332140878E-02 
1875	 9.58997522753922E-02 
1876	 9.57581443593853E-02 
1877	 9.56086324491349E-02 
1878	 9.54412302142174E-02 
1879	 9.52567245304497E-02 
1880	 9.50597762060521E-02 
1881	 9.48478994145448E-02 
1882	 9.46209757190459E-02 
1883	 9.43834229605103E-02 
1884	 9.41219253283021E-02 
1885	 0.093846520016014 
1886	 9.35429368992194E-02 
1887	 9.32337907847371E-02 
1888	 0.092927768143061 
1889	 9.26046616612138E-02 
1890	 9.22750407530423E-02 
1891	 9.19350579953149E-02 
1892	 9.15837428524201E-02 
1893	 9.12205555257495E-02 
1894	 9.08440286427196E-02 
1895	 9.04609799700677E-02 
1896	 0.090070319235623 
1897	 8.96839269989269E-02 
1898	 0.08929894849904 
1899	 8.88932111200734E-02 
1900	 8.84982323995838E-02 
1901	 8.81148738240421E-02 
1902	 0.087747770887691 
1903	 8.73970465089272E-02 
1904	 8.70651917128314E-02 
1905	 8.67546385775078E-02 
1906	 8.64522829058029E-02 
1907	 8.61450179196538E-02 
1908	 8.58498551505898E-02 
1909	 8.55833567126277E-02 
1910	 8.53045344678923E-02 
1911	 8.50401044699397E-02 
1912	 0.084812469438415 
1913	 0.084598182110204 
1914	 8.43969029970702E-02 
1915	 8.42119202240312E-02 
1916	 8.40556615055877E-02 
1917	 8.38943504660994E-02 
1918	 8.37564007636253E-02 
1919	 8.36322271097987E-02 
1920	 8.35218343720288E-02 
1921	 0.083444210381194 
1922	 8.33562890443803E-02 
1923	 8.32545146712363E-02 
1924	 8.31664552262512E-02 
1925	 8.30743949242382E-02 
1926	 8.30012667972953E-02 
1927	 8.29376449403842E-02 
1928	 8.28909425368483E-02 
1929	 0.082845790724075 
1930	 8.28175498295636E-02 
1931	 8.27883696707221E-02 
1932	 8.27756206544287E-02 
1933	 8.27789558980661E-02 
1934	 8.27957817403754E-02 
1935	 8.28146345622123E-02 
1936	 8.28448816471386E-02 
1937	 8.28708582886105E-02 
1938	 0.082905090551198 
1939	 8.29311904533839E-02 
1940	 8.29516587796111E-02 
1941	 8.29762586491784E-02 
1942	 8.30058542699706E-02 
1943	 8.30298695655343E-02 
1944	 8.30696602915394E-02 
1945	 8.31228338248198E-02 
1946	 8.31683334683567E-02 
1947	 8.32121277218631E-02 
1948	 8.32677383355466E-02 
1949	 8.33229927935989E-02 
1950	 8.33839849187011E-02 
1951	 0.083457460974135 
1952	 8.35346387809994E-02 
1953	 8.35862042771923E-02 
1954	 8.36473182973067E-02 
1955	 8.37393400385262E-02 
1956	 8.38174860255967E-02 
1957	 8.39080724052238E-02 
1958	 0.084028784378478 
1959	 8.41293953672135E-02 
1960	 0.084220238003798 
1961	 8.43118627035691E-02 
1962	 8.43936043082365E-02 
1963	 8.44935019081708E-02 
1964	 8.46030541866181E-02 
1965	 8.47024629105394E-02 
1966	 8.48260325923167E-02 
1967	 8.49396183339801E-02 
1968	 8.50419669362801E-02 
1969	 8.51213849285748E-02 
1970	 8.52315338847089E-02 
1971	 8.53524718100303E-02 
1972	 8.54655624141459E-02 
1973	 8.55925954496736E-02 
1974	 8.57118653412876E-02 
1975	 8.58194986696387E-02 
1976	 8.59273673402002E-02 
1977	 8.60512983128605E-02 
1978	 0.086179244898963 
1979	 8.63084948944237E-02 
1980	 8.64264130375113E-02 
1981	 8.65461289660761E-02 
1982	 8.66589763467234E-02 
1983	 8.67810735409111E-02 
1984	 8.69156141242041E-02 
1985	 8.70329140480037E-02 
1986	 8.71373110166697E-02 
1987	 8.72518940599822E-02 
1988	 8.73586328789741E-02 
1989	 8.74721054725861E-02 
1990	 8.75979211134472E-02 
1991	 8.77234217414093E-02 
1992	 8.78459508816431E-02 
1993	 8.79682009137655E-02 
1994	 8.80831874906016E-02 
1995	 8.82002042697839E-02 
1996	 8.83075738504821E-02 
1997	 8.83986099810952E-02 
1998	 8.85014680707074E-02 
1999	 8.85946256385849E-02 
2000	 8.87016002166764E-02 
2001	 8.88232248439108E-02 
2002	 8.89386502358356E-02 
2003	 8.90635287676248E-02 
2004	 8.92183034586087E-02 
2005	 8.93475535190024E-02 
2006	 8.94855695810205E-02 
2007	 8.95976693297571E-02 
2008	 8.96873041527996E-02 
2009	 8.97774218606987E-02 
2010	 8.98464500593903E-02 
2011	 8.99330659125197E-02 
2012	 9.00105731003324E-02 
2013	 9.01093339094065E-02 
2014	 9.02294343528072E-02 
2015	 9.03495357566727E-02 
2016	 9.04772649573339E-02 
2017	 9.06030347710288E-02 
2018	 9.07122829609946E-02 
2019	 9.08017593205592E-02 
2020	 9.09086849735629E-02 
2021	 9.10152937472147E-02 
2022	 9.11191640695158E-02 
2023	 9.12399359524169E-02 
2024	 0.09134027415426 
2025	 9.14161453089941E-02 
2026	 9.15056217042782E-02 
2027	 9.15973478923074E-02 
2028	 9.16829472746772E-02 
2029	 0.091772865785572 
2030	 9.18692896923157E-02 
2031	 9.19606443142235E-02 
2032	 9.20504937435143E-02 
2033	 9.21369202128804E-02 
2034	 0.092219991120167 
2035	 0.092307958435861 
2036	 9.23900585024492E-02 
2037	 9.24788791116365E-02 
2038	 9.25940238136118E-02 
2039	 9.26756975266872E-02 
2040	 9.27306895862403E-02 
2041	 0.092809343370315 
2042	 0.092855519055612 
2043	 9.28801936581379E-02 
2044	 9.29326823229106E-02 
2045	 9.29896690211846E-02 
2046	 9.30562546704463E-02 
2047	 9.31390926756002E-02 
2048	 9.32190233483767E-02 
2049	 9.33011664351917E-02 
2050	 9.33865384140171E-02 
2051	 0.093500353649084 
2052	 9.35736087776567E-02 
2053	 9.36241036025409E-02 
2054	 0.093680961508176 
2055	 9.37209904201688E-02 
2056	 9.37385398477365E-02 
2057	 9.37881305897299E-02 
2058	 9.38610117472078E-02 
2059	 9.39182232095358E-02 
2060	 9.39828629556732E-02 
2061	 0.094036557338532 
2062	 9.40659557276669E-02 
2063	 9.41263747764525E-02 
2064	 9.41961866704125E-02 
2065	 9.42673587724994E-02 
2066	 9.43731673261903E-02 
2067	 9.44543596364784E-02 
2068	 9.45228596018629E-02 
2069	 9.45874249805812E-02 
2070	 9.46488039223386E-02 
2071	 9.47073992706583E-02 
2072	 9.47467593355227E-02 
2073	 9.47681617985575E-02 
2074	 9.48046116932305E-02 
2075	 9.48296301422038E-02 
2076	 0.09486225333626 
2077	 9.49010669151523E-02 
2078	 9.49516074027128E-02 
2079	 9.49992723706599E-02 
2080	 9.50585248652323E-02 
2081	 9.51556427391424E-02 
2082	 9.52254293332969E-02 
2083	 9.52828380457834E-02 
2084	 9.53359613578298E-02 
2085	 9.53968699235348E-02 
2086	 9.54485699623867E-02 
2087	 9.55074266290352E-02 
2088	 9.55851684858302E-02 
2089	 9.56379178904897E-02 
2090	 9.56689769148033E-02 
2091	 9.57191297167864E-02 
2092	 9.57613285305835E-02 
2093	 9.58172958266484E-02 
2094	 9.58994609505443E-02 
2095	 9.59640000278327E-02 
2096	 9.60215972480815E-02 
2097	 9.60860319316918E-02 
2098	 0.096158701850821 
2099	 9.62020771037848E-02 
2100	 9.62739669424012E-02 
2101	 9.63642702804114E-02 
2102	 9.64330482508189E-02 
2103	 9.65071040744351E-02 
2104	 9.65633270870535E-02 
2105	 9.65901367917186E-02 
2106	 9.66425355732882E-02 
2107	 9.67064355425942E-02 
2108	 9.67560272041356E-02 
2109	 9.68123951855829E-02 
2110	 9.68608103891867E-02 
2111	 9.68887997402948E-02 
2112	 9.69262154009353E-02 
2113	 9.69740196710113E-02 
2114	 9.70094750099099E-02 
2115	 9.70516075505716E-02 
2116	 9.70908307080493E-02 
2117	 9.71373491122365E-02 
2118	 9.71881177106545E-02 
2119	 9.72412298528666E-02 
2120	 9.72977230318335E-02 
2121	 9.73578977208707E-02 
2122	 9.74288531851371E-02 
2123	 9.74870742738333E-02 
2124	 9.75379435117336E-02 
2125	 0.097597030674207 
2126	 0.097674883900855 
2127	 0.09771497896367 
2128	 9.77274340775038E-02 
2129	 9.77585875295001E-02 
2130	 9.77761747933443E-02 
2131	 9.77816599604653E-02 
2132	 9.78101915150158E-02 
2133	 9.78729654567959E-02 
2134	 9.79050304893644E-02 
2135	 9.79270558475236E-02 
2136	 9.79468112523274E-02 
2137	 9.79687699898577E-02 
2138	 9.79730917637249E-02 
2139	 9.79529380059456E-02 
2140	 9.79518577123611E-02 
2141	 9.79563161894323E-02 
2142	 9.79468286038339E-02 
2143	 9.79546443572588E-02 
2144	 9.79353182723007E-02 
2145	 9.78703803731431E-02 
2146	 9.78294821051326E-02 
2147	 0.097801660104695 
2148	 9.77585929854265E-02 
2149	 9.77058953227914E-02 
2150	 9.76479584311288E-02 
2151	 9.76081515741196E-02 
2152	 9.75572329649266E-02 
2153	 9.75167017072102E-02 
2154	 9.75143653370189E-02 
2155	 9.74739949709309E-02 
2156	 9.74011256167949E-02 
2157	 9.73483174403162E-02 
2158	 9.73031350412794E-02 
2159	 9.72442632381019E-02 
2160	 9.71891721877682E-02 
2161	 9.71216740656634E-02 
2162	 9.70257719004988E-02 
2163	 9.69462930187936E-02 
2164	 9.68676563806919E-02 
2165	 9.67973080439605E-02 
2166	 0.096726701506251 
2167	 0.096673805657183 
2168	 9.65891602183954E-02 
2169	 0.096485469742141 
2170	 9.63981513799712E-02 
2171	 9.62874038306622E-02 
2172	 9.62153591100203E-02 
2173	 9.61837475943709E-02 
2174	 9.61214514817647E-02 
2175	 0.096067685075511 
2176	 0.095998196707317 
2177	 9.59044005197998E-02 
2178	 9.58205935182225E-02 
2179	 9.57291443497519E-02 
2180	 0.095651103168145 
2181	 0.095580680793144 
2182	 9.55081355637318E-02 
2183	 9.54482113007013E-02 
2184	 9.53829153711211E-02 
2185	 9.53124401572817E-02 
2186	 9.52253880479497E-02 
2187	 9.51707116596981E-02 
2188	 9.51314897239008E-02 
2189	 0.095080777432861 
2190	 9.50496898375884E-02 
2191	 0.095000426081948 
2192	 0.094931702132784 
2193	 9.48722518598368E-02 
2194	 9.48230559687238E-02 
2195	 9.47547064787218E-02 
2196	 9.46579033003225E-02 
2197	 9.45909460830595E-02 
2198	 9.45294864428802E-02 
2199	 0.094472727014681 
2200	 9.44338165147415E-02 
2201	 9.43997727180423E-02 
2202	 9.43694609971767E-02 
2203	 9.43351440643812E-02 
2204	 9.43128073976703E-02 
2205	 9.43094769622919E-02 
2206	 9.42900255017178E-02 
2207	 9.42586556719107E-02 
2208	 9.42542273886458E-02 
2209	 9.42562270359067E-02 
2210	 9.42677496793366E-02 
2211	 9.43292521455231E-02 
2212	 9.43163000666581E-02 
2213	 9.42558562267426E-02 
2214	 9.42305812469923E-02 
2215	 9.41719641052379E-02 
2216	 9.41411656452242E-02 
2217	 0.094153892292345 
2218	 9.41512292794734E-02 
2219	 9.41301081764081E-02 
2220	 0.094129810716284 
2221	 9.41569514123149E-02 
2222	 9.41611742243313E-02 
2223	 9.41784315017412E-02 
2224	 9.42223609874127E-02 
2225	 0.094237955582403 
2226	 9.42485533625533E-02 
2227	 9.42549199487347E-02 
2228	 9.42360464448856E-02 
2229	 9.42551023227933E-02 
2230	 9.42954826008341E-02 
2231	 9.43233587705588E-02 
2232	 9.43657839955119E-02 
2233	 9.43975591333502E-02 
2234	 9.44227971112634E-02 
2235	 9.44396347098385E-02 
2236	 9.44619627713194E-02 
2237	 9.44667342915768E-02 
2238	 9.44346316903911E-02 
2239	 9.44317391150824E-02 
2240	 9.44422876987209E-02 
2241	 0.094442042274958 
2242	 9.44414745595113E-02 
2243	 9.44546709494166E-02 
2244	 0.094460505344726 
2245	 9.44896206545772E-02 
2246	 9.45077295234367E-02 
2247	 9.45025976009215E-02 
2248	 0.094516449258352 
2249	 9.45124861180848E-02 
2250	 9.45201167111847E-02 
2251	 9.45517038045074E-02 
2252	 9.45756548692208E-02 
2253	 9.45898303891682E-02 
2254	 9.46050457542153E-02 
2255	 9.46370346556837E-02 
2256	 9.46465032252035E-02 
2257	 9.46227096120774E-02 
2258	 9.46313904395349E-02 
2259	 9.46570505106804E-02 
2260	 9.46725030961669E-02 
2261	 9.46928753759652E-02 
2262	 9.47202481401379E-02 
2263	 9.47441857018414E-02 
2264	 9.47651890768338E-02 
2265	 9.47986889502287E-02 
2266	 9.48251187363278E-02 
2267	 9.48472020331224E-02 
2268	 9.48592119599685E-02 
2269	 9.48523814243876E-02 
2270	 9.48720859646415E-02 
2271	 9.48866912317188E-02 
2272	 9.48927689097556E-02 
2273	 9.48922604164993E-02 
2274	 9.48821432315279E-02 
2275	 9.48930961121212E-02 
2276	 0.094904106544287 
2277	 9.49101896645664E-02 
2278	 9.49405793170607E-02 
2279	 9.49397950384769E-02 
2280	 0.094899084795289 
2281	 9.48877658892565E-02 
2282	 9.48882577064877E-02 
2283	 9.48869551039297E-02 
2284	 9.48792568058251E-02 
2285	 9.48976976178245E-02 
2286	 9.49432806791697E-02 
2287	 9.49584502134759E-02 
2288	 9.49809785502519E-02 
2289	 9.49959036793064E-02 
2290	 9.49738541286443E-02 
2291	 9.49751859941941E-02 
2292	 9.49957399469261E-02 
2293	 9.50124050010756E-02 
2294	 9.50323348757414E-02 
2295	 9.50512658225818E-02 
2296	 9.50749253703039E-02 
2297	 9.50944911043091E-02 
2298	 9.51052818331792E-02 
2299	 9.51269685235997E-02 
2300	 9.51358103887352E-02 
2301	 9.50997006242348E-02 
2302	 9.50594246306461E-02 
2303	 9.50563774526183E-02 
2304	 9.50516083179272E-02 
2305	 9.50569553664411E-02 
2306	 9.50557873957422E-02 
2307	 9.50457612036849E-02 
2308	 9.50461302833639E-02 
2309	 9.50639529341372E-02 
2310	 9.50558978015915E-02 
2311	 9.50448891286806E-02 
2312	 9.50242091778791E-02 
2313	 9.49779361761093E-02 
2314	 9.49476440047943E-02 
2315	 9.49193531251343E-02 
2316	 9.49060484966659E-02 
2317	 0.094894343795127 
2318	 9.48837687329398E-02 
2319	 9.48928409585373E-02 
2320	 9.48937604377655E-02 
2321	 9.48977616698198E-02 
2322	 9.48857090817564E-02 
2323	 9.48555430561526E-02 
2324	 9.48366691935683E-02 
2325	 0.094806424771998 
2326	 9.47948043469968E-02 
2327	 9.47981631943713E-02 
2328	 9.48112427641952E-02 
2329	 9.48201915109736E-02 
2330	 9.48581677385312E-02 
2331	 9.48988342057628E-02 
2332	 0.094922809094331 
2333	 9.49694631329102E-02 
2334	 9.49779478327595E-02 
2335	 0.094969009702555 
2336	 9.49640305634256E-02 
2337	 9.48954640320495E-02 
2338	 0.094832869116402 
2339	 9.48652947226051E-02 
2340	 9.49340207837221E-02 
2341	 9.50035371370976E-02 
2342	 9.51101111279614E-02 
2343	 9.51197457490131E-02 
2344	 9.50384995798998E-02 
2345	 9.50219574154706E-02 
2346	 9.50044967943894E-02 
2347	 9.49812046008936E-02 
2348	 9.49908806124967E-02 
2349	 9.49671074238722E-02 
2350	 9.49202272454667E-02 
2351	 9.48739753550995E-02 
2352	 9.48205918056261E-02 
2353	 9.47579542783511E-02 
2354	 9.46753106404263E-02 
2355	 0.094606615681454 
2356	 9.45245332310618E-02 
2357	 9.44692797941395E-02 
2358	 9.44469022746047E-02 
2359	 9.43948327950146E-02 
2360	 9.43418667948999E-02 
2361	 9.42927358619085E-02 
2362	 9.41995736762382E-02 
2363	 9.41538979678341E-02 
2364	 9.41648227285413E-02 
2365	 9.41409927333618E-02 
2366	 9.41430980610631E-02 
2367	 9.41248682365651E-02 
2368	 9.40500166879963E-02 
2369	 9.39988797073489E-02 
2370	 0.093960892545671 
2371	 9.39078965381166E-02 
2372	 9.38279126856754E-02 
2373	 0.093865912477307 
2374	 9.39562202551653E-02 
2375	 9.39566564828448E-02 
2376	 9.39664035198783E-02 
2377	 9.39067062294539E-02 
2378	 9.37003141445158E-02 
2379	 9.35810188029634E-02 
2380	 9.34986125318443E-02 
2381	 9.34426063743398E-02 
2382	 9.35024881590336E-02 
2383	 9.34758407052246E-02 
2384	 9.34872400716937E-02 
2385	 9.35370319086426E-02 
2386	 0.093489377134743 
2387	 9.35065577062398E-02 
2388	 9.34464251819846E-02 
2389	 9.32481844018482E-02 
2390	 9.31070358805989E-02 
2391	 0.092992833013613 
2392	 9.28790795544813E-02 
2393	 9.28904939423435E-02 
2394	 9.29553908251991E-02 
2395	 9.29471944437926E-02 
2396	 9.29020030169507E-02 
2397	 9.28380545057724E-02 
2398	 9.27167295867207E-02 
2399	 9.25601177781551E-02 
2400	 9.24579410313537E-02 
2401	 9.23358251288184E-02 
2402	 9.21724784374013E-02 
2403	 9.20952103152467E-02 
2404	 9.20719541182784E-02 
2405	 9.20263673642028E-02 
2406	 9.19777915794939E-02 
2407	 9.18740574888566E-02 
2408	 9.17310428169474E-02 
2409	 9.16316493350741E-02 
2410	 0.091558979474978 
2411	 9.15483413200936E-02 
2412	 0.091526448804516 
2413	 9.14422877400983E-02 
2414	 0.091368476085066 
2415	 9.12907927531808E-02 
2416	 9.12472542016157E-02 
2417	 0.091283597646675 
2418	 9.12142071501419E-02 
2419	 9.10894871833654E-02 
2420	 9.09838086010348E-02 
2421	 9.08069202402688E-02 
2422	 9.06185951674381E-02 
2423	 9.04640197868815E-02 
2424	 9.03556826384609E-02 
2425	 9.02086417397145E-02 
2426	 9.01222765526725E-02 
2427	 9.01244713415177E-02 
2428	 9.00575470413183E-02 
2429	 8.99808385511211E-02 
2430	 8.98878687565751E-02 
2431	 8.97838382890627E-02 
2432	 8.97496949935358E-02 
2433	 8.97044172741049E-02 
2434	 8.96303979863377E-02 
2435	 0.089628763233714 
2436	 8.94677740794632E-02 
2437	 0.089132159215948 
2438	 8.89679854244997E-02 
2439	 8.88179218875948E-02 
2440	 8.87595858262501E-02 
2441	 8.89177764726986E-02 
2442	 8.89027675618594E-02 
2443	 8.88422224390485E-02 
2444	 0.088720727160936 
2445	 8.83913914916966E-02 
2446	 8.82423879446308E-02 
2447	 8.81518051735986E-02 
2448	 8.81805332706992E-02 
2449	 8.83614027900726E-02 
2450	 8.84239684648863E-02 
2451	 8.85655609101524E-02 
2452	 0.088504838777351 
2453	 8.83278107925609E-02 
2454	 8.81929423163827E-02 
2455	 8.79281063344611E-02 
2456	 8.77747862456162E-02 
2457	 8.76135157981918E-02 
2458	 8.75443729821933E-02 
2459	 8.76538390980164E-02 
2460	 8.75956173990914E-02 
2461	 8.74792015815797E-02 
2462	 8.74108248327891E-02 
2463	 8.72534982786238E-02 
2464	 8.71352408895337E-02 
2465	 8.71221229316822E-02 
2466	 8.70590071116937E-02 
2467	 8.69625248563011E-02 
2468	 8.69113419836687E-02 
2469	 8.68426980063178E-02 
2470	 8.69514801887862E-02 
2471	 8.67921011093493E-02 
2472	 8.65662784753007E-02 
2473	 8.66191385506532E-02 
2474	 8.64175785802717E-02 
2475	 8.63694824886536E-02 
2476	 8.65293282822939E-02 
2477	 8.64500117979417E-02 
2478	 8.63967302163849E-02 
2479	 8.63224137009429E-02 
2480	 8.61368051865433E-02 
2481	 0.085925112611274 
2482	 8.56321330874959E-02 
2483	 8.54326086251549E-02 
2484	 8.53771444269038E-02 
2485	 8.51928111534539E-02 
2486	 8.51533885092249E-02 
2487	 8.53616634703406E-02 
2488	 8.52438613293956E-02 
2489	 8.50621496675921E-02 
2490	 8.50363943379293E-02 
2491	 8.47419339983254E-02 
2492	 8.46252346173775E-02 
2493	 8.48124519956954E-02 
2494	 8.48058932081825E-02 
2495	 8.48230996082898E-02 
2496	 8.48714516863324E-02 
2497	 0.08477274502361 
2498	 0.084728817871554 
2499	 8.46032420564714E-02 
2500	 8.44718003026982E-02 
