Wavelength	MM_3100005.asd
350	 4.53718810130875E-02 
351	 5.19236300557853E-02 
352	 5.37279161533344E-02 
353	 4.70140474539063E-02 
354	 4.49673931291818E-02 
355	 4.72790033056109E-02 
356	 5.07272146818765E-02 
357	 5.24373022308829E-02 
358	 5.56143359964614E-02 
359	 5.07580218809584E-02 
360	 4.34676175457823E-02 
361	 4.71511272634582E-02 
362	 4.58831203891755E-02 
363	 4.80092916845759E-02 
364	 5.46457039370572E-02 
365	 5.11439768513766E-02 
366	 4.96196576560257E-02 
367	 4.80669935573079E-02 
368	 0.044262021603975 
369	 5.11923909497539E-02 
370	 5.35841677198696E-02 
371	 0.051484469347574 
372	 5.48328535405411E-02 
373	 5.31175427974825E-02 
374	 5.25085353587462E-02 
375	 5.59167012762819E-02 
376	 5.73501122915384E-02 
377	 5.56052553205521E-02 
378	 5.34912092072066E-02 
379	 5.40465112402467E-02 
380	 5.54617900448859E-02 
381	 5.47320611129472E-02 
382	 5.39256412126501E-02 
383	 5.80863027676615E-02 
384	 5.89578818792122E-02 
385	 5.79144712626422E-02 
386	 0.05751236591846 
387	 6.00182913296904E-02 
388	 6.02748658365391E-02 
389	 5.95205505455528E-02 
390	 6.00710028150341E-02 
391	 5.84470868347407E-02 
392	 5.77353020892136E-02 
393	 5.98579838686864E-02 
394	 6.49434866802347E-02 
395	 6.46103486813083E-02 
396	 6.29802927891483E-02 
397	 6.35968818947813E-02 
398	 6.41691338205164E-02 
399	 6.46783145883989E-02 
400	 6.55743972829719E-02 
401	 0.066981309769865 
402	 0.06587908845207 
403	 6.54821091440747E-02 
404	 6.62331372766195E-02 
405	 6.55511038702189E-02 
406	 6.61074265205835E-02 
407	 6.71436743984553E-02 
408	 6.76073687464503E-02 
409	 6.73283142044854E-02 
410	 6.77318726226139E-02 
411	 6.87211023803469E-02 
412	 6.94345713874779E-02 
413	 6.93323882189055E-02 
414	 6.90906588926394E-02 
415	 6.91572004861243E-02 
416	 6.95567288670552E-02 
417	 6.94791280328795E-02 
418	 6.94786602204607E-02 
419	 7.00726641820275E-02 
420	 0.070585356850912 
421	 7.03566004278678E-02 
422	 6.99755175317379E-02 
423	 7.06472954000965E-02 
424	 7.11218989147778E-02 
425	 7.11148057863679E-02 
426	 0.070748259458305 
427	 7.05745605655483E-02 
428	 7.05401923270841E-02 
429	 7.05656459341268E-02 
430	 7.05908933640638E-02 
431	 0.070835693131595 
432	 7.08271095726287E-02 
433	 7.06923351717603E-02 
434	 7.11138814026042E-02 
435	 7.14986547324697E-02 
436	 7.15072635545038E-02 
437	 7.11729270502127E-02 
438	 7.12840786819654E-02 
439	 7.17832903868419E-02 
440	 7.21852865303611E-02 
441	 7.19562675600418E-02 
442	 0.07208244254456 
443	 7.24529115464233E-02 
444	 7.27042556904968E-02 
445	 7.22438007087941E-02 
446	 0.072256772201806 
447	 7.26525295470178E-02 
448	 7.29988879088524E-02 
449	 7.31711415719642E-02 
450	 7.34568297888122E-02 
451	 0.07377597437443 
452	 7.37573708418975E-02 
453	 7.37436648112182E-02 
454	 0.073771331522738 
455	 7.38585198053385E-02 
456	 7.41389080792042E-02 
457	 7.43512866296222E-02 
458	 0.074582000408035 
459	 7.49932682927325E-02 
460	 7.50598047984523E-02 
461	 7.49638578353103E-02 
462	 7.49216739013527E-02 
463	 7.50936576481999E-02 
464	 7.55490854924799E-02 
465	 0.075811356087155 
466	 0.075573052870145 
467	 7.58081583491119E-02 
468	 7.60878345410916E-02 
469	 0.07613083272784 
470	 7.58701236046717E-02 
471	 7.62487803732183E-02 
472	 7.66777399379199E-02 
473	 7.67010901310777E-02 
474	 7.67907908580456E-02 
475	 7.69204392377084E-02 
476	 7.69949356084916E-02 
477	 7.69204277136992E-02 
478	 7.69021025609124E-02 
479	 7.71477975588603E-02 
480	 7.75729642638206E-02 
481	 0.077705208068186 
482	 7.78644816289523E-02 
483	 7.80174579817619E-02 
484	 7.80784312654911E-02 
485	 7.81128545997917E-02 
486	 0.07831629870774 
487	 7.85285946797666E-02 
488	 7.83495568340255E-02 
489	 7.85482817840254E-02 
490	 7.88148651498901E-02 
491	 7.88736080121467E-02 
492	 7.90117816491987E-02 
493	 7.91338839289322E-02 
494	 7.91826736905581E-02 
495	 7.91461174355382E-02 
496	 7.92316167977784E-02 
497	 7.93544087163628E-02 
498	 7.94784494521062E-02 
499	 7.96889671842912E-02 
500	 7.98537190497064E-02 
501	 7.98802863758321E-02 
502	 7.97816730194272E-02 
503	 0.079942339258926 
504	 8.01099713623373E-02 
505	 8.01677072341508E-02 
506	 8.01495166649888E-02 
507	 8.01426866210125E-02 
508	 8.02572827167883E-02 
509	 8.04640876501201E-02 
510	 8.03468844414341E-02 
511	 8.03397094344859E-02 
512	 8.04979794687267E-02 
513	 8.06554440477467E-02 
514	 8.06354596696674E-02 
515	 8.06281359247316E-02 
516	 8.07304870318047E-02 
517	 8.08147856696499E-02 
518	 0.080857762708094 
519	 8.08737381282552E-02 
520	 8.09014042299631E-02 
521	 8.10124973351005E-02 
522	 8.10720043169423E-02 
523	 8.10649287776023E-02 
524	 0.081111009011622 
525	 8.12137600615908E-02 
526	 8.13135593255931E-02 
527	 8.13556438298143E-02 
528	 8.13378461794526E-02 
529	 8.14114398593755E-02 
530	 8.15117101428811E-02 
531	 8.14606885119562E-02 
532	 8.15604441330758E-02 
533	 8.16772334656826E-02 
534	 8.17043199863028E-02 
535	 8.17172325504555E-02 
536	 8.17135210453497E-02 
537	 8.17338770785414E-02 
538	 8.18182700725632E-02 
539	 8.19120352832833E-02 
540	 8.19303849998938E-02 
541	 8.19041285971055E-02 
542	 8.20183002676802E-02 
543	 8.20380737127361E-02 
544	 8.20561830114469E-02 
545	 8.21933084797993E-02 
546	 8.23210639450464E-02 
547	 8.23700896807885E-02 
548	 8.23575941485923E-02 
549	 8.23703899180075E-02 
550	 8.23810132816852E-02 
551	 8.24304522110192E-02 
552	 8.25374958918047E-02 
553	 8.26475993805673E-02 
554	 8.27016129323793E-02 
555	 8.27491028690778E-02 
556	 8.28803231270881E-02 
557	 8.29652720646178E-02 
558	 8.30459153070106E-02 
559	 8.31502777378362E-02 
560	 8.32512083373063E-02 
561	 8.32984012077274E-02 
562	 8.33556193958164E-02 
563	 8.34925055401471E-02 
564	 8.35819717378348E-02 
565	 8.35944145901004E-02 
566	 8.35527962511513E-02 
567	 8.35309403474833E-02 
568	 8.36675567994648E-02 
569	 8.38970530967594E-02 
570	 8.41100702039877E-02 
571	 8.42473745412204E-02 
572	 0.084367356480057 
573	 8.44863348751121E-02 
574	 8.45915067232659E-02 
575	 8.47075268613908E-02 
576	 0.084848384467463 
577	 8.49964146158455E-02 
578	 8.50780377145498E-02 
579	 8.50527909727385E-02 
580	 8.49707302668566E-02 
581	 8.49206203708655E-02 
582	 8.49191540100508E-02 
583	 0.084895094125856 
584	 8.48664325272119E-02 
585	 8.49889941724134E-02 
586	 0.085157075474396 
587	 8.53151775237103E-02 
588	 8.54415388320103E-02 
589	 0.085601535016786 
590	 8.57534254854847E-02 
591	 8.59017753037299E-02 
592	 0.086092437122912 
593	 8.62365952537345E-02 
594	 8.64229818356919E-02 
595	 8.66626202516083E-02 
596	 8.66630401404966E-02 
597	 0.086613241717404 
598	 8.65875733911853E-02 
599	 8.65903923417384E-02 
600	 8.65628696567987E-02 
601	 8.65827356624807E-02 
602	 8.66531679735258E-02 
603	 8.66098139505961E-02 
604	 8.66342282402449E-02 
605	 0.086697395562119 
606	 8.67172523228109E-02 
607	 8.67563180094653E-02 
608	 8.68148169553595E-02 
609	 8.68989584221014E-02 
610	 8.70239627135598E-02 
611	 8.70815166319113E-02 
612	 8.71020829184087E-02 
613	 8.71244633348817E-02 
614	 0.087081806140087 
615	 8.70497028708587E-02 
616	 8.70725454329106E-02 
617	 0.087160834896933 
618	 8.72278111473635E-02 
619	 8.72203910557903E-02 
620	 8.71528247502257E-02 
621	 8.71610988302692E-02 
622	 8.72334772691648E-02 
623	 8.72856457625577E-02 
624	 8.72326599352216E-02 
625	 8.72342335680921E-02 
626	 8.72558247503326E-02 
627	 8.72805415595958E-02 
628	 8.73367795318444E-02 
629	 8.73484425637553E-02 
630	 8.73568913799266E-02 
631	 8.74045767695079E-02 
632	 8.74045853387284E-02 
633	 8.73793882530367E-02 
634	 0.087375890438987 
635	 8.74493735128195E-02 
636	 0.08749502712716 
637	 8.74800273552468E-02 
638	 8.74296925032497E-02 
639	 8.74776462973847E-02 
640	 8.75119089879873E-02 
641	 8.75360526735828E-02 
642	 8.75967282085304E-02 
643	 0.087646533166645 
644	 8.76646550123977E-02 
645	 8.76590934490079E-02 
646	 8.76744278312935E-02 
647	 0.087696652965063 
648	 8.77232478527046E-02 
649	 8.77506550861773E-02 
650	 8.77597056973154E-02 
651	 8.77841757460705E-02 
652	 0.087833445727758 
653	 8.78918331817654E-02 
654	 8.79183735599881E-02 
655	 8.79141517399066E-02 
656	 8.79025850135861E-02 
657	 8.79373288468755E-02 
658	 8.80041945838704E-02 
659	 8.80597667022318E-02 
660	 8.80570630794252E-02 
661	 8.80435899487209E-02 
662	 8.80743285128046E-02 
663	 8.81498479503512E-02 
664	 8.81937571672276E-02 
665	 8.82314218959558E-02 
666	 0.088234727601203 
667	 8.81925503557993E-02 
668	 8.82141413006491E-02 
669	 8.82362769498245E-02 
670	 8.82509986361591E-02 
671	 8.82967269836295E-02 
672	 8.83328962870115E-02 
673	 8.83542420280649E-02 
674	 8.83745029524473E-02 
675	 8.84435031097574E-02 
676	 0.088471268136064 
677	 8.84686896229867E-02 
678	 8.84911408302815E-02 
679	 8.85622259418372E-02 
680	 8.85959747732176E-02 
681	 8.85731086383049E-02 
682	 8.85716143035802E-02 
683	 0.088638712373686 
684	 8.86894708444511E-02 
685	 0.088661584539035 
686	 8.87129511926525E-02 
687	 8.87505687370395E-02 
688	 8.87742416426339E-02 
689	 8.88400059984058E-02 
690	 8.88174630280392E-02 
691	 8.87768772916559E-02 
692	 8.87836898841793E-02 
693	 8.88416100047201E-02 
694	 8.88556692299401E-02 
695	 0.088844735770173 
696	 8.88605260448063E-02 
697	 8.88659157980397E-02 
698	 8.89103868281077E-02 
699	 8.89662634343602E-02 
700	 8.89276456409065E-02 
701	 8.89491156539114E-02 
702	 8.89932928849855E-02 
703	 0.089005151091384 
704	 8.89983365159824E-02 
705	 8.90093617507253E-02 
706	 8.90119435755964E-02 
707	 8.89620278011631E-02 
708	 8.89587564876797E-02 
709	 8.90047547680857E-02 
710	 0.089059196656532 
711	 8.90349595163598E-02 
712	 8.90430082342281E-02 
713	 8.90448973157692E-02 
714	 8.89985088838731E-02 
715	 8.90114809352391E-02 
716	 0.089036772472375 
717	 8.90401308124554E-02 
718	 0.089006480174367 
719	 8.90035744152644E-02 
720	 8.90030981853913E-02 
721	 8.89871218779442E-02 
722	 8.89882960878007E-02 
723	 8.89628655406906E-02 
724	 8.89286865501984E-02 
725	 8.89165997955077E-02 
726	 8.89076815187631E-02 
727	 8.88957930830186E-02 
728	 8.88753504197807E-02 
729	 8.88434104216528E-02 
730	 8.88458665141191E-02 
731	 8.88369326553057E-02 
732	 8.87906311498193E-02 
733	 8.87693558195426E-02 
734	 8.87376901339791E-02 
735	 8.86918463775713E-02 
736	 8.86459723237934E-02 
737	 8.86424237956118E-02 
738	 8.86257878785665E-02 
739	 8.85895627663685E-02 
740	 8.85862203998821E-02 
741	 8.85607819796539E-02 
742	 8.85107526986234E-02 
743	 8.84488658739607E-02 
744	 8.83915321583095E-02 
745	 8.83648009148698E-02 
746	 8.83654077791858E-02 
747	 8.83672769755607E-02 
748	 8.83119439957797E-02 
749	 8.82376636140891E-02 
750	 0.088180447562183 
751	 8.81602889881436E-02 
752	 0.088130678315541 
753	 8.80751251817708E-02 
754	 8.80013442526369E-02 
755	 8.79590780176941E-02 
756	 8.79450525792428E-02 
757	 8.79306661313531E-02 
758	 8.78835133136393E-02 
759	 8.78578210812411E-02 
760	 8.78033634276836E-02 
761	 8.77204600218819E-02 
762	 8.76822728382199E-02 
763	 8.76478648156514E-02 
764	 8.76173771345126E-02 
765	 8.75911227349715E-02 
766	 8.75436247135813E-02 
767	 0.087487749169563 
768	 8.74428652973148E-02 
769	 0.087419701127552 
770	 8.73436891135941E-02 
771	 8.72865024481819E-02 
772	 8.72614884438333E-02 
773	 0.087199296836562 
774	 8.71889472271576E-02 
775	 8.71667795120926E-02 
776	 8.70896726093149E-02 
777	 8.70684674310003E-02 
778	 8.70096505605463E-02 
779	 8.69391151941182E-02 
780	 0.086918473971057 
781	 8.68605995449906E-02 
782	 8.68255230838357E-02 
783	 8.68150946111437E-02 
784	 8.67617017437474E-02 
785	 8.67032957795457E-02 
786	 8.66570930476911E-02 
787	 8.66203575346089E-02 
788	 8.65453053021333E-02 
789	 8.65339892127637E-02 
790	 8.65219241251344E-02 
791	 8.64193230225616E-02 
792	 8.63592954824171E-02 
793	 8.63218505341966E-02 
794	 8.62873460477625E-02 
795	 8.62431404267735E-02 
796	 8.61805454178109E-02 
797	 8.61218408228287E-02 
798	 8.60825799406091E-02 
799	 8.60576363368655E-02 
800	 8.60218878633496E-02 
801	 8.59887494227121E-02 
802	 8.59714106114688E-02 
803	 8.59320307287502E-02 
804	 8.58928195058637E-02 
805	 8.58479634582986E-02 
806	 8.57795868687672E-02 
807	 8.57304224914888E-02 
808	 8.56744072621437E-02 
809	 0.085606029987676 
810	 8.55559124394539E-02 
811	 8.55602239922655E-02 
812	 8.55402852868009E-02 
813	 8.54566158038161E-02 
814	 8.54509208372018E-02 
815	 8.54057421823566E-02 
816	 8.53354108019352E-02 
817	 8.52980547016737E-02 
818	 8.52740545455812E-02 
819	 8.52197567413531E-02 
820	 8.51525849908051E-02 
821	 8.51333442251106E-02 
822	 8.50619973522637E-02 
823	 8.50306979735439E-02 
824	 8.50574687370073E-02 
825	 8.49946784377491E-02 
826	 8.49464399144662E-02 
827	 8.49131357512824E-02 
828	 8.48747788934237E-02 
829	 8.48393717324484E-02 
830	 8.47876595577815E-02 
831	 8.47321534796185E-02 
832	 8.46976412261944E-02 
833	 8.46786777143779E-02 
834	 8.46551893925273E-02 
835	 0.084613937665199 
836	 0.084554294654211 
837	 8.45293925774427E-02 
838	 8.45177149511384E-02 
839	 8.44845963110812E-02 
840	 8.43952864454176E-02 
841	 8.43554373076202E-02 
842	 8.43417108373664E-02 
843	 8.43146408018285E-02 
844	 8.43085694218084E-02 
845	 8.43213489482594E-02 
846	 8.43115604096967E-02 
847	 8.42423213712518E-02 
848	 8.42087873153281E-02 
849	 8.41625237228854E-02 
850	 8.41072856838692E-02 
851	 8.40917094822666E-02 
852	 8.40701624997297E-02 
853	 0.084053430996559 
854	 8.40366383819931E-02 
855	 8.39830327187242E-02 
856	 8.39453562621793E-02 
857	 8.39600972914814E-02 
858	 8.40078266253071E-02 
859	 8.39373387015212E-02 
860	 8.39091216535059E-02 
861	 8.38961734518046E-02 
862	 8.38348026356836E-02 
863	 8.38117504015567E-02 
864	 0.083801381640094 
865	 8.37738806758823E-02 
866	 8.37146687718578E-02 
867	 8.37157759260011E-02 
868	 8.37262978121087E-02 
869	 8.37062152060693E-02 
870	 8.36478581511206E-02 
871	 8.36150314163845E-02 
872	 8.36173647676167E-02 
873	 0.0836328267181 
874	 8.36084261416255E-02 
875	 8.35935142361274E-02 
876	 8.35496998152344E-02 
877	 8.34687597599107E-02 
878	 8.34760726570452E-02 
879	 8.34940357252991E-02 
880	 0.083493475779571 
881	 8.34736074974301E-02 
882	 8.34771388928615E-02 
883	 8.34774829062193E-02 
884	 8.34560529663249E-02 
885	 8.34091512679715E-02 
886	 0.083378751258423 
887	 0.08336170710008 
888	 8.33558511696537E-02 
889	 8.33592375074812E-02 
890	 8.33396717012204E-02 
891	 8.33116035151781E-02 
892	 8.32912832562325E-02 
893	 8.32855141644348E-02 
894	 8.32372927359241E-02 
895	 8.32040755425155E-02 
896	 8.32241068293773E-02 
897	 8.32609788449393E-02 
898	 8.32516125921902E-02 
899	 8.32098515353941E-02 
900	 8.31709765037648E-02 
901	 8.31583438331235E-02 
902	 8.31851672729962E-02 
903	 8.31946082435761E-02 
904	 8.31491098608535E-02 
905	 8.31782038776303E-02 
906	 8.31868258442609E-02 
907	 8.31529894328144E-02 
908	 8.31099563349029E-02 
909	 8.31630007387199E-02 
910	 8.31363902250142E-02 
911	 8.30659059069142E-02 
912	 8.30996949090397E-02 
913	 8.30531846305941E-02 
914	 0.083063781769726 
915	 8.31137334626379E-02 
916	 0.083049920051002 
917	 8.30147678073963E-02 
918	 8.30155138144916E-02 
919	 8.30264618590816E-02 
920	 0.083008917190701 
921	 8.29950273012134E-02 
922	 8.30054470595123E-02 
923	 8.30366689130783E-02 
924	 8.30549024386461E-02 
925	 8.30595183439189E-02 
926	 8.30989129988095E-02 
927	 8.31426873247927E-02 
928	 8.30054132747065E-02 
929	 8.29937049037813E-02 
930	 0.083008375569056 
931	 8.29560839020434E-02 
932	 8.30065068248079E-02 
933	 8.30530543853264E-02 
934	 8.30463400187939E-02 
935	 8.29955772517657E-02 
936	 0.083025426160234 
937	 8.30096180694939E-02 
938	 8.29448574836708E-02 
939	 8.28854517146723E-02 
940	 8.29186147491268E-02 
941	 8.29703325087336E-02 
942	 8.30245911809592E-02 
943	 8.30727493501459E-02 
944	 0.083037610429194 
945	 8.29990868629733E-02 
946	 8.30050851958546E-02 
947	 8.30506101945673E-02 
948	 8.29978868093787E-02 
949	 8.29314029637408E-02 
950	 8.29489953967942E-02 
951	 8.30785113560209E-02 
952	 8.30380934112862E-02 
953	 8.29652424470543E-02 
954	 8.29483364504204E-02 
955	 8.30008682898474E-02 
956	 0.082985027713322 
957	 8.29874689867421E-02 
958	 8.30376905989126E-02 
959	 8.30981047292604E-02 
960	 8.30387477638142E-02 
961	 8.28941045716017E-02 
962	 8.28610973937579E-02 
963	 8.30917918861277E-02 
964	 8.29428573289066E-02 
965	 0.082905965930928 
966	 8.30511695217815E-02 
967	 8.31215442418066E-02 
968	 0.083107829993429 
969	 8.30556240132899E-02 
970	 8.29984943447927E-02 
971	 8.29610511810616E-02 
972	 8.30127107277023E-02 
973	 8.29830980203324E-02 
974	 8.29044544867077E-02 
975	 8.29182934338408E-02 
976	 8.28618037854739E-02 
977	 8.29094004284365E-02 
978	 8.30116463430727E-02 
979	 0.082997439437783 
980	 8.29766010532886E-02 
981	 8.29270553072248E-02 
982	 8.29090379249082E-02 
983	 8.29781606329246E-02 
984	 8.28779806435935E-02 
985	 0.082901606807086 
986	 0.082955087942572 
987	 8.28270192435076E-02 
988	 8.29788379324953E-02 
989	 8.30268911809191E-02 
990	 0.082924752169689 
991	 8.28305221962164E-02 
992	 8.28169273658863E-02 
993	 8.28962653120216E-02 
994	 8.30229429460848E-02 
995	 8.30982086987402E-02 
996	 8.29377571884204E-02 
997	 8.28003039552394E-02 
998	 8.27785776983185E-02 
999	 0.082866306012709 
1000	 8.30373783834183E-02 
1001	 8.16839955060196E-02 
1002	 8.16739822918999E-02 
1003	 8.16493807194126E-02 
1004	 0.08163868261537 
1005	 8.16374064911525E-02 
1006	 8.16366757553741E-02 
1007	 8.16440939513038E-02 
1008	 8.16561658545004E-02 
1009	 8.16400760470198E-02 
1010	 8.16156354791492E-02 
1011	 8.15790669496957E-02 
1012	 8.15683539965563E-02 
1013	 8.15336152848033E-02 
1014	 8.14780795012675E-02 
1015	 8.14960616415107E-02 
1016	 8.15277345960681E-02 
1017	 8.15398878306382E-02 
1018	 8.15701020525125E-02 
1019	 8.16318973562069E-02 
1020	 8.16458673407792E-02 
1021	 8.15875944395243E-02 
1022	 0.081540286739178 
1023	 8.15467604578328E-02 
1024	 8.14978433410186E-02 
1025	 8.13979931051505E-02 
1026	 8.13963489186257E-02 
1027	 8.13662241443139E-02 
1028	 8.12975402275935E-02 
1029	 8.13468815275588E-02 
1030	 8.13952539565341E-02 
1031	 0.081398495105301 
1032	 8.13713784699308E-02 
1033	 8.13899582511532E-02 
1034	 0.081394879573092 
1035	 8.13168116386466E-02 
1036	 8.12489784980384E-02 
1037	 8.11978702747603E-02 
1038	 8.10871413055274E-02 
1039	 8.10229445778719E-02 
1040	 0.081056706429793 
1041	 8.10642826296408E-02 
1042	 8.10741236587663E-02 
1043	 8.11240648336872E-02 
1044	 8.11235288762822E-02 
1045	 8.10770459473199E-02 
1046	 8.10301319217739E-02 
1047	 8.10082588294494E-02 
1048	 0.080975734435345 
1049	 8.09685248182903E-02 
1050	 0.080959918908324 
1051	 8.09609693521469E-02 
1052	 8.09732827139145E-02 
1053	 0.080940620471017 
1054	 8.09376560657505E-02 
1055	 8.09478827944876E-02 
1056	 8.09183932348018E-02 
1057	 8.09356676534497E-02 
1058	 8.10030594772652E-02 
1059	 8.10323886317865E-02 
1060	 8.10608746697591E-02 
1061	 8.11208385252638E-02 
1062	 8.10831739631894E-02 
1063	 8.10792894559833E-02 
1064	 8.11245439449224E-02 
1065	 8.11094201649836E-02 
1066	 8.11463279634539E-02 
1067	 8.11701220411939E-02 
1068	 8.11478790215097E-02 
1069	 8.11258363922467E-02 
1070	 8.11121796855347E-02 
1071	 8.10854294007907E-02 
1072	 8.11017146286407E-02 
1073	 8.11687285644599E-02 
1074	 8.11764127615766E-02 
1075	 8.11769656139006E-02 
1076	 8.11806270540931E-02 
1077	 8.11362480374105E-02 
1078	 8.10729690870442E-02 
1079	 8.11184839913083E-02 
1080	 8.11506257763309E-02 
1081	 8.11233692968164E-02 
1082	 8.11682127961602E-02 
1083	 8.11743635324127E-02 
1084	 8.11193745937724E-02 
1085	 8.11242737057699E-02 
1086	 8.11793686156701E-02 
1087	 8.11750846048892E-02 
1088	 8.11582586078443E-02 
1089	 8.11526278850848E-02 
1090	 8.11195379780961E-02 
1091	 8.10948913747947E-02 
1092	 0.081072647453393 
1093	 8.10676656389219E-02 
1094	 8.10761065171044E-02 
1095	 8.10768003083551E-02 
1096	 8.10880933840069E-02 
1097	 8.10867150067657E-02 
1098	 8.10873021653118E-02 
1099	 8.10710529912248E-02 
1100	 8.10629220791006E-02 
1101	 8.10719790578914E-02 
1102	 8.10693039434696E-02 
1103	 8.10524519775807E-02 
1104	 8.10333335284885E-02 
1105	 8.10442482068201E-02 
1106	 8.10562579189316E-02 
1107	 8.10696652843211E-02 
1108	 8.10643446749071E-02 
1109	 8.10581029113558E-02 
1110	 8.10576426129969E-02 
1111	 8.10510601024495E-02 
1112	 8.10466401259922E-02 
1113	 8.10468103097493E-02 
1114	 8.10410782677393E-02 
1115	 8.10364907254331E-02 
1116	 0.081026002736027 
1117	 8.10327562072748E-02 
1118	 8.10431812504006E-02 
1119	 8.10745760967304E-02 
1120	 8.10834974448833E-02 
1121	 8.10985638021543E-02 
1122	 8.11096568256677E-02 
1123	 8.11001845331144E-02 
1124	 8.11067637452141E-02 
1125	 8.11239961514474E-02 
1126	 8.11462067506131E-02 
1127	 8.11708385358561E-02 
1128	 0.081188734518611 
1129	 8.12173069770719E-02 
1130	 8.12366877433711E-02 
1131	 8.12373979594619E-02 
1132	 8.12540745661584E-02 
1133	 8.12901729613381E-02 
1134	 8.13027523425029E-02 
1135	 8.12981449683513E-02 
1136	 8.13165305747517E-02 
1137	 0.081319377150749 
1138	 0.081321522337368 
1139	 8.13181802986442E-02 
1140	 8.13185304176956E-02 
1141	 8.13110203593324E-02 
1142	 8.12831465861017E-02 
1143	 8.12733341292231E-02 
1144	 8.12739363546089E-02 
1145	 8.12768834768673E-02 
1146	 8.12863152057602E-02 
1147	 8.12955861658536E-02 
1148	 8.13049256872623E-02 
1149	 8.13151655519455E-02 
1150	 0.081332786617353 
1151	 8.13488323548402E-02 
1152	 8.13264410420613E-02 
1153	 8.13151282169009E-02 
1154	 8.13166786419825E-02 
1155	 8.13079331995893E-02 
1156	 8.13110793810268E-02 
1157	 8.13505023822411E-02 
1158	 8.13520010396281E-02 
1159	 8.13250844704893E-02 
1160	 8.13170603790209E-02 
1161	 8.13039725944245E-02 
1162	 8.13005573610661E-02 
1163	 8.13034986485614E-02 
1164	 8.13113896425611E-02 
1165	 8.13264535789315E-02 
1166	 8.13435951004697E-02 
1167	 8.13441984468838E-02 
1168	 8.13743469005572E-02 
1169	 8.13806773020631E-02 
1170	 8.13731803662581E-02 
1171	 8.13713959226566E-02 
1172	 8.13634029136261E-02 
1173	 8.13648545038703E-02 
1174	 8.13667802521998E-02 
1175	 8.13786077857774E-02 
1176	 0.081402613365038 
1177	 8.14212601992326E-02 
1178	 0.081446033586876 
1179	 8.14644563200077E-02 
1180	 8.14856481211667E-02 
1181	 8.14958310122951E-02 
1182	 8.14939663100447E-02 
1183	 8.14938265192948E-02 
1184	 8.14997173388187E-02 
1185	 0.081495118287223 
1186	 0.081513713808487 
1187	 8.15536193007598E-02 
1188	 8.15790637064567E-02 
1189	 8.16137627834689E-02 
1190	 8.16323190550194E-02 
1191	 8.16387322378343E-02 
1192	 8.16478154539788E-02 
1193	 8.16447560044479E-02 
1194	 8.16545676349194E-02 
1195	 0.081668715524891 
1196	 8.16848450966745E-02 
1197	 8.17155238111087E-02 
1198	 8.17350473738484E-02 
1199	 8.17505645232109E-02 
1200	 8.17640303776037E-02 
1201	 8.17722277555139E-02 
1202	 8.17608930830404E-02 
1203	 8.17828437508167E-02 
1204	 8.18219332571516E-02 
1205	 8.18483890602415E-02 
1206	 8.18887083774527E-02 
1207	 8.19206705544637E-02 
1208	 8.19436428940847E-02 
1209	 8.19621392788951E-02 
1210	 8.19760708157198E-02 
1211	 8.19984472723439E-02 
1212	 8.20216800355753E-02 
1213	 8.20367956062624E-02 
1214	 8.20542040954995E-02 
1215	 8.20739459641445E-02 
1216	 8.20909044219935E-02 
1217	 8.20946539413924E-02 
1218	 0.082108852107414 
1219	 8.21325409613598E-02 
1220	 8.21519281413856E-02 
1221	 8.21695751777104E-02 
1222	 8.21846651026251E-02 
1223	 8.21963656800164E-02 
1224	 8.22173664848541E-02 
1225	 8.22365177104129E-02 
1226	 8.22610071565429E-02 
1227	 8.23040492248668E-02 
1228	 8.23325948677947E-02 
1229	 8.23550617845537E-02 
1230	 8.23756200159493E-02 
1231	 8.23816356686969E-02 
1232	 8.24000314595056E-02 
1233	 8.24229722463319E-02 
1234	 8.24500658380895E-02 
1235	 8.24762898600129E-02 
1236	 8.25208066244813E-02 
1237	 8.25312293732736E-02 
1238	 8.25185835627212E-02 
1239	 8.25219993103154E-02 
1240	 8.25087628881999E-02 
1241	 8.25140482421335E-02 
1242	 0.082540130953907 
1243	 8.25574145838798E-02 
1244	 8.25756630059548E-02 
1245	 0.082591658340378 
1246	 0.082598495468104 
1247	 0.082619056299921 
1248	 8.26492494949607E-02 
1249	 8.26794378969127E-02 
1250	 8.26986772777574E-02 
1251	 0.082719099719758 
1252	 8.27310761475304E-02 
1253	 8.27260935613961E-02 
1254	 8.27265107787781E-02 
1255	 0.082722671507074 
1256	 0.082732503509217 
1257	 8.27444659342018E-02 
1258	 8.27553691352915E-02 
1259	 8.27825315072711E-02 
1260	 8.27985063226372E-02 
1261	 8.28115127667379E-02 
1262	 8.28116976197353E-02 
1263	 8.27995103418308E-02 
1264	 8.27938161576459E-02 
1265	 8.27723297200522E-02 
1266	 8.27619117692079E-02 
1267	 8.27590709784951E-02 
1268	 8.27651707971506E-02 
1269	 0.082776032739228 
1270	 8.27939243150597E-02 
1271	 8.28097952064952E-02 
1272	 8.28311735776482E-02 
1273	 8.28518225928533E-02 
1274	 8.28686789961654E-02 
1275	 8.28921976281447E-02 
1276	 8.29224388532342E-02 
1277	 8.29555845475846E-02 
1278	 8.29945533191091E-02 
1279	 0.083026314643243 
1280	 0.083050283299637 
1281	 8.30909192387114E-02 
1282	 8.31398805094666E-02 
1283	 8.31836447578121E-02 
1284	 8.32449900767885E-02 
1285	 8.32919859151108E-02 
1286	 8.33090499621817E-02 
1287	 8.33443650327319E-02 
1288	 8.33967977878623E-02 
1289	 8.34627918920946E-02 
1290	 8.35142766281054E-02 
1291	 8.35827890323443E-02 
1292	 8.36335837596856E-02 
1293	 8.36612933855951E-02 
1294	 8.37030466892596E-02 
1295	 8.37512953918893E-02 
1296	 8.37929975829519E-02 
1297	 0.083825827209076 
1298	 8.38714248452585E-02 
1299	 8.39409501326783E-02 
1300	 8.39787282596766E-02 
1301	 8.40019507351894E-02 
1302	 8.40274348938468E-02 
1303	 8.40331964169631E-02 
1304	 8.40356913805274E-02 
1305	 0.084063743842928 
1306	 8.40974147356242E-02 
1307	 8.41134140569754E-02 
1308	 8.41177503532968E-02 
1309	 8.41177750878994E-02 
1310	 8.40936098854847E-02 
1311	 8.41003226760385E-02 
1312	 8.41162298924364E-02 
1313	 8.41325643802169E-02 
1314	 8.41753836781754E-02 
1315	 8.41863727265394E-02 
1316	 8.41746328415376E-02 
1317	 8.41783960061821E-02 
1318	 8.41766560748653E-02 
1319	 0.084176043120113 
1320	 8.41908266998928E-02 
1321	 8.41913125770301E-02 
1322	 0.084174771401496 
1323	 8.41653180237168E-02 
1324	 8.41655124765993E-02 
1325	 8.41706611708733E-02 
1326	 0.084187821495602 
1327	 8.42034950255738E-02 
1328	 8.42124495385978E-02 
1329	 0.084211420237595 
1330	 8.42193439502258E-02 
1331	 8.42266710817248E-02 
1332	 8.42385472056853E-02 
1333	 8.42601095036756E-02 
1334	 8.42720371489854E-02 
1335	 8.42734692505654E-02 
1336	 8.42888062644995E-02 
1337	 8.43096827367845E-02 
1338	 0.084328272537339 
1339	 8.43553267313124E-02 
1340	 8.43801614369389E-02 
1341	 8.43946154503185E-02 
1342	 8.44176645932707E-02 
1343	 8.44412758512515E-02 
1344	 8.44797761977868E-02 
1345	 8.45306841687975E-02 
1346	 8.45708435864462E-02 
1347	 8.46067315416518E-02 
1348	 8.46289362376461E-02 
1349	 8.46615788736301E-02 
1350	 8.46988863837235E-02 
1351	 8.47234907010306E-02 
1352	 8.47582708773299E-02 
1353	 8.47823512333177E-02 
1354	 8.47811709673878E-02 
1355	 0.084798277931722 
1356	 8.48250719409119E-02 
1357	 8.48512781805033E-02 
1358	 8.48812940829725E-02 
1359	 8.49052943077939E-02 
1360	 8.49327911394777E-02 
1361	 8.49564765370477E-02 
1362	 8.49637291352476E-02 
1363	 8.49881448814941E-02 
1364	 8.50327558906742E-02 
1365	 8.50600999869198E-02 
1366	 8.50875825385592E-02 
1367	 8.51100687595499E-02 
1368	 8.51206025500955E-02 
1369	 8.51191088200827E-02 
1370	 8.51266715123687E-02 
1371	 8.51317821723549E-02 
1372	 8.51347431566725E-02 
1373	 8.51394423022814E-02 
1374	 8.51391075220316E-02 
1375	 8.51333679216561E-02 
1376	 8.51302226073789E-02 
1377	 8.51303211715717E-02 
1378	 8.51204468659233E-02 
1379	 8.50977325921275E-02 
1380	 8.50967511160501E-02 
1381	 8.51048778070328E-02 
1382	 8.50986244556166E-02 
1383	 8.51009940287222E-02 
1384	 8.50959040730751E-02 
1385	 8.50759295686068E-02 
1386	 8.50593536115656E-02 
1387	 8.50523824152607E-02 
1388	 8.50350237645578E-02 
1389	 8.50104105906395E-02 
1390	 0.084973799171849 
1391	 8.49485077986469E-02 
1392	 8.49152069802504E-02 
1393	 8.48748505748514E-02 
1394	 8.48425260699648E-02 
1395	 8.48065195527957E-02 
1396	 8.47545760322529E-02 
1397	 8.47012724567327E-02 
1398	 8.46438792559832E-02 
1399	 8.45871463061858E-02 
1400	 8.45221839019719E-02 
1401	 8.44606443117535E-02 
1402	 8.44040120744613E-02 
1403	 8.43421709435313E-02 
1404	 8.42753614422876E-02 
1405	 8.42135805410456E-02 
1406	 8.41431041673397E-02 
1407	 8.40874162662626E-02 
1408	 8.40471479473395E-02 
1409	 8.39958878023266E-02 
1410	 8.39447397567621E-02 
1411	 8.39031190075942E-02 
1412	 8.38554004967295E-02 
1413	 8.38144738627796E-02 
1414	 8.38000691973948E-02 
1415	 8.37906490185049E-02 
1416	 8.37848858762013E-02 
1417	 8.37813549650439E-02 
1418	 0.083771481794574 
1419	 8.37499860593824E-02 
1420	 8.37262820194806E-02 
1421	 8.37077354543675E-02 
1422	 8.37020455732977E-02 
1423	 8.37122207531449E-02 
1424	 8.37212309272464E-02 
1425	 8.37471415844192E-02 
1426	 0.083754370599356 
1427	 8.37469343062491E-02 
1428	 8.37564305002402E-02 
1429	 8.37674659784372E-02 
1430	 8.37861026422854E-02 
1431	 8.38278677872208E-02 
1432	 8.38453711672839E-02 
1433	 8.38438730967587E-02 
1434	 8.38564865813154E-02 
1435	 0.083863302076169 
1436	 0.083878553130747 
1437	 8.39094238220382E-02 
1438	 8.39366386765328E-02 
1439	 8.39600960292496E-02 
1440	 8.39885037382562E-02 
1441	 8.40279679592578E-02 
1442	 8.40602439234792E-02 
1443	 8.40875706679847E-02 
1444	 8.41216724737709E-02 
1445	 8.41521011132042E-02 
1446	 8.41745071272589E-02 
1447	 8.42005210632933E-02 
1448	 0.084228049261157 
1449	 8.42528468252959E-02 
1450	 8.42846583068208E-02 
1451	 8.43158799888783E-02 
1452	 8.43505100512433E-02 
1453	 8.43821697181852E-02 
1454	 8.44161032591851E-02 
1455	 8.44457991226688E-02 
1456	 8.44695340222166E-02 
1457	 8.44971300646581E-02 
1458	 0.084527769478879 
1459	 8.45518696082205E-02 
1460	 8.45740608332076E-02 
1461	 8.46004761712802E-02 
1462	 8.46196678924132E-02 
1463	 8.46456295375565E-02 
1464	 8.46833362297342E-02 
1465	 8.47137622905893E-02 
1466	 8.47375041175442E-02 
1467	 0.084768034061817 
1468	 8.47973594850456E-02 
1469	 8.48311334008749E-02 
1470	 8.48706610230459E-02 
1471	 8.49173149737232E-02 
1472	 8.49542083694415E-02 
1473	 8.49981140452184E-02 
1474	 8.50268830418652E-02 
1475	 8.50483977314055E-02 
1476	 8.50890073897779E-02 
1477	 8.51196356382524E-02 
1478	 8.51538079286171E-02 
1479	 8.52101295614906E-02 
1480	 8.52544812173341E-02 
1481	 8.52906390321073E-02 
1482	 8.53343715109707E-02 
1483	 8.53856919039692E-02 
1484	 8.54223511951336E-02 
1485	 8.54533174018381E-02 
1486	 8.54892896218847E-02 
1487	 8.55189653353995E-02 
1488	 8.55545707466663E-02 
1489	 8.56006615631682E-02 
1490	 8.56330030456546E-02 
1491	 8.56544897014974E-02 
1492	 0.085686130386816 
1493	 8.57142625494189E-02 
1494	 8.57495657832834E-02 
1495	 8.57938853757212E-02 
1496	 8.58354015191826E-02 
1497	 8.58802762611386E-02 
1498	 8.59255702066279E-02 
1499	 8.59834848765929E-02 
1500	 8.60194566835575E-02 
1501	 8.60325862645756E-02 
1502	 8.60581282287716E-02 
1503	 8.60778552416795E-02 
1504	 8.61003259963045E-02 
1505	 8.61272832858744E-02 
1506	 8.61653456119732E-02 
1507	 0.086194307378939 
1508	 8.62168982417969E-02 
1509	 8.62466270889669E-02 
1510	 8.62880989284146E-02 
1511	 8.63266856749593E-02 
1512	 8.63587802700174E-02 
1513	 8.63934200379644E-02 
1514	 8.64235130080609E-02 
1515	 8.64484027956419E-02 
1516	 8.64789757163005E-02 
1517	 8.65119022881458E-02 
1518	 8.65516270354011E-02 
1519	 8.65800893022377E-02 
1520	 8.66080480382254E-02 
1521	 8.66299988424467E-02 
1522	 8.66407452029035E-02 
1523	 0.086660200448025 
1524	 8.66761183330085E-02 
1525	 8.67013961916912E-02 
1526	 8.67393060637374E-02 
1527	 8.67650938983067E-02 
1528	 8.67899266569367E-02 
1529	 8.68144043627148E-02 
1530	 8.68307240110728E-02 
1531	 8.68530366704307E-02 
1532	 8.68810306381497E-02 
1533	 8.69056315392675E-02 
1534	 8.69287545041098E-02 
1535	 8.69508286356103E-02 
1536	 8.69712819983524E-02 
1537	 8.69932140229543E-02 
1538	 8.70184677242222E-02 
1539	 8.70404124962307E-02 
1540	 8.70593645111235E-02 
1541	 8.70798887092712E-02 
1542	 0.08709343261791 
1543	 8.71144315464953E-02 
1544	 0.08715161889665 
1545	 8.71719483758998E-02 
1546	 8.71799635268047E-02 
1547	 8.72006351492481E-02 
1548	 8.72225875070763E-02 
1549	 8.72403056381578E-02 
1550	 8.72751459110836E-02 
1551	 8.73010882734501E-02 
1552	 8.73033897890409E-02 
1553	 0.087307382564315 
1554	 8.73080602025025E-02 
1555	 8.73009993280473E-02 
1556	 8.73023382247527E-02 
1557	 8.73029327356899E-02 
1558	 8.73063549234906E-02 
1559	 8.73227216735867E-02 
1560	 8.73374512026409E-02 
1561	 8.73550230248714E-02 
1562	 8.73726262388106E-02 
1563	 8.73916225780904E-02 
1564	 8.74183087566474E-02 
1565	 8.74520368387413E-02 
1566	 0.087475569477277 
1567	 8.75019747120701E-02 
1568	 8.75226008549594E-02 
1569	 8.75337086112413E-02 
1570	 8.75493820685666E-02 
1571	 8.75660574194206E-02 
1572	 8.75849762204904E-02 
1573	 8.76044969388305E-02 
1574	 8.76203617114248E-02 
1575	 8.76362346189984E-02 
1576	 8.76512161806275E-02 
1577	 0.087660217401292 
1578	 0.087675353466511 
1579	 8.76974905182166E-02 
1580	 8.77170579387295E-02 
1581	 8.77457520028929E-02 
1582	 8.77542877705523E-02 
1583	 8.77442359428285E-02 
1584	 8.77466799963409E-02 
1585	 8.77378949854194E-02 
1586	 8.77428265507403E-02 
1587	 8.77663379599954E-02 
1588	 8.77838271664047E-02 
1589	 8.78038594286341E-02 
1590	 8.78178012668207E-02 
1591	 8.78220080620403E-02 
1592	 8.78399868937891E-02 
1593	 8.78717347809035E-02 
1594	 8.78884355943716E-02 
1595	 8.79081886027648E-02 
1596	 8.79204846741829E-02 
1597	 8.79086973774189E-02 
1598	 8.79094660504253E-02 
1599	 8.79168515503485E-02 
1600	 8.79266501287846E-02 
1601	 0.087948103352333 
1602	 8.79585010845929E-02 
1603	 8.79647762007668E-02 
1604	 8.79678664453498E-02 
1605	 8.79566243377251E-02 
1606	 8.79563144834204E-02 
1607	 8.79478352195745E-02 
1608	 8.79683999873789E-02 
1609	 8.79946599896472E-02 
1610	 8.80034122834367E-02 
1611	 8.80296201767006E-02 
1612	 0.0880396267559 
1613	 0.08804476420683 
1614	 8.80542868603063E-02 
1615	 8.80396529592928E-02 
1616	 8.80345715546508E-02 
1617	 8.80448916916185E-02 
1618	 8.80406696650301E-02 
1619	 8.80604971583965E-02 
1620	 8.80933364227006E-02 
1621	 8.81068953932914E-02 
1622	 8.81173116718578E-02 
1623	 8.81252664176605E-02 
1624	 8.81235199850141E-02 
1625	 8.81238072692618E-02 
1626	 8.81208606293782E-02 
1627	 8.81290773137345E-02 
1628	 8.81412059117455E-02 
1629	 8.81468105665696E-02 
1630	 8.81570037489468E-02 
1631	 8.81684651897025E-02 
1632	 8.81698945334451E-02 
1633	 8.81840659433018E-02 
1634	 8.82155011258173E-02 
1635	 8.82293634375945E-02 
1636	 0.088239369264961 
1637	 8.82453305774229E-02 
1638	 8.82454045982908E-02 
1639	 8.82417677847157E-02 
1640	 8.82263667185114E-02 
1641	 8.82292368670212E-02 
1642	 0.0882362705777 
1643	 8.82437035864729E-02 
1644	 8.82646734474244E-02 
1645	 8.82764576856575E-02 
1646	 0.088281203125625 
1647	 8.82887506503797E-02 
1648	 8.82997407050786E-02 
1649	 8.83062435067294E-02 
1650	 8.83091072859022E-02 
1651	 8.83119959728399E-02 
1652	 8.83111106649795E-02 
1653	 8.83158954923687E-02 
1654	 0.088326148304086 
1655	 8.83262377310959E-02 
1656	 8.83179587114888E-02 
1657	 0.088327421727229 
1658	 8.83414958908311E-02 
1659	 8.83491954631071E-02 
1660	 0.088374458610862 
1661	 8.83784632868519E-02 
1662	 8.83546878108771E-02 
1663	 8.83548904391295E-02 
1664	 8.83618834104732E-02 
1665	 0.088368372734054 
1666	 8.83851462950758E-02 
1667	 0.088395102042441 
1668	 8.84066823937195E-02 
1669	 8.84059142476369E-02 
1670	 8.83979011359319E-02 
1671	 8.83908079444069E-02 
1672	 8.83741128037383E-02 
1673	 8.83601072883174E-02 
1674	 8.83406280267275E-02 
1675	 8.83394621893108E-02 
1676	 8.83437255122452E-02 
1677	 0.08835076245855 
1678	 8.83815397684747E-02 
1679	 8.83898165615006E-02 
1680	 8.83816894151767E-02 
1681	 8.83849506225342E-02 
1682	 8.83868891129032E-02 
1683	 8.83903832995819E-02 
1684	 8.83977379138896E-02 
1685	 8.84080274031167E-02 
1686	 8.84133996729684E-02 
1687	 8.84308458596669E-02 
1688	 8.84686384003077E-02 
1689	 8.84837803028463E-02 
1690	 8.84875733278621E-02 
1691	 8.85037060650111E-02 
1692	 8.85213079283175E-02 
1693	 8.85254262213128E-02 
1694	 8.85315058316264E-02 
1695	 8.85383346523219E-02 
1696	 8.85292746073612E-02 
1697	 8.85247565995386E-02 
1698	 8.85240505832117E-02 
1699	 8.85354820939807E-02 
1700	 8.85581810341826E-02 
1701	 8.85554299744381E-02 
1702	 8.85575286178796E-02 
1703	 8.85483771832993E-02 
1704	 0.088496479212344 
1705	 8.84849636392258E-02 
1706	 8.84987567226485E-02 
1707	 8.85035622247417E-02 
1708	 0.088524362475116 
1709	 8.85245845225569E-02 
1710	 8.85093601875785E-02 
1711	 8.85086890749969E-02 
1712	 8.85036153385906E-02 
1713	 8.85026164881414E-02 
1714	 8.85099167900272E-02 
1715	 8.85206474077965E-02 
1716	 8.85322364087122E-02 
1717	 8.85425898530346E-02 
1718	 8.85693087219542E-02 
1719	 8.85718826914233E-02 
1720	 0.088551257382983 
1721	 8.85516230816608E-02 
1722	 8.85588041282353E-02 
1723	 8.85488370503714E-02 
1724	 8.85385407929642E-02 
1725	 8.85282243003475E-02 
1726	 8.84987255962698E-02 
1727	 8.84862418744635E-02 
1728	 8.84866123374767E-02 
1729	 8.84879283440605E-02 
1730	 8.84927113924712E-02 
1731	 8.84925924420083E-02 
1732	 8.84994454430377E-02 
1733	 8.85026184506437E-02 
1734	 8.85064575991497E-02 
1735	 8.84922651910162E-02 
1736	 8.84645115749116E-02 
1737	 8.84548053445896E-02 
1738	 8.84334443275655E-02 
1739	 8.84242610203269E-02 
1740	 8.84441904477505E-02 
1741	 8.84295499806626E-02 
1742	 8.83916405127644E-02 
1743	 0.088377455210213 
1744	 8.83636266422856E-02 
1745	 8.83593495131276E-02 
1746	 8.83693427153207E-02 
1747	 8.83694375859492E-02 
1748	 8.83564722392401E-02 
1749	 8.83436876070503E-02 
1750	 8.83534562514971E-02 
1751	 8.83443906660171E-02 
1752	 8.83361442180212E-02 
1753	 8.83306622348787E-02 
1754	 8.83281684877655E-02 
1755	 8.83263757040029E-02 
1756	 8.83171690788098E-02 
1757	 8.83152463015881E-02 
1758	 8.82801902961556E-02 
1759	 8.82515646086974E-02 
1760	 8.82400860494415E-02 
1761	 0.088202773340214 
1762	 8.81756607647933E-02 
1763	 0.08816100660678 
1764	 8.81505144004693E-02 
1765	 8.81659906916504E-02 
1766	 8.81882063208171E-02 
1767	 8.81944225418146E-02 
1768	 8.82026172688107E-02 
1769	 8.81784112777847E-02 
1770	 8.81262087563519E-02 
1771	 8.81027750661838E-02 
1772	 8.80901462064575E-02 
1773	 8.80823032733358E-02 
1774	 8.81112033657078E-02 
1775	 8.81531992084836E-02 
1776	 8.81371472077124E-02 
1777	 8.81116036459576E-02 
1778	 8.81004731267519E-02 
1779	 8.80647250272562E-02 
1780	 8.80588802342669E-02 
1781	 8.80668644978432E-02 
1782	 8.80658380858754E-02 
1783	 8.80497446962796E-02 
1784	 8.80343301048806E-02 
1785	 8.80140906688864E-02 
1786	 8.80067772944796E-02 
1787	 8.79929413360298E-02 
1788	 8.79986855767167E-02 
1789	 8.80497478003625E-02 
1790	 8.80509855942002E-02 
1791	 8.80272000466544E-02 
1792	 8.80283151425807E-02 
1793	 8.80078750665811E-02 
1794	 8.80050006817042E-02 
1795	 8.80274624679327E-02 
1796	 8.80452723157802E-02 
1797	 8.80664813154707E-02 
1798	 8.80737274004829E-02 
1799	 8.80891839354096E-02 
1800	 8.80974089388266E-02 
1801	 8.41693059199078E-02 
1802	 8.42208732805004E-02 
1803	 8.42450636179543E-02 
1804	 8.42607800287116E-02 
1805	 8.42901253357648E-02 
1806	 8.43225897030577E-02 
1807	 8.43879910916795E-02 
1808	 0.084429778610593 
1809	 8.44849428600558E-02 
1810	 8.45200118295412E-02 
1811	 8.45369451509242E-02 
1812	 8.45433658537396E-02 
1813	 8.45676068870527E-02 
1814	 8.45998239675386E-02 
1815	 8.46200884844053E-02 
1816	 8.46291703959249E-02 
1817	 8.46413010109725E-02 
1818	 8.46426463184741E-02 
1819	 8.46577464426732E-02 
1820	 8.46811339806224E-02 
1821	 8.46969559619289E-02 
1822	 8.47239814236209E-02 
1823	 8.47702749361373E-02 
1824	 8.48098364061853E-02 
1825	 8.48228352096458E-02 
1826	 8.48421515440488E-02 
1827	 8.48628124099712E-02 
1828	 0.08487038690525 
1829	 8.48765570880164E-02 
1830	 8.48829320647396E-02 
1831	 8.48834189590619E-02 
1832	 8.48669082362423E-02 
1833	 8.48632109292915E-02 
1834	 8.48491255981729E-02 
1835	 8.48610391181504E-02 
1836	 8.48903190364435E-02 
1837	 0.084922028954311 
1838	 8.49670536903406E-02 
1839	 8.49912295043302E-02 
1840	 8.50116884353774E-02 
1841	 8.50022831837832E-02 
1842	 8.49970599936736E-02 
1843	 8.50109577001818E-02 
1844	 8.50111684202432E-02 
1845	 8.50040987151183E-02 
1846	 8.50031231146412E-02 
1847	 8.49880594402649E-02 
1848	 0.084983057703676 
1849	 0.084992551339492 
1850	 8.49797390698027E-02 
1851	 8.49478641883182E-02 
1852	 8.49153000516312E-02 
1853	 8.49109095241529E-02 
1854	 8.48956914459389E-02 
1855	 8.48988778874122E-02 
1856	 8.49078762308655E-02 
1857	 0.084870013506794 
1858	 8.48274435877313E-02 
1859	 8.47968533428589E-02 
1860	 8.47616995274817E-02 
1861	 8.47216601021409E-02 
1862	 8.46830715894258E-02 
1863	 8.46576965564075E-02 
1864	 8.46180102507826E-02 
1865	 8.45777802494277E-02 
1866	 8.45662477549116E-02 
1867	 8.45276358083181E-02 
1868	 8.44908522180373E-02 
1869	 8.44554020780068E-02 
1870	 8.43937117273461E-02 
1871	 8.43278944699821E-02 
1872	 8.42600218864309E-02 
1873	 8.41814194185201E-02 
1874	 8.40900309331643E-02 
1875	 8.39659205447465E-02 
1876	 0.083835239714446 
1877	 8.37122290715087E-02 
1878	 8.35636728321169E-02 
1879	 8.34154971470385E-02 
1880	 0.083256859904232 
1881	 8.30818922654923E-02 
1882	 8.29012440468577E-02 
1883	 8.27054879190406E-02 
1884	 8.25339611368875E-02 
1885	 8.23366461042127E-02 
1886	 8.21109596931454E-02 
1887	 8.18969170033524E-02 
1888	 8.16270802520493E-02 
1889	 8.13425674232617E-02 
1890	 8.10824395328079E-02 
1891	 8.08131512717699E-02 
1892	 8.05283441342416E-02 
1893	 8.02538057681312E-02 
1894	 7.99890102018003E-02 
1895	 7.97122431690979E-02 
1896	 7.94294611550779E-02 
1897	 7.91560740713059E-02 
1898	 7.88781914415394E-02 
1899	 0.078587095923303 
1900	 7.82986804737453E-02 
1901	 0.078010250985015 
1902	 7.77414597637231E-02 
1903	 7.74854749072353E-02 
1904	 7.72487297754039E-02 
1905	 7.70328274768448E-02 
1906	 7.68180048988802E-02 
1907	 7.66267994948346E-02 
1908	 7.64299590244904E-02 
1909	 7.62275046907144E-02 
1910	 0.07605713754027 
1911	 7.59003276500319E-02 
1912	 7.57484639717547E-02 
1913	 7.56073881150003E-02 
1914	 7.54830878465776E-02 
1915	 7.53666278519193E-02 
1916	 0.075255323710353 
1917	 7.51527508547984E-02 
1918	 7.50769472757542E-02 
1919	 7.50017507387613E-02 
1920	 7.49238124192699E-02 
1921	 7.48715596868142E-02 
1922	 7.48181906759217E-02 
1923	 7.47615423797464E-02 
1924	 7.47201495501318E-02 
1925	 7.46944253423883E-02 
1926	 7.46597897515031E-02 
1927	 7.46258453785036E-02 
1928	 7.46062854156121E-02 
1929	 7.45620412237817E-02 
1930	 7.45375118137026E-02 
1931	 7.45324282411885E-02 
1932	 7.45339274521357E-02 
1933	 7.45686770969352E-02 
1934	 7.46068817428375E-02 
1935	 7.46298367510318E-02 
1936	 7.46382765100021E-02 
1937	 7.46658706846609E-02 
1938	 7.46857273150397E-02 
1939	 7.47225408399231E-02 
1940	 0.074778718717568 
1941	 7.48463259838258E-02 
1942	 7.48984551554126E-02 
1943	 0.074940597486717 
1944	 7.49874492721235E-02 
1945	 7.50343519523896E-02 
1946	 7.50782850936657E-02 
1947	 7.51222139363631E-02 
1948	 7.51675287978157E-02 
1949	 7.52083215417277E-02 
1950	 7.52549525437398E-02 
1951	 7.52963396755592E-02 
1952	 7.53625847181742E-02 
1953	 7.54338770435007E-02 
1954	 7.54945518743772E-02 
1955	 7.55705144302589E-02 
1956	 7.56417763662251E-02 
1957	 7.57131115458486E-02 
1958	 7.57726954533748E-02 
1959	 7.58525538764155E-02 
1960	 7.59487077139552E-02 
1961	 7.60392111736296E-02 
1962	 7.61340168810235E-02 
1963	 7.62339060710994E-02 
1964	 7.63392957425613E-02 
1965	 7.64324937138997E-02 
1966	 7.65287138364547E-02 
1967	 7.66292560861484E-02 
1968	 7.67384970781432E-02 
1969	 7.68581057084242E-02 
1970	 7.69594542611048E-02 
1971	 7.70665142389098E-02 
1972	 7.71588421495967E-02 
1973	 7.72188403778906E-02 
1974	 0.077298524989609 
1975	 7.73684361747646E-02 
1976	 7.74798610455207E-02 
1977	 7.75831819035405E-02 
1978	 7.76813630063248E-02 
1979	 7.77899024046785E-02 
1980	 7.78794303397269E-02 
1981	 0.07797389113447 
1982	 7.80547222204746E-02 
1983	 7.81635531615987E-02 
1984	 7.82968253545342E-02 
1985	 7.84051647715544E-02 
1986	 7.85252178861742E-02 
1987	 7.86292789349142E-02 
1988	 7.87107994232388E-02 
1989	 7.87823590300697E-02 
1990	 7.88658344987297E-02 
1991	 7.89640286278913E-02 
1992	 7.90560839747032E-02 
1993	 7.91384278512559E-02 
1994	 7.92440791441294E-02 
1995	 7.93752225949373E-02 
1996	 7.94784261720677E-02 
1997	 7.95884267424101E-02 
1998	 7.96840249157483E-02 
1999	 7.97430545077938E-02 
2000	 7.98246054820539E-02 
2001	 7.99065213090164E-02 
2002	 8.00022241700785E-02 
2003	 8.01206114358878E-02 
2004	 8.02315885120161E-02 
2005	 8.03372188049404E-02 
2006	 8.04569406216486E-02 
2007	 8.05533295121178E-02 
2008	 8.06207382615587E-02 
2009	 8.07065914047902E-02 
2010	 8.07906022134375E-02 
2011	 0.080875030360259 
2012	 8.09727794319821E-02 
2013	 8.10636546385245E-02 
2014	 8.11564479975824E-02 
2015	 8.12271047118339E-02 
2016	 8.13100721925981E-02 
2017	 8.13974774725719E-02 
2018	 8.14840406491163E-02 
2019	 8.15794587953142E-02 
2020	 0.081663945595428 
2021	 0.081732314710815 
2022	 8.18210562935733E-02 
2023	 8.19132058509912E-02 
2024	 8.20073610876852E-02 
2025	 8.21245744497443E-02 
2026	 8.22275189818456E-02 
2027	 8.23153363448491E-02 
2028	 8.24198724037834E-02 
2029	 8.25083425840417E-02 
2030	 8.25972731325874E-02 
2031	 8.26626180031595E-02 
2032	 8.26990948614064E-02 
2033	 8.27649737094275E-02 
2034	 0.082813511090289 
2035	 8.28957297204233E-02 
2036	 8.30299469425713E-02 
2037	 8.31257431793727E-02 
2038	 8.32270600741877E-02 
2039	 8.33086955096271E-02 
2040	 8.33663199707013E-02 
2041	 8.34136139313866E-02 
2042	 8.34688342164258E-02 
2043	 8.35285569066133E-02 
2044	 8.35865467047214E-02 
2045	 8.36477835514555E-02 
2046	 8.37105186877532E-02 
2047	 8.37797689526971E-02 
2048	 8.38295570744109E-02 
2049	 8.38639152626076E-02 
2050	 8.39178764978274E-02 
2051	 8.39739410030282E-02 
2052	 8.40224957514449E-02 
2053	 8.40797415873351E-02 
2054	 8.41363035955488E-02 
2055	 8.41718013480628E-02 
2056	 8.42224189901099E-02 
2057	 8.42806406032839E-02 
2058	 8.43625664976982E-02 
2059	 8.44227549848807E-02 
2060	 8.44766871156093E-02 
2061	 8.45329332889689E-02 
2062	 8.45786266018917E-02 
2063	 8.46354306205005E-02 
2064	 8.47158607626116E-02 
2065	 8.47661502712014E-02 
2066	 8.47961427645516E-02 
2067	 8.48390116791171E-02 
2068	 8.48796826587975E-02 
2069	 0.084896648503809 
2070	 8.49454192869349E-02 
2071	 8.50177127217561E-02 
2072	 8.50753627176893E-02 
2073	 8.51350700640554E-02 
2074	 8.51950768718509E-02 
2075	 8.52573687212755E-02 
2076	 8.53144930849976E-02 
2077	 8.53689671879796E-02 
2078	 8.54245137966955E-02 
2079	 8.54691311602041E-02 
2080	 8.55271344857077E-02 
2081	 0.085605796993292 
2082	 8.56666618425625E-02 
2083	 8.57290716215972E-02 
2084	 8.57835308014672E-02 
2085	 8.58255749339272E-02 
2086	 8.58440888690781E-02 
2087	 8.58841005559002E-02 
2088	 8.59288414627313E-02 
2089	 8.59661603593253E-02 
2090	 8.60038658977458E-02 
2091	 8.60439318521192E-02 
2092	 8.60681307126412E-02 
2093	 8.61148560918737E-02 
2094	 8.61934843911403E-02 
2095	 8.62462599920762E-02 
2096	 8.62797284349432E-02 
2097	 8.63375685213159E-02 
2098	 8.63824376290634E-02 
2099	 8.64526483660145E-02 
2100	 8.65351722319292E-02 
2101	 8.66678245697001E-02 
2102	 8.67358767660142E-02 
2103	 8.67809127085303E-02 
2104	 8.68344827046439E-02 
2105	 8.68590753193374E-02 
2106	 8.69015917921319E-02 
2107	 8.69576900891422E-02 
2108	 8.70129873778038E-02 
2109	 8.70659507724775E-02 
2110	 8.71198391537042E-02 
2111	 8.71823221584522E-02 
2112	 0.087242081501759 
2113	 8.73026180331591E-02 
2114	 8.73483818762665E-02 
2115	 8.74133135913976E-02 
2116	 8.74910340251935E-02 
2117	 8.75553668047162E-02 
2118	 8.76240032431975E-02 
2119	 8.76817005877136E-02 
2120	 0.087730390188294 
2121	 8.77753903986185E-02 
2122	 8.78116086070046E-02 
2123	 8.78538690052454E-02 
2124	 8.78954902561149E-02 
2125	 8.79319978083232E-02 
2126	 0.087970645955964 
2127	 8.80059142018719E-02 
2128	 8.80312161882804E-02 
2129	 8.80586942128705E-02 
2130	 8.80812884097563E-02 
2131	 8.81088668009431E-02 
2132	 8.81543839311916E-02 
2133	 0.088219112301229 
2134	 8.82560976089109E-02 
2135	 0.088300057117383 
2136	 8.83323245810136E-02 
2137	 8.83414549525562E-02 
2138	 8.83528544220582E-02 
2139	 8.83776803441886E-02 
2140	 8.83770374579978E-02 
2141	 8.83511698490952E-02 
2142	 8.83281709969452E-02 
2143	 8.82850067838689E-02 
2144	 8.82579833581959E-02 
2145	 8.82385334057498E-02 
2146	 8.82142896269496E-02 
2147	 8.81863011250053E-02 
2148	 8.81793417460815E-02 
2149	 8.81596098517725E-02 
2150	 8.81373977682187E-02 
2151	 8.81069471242314E-02 
2152	 8.80735244234989E-02 
2153	 8.80388067543153E-02 
2154	 8.79953446757367E-02 
2155	 8.79522190584481E-02 
2156	 8.79175081465717E-02 
2157	 8.78686657036805E-02 
2158	 8.77916964120498E-02 
2159	 8.77421714477473E-02 
2160	 8.77170097193304E-02 
2161	 8.76652365685447E-02 
2162	 8.76192727045003E-02 
2163	 8.75634448600329E-02 
2164	 8.74848628553044E-02 
2165	 8.73890589947397E-02 
2166	 8.73253362684258E-02 
2167	 8.72748278746305E-02 
2168	 8.72231750093497E-02 
2169	 8.71880911564469E-02 
2170	 8.71375632561849E-02 
2171	 8.70812093342249E-02 
2172	 8.70286257495882E-02 
2173	 8.69794116336405E-02 
2174	 8.69169044020736E-02 
2175	 8.68455901679162E-02 
2176	 8.67803509054818E-02 
2177	 8.67017493285839E-02 
2178	 8.66364775642907E-02 
2179	 8.65796685924887E-02 
2180	 8.65278316102679E-02 
2181	 8.64898018236544E-02 
2182	 8.64435338491508E-02 
2183	 8.63927832966464E-02 
2184	 8.63558305789113E-02 
2185	 8.63091939358279E-02 
2186	 8.62563002923231E-02 
2187	 8.61977138877696E-02 
2188	 8.61332129007036E-02 
2189	 8.60796915102469E-02 
2190	 8.60122578286235E-02 
2191	 8.59713898219876E-02 
2192	 8.59664782431183E-02 
2193	 8.59306689561461E-02 
2194	 8.58815420161925E-02 
2195	 8.58504610353983E-02 
2196	 8.58149604290434E-02 
2197	 8.57830241303266E-02 
2198	 8.57735250806783E-02 
2199	 8.57535539820848E-02 
2200	 8.57226964055711E-02 
2201	 8.56920892487565E-02 
2202	 8.56617043697682E-02 
2203	 0.085626592870564 
2204	 8.56082174675121E-02 
2205	 8.55877443209855E-02 
2206	 8.55878910409604E-02 
2207	 8.56155807122792E-02 
2208	 0.085622979650466 
2209	 8.56345151636267E-02 
2210	 8.56392343922238E-02 
2211	 8.56306247561378E-02 
2212	 0.085632609442063 
2213	 8.56452579757489E-02 
2214	 8.56431660124502E-02 
2215	 8.56295908979312E-02 
2216	 8.56300453136506E-02 
2217	 8.56341224060688E-02 
2218	 8.56289568993248E-02 
2219	 8.56300815191593E-02 
2220	 8.56277413787474E-02 
2221	 8.56119480692257E-02 
2222	 8.55964756899017E-02 
2223	 8.55919783782344E-02 
2224	 0.085602467621478 
2225	 8.56160297562818E-02 
2226	 8.56300804388654E-02 
2227	 8.56676542981491E-02 
2228	 8.57314461457132E-02 
2229	 8.57685208554786E-02 
2230	 8.58243486019335E-02 
2231	 8.58445411252654E-02 
2232	 8.58165436123316E-02 
2233	 8.58293688440047E-02 
2234	 0.085846580566962 
2235	 8.58652031398196E-02 
2236	 8.59222479355359E-02 
2237	 8.59366714426468E-02 
2238	 8.59090781791542E-02 
2239	 8.59142706235619E-02 
2240	 8.59210789709288E-02 
2241	 8.59233078267055E-02 
2242	 0.08594209738983 
2243	 8.59553186194652E-02 
2244	 8.59488960389999E-02 
2245	 8.59520332397419E-02 
2246	 8.59887587975927E-02 
2247	 8.60086530549515E-02 
2248	 8.60323955681531E-02 
2249	 8.60656991624165E-02 
2250	 0.086083532106178 
2251	 8.60748868019816E-02 
2252	 8.61175797661676E-02 
2253	 8.61897049476276E-02 
2254	 8.62278604956679E-02 
2255	 0.086304365731507 
2256	 8.63194473932793E-02 
2257	 8.62562621227581E-02 
2258	 8.62487860164607E-02 
2259	 8.62501584376609E-02 
2260	 8.62390714233648E-02 
2261	 8.62306720530225E-02 
2262	 8.62433713687098E-02 
2263	 8.62395481389448E-02 
2264	 8.62688199241894E-02 
2265	 8.63650321733776E-02 
2266	 8.64132371407469E-02 
2267	 8.64562340865621E-02 
2268	 8.64844220009779E-02 
2269	 8.64752456447076E-02 
2270	 8.64751700297094E-02 
2271	 8.64834165501451E-02 
2272	 8.65125098583095E-02 
2273	 8.65671624957032E-02 
2274	 8.65950170302132E-02 
2275	 8.66069598326741E-02 
2276	 0.086596529459957 
2277	 8.66065484068764E-02 
2278	 8.66027135833838E-02 
2279	 8.66153644160968E-02 
2280	 8.66479458004854E-02 
2281	 8.66805245591703E-02 
2282	 8.67165868441108E-02 
2283	 8.67478359776483E-02 
2284	 8.67852103858698E-02 
2285	 8.68235407078465E-02 
2286	 8.68640057100407E-02 
2287	 8.68830241240927E-02 
2288	 8.68970994713078E-02 
2289	 0.086915553195837 
2290	 8.69039048778454E-02 
2291	 8.69168183626989E-02 
2292	 8.69594972727709E-02 
2293	 8.69890890017697E-02 
2294	 8.70096364301991E-02 
2295	 0.087047558651248 
2296	 8.71184164983104E-02 
2297	 8.71377702598523E-02 
2298	 8.71706338935137E-02 
2299	 0.08720494506679 
2300	 8.71648319829161E-02 
2301	 8.71149555082854E-02 
2302	 8.70855644102294E-02 
2303	 0.087021978077159 
2304	 8.70155128083975E-02 
2305	 8.70661832196266E-02 
2306	 8.70842088499676E-02 
2307	 8.71137556011558E-02 
2308	 8.71323431874084E-02 
2309	 8.71302289537799E-02 
2310	 8.71479985938507E-02 
2311	 8.71863054095501E-02 
2312	 8.71939822053022E-02 
2313	 8.72026319183159E-02 
2314	 8.71954891902145E-02 
2315	 8.71510141646817E-02 
2316	 8.71335114573122E-02 
2317	 8.71174601534534E-02 
2318	 8.71108335702349E-02 
2319	 8.71147569354922E-02 
2320	 8.71197154158949E-02 
2321	 8.71199894094617E-02 
2322	 8.71393483167317E-02 
2323	 8.71946484321967E-02 
2324	 8.72207465920828E-02 
2325	 0.087257185236596 
2326	 8.72809347660927E-02 
2327	 8.72958832847143E-02 
2328	 8.72485567127897E-02 
2329	 8.72658895959618E-02 
2330	 8.72418892847115E-02 
2331	 8.72743640498831E-02 
2332	 8.74055725932078E-02 
2333	 8.74904426473587E-02 
2334	 8.75993119341929E-02 
2335	 8.76438281485118E-02 
2336	 8.75900916514701E-02 
2337	 8.75803180586189E-02 
2338	 8.75956615362216E-02 
2339	 8.75897153296584E-02 
2340	 8.76604184556667E-02 
2341	 8.77245029203185E-02 
2342	 8.77002326453657E-02 
2343	 8.77230825359641E-02 
2344	 8.77034031024263E-02 
2345	 8.77040634778739E-02 
2346	 0.087697555194745 
2347	 8.77087689170847E-02 
2348	 8.77657158577732E-02 
2349	 8.77632949733096E-02 
2350	 8.77394081855859E-02 
2351	 8.77023136591325E-02 
2352	 8.75853901582659E-02 
2353	 8.75417696829364E-02 
2354	 8.75156561672244E-02 
2355	 8.75177338032921E-02 
2356	 8.76032639938558E-02 
2357	 8.76267890194367E-02 
2358	 8.76391064414351E-02 
2359	 8.76408608455956E-02 
2360	 8.76162108880252E-02 
2361	 8.75761400723741E-02 
2362	 8.75037909249406E-02 
2363	 8.74636855151194E-02 
2364	 8.74057657161727E-02 
2365	 8.73916174851541E-02 
2366	 8.74680896937977E-02 
2367	 8.74653791019456E-02 
2368	 8.73904290396487E-02 
2369	 8.73777982919595E-02 
2370	 8.73580318329436E-02 
2371	 8.73643981668564E-02 
2372	 8.73821408829436E-02 
2373	 8.74606416080234E-02 
2374	 0.087525497751535 
2375	 8.74984193991844E-02 
2376	 8.74869943878565E-02 
2377	 0.087471435041942 
2378	 0.087378524808224 
2379	 8.73117847614379E-02 
2380	 8.73158988405531E-02 
2381	 8.73212964806523E-02 
2382	 8.72901051655091E-02 
2383	 8.72751635854424E-02 
2384	 8.72533152444159E-02 
2385	 8.71729458940181E-02 
2386	 8.71347790524591E-02 
2387	 8.70837566856487E-02 
2388	 8.70047220053628E-02 
2389	 8.69580608715853E-02 
2390	 8.69018180908979E-02 
2391	 8.69074436061265E-02 
2392	 8.68922890400388E-02 
2393	 8.69111196208405E-02 
2394	 8.70207297695851E-02 
2395	 8.70559499510946E-02 
2396	 8.71063296731413E-02 
2397	 8.70733766858833E-02 
2398	 8.68718956895815E-02 
2399	 8.67244397292528E-02 
2400	 8.66551314675781E-02 
2401	 8.66221340508953E-02 
2402	 8.66662639532249E-02 
2403	 8.66397042050781E-02 
2404	 8.64626888101987E-02 
2405	 8.62990383801768E-02 
2406	 8.62121052184773E-02 
2407	 8.61529279397789E-02 
2408	 8.61542547312763E-02 
2409	 8.61858859753838E-02 
2410	 8.60512970702343E-02 
2411	 8.59417605686051E-02 
2412	 8.59546735763702E-02 
2413	 8.59614905915875E-02 
2414	 0.086085778041807 
2415	 0.086187070939024 
2416	 8.61946826231339E-02 
2417	 8.60726299055161E-02 
2418	 8.60193589601013E-02 
2419	 8.59574622882785E-02 
2420	 8.59033274873575E-02 
2421	 8.59105065799763E-02 
2422	 8.58629561568064E-02 
2423	 8.57017560987987E-02 
2424	 0.085642327311571 
2425	 8.56573646043423E-02 
2426	 8.55617988594813E-02 
2427	 8.54623663387452E-02 
2428	 8.53854631805766E-02 
2429	 8.51748039722571E-02 
2430	 8.51619297291091E-02 
2431	 8.53310068924185E-02 
2432	 8.53497351435861E-02 
2433	 0.085397790853216 
2434	 8.53949984347764E-02 
2435	 8.52926804066577E-02 
2436	 8.52675126003514E-02 
2437	 8.52712622102398E-02 
2438	 8.52764749964025E-02 
2439	 8.52750046988563E-02 
2440	 8.52519177164786E-02 
2441	 8.53032108527893E-02 
2442	 8.52557155428652E-02 
2443	 8.51006171450812E-02 
2444	 0.08505220866333 
2445	 8.49615172640701E-02 
2446	 8.49227602131819E-02 
2447	 8.50178873749805E-02 
2448	 8.49542208752346E-02 
2449	 8.48540058880952E-02 
2450	 8.47705324852415E-02 
2451	 8.45387403863989E-02 
2452	 8.44442617155619E-02 
2453	 8.44601117674059E-02 
2454	 0.084401493049378 
2455	 0.084412336974334 
2456	 8.44071688055859E-02 
2457	 0.084279514156688 
2458	 8.42552050151138E-02 
2459	 0.084363875713422 
2460	 8.42401423482991E-02 
2461	 8.40408560543814E-02 
2462	 8.39614393883664E-02 
2463	 8.37516143342904E-02 
2464	 8.36553586706896E-02 
2465	 8.37312256284032E-02 
2466	 0.083711490323791 
2467	 8.36464016405671E-02 
2468	 8.35602167822884E-02 
2469	 8.35047285104797E-02 
2470	 8.33796740658492E-02 
2471	 8.32321254230989E-02 
2472	 8.32006241111065E-02 
2473	 8.32289091808441E-02 
2474	 8.33725722644708E-02 
2475	 8.35050183094876E-02 
2476	 8.34606053986445E-02 
2477	 8.35165801798145E-02 
2478	 8.33637333619176E-02 
2479	 8.30474117689532E-02 
2480	 8.29888805105172E-02 
2481	 8.27780959012049E-02 
2482	 8.27114179706189E-02 
2483	 8.28663487513999E-02 
2484	 8.27745886184411E-02 
2485	 8.26516742200731E-02 
2486	 8.26722895699028E-02 
2487	 8.27170836369732E-02 
2488	 8.27648030950841E-02 
2489	 8.28724499300581E-02 
2490	 8.28478517351371E-02 
2491	 8.25906052327952E-02 
2492	 8.24712388962759E-02 
2493	 8.26347617212626E-02 
2494	 8.27079348116139E-02 
2495	 8.28368084750878E-02 
2496	 8.29755256588558E-02 
2497	 8.27463781761933E-02 
2498	 8.23730828943204E-02 
2499	 8.21700445040411E-02 
2500	 8.21519019316957E-02 
