Wavelength	MM_3500004.asd
350	 4.93964076847284E-02 
351	 5.18792699591603E-02 
352	 4.42354155283343E-02 
353	 3.44652544010524E-02 
354	 4.25762637995596E-02 
355	 0.045942364844603 
356	 4.47323881283287E-02 
357	 4.41500507950382E-02 
358	 4.47647001534403E-02 
359	 3.96179153423387E-02 
360	 3.40633932840106E-02 
361	 3.93949081188771E-02 
362	 3.97832746703099E-02 
363	 3.80465869409597E-02 
364	 3.68394620914208E-02 
365	 3.46630765176221E-02 
366	 3.20102759311577E-02 
367	 3.21849741341532E-02 
368	 3.65661733520986E-02 
369	 3.72461692503434E-02 
370	 3.59663145089454E-02 
371	 3.53663440480488E-02 
372	 3.78153572781908E-02 
373	 3.73974376332064E-02 
374	 3.89370290129415E-02 
375	 4.26725308767231E-02 
376	 3.82693351060481E-02 
377	 3.65560233544676E-02 
378	 3.95545580963366E-02 
379	 4.44225269835258E-02 
380	 4.09075080659289E-02 
381	 3.75172745906109E-02 
382	 3.79647773360495E-02 
383	 4.12792791464692E-02 
384	 4.36545806211269E-02 
385	 4.29435414652182E-02 
386	 4.01580154275898E-02 
387	 4.15214557418212E-02 
388	 4.26922484396353E-02 
389	 4.30990018096819E-02 
390	 4.32571576086385E-02 
391	 4.28899605558917E-02 
392	 4.36710545749197E-02 
393	 4.49741553487802E-02 
394	 4.44633764540073E-02 
395	 4.52457880738849E-02 
396	 4.61874203969157E-02 
397	 4.66081418502054E-02 
398	 4.85939139129441E-02 
399	 4.85473941257188E-02 
400	 4.76775917140644E-02 
401	 4.85068156121217E-02 
402	 4.99876104579527E-02 
403	 5.15292634093932E-02 
404	 5.23715730274957E-02 
405	 5.16676956108821E-02 
406	 5.15609377719913E-02 
407	 5.23777052159293E-02 
408	 0.053439707421085 
409	 5.23798313680618E-02 
410	 5.29634072210478E-02 
411	 5.42104730516473E-02 
412	 5.36641868437388E-02 
413	 5.59182992728052E-02 
414	 5.69486640066506E-02 
415	 5.56833582896288E-02 
416	 5.56400700066216E-02 
417	 5.56250291506066E-02 
418	 5.55973182149558E-02 
419	 5.57246452206312E-02 
420	 5.62430608884798E-02 
421	 5.56515299857384E-02 
422	 5.48845613198749E-02 
423	 5.60592237625495E-02 
424	 5.60369916251292E-02 
425	 5.55358222630236E-02 
426	 5.52732171612313E-02 
427	 5.50258389700437E-02 
428	 5.47064197356951E-02 
429	 0.054392819097751 
430	 5.42047159677322E-02 
431	 5.41977387412908E-02 
432	 0.053964145815442 
433	 5.37120195704812E-02 
434	 5.41897044799834E-02 
435	 5.41295267813718E-02 
436	 0.054063364866894 
437	 5.43495186204431E-02 
438	 5.38445454220274E-02 
439	 5.39721064843878E-02 
440	 0.054570615040623 
441	 5.47590098601058E-02 
442	 5.48307216245501E-02 
443	 5.52212997908554E-02 
444	 5.58682414065859E-02 
445	 0.055950868559011 
446	 5.60998834930834E-02 
447	 5.63779624712211E-02 
448	 5.66969796871703E-02 
449	 5.70362630975062E-02 
450	 5.75303416903404E-02 
451	 5.80322907549559E-02 
452	 5.81899142314167E-02 
453	 0.05838905176934 
454	 5.86108557499238E-02 
455	 5.88397065316234E-02 
456	 5.92930676062415E-02 
457	 5.94668145467071E-02 
458	 0.059494684433277 
459	 5.97315650087135E-02 
460	 5.97843557533167E-02 
461	 5.96594758556031E-02 
462	 5.95810291621576E-02 
463	 6.00289298074792E-02 
464	 6.02196280837662E-02 
465	 6.02423697675421E-02 
466	 6.03832960181593E-02 
467	 6.06664744902326E-02 
468	 6.08605697590926E-02 
469	 6.08573088656101E-02 
470	 6.06789528483759E-02 
471	 6.06143457337186E-02 
472	 6.05722021369749E-02 
473	 6.05348991069055E-02 
474	 6.08680308755573E-02 
475	 6.10611595773288E-02 
476	 6.09741719939101E-02 
477	 6.07281215992945E-02 
478	 6.09570230499451E-02 
479	 6.11906797225681E-02 
480	 6.12125288893159E-02 
481	 6.12898208115582E-02 
482	 6.14471501347348E-02 
483	 6.15808462807294E-02 
484	 6.15919993879622E-02 
485	 6.15907669563352E-02 
486	 6.14586426345289E-02 
487	 6.12755930335356E-02 
488	 6.12774196872273E-02 
489	 6.14118088896508E-02 
490	 6.15396792705408E-02 
491	 6.15650908126649E-02 
492	 6.15309576059597E-02 
493	 6.14370382112171E-02 
494	 6.14636701410007E-02 
495	 6.17833325031307E-02 
496	 6.18720212694982E-02 
497	 6.17748099025326E-02 
498	 6.16892053088414E-02 
499	 6.19569079154373E-02 
500	 6.20484163134975E-02 
501	 6.20008936610959E-02 
502	 6.19906217661766E-02 
503	 6.19854848437445E-02 
504	 6.20514935353578E-02 
505	 6.21020760331775E-02 
506	 6.19364820711161E-02 
507	 6.20240517017544E-02 
508	 6.22013797220285E-02 
509	 6.22671313813714E-02 
510	 6.22656238900212E-02 
511	 6.22296566621856E-02 
512	 0.062165291901805 
513	 0.062073123865485 
514	 6.20134878285606E-02 
515	 6.21674478769564E-02 
516	 6.24841444585597E-02 
517	 6.25152427127493E-02 
518	 6.24124118603649E-02 
519	 6.23003484817883E-02 
520	 6.22937048764154E-02 
521	 6.24557717333963E-02 
522	 0.062514291337919 
523	 6.24478627972336E-02 
524	 6.25093780896514E-02 
525	 6.25424748122115E-02 
526	 6.24934613557415E-02 
527	 6.24000650709024E-02 
528	 6.25230111889502E-02 
529	 6.25877193510573E-02 
530	 6.26132863219312E-02 
531	 0.062780128573703 
532	 6.27000875048905E-02 
533	 0.062624402988075 
534	 6.27312089632312E-02 
535	 6.28789510707837E-02 
536	 6.29570695953464E-02 
537	 6.29606352684182E-02 
538	 6.29494444058897E-02 
539	 6.30372045228933E-02 
540	 6.31227742402337E-02 
541	 6.31622857683691E-02 
542	 6.32108753085117E-02 
543	 6.32341145909257E-02 
544	 6.33106348242458E-02 
545	 0.063483878099393 
546	 6.35466275218983E-02 
547	 0.063576840355379 
548	 6.36172236590734E-02 
549	 6.36727828051868E-02 
550	 6.37431561773936E-02 
551	 6.38311254528019E-02 
552	 0.063935891293344 
553	 0.06404652554119 
554	 0.064169698697489 
555	 6.43239006926763E-02 
556	 0.064522990047877 
557	 6.46803560510129E-02 
558	 6.48558203844435E-02 
559	 6.50867248513091E-02 
560	 6.53524800175217E-02 
561	 6.54985628094839E-02 
562	 6.56475013796901E-02 
563	 6.59629900381808E-02 
564	 6.62644793587191E-02 
565	 6.64222973579481E-02 
566	 6.65194935882061E-02 
567	 0.066862319106563 
568	 6.72211624694749E-02 
569	 6.75657620658388E-02 
570	 6.79183592528657E-02 
571	 0.068318615828895 
572	 6.87449162066692E-02 
573	 0.069190281970809 
574	 6.96492708018881E-02 
575	 6.99776797453563E-02 
576	 7.03709261281372E-02 
577	 7.09080615964826E-02 
578	 7.12914526843898E-02 
579	 7.16988930041451E-02 
580	 7.21522641518082E-02 
581	 7.26093813645022E-02 
582	 7.30328832536219E-02 
583	 7.35052103631938E-02 
584	 7.40546519291576E-02 
585	 7.46226770627807E-02 
586	 7.52027626850983E-02 
587	 7.57618530476182E-02 
588	 7.62933225852699E-02 
589	 7.69339730287481E-02 
590	 7.75576612935313E-02 
591	 7.81321276299275E-02 
592	 7.87213053215563E-02 
593	 7.93316949634215E-02 
594	 7.99821289827204E-02 
595	 8.06454357865307E-02 
596	 8.11705986817279E-02 
597	 8.16769119097304E-02 
598	 8.22018236660817E-02 
599	 8.27338631266287E-02 
600	 8.32150298008544E-02 
601	 8.37010369697479E-02 
602	 8.42094042190799E-02 
603	 8.46680097182156E-02 
604	 8.51282865966789E-02 
605	 8.55691725935037E-02 
606	 8.59605140936469E-02 
607	 8.63599132280648E-02 
608	 8.67600263651956E-02 
609	 8.71783666782181E-02 
610	 8.76616336898317E-02 
611	 0.088009542622934 
612	 8.83169835539536E-02 
613	 8.86864730039431E-02 
614	 8.89897886094699E-02 
615	 8.92538687887059E-02 
616	 0.089508846691767 
617	 8.97813931623363E-02 
618	 9.00454781242543E-02 
619	 9.02592144617938E-02 
620	 9.04287912326319E-02 
621	 9.06679279092952E-02 
622	 9.09106307885024E-02 
623	 9.11056780090698E-02 
624	 9.12332071918252E-02 
625	 0.091454320607577 
626	 9.16423316291481E-02 
627	 9.17578106029005E-02 
628	 9.19049503271749E-02 
629	 9.21026216774325E-02 
630	 9.22831578223814E-02 
631	 9.23929803373963E-02 
632	 9.25373029078693E-02 
633	 9.26891785377348E-02 
634	 9.28148524856431E-02 
635	 9.28883177809368E-02 
636	 9.30695336176198E-02 
637	 9.32511724570855E-02 
638	 9.33566622778367E-02 
639	 9.35021637569735E-02 
640	 9.36477370712367E-02 
641	 9.37958131612894E-02 
642	 9.39600623283897E-02 
643	 9.41136993177936E-02 
644	 9.42035202663537E-02 
645	 9.42580974579148E-02 
646	 9.44263808911133E-02 
647	 0.09458525111745 
648	 9.47290730741798E-02 
649	 9.48776911065822E-02 
650	 9.50037912704013E-02 
651	 9.51737738218456E-02 
652	 9.53704445069732E-02 
653	 9.55075502050783E-02 
654	 9.56466417409342E-02 
655	 9.57642438786479E-02 
656	 9.58757399516415E-02 
657	 9.61435452487603E-02 
658	 9.63565446206083E-02 
659	 9.65141838943354E-02 
660	 9.67058992371429E-02 
661	 9.68680790479376E-02 
662	 9.70260382299164E-02 
663	 9.72072545809147E-02 
664	 9.74324058588648E-02 
665	 9.76125952202766E-02 
666	 9.77924534828328E-02 
667	 0.09802458061761 
668	 9.82149465454123E-02 
669	 9.84497572708427E-02 
670	 9.87195830009256E-02 
671	 9.89342677366941E-02 
672	 9.91009610675188E-02 
673	 9.92907333996105E-02 
674	 9.95397938159078E-02 
675	 9.97782285576363E-02 
676	 0.100014298650053 
677	 0.100261388868793 
678	 0.100532709722978 
679	 0.100808068297376 
680	 0.101062105395036 
681	 0.101319831081922 
682	 0.101671723310314 
683	 0.101932682574482 
684	 0.102157159987814 
685	 0.102428842103529 
686	 0.102683936244581 
687	 0.10299392049126 
688	 0.103331736283573 
689	 0.103606122345404 
690	 0.103867536450489 
691	 0.104151924850161 
692	 0.104462848563206 
693	 0.104743085427415 
694	 0.105031418797209 
695	 0.105342626503526 
696	 0.105675565424665 
697	 0.105996781959794 
698	 0.10629230753754 
699	 0.106569170697747 
700	 0.106855133721224 
701	 0.10719246796249 
702	 0.107511241261504 
703	 0.107770106954952 
704	 0.108075238109249 
705	 0.10840843192064 
706	 0.10871885734264 
707	 0.108958859042985 
708	 0.109271178514074 
709	 0.109605761938751 
710	 0.10991778119665 
711	 0.110201674953681 
712	 0.110490044712564 
713	 0.11076487707968 
714	 0.111013087463146 
715	 0.111292864302246 
716	 0.111597979791205 
717	 0.111894125044955 
718	 0.112133715605427 
719	 0.112349592484861 
720	 0.11260692980814 
721	 0.112903133837836 
722	 0.113097897229879 
723	 0.113282340845133 
724	 0.113499445577325 
725	 0.113749563459093 
726	 0.113899065991804 
727	 0.114095023833273 
728	 0.11434347821628 
729	 0.114512461791293 
730	 0.114657591608216 
731	 0.114819158413164 
732	 0.114993168402445 
733	 0.115068796713266 
734	 0.115173867050221 
735	 0.11529863132891 
736	 0.115386150938821 
737	 0.115471046660075 
738	 0.115547174337924 
739	 0.115616394686307 
740	 0.115690979666637 
741	 0.115745308691333 
742	 0.115758516769093 
743	 0.11574124601101 
744	 0.115788009789587 
745	 0.115795677788506 
746	 0.115771621977922 
747	 0.115767991286178 
748	 0.115745027642253 
749	 0.115704866813316 
750	 0.11565732380323 
751	 0.115616339994575 
752	 0.115533249907879 
753	 0.115430492141083 
754	 0.115335524428221 
755	 0.115237168817379 
756	 0.115142218153129 
757	 0.115052593449783 
758	 0.114962125793292 
759	 0.114832136121683 
760	 0.11467370871118 
761	 0.114514476459204 
762	 0.114393852927192 
763	 0.114227696926093 
764	 0.114049427992516 
765	 0.113897755769524 
766	 0.113740088390521 
767	 0.113581099766942 
768	 0.113415504979859 
769	 0.113230725497475 
770	 0.112994196614623 
771	 0.112786067365997 
772	 0.112617581745849 
773	 0.11240910845811 
774	 0.112247198572481 
775	 0.112075046853017 
776	 0.111847487457802 
777	 0.111638223644514 
778	 0.111412672664813 
779	 0.111203606025875 
780	 0.111047946606877 
781	 0.110811559399495 
782	 0.110603512057623 
783	 0.110425637950526 
784	 0.110156790603099 
785	 0.109953856792385 
786	 0.10976057129371 
787	 0.109524905277722 
788	 0.109300341028085 
789	 0.109129345592961 
790	 0.108946313591465 
791	 0.10868231383395 
792	 0.108491903375581 
793	 0.108295555065138 
794	 0.108079030447395 
795	 0.10789005522788 
796	 0.107678324604684 
797	 0.107460089354888 
798	 0.107258217869528 
799	 0.107089324716345 
800	 0.10689835638154 
801	 0.1067130641266 
802	 0.106558796518224 
803	 0.106350060297516 
804	 0.106116181620425 
805	 0.105914156998534 
806	 0.105793603430043 
807	 0.105612957736074 
808	 0.105394762312206 
809	 0.10517751410887 
810	 0.104993203825023 
811	 0.104872355526673 
812	 0.104736332703137 
813	 0.104545062399447 
814	 0.104435116063356 
815	 0.104294625499237 
816	 0.104118282059037 
817	 0.103946639952704 
818	 0.103803804437918 
819	 0.103679114086788 
820	 0.103536197068709 
821	 0.10333389089404 
822	 0.10320835296252 
823	 0.103099603854426 
824	 0.102971597543576 
825	 0.102879505115458 
826	 0.102743095973666 
827	 0.102615543688299 
828	 0.102538741318102 
829	 0.102395140379397 
830	 0.102269565117091 
831	 0.102182967863528 
832	 0.102110331918574 
833	 0.10196263493112 
834	 0.101853964195394 
835	 0.10178206416055 
836	 0.101638545006684 
837	 0.101610671916347 
838	 0.101612261722939 
839	 0.101547074596609 
840	 0.101379792805986 
841	 0.1012829988396 
842	 0.101249422334017 
843	 0.101220406602428 
844	 0.101159487008474 
845	 0.101095565576814 
846	 0.101035329330702 
847	 0.100975929849403 
848	 0.100921941761028 
849	 0.100877165436849 
850	 0.100826074168847 
851	 0.100745705665566 
852	 0.100708695990681 
853	 0.100704151715927 
854	 0.100707150387139 
855	 0.100693127189988 
856	 0.100677746352925 
857	 0.100668255391968 
858	 0.100664390486543 
859	 0.10065519862946 
860	 0.100604028623323 
861	 0.100565918897667 
862	 0.100594110765867 
863	 0.100581085211266 
864	 0.100575677091852 
865	 0.100583404447646 
866	 0.100586175148062 
867	 0.100618540617402 
868	 0.100657579166848 
869	 0.100676813357193 
870	 0.100660937561955 
871	 0.100713117961976 
872	 0.100767526681617 
873	 0.100780617923607 
874	 0.10079157660251 
875	 0.100832274809534 
876	 0.100879719234698 
877	 0.100913758795474 
878	 0.100961570710534 
879	 0.10102482864426 
880	 0.101090827895698 
881	 0.101149387837385 
882	 0.101225947382645 
883	 0.101304818801992 
884	 0.101380203474392 
885	 0.101450019865263 
886	 0.101494614865089 
887	 0.101534964275856 
888	 0.10160794470897 
889	 0.101744922643774 
890	 0.101837895394553 
891	 0.101893711177369 
892	 0.101953485901495 
893	 0.102073662621517 
894	 0.102207358109074 
895	 0.102318503928432 
896	 0.102404961448192 
897	 0.102518739703786 
898	 0.102683376763689 
899	 0.10282781549163 
900	 0.10290888570251 
901	 0.103025188104768 
902	 0.103128666795678 
903	 0.103248280989756 
904	 0.103410467918237 
905	 0.103538855406449 
906	 0.103676719734604 
907	 0.103815255852156 
908	 0.103938569928096 
909	 0.104127417178004 
910	 0.104326952281498 
911	 0.104518939578044 
912	 0.104711766002603 
913	 0.104886845626865 
914	 0.105029543807419 
915	 0.105150549346868 
916	 0.105283195702009 
917	 0.105454280766618 
918	 0.10564822072428 
919	 0.105849306523069 
920	 0.106046574807644 
921	 0.106179071565134 
922	 0.106330038358572 
923	 0.106551024313089 
924	 0.106808567474429 
925	 0.107093057798766 
926	 0.107294079705799 
927	 0.107409435150713 
928	 0.107658015928467 
929	 0.107866592722675 
930	 0.108093565953547 
931	 0.108377929379496 
932	 0.108577554330948 
933	 0.108932292353982 
934	 0.109216886770581 
935	 0.109263092340041 
936	 0.109461941119554 
937	 0.109654841345745 
938	 0.109901248012283 
939	 0.110260968479426 
940	 0.110579182200745 
941	 0.110823884124694 
942	 0.111043833304236 
943	 0.111307761161856 
944	 0.111614701287563 
945	 0.111826333715401 
946	 0.112037266328859 
947	 0.112368514867227 
948	 0.112543917878828 
949	 0.112795943910902 
950	 0.113136351103059 
951	 0.113464492413325 
952	 0.113806039864666 
953	 0.114061456311619 
954	 0.114268471524615 
955	 0.11453702333176 
956	 0.114887484344321 
957	 0.115222130842797 
958	 0.115490148201208 
959	 0.115704477304085 
960	 0.115992114589167 
961	 0.116319558643878 
962	 0.116619607689689 
963	 0.116843520645568 
964	 0.117115035380733 
965	 0.117449110421805 
966	 0.117788279590711 
967	 0.118065446244569 
968	 0.118433200395396 
969	 0.118704774442859 
970	 0.118909896567898 
971	 0.119215751551287 
972	 0.119568159627302 
973	 0.119909205340762 
974	 0.120227992477508 
975	 0.120544617641977 
976	 0.120840629703339 
977	 0.121127255558171 
978	 0.121408586345778 
979	 0.12169950572077 
980	 0.122117551074362 
981	 0.122437681822155 
982	 0.122688815851058 
983	 0.123027675524721 
984	 0.123305107486313 
985	 0.123504121260769 
986	 0.123681461621285 
987	 0.123940143203855 
988	 0.12441674580931 
989	 0.124707088020454 
990	 0.124869592481109 
991	 0.125169060518035 
992	 0.125543275598035 
993	 0.12570584765589 
994	 0.125889593919601 
995	 0.126381822252563 
996	 0.126673747084368 
997	 0.12690884439141 
998	 0.12720562250304 
999	 0.127599338265377 
1000	 0.127904649260968 
1001	 0.127296882700383 
1002	 0.127530843095464 
1003	 0.127794197398466 
1004	 0.128042780760759 
1005	 0.128312942479799 
1006	 0.128552993273406 
1007	 0.12878219595123 
1008	 0.128952520927306 
1009	 0.129172827397679 
1010	 0.129455957848525 
1011	 0.129705137951821 
1012	 0.129940772894453 
1013	 0.130183951366493 
1014	 0.130366529035742 
1015	 0.130521339736879 
1016	 0.130716351767895 
1017	 0.130910115793938 
1018	 0.131080522690159 
1019	 0.131280157065044 
1020	 0.131566958285173 
1021	 0.131789084295223 
1022	 0.13193848443223 
1023	 0.132099698268612 
1024	 0.132197052871043 
1025	 0.132309107071106 
1026	 0.132520505274188 
1027	 0.132719102532117 
1028	 0.132897743296886 
1029	 0.133046710259943 
1030	 0.133176200263108 
1031	 0.133314587309882 
1032	 0.133438584900615 
1033	 0.13355330972723 
1034	 0.133695299458664 
1035	 0.133842433123081 
1036	 0.133992141002426 
1037	 0.134143674369146 
1038	 0.134286622915626 
1039	 0.134439658476632 
1040	 0.134559982850104 
1041	 0.134675520463628 
1042	 0.13481741393741 
1043	 0.134921432390307 
1044	 0.135047909642315 
1045	 0.135190277482032 
1046	 0.135320700014518 
1047	 0.135430694591352 
1048	 0.135577453809427 
1049	 0.135689603464365 
1050	 0.13580981870211 
1051	 0.135909654660319 
1052	 0.135984615429457 
1053	 0.13609468781017 
1054	 0.136221445383041 
1055	 0.136368259143495 
1056	 0.136490600230891 
1057	 0.136585928231776 
1058	 0.136607494830259 
1059	 0.136696584597609 
1060	 0.136778889436885 
1061	 0.136924825508046 
1062	 0.137097514083524 
1063	 0.137274339724632 
1064	 0.137448368327871 
1065	 0.137596217231241 
1066	 0.137697919989187 
1067	 0.137786660268453 
1068	 0.137872189825198 
1069	 0.137976629262029 
1070	 0.138074587737207 
1071	 0.138180464193063 
1072	 0.138296216753624 
1073	 0.138408716444606 
1074	 0.138512226629981 
1075	 0.13862045855543 
1076	 0.138767879962125 
1077	 0.138854963474975 
1078	 0.13893350248774 
1079	 0.139020125668608 
1080	 0.139114701536059 
1081	 0.139225850817188 
1082	 0.139325009846889 
1083	 0.13939393508027 
1084	 0.139429462358446 
1085	 0.139487115135254 
1086	 0.13951934317129 
1087	 0.139584662748746 
1088	 0.139679876409216 
1089	 0.139769573044589 
1090	 0.139844279137687 
1091	 0.139906860686711 
1092	 0.139973096513175 
1093	 0.140064075055562 
1094	 0.140143792265606 
1095	 0.140218866940175 
1096	 0.140303792901235 
1097	 0.140356383256896 
1098	 0.140423636206298 
1099	 0.140510889545809 
1100	 0.140582440035009 
1101	 0.140634301624813 
1102	 0.140703712937398 
1103	 0.140792136100756 
1104	 0.140840708171794 
1105	 0.140884983454036 
1106	 0.140979640701783 
1107	 0.141058217022749 
1108	 0.14110475114212 
1109	 0.141180878967207 
1110	 0.141250124318188 
1111	 0.141312627789431 
1112	 0.141364711486415 
1113	 0.141437293689031 
1114	 0.141504202241157 
1115	 0.141584817607509 
1116	 0.141696292902757 
1117	 0.141776443214942 
1118	 0.141845569534958 
1119	 0.141922283600674 
1120	 0.141989846320508 
1121	 0.142062978060125 
1122	 0.142125882391374 
1123	 0.142201912992577 
1124	 0.142255929493352 
1125	 0.1422627234101 
1126	 0.142336073774516 
1127	 0.142454360761153 
1128	 0.142518622616317 
1129	 0.142595342361536 
1130	 0.14265929785883 
1131	 0.142666343321677 
1132	 0.142714197297421 
1133	 0.142802687985433 
1134	 0.14286325819115 
1135	 0.142914273192713 
1136	 0.14296487212325 
1137	 0.143026382103417 
1138	 0.143071350818992 
1139	 0.143120036395487 
1140	 0.143178499583068 
1141	 0.143229869384342 
1142	 0.143283795320104 
1143	 0.14331319611996 
1144	 0.143318344330467 
1145	 0.143342946423318 
1146	 0.143353128981186 
1147	 0.14337819523161 
1148	 0.143436792244939 
1149	 0.143477255788372 
1150	 0.143512358167647 
1151	 0.143535426718684 
1152	 0.143549599132314 
1153	 0.143568909628095 
1154	 0.14360363927231 
1155	 0.14364643409898 
1156	 0.143678079757425 
1157	 0.143723630505566 
1158	 0.143757710868252 
1159	 0.143769299186211 
1160	 0.143801504607205 
1161	 0.143849248096834 
1162	 0.14388529815198 
1163	 0.143911401458048 
1164	 0.143954557354261 
1165	 0.144012703731869 
1166	 0.144054764303082 
1167	 0.144095113334299 
1168	 0.144143703588584 
1169	 0.144185698617083 
1170	 0.14420799684008 
1171	 0.144251248562848 
1172	 0.144316658441685 
1173	 0.144359543373611 
1174	 0.144401217605017 
1175	 0.144431153072115 
1176	 0.144440600836463 
1177	 0.144463182463133 
1178	 0.144474733980945 
1179	 0.144505569642124 
1180	 0.144558878082247 
1181	 0.144599146197055 
1182	 0.14463072116004 
1183	 0.144687970236648 
1184	 0.144730104058437 
1185	 0.144760731919055 
1186	 0.144805603719333 
1187	 0.144862127319539 
1188	 0.144905761625133 
1189	 0.144947390808918 
1190	 0.144988886596621 
1191	 0.145029147169824 
1192	 0.145062580501067 
1193	 0.145088032214081 
1194	 0.145122476842026 
1195	 0.14516444544531 
1196	 0.145190456390861 
1197	 0.14520648299602 
1198	 0.145234238635953 
1199	 0.145261720753031 
1200	 0.145277112049359 
1201	 0.14530168652886 
1202	 0.145344281582774 
1203	 0.145370494592125 
1204	 0.145376503141231 
1205	 0.145406923812129 
1206	 0.145448649663227 
1207	 0.145486584556866 
1208	 0.145537427016742 
1209	 0.145578023951095 
1210	 0.14561569274443 
1211	 0.145647410302286 
1212	 0.14566559887397 
1213	 0.145696373726431 
1214	 0.145731555955575 
1215	 0.145763068949153 
1216	 0.145796352414109 
1217	 0.14584449868391 
1218	 0.145867219317237 
1219	 0.145874005570079 
1220	 0.145888145402273 
1221	 0.145892335800444 
1222	 0.145905229917634 
1223	 0.145922297656001 
1224	 0.145940375978031 
1225	 0.14596417922671 
1226	 0.145980948468728 
1227	 0.145996466989836 
1228	 0.146011867150459 
1229	 0.146021591162654 
1230	 0.146033602180908 
1231	 0.14604518894417 
1232	 0.146060532333073 
1233	 0.14607778899078 
1234	 0.146094330827724 
1235	 0.146118021295042 
1236	 0.146152199403102 
1237	 0.146173616911267 
1238	 0.146190363579097 
1239	 0.146213492304951 
1240	 0.146235542249725 
1241	 0.146255636647818 
1242	 0.146285068001802 
1243	 0.146301838292695 
1244	 0.146304957559719 
1245	 0.146314258835382 
1246	 0.146322273778411 
1247	 0.14633036086692 
1248	 0.146342055812183 
1249	 0.1463465843064 
1250	 0.146353972221013 
1251	 0.146366046713309 
1252	 0.146382254001013 
1253	 0.146404173866194 
1254	 0.14642514836452 
1255	 0.14645443859327 
1256	 0.146471470915233 
1257	 0.14648076915524 
1258	 0.146495943746556 
1259	 0.146511198457791 
1260	 0.146519607354587 
1261	 0.146523533522002 
1262	 0.1465371734183 
1263	 0.14656353675143 
1264	 0.146564283596757 
1265	 0.146555691817735 
1266	 0.146549616306711 
1267	 0.146519986040936 
1268	 0.146491625488301 
1269	 0.146486610631001 
1270	 0.146506846483208 
1271	 0.146510812375024 
1272	 0.146514185028139 
1273	 0.146525828363822 
1274	 0.14654720425701 
1275	 0.146549587604106 
1276	 0.146546847836976 
1277	 0.146549359912005 
1278	 0.14653109510999 
1279	 0.146533595119913 
1280	 0.146551913332107 
1281	 0.146574620315375 
1282	 0.146604144217878 
1283	 0.146638597270588 
1284	 0.146687626731896 
1285	 0.146731549135437 
1286	 0.146772914647786 
1287	 0.14681274776135 
1288	 0.146847219178538 
1289	 0.146871775243996 
1290	 0.146907230545722 
1291	 0.14694692372107 
1292	 0.146981562530021 
1293	 0.147015840525695 
1294	 0.147053525019493 
1295	 0.147097084256488 
1296	 0.14712396809897 
1297	 0.14714456997332 
1298	 0.147169778507786 
1299	 0.147187255589179 
1300	 0.147200392570993 
1301	 0.147224128220443 
1302	 0.147232247838876 
1303	 0.147222746889039 
1304	 0.147211085818551 
1305	 0.147203625158601 
1306	 0.147193551308557 
1307	 0.147190690283802 
1308	 0.147191676145779 
1309	 0.147181370898712 
1310	 0.147163930421324 
1311	 0.147154275345834 
1312	 0.147138804775138 
1313	 0.147127818309888 
1314	 0.147136002407428 
1315	 0.147116870846698 
1316	 0.147072802901708 
1317	 0.1470533071698 
1318	 0.147029820390547 
1319	 0.147012740644461 
1320	 0.147033361233488 
1321	 0.147017484408407 
1322	 0.146980260849859 
1323	 0.146939247686143 
1324	 0.146902779170835 
1325	 0.146846361452184 
1326	 0.146801127530728 
1327	 0.146762508835362 
1328	 0.146718505376335 
1329	 0.146691400317898 
1330	 0.146670771247888 
1331	 0.146672961255582 
1332	 0.146649595900628 
1333	 0.146625828068578 
1334	 0.146590552086882 
1335	 0.146527393647791 
1336	 0.146495390403161 
1337	 0.146479890767117 
1338	 0.146451253481761 
1339	 0.146425023014394 
1340	 0.146404573060321 
1341	 0.146380750770445 
1342	 0.146354122461843 
1343	 0.146330156493721 
1344	 0.146318356876136 
1345	 0.146291827946873 
1346	 0.146261211357641 
1347	 0.146240414853577 
1348	 0.146206239046602 
1349	 0.14616525775711 
1350	 0.146132959801367 
1351	 0.146105236326964 
1352	 0.146083915694043 
1353	 0.146060289133421 
1354	 0.146039502760652 
1355	 0.146018834198695 
1356	 0.145997487354113 
1357	 0.145978323413272 
1358	 0.145955154855019 
1359	 0.145943782416694 
1360	 0.145950957425121 
1361	 0.145938084025833 
1362	 0.145918888221313 
1363	 0.145904432969918 
1364	 0.145882912261474 
1365	 0.145855436087742 
1366	 0.145830861841951 
1367	 0.145814868681391 
1368	 0.145765314263478 
1369	 0.145700729563378 
1370	 0.145638524672263 
1371	 0.145571100750363 
1372	 0.145493132204882 
1373	 0.145425174248062 
1374	 0.145341708252186 
1375	 0.145236767784686 
1376	 0.145148505299127 
1377	 0.145071038499758 
1378	 0.144967444560554 
1379	 0.144867008969672 
1380	 0.144745151715328 
1381	 0.144594791062698 
1382	 0.144450027917725 
1383	 0.14430876085544 
1384	 0.144140894248301 
1385	 0.143969620265037 
1386	 0.143771764043856 
1387	 0.14354615252545 
1388	 0.143311138500943 
1389	 0.143060725551856 
1390	 0.142798814170241 
1391	 0.142515096289854 
1392	 0.142202022722099 
1393	 0.141866776811792 
1394	 0.141496909164813 
1395	 0.141114225195025 
1396	 0.140734655380293 
1397	 0.140333134266892 
1398	 0.13991396590419 
1399	 0.139497492400282 
1400	 0.139058877400162 
1401	 0.138641544941313 
1402	 0.138238517588649 
1403	 0.137823414299103 
1404	 0.137400500154082 
1405	 0.136995112153453 
1406	 0.136587122976701 
1407	 0.136192241740536 
1408	 0.135799597340562 
1409	 0.135440934267206 
1410	 0.135077597269177 
1411	 0.134771396640807 
1412	 0.134515669078965 
1413	 0.134277819827948 
1414	 0.134059836276514 
1415	 0.133868948812793 
1416	 0.13370322351869 
1417	 0.133568359518321 
1418	 0.13346698677304 
1419	 0.133374630145102 
1420	 0.133273649728878 
1421	 0.133167737325719 
1422	 0.133063217609794 
1423	 0.132968119209581 
1424	 0.132882235349522 
1425	 0.132810631352483 
1426	 0.132733627140779 
1427	 0.132657523643848 
1428	 0.132588901495608 
1429	 0.13251736769131 
1430	 0.132463594586395 
1431	 0.132427741228796 
1432	 0.13238264519047 
1433	 0.132343647126044 
1434	 0.132303360539679 
1435	 0.13225224871518 
1436	 0.132221045644666 
1437	 0.132201685899882 
1438	 0.132183443419679 
1439	 0.132172413624431 
1440	 0.132170841314814 
1441	 0.132163470191808 
1442	 0.132145161679844 
1443	 0.132129929305363 
1444	 0.132117464224917 
1445	 0.132116104534977 
1446	 0.132119214410017 
1447	 0.132124293447001 
1448	 0.132134054819035 
1449	 0.132129495696669 
1450	 0.132122800171576 
1451	 0.132122965477634 
1452	 0.132116922768859 
1453	 0.132126774740122 
1454	 0.132161516887905 
1455	 0.132168343816814 
1456	 0.132163991978848 
1457	 0.132166048067245 
1458	 0.13215086965532 
1459	 0.132153335504995 
1460	 0.132175840032916 
1461	 0.13218685119856 
1462	 0.132193470199285 
1463	 0.132203361851516 
1464	 0.132205231067097 
1465	 0.132231001135266 
1466	 0.132272363282631 
1467	 0.132309388417576 
1468	 0.132350673290586 
1469	 0.132400871246422 
1470	 0.132451123727548 
1471	 0.132511092852545 
1472	 0.132593155087108 
1473	 0.132680930024526 
1474	 0.132753497821345 
1475	 0.132830533794914 
1476	 0.132892246987961 
1477	 0.132955678285359 
1478	 0.133039720543999 
1479	 0.13312219421025 
1480	 0.133218727092272 
1481	 0.13331858206971 
1482	 0.133410287591377 
1483	 0.133491830049005 
1484	 0.133587641679649 
1485	 0.133690090244642 
1486	 0.133785689622913 
1487	 0.133886899217231 
1488	 0.133983477562914 
1489	 0.134071860735371 
1490	 0.134163706782077 
1491	 0.134264830602703 
1492	 0.134351733095341 
1493	 0.134422970823999 
1494	 0.134508090719242 
1495	 0.134594244753172 
1496	 0.134676443666085 
1497	 0.134770123916995 
1498	 0.134855194290345 
1499	 0.134927977078293 
1500	 0.135002230867328 
1501	 0.135077221980793 
1502	 0.135148832041598 
1503	 0.135206390951915 
1504	 0.135286639136935 
1505	 0.135370094669702 
1506	 0.135442930254123 
1507	 0.135539144192644 
1508	 0.135622841963672 
1509	 0.135683577126545 
1510	 0.135745809555685 
1511	 0.135799018521387 
1512	 0.135851601726208 
1513	 0.135910366292792 
1514	 0.135976391787736 
1515	 0.136036404786071 
1516	 0.13608443832127 
1517	 0.136131362187493 
1518	 0.136167447841829 
1519	 0.136224402636269 
1520	 0.136287777277088 
1521	 0.136344988535886 
1522	 0.136418595415319 
1523	 0.136477414419779 
1524	 0.136520716178986 
1525	 0.136568185489183 
1526	 0.136610819389123 
1527	 0.136660759204396 
1528	 0.136714562594396 
1529	 0.136765502987827 
1530	 0.136827712290287 
1531	 0.136878089776361 
1532	 0.136910063115467 
1533	 0.136954137091594 
1534	 0.137003110584502 
1535	 0.137047044033516 
1536	 0.137098779716513 
1537	 0.137140868934959 
1538	 0.137162186556944 
1539	 0.137204685527455 
1540	 0.137256237454248 
1541	 0.137306504873354 
1542	 0.137381038488002 
1543	 0.137431235052359 
1544	 0.137463510752718 
1545	 0.137497889013522 
1546	 0.137519309726704 
1547	 0.137542895609859 
1548	 0.137590523638017 
1549	 0.137621522887122 
1550	 0.137639263774059 
1551	 0.137657864987033 
1552	 0.137658339264186 
1553	 0.137669211842106 
1554	 0.137694072884552 
1555	 0.137728302498273 
1556	 0.137753043067767 
1557	 0.137756543712323 
1558	 0.137781338270401 
1559	 0.137817144682243 
1560	 0.137858182757348 
1561	 0.137933256814036 
1562	 0.137961092980492 
1563	 0.137963307211802 
1564	 0.137980901783404 
1565	 0.137981734559306 
1566	 0.137999105928542 
1567	 0.138038648958338 
1568	 0.138057369958992 
1569	 0.138064145440188 
1570	 0.138076206727083 
1571	 0.138083026815633 
1572	 0.138098727320684 
1573	 0.13811844772443 
1574	 0.138140242315269 
1575	 0.13817552060365 
1576	 0.138188984088279 
1577	 0.138188409729993 
1578	 0.138199081381323 
1579	 0.138201189551381 
1580	 0.138210953400359 
1581	 0.138232887020869 
1582	 0.138251150039437 
1583	 0.138272633036245 
1584	 0.138282688524543 
1585	 0.138288809582433 
1586	 0.138296786710806 
1587	 0.138289298093788 
1588	 0.138296115578547 
1589	 0.138321079231735 
1590	 0.13833101934797 
1591	 0.138340389593649 
1592	 0.138342051191282 
1593	 0.138325338407308 
1594	 0.138322703445407 
1595	 0.138323055396165 
1596	 0.138327715285498 
1597	 0.138346890905546 
1598	 0.138353707672719 
1599	 0.138355939901799 
1600	 0.138357980698081 
1601	 0.138350272777869 
1602	 0.138349882164057 
1603	 0.138359310253006 
1604	 0.138356725655225 
1605	 0.138349407159778 
1606	 0.138343355804231 
1607	 0.138324511936237 
1608	 0.138315781336201 
1609	 0.138323118404562 
1610	 0.138325957259648 
1611	 0.138341675576487 
1612	 0.138357616610534 
1613	 0.138344988519719 
1614	 0.138330420436888 
1615	 0.138316155503021 
1616	 0.138291303471701 
1617	 0.138288409873582 
1618	 0.138294155432876 
1619	 0.138291756421621 
1620	 0.13829927209769 
1621	 0.138297440188767 
1622	 0.138296289903079 
1623	 0.138286218426321 
1624	 0.138272518792858 
1625	 0.138245655155404 
1626	 0.138197290355566 
1627	 0.138187912001845 
1628	 0.138182084772645 
1629	 0.138186424249439 
1630	 0.138229550805581 
1631	 0.138232490278839 
1632	 0.138214365404792 
1633	 0.138210431994833 
1634	 0.138197433149622 
1635	 0.138199456286578 
1636	 0.138221362188865 
1637	 0.138214941521931 
1638	 0.138206238207376 
1639	 0.138182453782816 
1640	 0.138126943115307 
1641	 0.138103092351575 
1642	 0.138087852203674 
1643	 0.138069771550304 
1644	 0.138060142218599 
1645	 0.138053771348269 
1646	 0.138051880927116 
1647	 0.138035438850714 
1648	 0.138022171883694 
1649	 0.138002198379614 
1650	 0.137958868955636 
1651	 0.137938776549932 
1652	 0.137939611988854 
1653	 0.137916904714798 
1654	 0.137883313314525 
1655	 0.137862715161047 
1656	 0.137834484949916 
1657	 0.137816196420246 
1658	 0.137817425816573 
1659	 0.137804571229725 
1660	 0.137784244133457 
1661	 0.137766453697855 
1662	 0.137748868301759 
1663	 0.137729315916835 
1664	 0.137708700234928 
1665	 0.13768590063913 
1666	 0.137655017614879 
1667	 0.137638414444966 
1668	 0.137636131875313 
1669	 0.137612489597623 
1670	 0.137581675581649 
1671	 0.13756148246314 
1672	 0.137536513744251 
1673	 0.137504461354522 
1674	 0.137477501956938 
1675	 0.137453965945661 
1676	 0.137412455703347 
1677	 0.137389834342602 
1678	 0.137402272385566 
1679	 0.137377235791506 
1680	 0.137326624016726 
1681	 0.137297456945978 
1682	 0.137264290378145 
1683	 0.137232139914592 
1684	 0.137215412851586 
1685	 0.137189961838399 
1686	 0.137145741535831 
1687	 0.137122755803304 
1688	 0.137121004820823 
1689	 0.137099547456523 
1690	 0.137069473301835 
1691	 0.137052225307386 
1692	 0.137031945517544 
1693	 0.137015168055523 
1694	 0.137022752842511 
1695	 0.137001469158817 
1696	 0.136963389481322 
1697	 0.136923408220072 
1698	 0.136869250160652 
1699	 0.136818326228672 
1700	 0.136751415629834 
1701	 0.136714560702822 
1702	 0.136699738546252 
1703	 0.136665943681816 
1704	 0.136644386097138 
1705	 0.136611368197075 
1706	 0.136556685349706 
1707	 0.13651140496471 
1708	 0.136470079887427 
1709	 0.136434816943419 
1710	 0.136399073511762 
1711	 0.136363746689555 
1712	 0.13633714057616 
1713	 0.136307387931299 
1714	 0.136274158124747 
1715	 0.136239586693289 
1716	 0.136208810125036 
1717	 0.136174096460831 
1718	 0.136136872655625 
1719	 0.136093000113242 
1720	 0.136043800200975 
1721	 0.135999704093532 
1722	 0.135948775393144 
1723	 0.135903847884228 
1724	 0.135875059146567 
1725	 0.135819042447706 
1726	 0.135752477980911 
1727	 0.135680343484705 
1728	 0.135578201360699 
1729	 0.135515382933475 
1730	 0.135471615933597 
1731	 0.13541847259284 
1732	 0.135390217910604 
1733	 0.135326194586769 
1734	 0.135230944669816 
1735	 0.135155256818618 
1736	 0.135075797036849 
1737	 0.135006327740541 
1738	 0.134953163307384 
1739	 0.134877429979421 
1740	 0.13478801917665 
1741	 0.134712549366287 
1742	 0.134630111073785 
1743	 0.134573863118178 
1744	 0.134539085864567 
1745	 0.13448349443412 
1746	 0.134432066687354 
1747	 0.134349750840332 
1748	 0.134281696383498 
1749	 0.13421059220738 
1750	 0.134166754331675 
1751	 0.134133461186719 
1752	 0.134078760225182 
1753	 0.134028180418874 
1754	 0.133979517632247 
1755	 0.133890584310657 
1756	 0.133826703939788 
1757	 0.133785482998017 
1758	 0.133695966812595 
1759	 0.133617731299628 
1760	 0.133538065425284 
1761	 0.133448242296604 
1762	 0.133385933545434 
1763	 0.133312308560598 
1764	 0.133261414309554 
1765	 0.133223734211028 
1766	 0.133140380926186 
1767	 0.133084462353645 
1768	 0.13303516380631 
1769	 0.132943808151836 
1770	 0.13287251213428 
1771	 0.132809758814771 
1772	 0.132761874942795 
1773	 0.132728540772072 
1774	 0.132670828471401 
1775	 0.132627709117382 
1776	 0.132566416109421 
1777	 0.132475426893961 
1778	 0.132441613365368 
1779	 0.132419966014688 
1780	 0.132364371880523 
1781	 0.132341929089826 
1782	 0.132325297878596 
1783	 0.132269729973493 
1784	 0.132224683467756 
1785	 0.132163685106361 
1786	 0.132118166115393 
1787	 0.132087105353232 
1788	 0.13205115205025 
1789	 0.132019442076991 
1790	 0.132000956837784 
1791	 0.131989859527838 
1792	 0.131969902777525 
1793	 0.131958783043624 
1794	 0.131938165927278 
1795	 0.13190671345615 
1796	 0.131878674031045 
1797	 0.131849569480049 
1798	 0.131824712920883 
1799	 0.13180858440747 
1800	 0.131767799686526 
1801	 0.129137467165708 
1802	 0.129134057171408 
1803	 0.129146154324521 
1804	 0.129128723902624 
1805	 0.129103838642986 
1806	 0.129063493153932 
1807	 0.129030427665298 
1808	 0.129023772841268 
1809	 0.129045365055199 
1810	 0.12904487709795 
1811	 0.129052175950192 
1812	 0.129067258757347 
1813	 0.129051340303028 
1814	 0.129036428754669 
1815	 0.129018251282162 
1816	 0.128991060529218 
1817	 0.128977881515958 
1818	 0.128957149986427 
1819	 0.128946827516811 
1820	 0.128951097535561 
1821	 0.128962134689441 
1822	 0.128949808933735 
1823	 0.128943604178104 
1824	 0.128960327073874 
1825	 0.128956489463813 
1826	 0.128926072967129 
1827	 0.128917255705591 
1828	 0.128890156085191 
1829	 0.128820646612222 
1830	 0.12879045969195 
1831	 0.128788503632908 
1832	 0.128763696040726 
1833	 0.128719517494452 
1834	 0.128664160508357 
1835	 0.128601652411767 
1836	 0.128556679680759 
1837	 0.128532029632463 
1838	 0.128512910135153 
1839	 0.128472767720357 
1840	 0.128432213799033 
1841	 0.128343226242617 
1842	 0.128242052416512 
1843	 0.128178103427234 
1844	 0.128112906923932 
1845	 0.128052858962744 
1846	 0.127992460923123 
1847	 0.127906235461643 
1848	 0.127840027122629 
1849	 0.12778378593044 
1850	 0.127705050309628 
1851	 0.127625349466237 
1852	 0.127556111629453 
1853	 0.127456352351911 
1854	 0.127327924570776 
1855	 0.127238398633608 
1856	 0.127157995468708 
1857	 0.127050519640269 
1858	 0.126923844714326 
1859	 0.126806705170834 
1860	 0.126667182469622 
1861	 0.126501155481236 
1862	 0.126314038061082 
1863	 0.12615700042376 
1864	 0.125961784829913 
1865	 0.125740805834605 
1866	 0.125544382905601 
1867	 0.125338348385863 
1868	 0.125117848997299 
1869	 0.124901774125699 
1870	 0.124670677262979 
1871	 0.124391533374068 
1872	 0.124074702690332 
1873	 0.123740433589416 
1874	 0.123374424119803 
1875	 0.122963393653281 
1876	 0.122530101615453 
1877	 0.12205704420865 
1878	 0.12156282093686 
1879	 0.121057126207707 
1880	 0.120510625313961 
1881	 0.119942907842181 
1882	 0.119331528439444 
1883	 0.118679055892636 
1884	 0.117984745640161 
1885	 0.1172661411831 
1886	 0.116530652020144 
1887	 0.115760208652893 
1888	 0.114938233494954 
1889	 0.114062508967229 
1890	 0.113165388699552 
1891	 0.112262742799248 
1892	 0.111317011009213 
1893	 0.11038270200045 
1894	 0.109449298667687 
1895	 0.10851524125907 
1896	 0.107539086093915 
1897	 0.106592772625893 
1898	 0.105622260737185 
1899	 0.104632356495297 
1900	 0.103702668829899 
1901	 0.102783151117329 
1902	 0.101910829205495 
1903	 0.10110266838592 
1904	 0.100306147410695 
1905	 9.95251496052949E-02 
1906	 9.87974110627426E-02 
1907	 9.81044623915974E-02 
1908	 9.74231290380901E-02 
1909	 0.096801951116133 
1910	 9.62121703312024E-02 
1911	 9.56482586588091E-02 
1912	 9.51250314859025E-02 
1913	 9.46464304113835E-02 
1914	 9.42226413594023E-02 
1915	 9.38066536560664E-02 
1916	 9.34171430713756E-02 
1917	 9.30697115660108E-02 
1918	 9.27398485543443E-02 
1919	 9.24203673544695E-02 
1920	 9.21532695491088E-02 
1921	 9.19196727677141E-02 
1922	 9.17154444374441E-02 
1923	 0.091526915169036 
1924	 9.13551264432126E-02 
1925	 9.12127369829555E-02 
1926	 9.10774842221209E-02 
1927	 9.09456024112124E-02 
1928	 9.08424913922801E-02 
1929	 0.090769856688501 
1930	 9.07049731019788E-02 
1931	 9.06714102752411E-02 
1932	 9.06611479705939E-02 
1933	 9.06537170294344E-02 
1934	 9.06613619757051E-02 
1935	 9.06759382043805E-02 
1936	 9.07008355655155E-02 
1937	 0.090734250150174 
1938	 9.07776866554489E-02 
1939	 0.090824547640373 
1940	 9.08751525209646E-02 
1941	 9.09334472424276E-02 
1942	 9.10183788604964E-02 
1943	 9.11147187276265E-02 
1944	 9.12232378647669E-02 
1945	 9.13454035523596E-02 
1946	 9.14585903197375E-02 
1947	 9.15689962134728E-02 
1948	 9.16803843865489E-02 
1949	 9.17831345706077E-02 
1950	 9.19007976670713E-02 
1951	 9.20180869401061E-02 
1952	 9.21430968447656E-02 
1953	 9.22998191856879E-02 
1954	 9.24808335949629E-02 
1955	 9.26441494877367E-02 
1956	 9.28035556297673E-02 
1957	 9.29633688857527E-02 
1958	 9.31007616965552E-02 
1959	 9.32672861503259E-02 
1960	 9.34570250940122E-02 
1961	 9.36348283709206E-02 
1962	 9.38163355454242E-02 
1963	 9.40001357091175E-02 
1964	 9.41689385481831E-02 
1965	 9.43652329416536E-02 
1966	 9.45698216991746E-02 
1967	 9.47810986625696E-02 
1968	 0.094992229427361 
1969	 9.52143558769323E-02 
1970	 9.54217052387285E-02 
1971	 9.56220704530478E-02 
1972	 9.58251741523315E-02 
1973	 0.09602650948944 
1974	 9.62272854472327E-02 
1975	 9.64168849375584E-02 
1976	 9.66299388133587E-02 
1977	 9.68553800567558E-02 
1978	 9.70652322715854E-02 
1979	 9.72781254784751E-02 
1980	 9.74968825085917E-02 
1981	 9.77207269931287E-02 
1982	 9.79475693663626E-02 
1983	 9.81618059421223E-02 
1984	 9.83801898636485E-02 
1985	 9.85977465138818E-02 
1986	 0.098794249748243 
1987	 9.90030900253106E-02 
1988	 9.92231507986534E-02 
1989	 9.94491457916993E-02 
1990	 9.96573646764632E-02 
1991	 9.98730504036952E-02 
1992	 0.100104252419807 
1993	 0.100354725591454 
1994	 0.100581579815142 
1995	 0.100819116212366 
1996	 0.101036259079827 
1997	 0.101220772855056 
1998	 0.101425334346103 
1999	 0.101625722320918 
2000	 0.101837615138489 
2001	 0.102061070836695 
2002	 0.102285897038828 
2003	 0.10251133130396 
2004	 0.102749800578747 
2005	 0.10296794373587 
2006	 0.103179344295073 
2007	 0.103386480678974 
2008	 0.103575572980151 
2009	 0.103776842721884 
2010	 0.103982495363693 
2011	 0.104184703632416 
2012	 0.104390191861698 
2013	 0.104592774773504 
2014	 0.104786634270189 
2015	 0.104989300768587 
2016	 0.105199791282198 
2017	 0.105401573409097 
2018	 0.105594087476587 
2019	 0.105776433288103 
2020	 0.105968836511034 
2021	 0.106157762790482 
2022	 0.10634442177218 
2023	 0.106538708630543 
2024	 0.106730770836916 
2025	 0.106922807385872 
2026	 0.107101729071939 
2027	 0.107277603278387 
2028	 0.107451243809818 
2029	 0.107617250379418 
2030	 0.107762515311828 
2031	 0.107919230833082 
2032	 0.108083098038374 
2033	 0.108238272257496 
2034	 0.108383184318257 
2035	 0.108536323243142 
2036	 0.108693395019452 
2037	 0.108847651291739 
2038	 0.108998000024952 
2039	 0.109157903043249 
2040	 0.109328668870808 
2041	 0.10948865571775 
2042	 0.109656840503938 
2043	 0.109798871207528 
2044	 0.109923769985611 
2045	 0.110015114046666 
2046	 0.110125562593417 
2047	 0.110214112107589 
2048	 0.110335637189286 
2049	 0.110478188910715 
2050	 0.110616125697301 
2051	 0.110781369135639 
2052	 0.110919570178408 
2053	 0.111041152777253 
2054	 0.111166943006916 
2055	 0.111282183175147 
2056	 0.111401946554963 
2057	 0.111508985720104 
2058	 0.111613254646394 
2059	 0.111716947487126 
2060	 0.111803358225463 
2061	 0.111906076099363 
2062	 0.112023988496489 
2063	 0.112129878576623 
2064	 0.11223405283088 
2065	 0.112336469751173 
2066	 0.112429803060107 
2067	 0.112531491719025 
2068	 0.112625586697358 
2069	 0.112737186271604 
2070	 0.112862982343932 
2071	 0.113009579675647 
2072	 0.113128727032358 
2073	 0.113259649406994 
2074	 0.113366101303171 
2075	 0.113436395687471 
2076	 0.113534338016383 
2077	 0.113644592557762 
2078	 0.113741992976082 
2079	 0.113842005035167 
2080	 0.113934272869353 
2081	 0.114013652252557 
2082	 0.114094506815244 
2083	 0.114170344860801 
2084	 0.114249766090955 
2085	 0.114336949688289 
2086	 0.114425789326486 
2087	 0.114514397494253 
2088	 0.114606983951008 
2089	 0.114709281263469 
2090	 0.11481695816399 
2091	 0.11491999388466 
2092	 0.115042876603498 
2093	 0.115141683801395 
2094	 0.115211062348939 
2095	 0.115300654560957 
2096	 0.115395741624572 
2097	 0.115485426374451 
2098	 0.115579947875616 
2099	 0.115677602917529 
2100	 0.115765178114138 
2101	 0.115842164934141 
2102	 0.115920542511695 
2103	 0.11598870843706 
2104	 0.116078053598431 
2105	 0.116175777503673 
2106	 0.116270939327112 
2107	 0.116394792595188 
2108	 0.116484055411218 
2109	 0.116543348983861 
2110	 0.116616443808594 
2111	 0.116664173372419 
2112	 0.116742268341607 
2113	 0.116825161193369 
2114	 0.116949417824018 
2115	 0.117058708984092 
2116	 0.117189493788525 
2117	 0.117291533751629 
2118	 0.117385740487306 
2119	 0.117474878481269 
2120	 0.11755851306822 
2121	 0.117628303405741 
2122	 0.117679788060132 
2123	 0.117743638764327 
2124	 0.117797840093792 
2125	 0.117857177928416 
2126	 0.117934396062346 
2127	 0.117997687670243 
2128	 0.118044726693726 
2129	 0.118100493737982 
2130	 0.118168957946154 
2131	 0.118215721465564 
2132	 0.118265865187076 
2133	 0.118325773952978 
2134	 0.11835623105865 
2135	 0.118367078063218 
2136	 0.118379013558953 
2137	 0.118364545104633 
2138	 0.118374703871502 
2139	 0.118409165130501 
2140	 0.118413263569682 
2141	 0.11841454221697 
2142	 0.118406231136369 
2143	 0.118379745211745 
2144	 0.118342505089544 
2145	 0.118300627068348 
2146	 0.118250363268251 
2147	 0.118183155573611 
2148	 0.11810128829331 
2149	 0.118034480567472 
2150	 0.11796389393737 
2151	 0.117910266389686 
2152	 0.117871439037552 
2153	 0.117821863687838 
2154	 0.117797294483687 
2155	 0.117729360562311 
2156	 0.117620171729557 
2157	 0.117540941403295 
2158	 0.117456644893125 
2159	 0.11736971801219 
2160	 0.117308715699374 
2161	 0.11722444065052 
2162	 0.117103910977941 
2163	 0.117002725620283 
2164	 0.116903558069834 
2165	 0.116813849045612 
2166	 0.116716148391503 
2167	 0.116629689200982 
2168	 0.116522425869724 
2169	 0.116394787023978 
2170	 0.116285757772258 
2171	 0.116177360541776 
2172	 0.116070001936793 
2173	 0.115981465515646 
2174	 0.115867156902081 
2175	 0.115743630162647 
2176	 0.115607963644605 
2177	 0.115438525954351 
2178	 0.115297243142566 
2179	 0.115160753952704 
2180	 0.115024899355285 
2181	 0.114919721422203 
2182	 0.114789593914085 
2183	 0.114634435765338 
2184	 0.114486965101389 
2185	 0.114343696501021 
2186	 0.114190936585793 
2187	 0.114048468675151 
2188	 0.113912379207061 
2189	 0.11378971477219 
2190	 0.113676756131245 
2191	 0.113559847840294 
2192	 0.113450927080934 
2193	 0.113349635482718 
2194	 0.113240542172091 
2195	 0.113146906395179 
2196	 0.113078478157426 
2197	 0.113001584863039 
2198	 0.112915116717483 
2199	 0.112847933915125 
2200	 0.112798402189132 
2201	 0.112741324032468 
2202	 0.112677990756195 
2203	 0.112636724777037 
2204	 0.112610317453696 
2205	 0.112589517796037 
2206	 0.11257319071362 
2207	 0.112577066487885 
2208	 0.112590039202483 
2209	 0.112604985080266 
2210	 0.112623137102781 
2211	 0.112670180595012 
2212	 0.112696670030887 
2213	 0.112700038975797 
2214	 0.112724204129774 
2215	 0.112756465855075 
2216	 0.112790431080522 
2217	 0.112839761117667 
2218	 0.112875169671994 
2219	 0.112913358475798 
2220	 0.112939633838068 
2221	 0.112936617067012 
2222	 0.112958179209717 
2223	 0.112989722977602 
2224	 0.113016886938256 
2225	 0.113050556112623 
2226	 0.113107792632339 
2227	 0.113131187742297 
2228	 0.113129284883628 
2229	 0.113153157158441 
2230	 0.113174635513008 
2231	 0.113203022085672 
2232	 0.113272589900516 
2233	 0.113280258277619 
2234	 0.113238579527347 
2235	 0.113233722471387 
2236	 0.113206043229271 
2237	 0.113202583346864 
2238	 0.11325491471502 
2239	 0.113264624292792 
2240	 0.113254152400491 
2241	 0.113242198938186 
2242	 0.113206445237624 
2243	 0.113180036567503 
2244	 0.113160826582028 
2245	 0.113136980287451 
2246	 0.113086527335668 
2247	 0.1130362103711 
2248	 0.11298802949626 
2249	 0.112911480850564 
2250	 0.112879182213637 
2251	 0.112885895820289 
2252	 0.112857244281691 
2253	 0.112837540434708 
2254	 0.112792376647235 
2255	 0.112718540147687 
2256	 0.112652363735389 
2257	 0.112565135775547 
2258	 0.112509578947348 
2259	 0.112453132488691 
2260	 0.112423703391432 
2261	 0.112434418752135 
2262	 0.11243114083325 
2263	 0.112457132717654 
2264	 0.112445673490935 
2265	 0.112384752486513 
2266	 0.112370718093255 
2267	 0.112369989347156 
2268	 0.112362564523893 
2269	 0.112396641721242 
2270	 0.112399971071989 
2271	 0.112379232380439 
2272	 0.112350538944159 
2273	 0.112323109159973 
2274	 0.112354847598308 
2275	 0.112370268637087 
2276	 0.11240526670097 
2277	 0.112409711236629 
2278	 0.112397074188746 
2279	 0.112408350761379 
2280	 0.112406437078289 
2281	 0.112439231405276 
2282	 0.112525271203985 
2283	 0.112561889941695 
2284	 0.112592131302358 
2285	 0.112606308585202 
2286	 0.112593570720819 
2287	 0.112579473800784 
2288	 0.112547189575894 
2289	 0.112542575130522 
2290	 0.11255576901941 
2291	 0.112539565980316 
2292	 0.112515961631025 
2293	 0.112493819090437 
2294	 0.112449367658303 
2295	 0.112413408331129 
2296	 0.1123955228415 
2297	 0.112376263371515 
2298	 0.112328463490915 
2299	 0.112273447170045 
2300	 0.112220135114433 
2301	 0.112203465990255 
2302	 0.112166422138409 
2303	 0.112107544191881 
2304	 0.112092335849855 
2305	 0.112070762287233 
2306	 0.112033469267925 
2307	 0.112004275782892 
2308	 0.111985143434898 
2309	 0.111954061309445 
2310	 0.111911343314689 
2311	 0.111870972180089 
2312	 0.111874742956679 
2313	 0.11188045473221 
2314	 0.111868168711902 
2315	 0.111934803157391 
2316	 0.111885193626895 
2317	 0.111706476449723 
2318	 0.111622108627828 
2319	 0.111555136464716 
2320	 0.111467116260697 
2321	 0.111418232713546 
2322	 0.111341517169576 
2323	 0.111168181992944 
2324	 0.111094512061505 
2325	 0.111085572472622 
2326	 0.111068470839194 
2327	 0.111086671798855 
2328	 0.111138425647367 
2329	 0.111143783647565 
2330	 0.111105224488841 
2331	 0.111076263922662 
2332	 0.11103799875787 
2333	 0.110980124764319 
2334	 0.110890965177355 
2335	 0.110773534592763 
2336	 0.110654723822817 
2337	 0.110583045267218 
2338	 0.110544901109058 
2339	 0.110486506766314 
2340	 0.110435521664657 
2341	 0.110347716955023 
2342	 0.11025683857231 
2343	 0.110199930955438 
2344	 0.11012652643229 
2345	 0.110067846356837 
2346	 0.110052497100345 
2347	 0.109943450464403 
2348	 0.109782528474385 
2349	 0.109648020908856 
2350	 0.109443469330855 
2351	 0.109331195872284 
2352	 0.109302768277262 
2353	 0.109220808051682 
2354	 0.109127088688356 
2355	 0.109060509870985 
2356	 0.109000446914221 
2357	 0.108914810518507 
2358	 0.108855575500866 
2359	 0.108774108360498 
2360	 0.108657917007501 
2361	 0.108541680925197 
2362	 0.108410037961662 
2363	 0.108302763653386 
2364	 0.108220898482102 
2365	 0.108082340270658 
2366	 0.10790729438975 
2367	 0.107780409174893 
2368	 0.107600892337089 
2369	 0.10747764118942 
2370	 0.107426214625273 
2371	 0.107426802138371 
2372	 0.10730905878599 
2373	 0.107119130982706 
2374	 0.107005468331494 
2375	 0.10686996248685 
2376	 0.106707577523608 
2377	 0.106573429005524 
2378	 0.106319206577419 
2379	 0.106091250980378 
2380	 0.105993259332174 
2381	 0.105950416455121 
2382	 0.105919892522239 
2383	 0.105800295286092 
2384	 0.105630277438053 
2385	 0.105496190609997 
2386	 0.105441692146407 
2387	 0.105340812774054 
2388	 0.105203192039786 
2389	 0.105031499757639 
2390	 0.104738962883182 
2391	 0.104521694490917 
2392	 0.104370172631266 
2393	 0.104207252972466 
2394	 0.104054008814314 
2395	 0.103886383000107 
2396	 0.103702175053762 
2397	 0.103538465420423 
2398	 0.103371781670761 
2399	 0.103204631008849 
2400	 0.103112760108666 
2401	 0.102985489099425 
2402	 0.102851720963153 
2403	 0.102763067503161 
2404	 0.102674990222545 
2405	 0.102529854975613 
2406	 0.102269317992511 
2407	 0.102030018502589 
2408	 0.101830676033129 
2409	 0.101628013292606 
2410	 0.101518417017191 
2411	 0.101465160236267 
2412	 0.101309134719683 
2413	 0.101054790960251 
2414	 0.100835571248826 
2415	 0.100610155324405 
2416	 0.100382556520106 
2417	 0.100111819454171 
2418	 9.99520318182773E-02 
2419	 9.98931037398656E-02 
2420	 9.97414535263995E-02 
2421	 9.96236376726024E-02 
2422	 9.94577780149411E-02 
2423	 9.91515319631717E-02 
2424	 9.89622384421098E-02 
2425	 9.88848844091162E-02 
2426	 0.09870700599058 
2427	 9.84956256994929E-02 
2428	 9.83268757140189E-02 
2429	 9.81159691240194E-02 
2430	 0.097932254195702 
2431	 9.78323621008285E-02 
2432	 9.76419643367749E-02 
2433	 9.73604350689522E-02 
2434	 9.71244350323599E-02 
2435	 0.096875794434414 
2436	 9.67050180785693E-02 
2437	 9.66419136107956E-02 
2438	 0.096524232213255 
2439	 9.63640371777641E-02 
2440	 9.62861308876464E-02 
2441	 9.62602604453722E-02 
2442	 9.60872130046981E-02 
2443	 0.095936523842488 
2444	 9.57172034402553E-02 
2445	 9.52874411752401E-02 
2446	 9.50592860275245E-02 
2447	 9.49047600834045E-02 
2448	 9.47839849295494E-02 
2449	 9.48315979260212E-02 
2450	 9.46667481042482E-02 
2451	 9.43922842214805E-02 
2452	 0.09425408363066 
2453	 9.40568462238292E-02 
2454	 9.39053555943568E-02 
2455	 9.39591762722995E-02 
2456	 9.37791609675105E-02 
2457	 9.34090748716912E-02 
2458	 9.31236086250208E-02 
2459	 9.27128100816993E-02 
2460	 9.24926237931087E-02 
2461	 9.24107817033703E-02 
2462	 9.23322836032321E-02 
2463	 9.24178361737451E-02 
2464	 9.23750268618613E-02 
2465	 9.23328391992146E-02 
2466	 9.21368056472682E-02 
2467	 9.17590704981423E-02 
2468	 9.14984639567379E-02 
2469	 9.11337647784491E-02 
2470	 9.09731677674597E-02 
2471	 9.09650586579214E-02 
2472	 9.08786405034571E-02 
2473	 9.07107719909468E-02 
2474	 9.06266910228593E-02 
2475	 9.03649804102377E-02 
2476	 9.01869007852612E-02 
2477	 9.01908444100581E-02 
2478	 9.00708408151884E-02 
2479	 9.00608343437791E-02 
2480	 9.00607025818923E-02 
2481	 9.00325326072364E-02 
2482	 8.99715441931138E-02 
2483	 8.97967759489891E-02 
2484	 8.97803777865168E-02 
2485	 8.97258990140905E-02 
2486	 8.95467312711573E-02 
2487	 8.94877929537858E-02 
2488	 8.92813391611311E-02 
2489	 8.88284093352341E-02 
2490	 8.85736486223717E-02 
2491	 8.85547507417022E-02 
2492	 8.84309992268159E-02 
2493	 8.83244784543564E-02 
2494	 8.81102902497426E-02 
2495	 8.77787389417607E-02 
2496	 8.75592003157723E-02 
2497	 8.73640032497053E-02 
2498	 0.087424561998395 
2499	 0.087428680793632 
2500	 8.71694103704372E-02 
