Wavelength	MM_3400006.asd
350	 6.47234615704916E-02 
351	 5.48244002873632E-02 
352	 4.48335374113452E-02 
353	 4.50770048312991E-02 
354	 5.00074771374989E-02 
355	 4.82555721245979E-02 
356	 4.45652879474883E-02 
357	 4.57736101226902E-02 
358	 4.99258840155383E-02 
359	 4.71541125671952E-02 
360	 4.31687529221111E-02 
361	 5.12135418061195E-02 
362	 0.050976976786812 
363	 5.01114677850348E-02 
364	 5.26833394003013E-02 
365	 5.18783165482368E-02 
366	 4.93975249973486E-02 
367	 4.75811659387664E-02 
368	 4.85398023251216E-02 
369	 5.33039532715343E-02 
370	 5.44486031793536E-02 
371	 5.26060091756598E-02 
372	 5.35967304996052E-02 
373	 5.36426660662721E-02 
374	 5.26615503005467E-02 
375	 5.20579809724998E-02 
376	 5.52148977883946E-02 
377	 5.59523160539823E-02 
378	 5.58552323602009E-02 
379	 5.77547186693727E-02 
380	 5.93577642295818E-02 
381	 5.85145390499481E-02 
382	 5.76979689535109E-02 
383	 6.17601127189954E-02 
384	 5.92514833626378E-02 
385	 5.61613373516936E-02 
386	 5.70586186404939E-02 
387	 5.91499945197736E-02 
388	 6.05325911148996E-02 
389	 6.05471164526033E-02 
390	 5.95225478660687E-02 
391	 5.93176005343066E-02 
392	 6.02361913445194E-02 
393	 0.061494111072534 
394	 6.16257013419561E-02 
395	 6.17504868007118E-02 
396	 6.19163985599333E-02 
397	 6.20175153386495E-02 
398	 6.19523431149491E-02 
399	 6.21018334278393E-02 
400	 6.31323100583604E-02 
401	 6.50354547949563E-02 
402	 6.35580148908028E-02 
403	 6.38292566630762E-02 
404	 6.56679205427688E-02 
405	 6.33701562247903E-02 
406	 6.43513148411689E-02 
407	 6.59486609340011E-02 
408	 6.53831872899525E-02 
409	 6.45768357804923E-02 
410	 6.45194659520992E-02 
411	 6.48819600191861E-02 
412	 6.48704537453183E-02 
413	 6.56936100135665E-02 
414	 6.61816145325691E-02 
415	 6.55775428523289E-02 
416	 6.38239327999537E-02 
417	 6.36742503533824E-02 
418	 6.48748594455371E-02 
419	 6.61836005150306E-02 
420	 6.60769877468442E-02 
421	 6.54607211946204E-02 
422	 6.50860118781661E-02 
423	 6.53974867517761E-02 
424	 6.50674093663876E-02 
425	 6.49318248415405E-02 
426	 6.53880875066426E-02 
427	 6.56204131085346E-02 
428	 0.065241436848619 
429	 6.47531944957063E-02 
430	 6.48240310818409E-02 
431	 6.53417552762623E-02 
432	 6.53614634373159E-02 
433	 6.49864287333087E-02 
434	 6.52878457787557E-02 
435	 6.53807430571359E-02 
436	 6.53485608599548E-02 
437	 0.065320657143121 
438	 6.49813961256392E-02 
439	 6.49993818091647E-02 
440	 6.52902824322616E-02 
441	 6.54130574278202E-02 
442	 6.54203005894273E-02 
443	 6.55714644541605E-02 
444	 6.57441649761015E-02 
445	 6.51845048783573E-02 
446	 6.51402533790708E-02 
447	 6.54587868953393E-02 
448	 6.56116849515005E-02 
449	 0.065391831710276 
450	 0.065060215391405 
451	 6.49261337633999E-02 
452	 6.52629161498825E-02 
453	 6.52969740080452E-02 
454	 6.52202550917951E-02 
455	 6.52472348762846E-02 
456	 6.51916025352685E-02 
457	 6.51736513609451E-02 
458	 6.52817694275061E-02 
459	 6.54993218519662E-02 
460	 6.51712087978495E-02 
461	 6.48803951962924E-02 
462	 6.48762641077272E-02 
463	 6.47820624353802E-02 
464	 6.50005111624088E-02 
465	 6.52929682325161E-02 
466	 6.53243393195061E-02 
467	 6.50822739156301E-02 
468	 6.51032994233682E-02 
469	 0.065321926745753 
470	 6.52088478942258E-02 
471	 6.51473148344931E-02 
472	 6.50956809615272E-02 
473	 6.49974145701428E-02 
474	 6.49099387681381E-02 
475	 6.49973043328519E-02 
476	 6.49600003968973E-02 
477	 6.44812818440384E-02 
478	 6.46951416969858E-02 
479	 6.50090666499286E-02 
480	 6.50447692760638E-02 
481	 6.49245080099748E-02 
482	 0.065063431062344 
483	 6.52366043279193E-02 
484	 6.51627410056888E-02 
485	 0.065156050052472 
486	 6.49784256614467E-02 
487	 6.47352173632944E-02 
488	 6.47926838727666E-02 
489	 6.47730587642135E-02 
490	 0.064812298232038 
491	 0.064956273496658 
492	 6.47937725420024E-02 
493	 6.46910034846925E-02 
494	 0.064724304250603 
495	 6.48127273580961E-02 
496	 6.48079856255178E-02 
497	 6.47403475121706E-02 
498	 6.47115233054671E-02 
499	 6.49122256158619E-02 
500	 6.48567184643859E-02 
501	 6.47037200785079E-02 
502	 6.47224856975054E-02 
503	 6.47580257051731E-02 
504	 6.47092177443851E-02 
505	 6.46427158417413E-02 
506	 0.064757733578093 
507	 6.47546651089613E-02 
508	 6.47527367473305E-02 
509	 6.48225839740864E-02 
510	 6.46679140957083E-02 
511	 0.064558713415949 
512	 6.45342436146675E-02 
513	 6.45212914600499E-02 
514	 6.46489182757463E-02 
515	 6.47047224524692E-02 
516	 6.46280216278772E-02 
517	 6.46795918350317E-02 
518	 6.46494379442549E-02 
519	 6.45504209005756E-02 
520	 6.44688787861189E-02 
521	 6.44668560506206E-02 
522	 6.44892941234379E-02 
523	 6.45012851675691E-02 
524	 6.44970189414776E-02 
525	 6.44000483653021E-02 
526	 6.43187556674576E-02 
527	 6.43407641315151E-02 
528	 6.43617307974513E-02 
529	 6.43585781965136E-02 
530	 6.43458230759293E-02 
531	 6.43584978545378E-02 
532	 6.43414048069843E-02 
533	 6.43502511147851E-02 
534	 6.44080101725728E-02 
535	 6.44382942546102E-02 
536	 6.44973058674945E-02 
537	 6.45042699434656E-02 
538	 6.43782749088575E-02 
539	 6.44006139666139E-02 
540	 6.44423341353222E-02 
541	 6.44385446567216E-02 
542	 6.44540151628045E-02 
543	 0.064451560423368 
544	 6.44498227187795E-02 
545	 6.44772229295071E-02 
546	 6.45463112222554E-02 
547	 0.064589942836276 
548	 6.46069921084274E-02 
549	 6.46496281637354E-02 
550	 0.064634244589889 
551	 6.46001977853306E-02 
552	 6.46110701419122E-02 
553	 0.064748247276692 
554	 6.48329224261671E-02 
555	 6.48639134598007E-02 
556	 6.49318911128819E-02 
557	 6.50246534096305E-02 
558	 6.50827752387197E-02 
559	 6.51298612103254E-02 
560	 6.53562159601673E-02 
561	 6.54981528014323E-02 
562	 6.55633929436472E-02 
563	 6.56480164295819E-02 
564	 6.57678666754361E-02 
565	 6.58439830427314E-02 
566	 6.58816432061315E-02 
567	 6.59846371907937E-02 
568	 6.61773277646148E-02 
569	 6.64059715761631E-02 
570	 6.66138110410503E-02 
571	 6.68089175190102E-02 
572	 6.70267324145651E-02 
573	 6.72736986571119E-02 
574	 6.75306871022427E-02 
575	 0.067735311552665 
576	 6.79862047738014E-02 
577	 0.068302109575095 
578	 6.84589343108813E-02 
579	 6.86651939995706E-02 
580	 6.89121484335162E-02 
581	 6.91199577176162E-02 
582	 6.94020742948151E-02 
583	 6.96744851438434E-02 
584	 6.99144884260515E-02 
585	 7.02093724255387E-02 
586	 7.05507694205124E-02 
587	 7.08763877248896E-02 
588	 7.11550903805349E-02 
589	 7.15765753401016E-02 
590	 7.19808508305861E-02 
591	 7.23429353202533E-02 
592	 7.27670250281088E-02 
593	 7.31407564740919E-02 
594	 7.34973042463659E-02 
595	 7.38787726385699E-02 
596	 7.42940042069222E-02 
597	 7.45573589536055E-02 
598	 7.47306428742339E-02 
599	 7.49962330167133E-02 
600	 7.52515322540564E-02 
601	 7.55179123379538E-02 
602	 0.075795712706607 
603	 0.076023033017915 
604	 7.62795450547128E-02 
605	 0.076533745807739 
606	 7.67379206933492E-02 
607	 7.69801043575459E-02 
608	 7.72537037530005E-02 
609	 0.077539509540796 
610	 7.78101907823615E-02 
611	 7.79715737845087E-02 
612	 0.07812411696762 
613	 7.83369412786158E-02 
614	 7.83934500614197E-02 
615	 7.84961050956393E-02 
616	 0.078666863185671 
617	 7.88018497673017E-02 
618	 7.89469260578098E-02 
619	 7.90504937045165E-02 
620	 0.07910400935117 
621	 7.92187545323149E-02 
622	 7.93365971204107E-02 
623	 7.94310552906203E-02 
624	 7.94929374050437E-02 
625	 7.95512666291232E-02 
626	 0.079627717050691 
627	 0.079720253733522 
628	 7.97975324408376E-02 
629	 7.98783761416184E-02 
630	 7.99600663043514E-02 
631	 8.00323267151579E-02 
632	 8.00750497214673E-02 
633	 0.080119293666624 
634	 8.01891897496402E-02 
635	 8.02967085764667E-02 
636	 8.03830668687331E-02 
637	 8.04207907085926E-02 
638	 8.04186152662544E-02 
639	 8.04474135179853E-02 
640	 8.05386877766525E-02 
641	 8.06310041637749E-02 
642	 8.06428030660615E-02 
643	 8.07275308908366E-02 
644	 8.08150056361389E-02 
645	 8.08705815670287E-02 
646	 8.09413796041014E-02 
647	 8.10366729987722E-02 
648	 8.11192395382245E-02 
649	 0.081155197100832 
650	 8.11805728649353E-02 
651	 8.12631845674947E-02 
652	 0.081379523670356 
653	 8.14328373074356E-02 
654	 8.15020032237562E-02 
655	 8.15810358161743E-02 
656	 8.16635045972029E-02 
657	 8.17889920607244E-02 
658	 8.18556952869771E-02 
659	 8.18932925858762E-02 
660	 8.19841046886303E-02 
661	 8.20734554086058E-02 
662	 8.21670838886574E-02 
663	 8.22725369539922E-02 
664	 8.23924645132561E-02 
665	 0.082516163403478 
666	 8.26213557468386E-02 
667	 0.082694522354681 
668	 8.27612724001941E-02 
669	 8.28599767070587E-02 
670	 8.29927497932934E-02 
671	 0.083129735317221 
672	 8.32515904967604E-02 
673	 8.33730555829739E-02 
674	 8.35007294788186E-02 
675	 8.36047814872371E-02 
676	 0.083708287876194 
677	 8.38126911003952E-02 
678	 8.39142823614367E-02 
679	 8.40376844589977E-02 
680	 8.41756843693437E-02 
681	 8.43129325214998E-02 
682	 8.44277678750291E-02 
683	 8.45544713761799E-02 
684	 8.47097859433337E-02 
685	 8.48885422489652E-02 
686	 8.50300174545954E-02 
687	 8.51721847485108E-02 
688	 8.53174357045138E-02 
689	 8.54430905958889E-02 
690	 0.085556218197389 
691	 8.56856696431147E-02 
692	 8.58463883546839E-02 
693	 8.60242347165295E-02 
694	 8.61850078678068E-02 
695	 8.63257253085906E-02 
696	 8.64639620758164E-02 
697	 0.086653174872065 
698	 8.68093816245567E-02 
699	 8.69174334972382E-02 
700	 8.70431076687218E-02 
701	 8.72382739006074E-02 
702	 8.74082434799001E-02 
703	 8.74994651175029E-02 
704	 8.76699844024678E-02 
705	 8.78114172312746E-02 
706	 8.79229776176058E-02 
707	 8.80609667960805E-02 
708	 8.82615984716808E-02 
709	 0.088421866276444 
710	 8.85199692441213E-02 
711	 8.86716103837583E-02 
712	 8.88262814983556E-02 
713	 8.89535382238082E-02 
714	 8.90538729731949E-02 
715	 8.92290761841837E-02 
716	 8.93868461775713E-02 
717	 8.95036818582215E-02 
718	 8.96116962445874E-02 
719	 8.97293893941864E-02 
720	 8.98512467820166E-02 
721	 8.99655405251725E-02 
722	 9.00542835471051E-02 
723	 9.01710605037191E-02 
724	 9.02981884181158E-02 
725	 0.090399162428579 
726	 9.04820853538272E-02 
727	 9.05552298761067E-02 
728	 9.06232322170737E-02 
729	 9.06896108753487E-02 
730	 9.08298035464789E-02 
731	 9.09322276471241E-02 
732	 9.09442143993024E-02 
733	 9.10371685248866E-02 
734	 9.10968326119704E-02 
735	 9.11330107927738E-02 
736	 9.11948991682412E-02 
737	 9.12503543267629E-02 
738	 9.12804988904494E-02 
739	 9.12900975395382E-02 
740	 9.13084806699661E-02 
741	 9.13591537057792E-02 
742	 9.13824532263012E-02 
743	 9.13518271295979E-02 
744	 9.13833795454743E-02 
745	 9.13844840973637E-02 
746	 9.13580244539381E-02 
747	 9.13464671951915E-02 
748	 9.13204078103193E-02 
749	 9.13074718756895E-02 
750	 9.13063781112782E-02 
751	 9.12766119515751E-02 
752	 9.12395691889577E-02 
753	 9.11994502070521E-02 
754	 9.11561163230524E-02 
755	 9.11033421286569E-02 
756	 9.10814967656474E-02 
757	 9.10758874372235E-02 
758	 9.10414250493536E-02 
759	 9.09482406929208E-02 
760	 9.08429645989734E-02 
761	 9.07643587715594E-02 
762	 9.07292907491382E-02 
763	 9.06595595583221E-02 
764	 9.05675344990371E-02 
765	 9.04824989035507E-02 
766	 9.04110885219895E-02 
767	 9.03517013202258E-02 
768	 9.02895660657774E-02 
769	 9.02055726843012E-02 
770	 9.01010337735506E-02 
771	 9.00066714709326E-02 
772	 8.99270961951439E-02 
773	 8.98336053227274E-02 
774	 8.97444779314185E-02 
775	 8.96654782069774E-02 
776	 8.95864266874961E-02 
777	 8.94564463375802E-02 
778	 8.93549025961547E-02 
779	 8.92772162814574E-02 
780	 8.91831442824833E-02 
781	 8.90825986468191E-02 
782	 8.89812040478783E-02 
783	 8.88797619538251E-02 
784	 8.87742596414153E-02 
785	 8.86598672813012E-02 
786	 8.85628170713004E-02 
787	 8.84850823642492E-02 
788	 8.83499794734922E-02 
789	 8.82737724034821E-02 
790	 8.82164529646378E-02 
791	 8.81025382248725E-02 
792	 8.80116894899322E-02 
793	 8.79100884402315E-02 
794	 8.77903574992636E-02 
795	 8.76734333460736E-02 
796	 8.75729336516974E-02 
797	 8.74906821633225E-02 
798	 8.74184215968227E-02 
799	 8.73357414280822E-02 
800	 8.72396270697215E-02 
801	 8.71375160986476E-02 
802	 8.70395080116275E-02 
803	 8.69443352223722E-02 
804	 8.68928731281433E-02 
805	 0.08685543135189 
806	 8.67675550731548E-02 
807	 8.66862471053404E-02 
808	 8.65825958286257E-02 
809	 8.64580469615166E-02 
810	 8.63632754016582E-02 
811	 8.63190594855931E-02 
812	 0.086267802698791 
813	 8.61736870473713E-02 
814	 8.61126487929891E-02 
815	 0.086029335786112 
816	 8.59384390044954E-02 
817	 8.58747198181515E-02 
818	 8.58140535901615E-02 
819	 8.57660866149549E-02 
820	 0.08570420837681 
821	 0.085583000399692 
822	 8.55183271508353E-02 
823	 8.54990769835408E-02 
824	 8.54733847141805E-02 
825	 8.53586524318846E-02 
826	 8.52778354556037E-02 
827	 8.52430430104899E-02 
828	 8.52257295237017E-02 
829	 8.51798296767196E-02 
830	 8.51114094526191E-02 
831	 8.50613159308666E-02 
832	 8.50633617946388E-02 
833	 8.49991458030396E-02 
834	 8.49494014523589E-02 
835	 8.49216422983471E-02 
836	 0.084852007021675 
837	 8.48687579363399E-02 
838	 8.48739288746448E-02 
839	 8.48060718335034E-02 
840	 8.47283192848712E-02 
841	 8.46655984333709E-02 
842	 8.46496870230328E-02 
843	 8.46793382326615E-02 
844	 8.46576632103722E-02 
845	 8.46581031985604E-02 
846	 8.46525103138122E-02 
847	 8.45942958385553E-02 
848	 8.46178099491302E-02 
849	 8.46167692500384E-02 
850	 8.45713940797912E-02 
851	 8.45461170567138E-02 
852	 0.08453130299882 
853	 8.45288314748011E-02 
854	 8.45353561027345E-02 
855	 8.45397375691752E-02 
856	 8.45172555124772E-02 
857	 8.45212521255924E-02 
858	 8.45700775567384E-02 
859	 8.45451272154276E-02 
860	 8.45187414750066E-02 
861	 8.45251218287895E-02 
862	 0.084560871711211 
863	 8.45212317918044E-02 
864	 0.08452169445325 
865	 8.45744144253459E-02 
866	 8.46182610989277E-02 
867	 8.46032474073362E-02 
868	 8.46207215320422E-02 
869	 8.46656700017669E-02 
870	 8.46357826227406E-02 
871	 8.46730667258339E-02 
872	 8.47348985940414E-02 
873	 8.47748151940218E-02 
874	 8.47921807357612E-02 
875	 8.48160156152712E-02 
876	 8.48509527901605E-02 
877	 0.084879547627513 
878	 8.48361551932443E-02 
879	 8.48708007294923E-02 
880	 8.49694678049736E-02 
881	 8.50633655561562E-02 
882	 0.085137828127811 
883	 8.52223703799871E-02 
884	 8.52639390742602E-02 
885	 8.52050820103814E-02 
886	 8.52433008296621E-02 
887	 8.53065466004057E-02 
888	 8.53659053742763E-02 
889	 8.54414122365099E-02 
890	 8.54850239270542E-02 
891	 8.55165819644008E-02 
892	 8.55658425481331E-02 
893	 8.56571796746446E-02 
894	 8.57152736231075E-02 
895	 8.57793492815393E-02 
896	 8.58720356775364E-02 
897	 0.085945871886572 
898	 8.60004280857751E-02 
899	 8.60551247002406E-02 
900	 0.086130415871129 
901	 8.62343465733336E-02 
902	 8.63285162307319E-02 
903	 8.63875546880598E-02 
904	 8.64225825886738E-02 
905	 8.65487151203704E-02 
906	 8.66829104393556E-02 
907	 8.67703694062592E-02 
908	 8.67980086987632E-02 
909	 8.68520699283559E-02 
910	 8.69804057677783E-02 
911	 8.71460526664628E-02 
912	 8.72572203990349E-02 
913	 8.72543979899507E-02 
914	 8.73180355776654E-02 
915	 8.74587779421545E-02 
916	 8.75300851704731E-02 
917	 8.75883523117586E-02 
918	 8.77011906889288E-02 
919	 8.78476640238932E-02 
920	 0.087915699023653 
921	 8.80085409945515E-02 
922	 8.81189829438358E-02 
923	 8.82387602893471E-02 
924	 8.83833349447225E-02 
925	 8.84898974787014E-02 
926	 8.86178241896996E-02 
927	 8.87771687578218E-02 
928	 8.88428455849172E-02 
929	 8.89506546561462E-02 
930	 8.91155251355946E-02 
931	 8.92922051330739E-02 
932	 8.93761971682544E-02 
933	 8.95303801582974E-02 
934	 8.97020749472876E-02 
935	 8.98074739714035E-02 
936	 8.98679511285114E-02 
937	 0.089934521786229 
938	 9.00306687036485E-02 
939	 9.01635648011306E-02 
940	 9.03307721199604E-02 
941	 9.05328838491965E-02 
942	 9.07098251714846E-02 
943	 9.08146030368633E-02 
944	 9.09393574180133E-02 
945	 9.10481376428798E-02 
946	 9.11783862758176E-02 
947	 9.13596750854845E-02 
948	 9.14353876369099E-02 
949	 9.16030857191177E-02 
950	 9.17791358009621E-02 
951	 9.18171324027215E-02 
952	 9.20486985743658E-02 
953	 9.22091171465792E-02 
954	 9.23303625667783E-02 
955	 9.25722866134698E-02 
956	 9.27357409848745E-02 
957	 9.28727611773627E-02 
958	 9.29911808661668E-02 
959	 9.30835062061584E-02 
960	 9.32537319214707E-02 
961	 9.33971335736748E-02 
962	 0.09353119266663 
963	 9.37226198543348E-02 
964	 9.37737399156052E-02 
965	 9.39092061680129E-02 
966	 9.41158702386723E-02 
967	 9.42417497531702E-02 
968	 9.44640254971386E-02 
969	 9.46436236143793E-02 
970	 9.47294528360818E-02 
971	 9.47775575090743E-02 
972	 9.49727703433514E-02 
973	 9.51609794421419E-02 
974	 9.52833953304763E-02 
975	 9.53941443301475E-02 
976	 9.56791339244716E-02 
977	 9.58409426172454E-02 
978	 9.58787064001292E-02 
979	 0.095991854620793 
980	 9.61721198870981E-02 
981	 9.63330163447306E-02 
982	 9.64511547914549E-02 
983	 9.65472064811592E-02 
984	 9.65836056733592E-02 
985	 9.68237357664758E-02 
986	 9.70703813159454E-02 
987	 9.70186255285794E-02 
988	 9.72465186443291E-02 
989	 9.73421839827737E-02 
990	 9.74059483129116E-02 
991	 9.76875845145287E-02 
992	 9.77443401457166E-02 
993	 9.78124393597628E-02 
994	 9.79847369448709E-02 
995	 0.098219550448352 
996	 9.83114645872741E-02 
997	 9.83090538001276E-02 
998	 9.83546606500694E-02 
999	 9.85407746955615E-02 
1000	 9.86724560255874E-02 
1001	 9.74198135199223E-02 
1002	 0.097480381521121 
1003	 0.097616484531531 
1004	 9.77365231906919E-02 
1005	 9.78647592557848E-02 
1006	 9.79858673644749E-02 
1007	 9.81233580754701E-02 
1008	 9.82400561598431E-02 
1009	 9.83038653123939E-02 
1010	 9.83509100593594E-02 
1011	 9.83995527207407E-02 
1012	 9.84788734730147E-02 
1013	 9.85622327806205E-02 
1014	 9.86637644683155E-02 
1015	 9.88074641110952E-02 
1016	 9.89075189352978E-02 
1017	 9.89825773472977E-02 
1018	 9.90430995231842E-02 
1019	 0.099151255204895 
1020	 9.92095548519713E-02 
1021	 9.91990688440099E-02 
1022	 9.92584729452499E-02 
1023	 0.09935557579002 
1024	 0.099404136917995 
1025	 9.94995114221609E-02 
1026	 9.95717858687752E-02 
1027	 9.96222772479292E-02 
1028	 0.099766258571319 
1029	 9.98586828892632E-02 
1030	 9.99029654909054E-02 
1031	 9.99516971997464E-02 
1032	 9.99877605194882E-02 
1033	 9.99476979303526E-02 
1034	 9.99548549851838E-02 
1035	 0.100008498753534 
1036	 0.100013766313004 
1037	 9.99871093676042E-02 
1038	 0.100004292592257 
1039	 0.10003480931187 
1040	 0.100047644489009 
1041	 0.10010612363326 
1042	 0.100135198237463 
1043	 0.100150909481113 
1044	 0.100199492386655 
1045	 0.100290573806747 
1046	 0.100357055563734 
1047	 0.100403467017026 
1048	 0.100458216734114 
1049	 0.10050293934614 
1050	 0.100544923026636 
1051	 0.100578648074373 
1052	 0.100572872893729 
1053	 0.100597570838391 
1054	 0.100661431155261 
1055	 0.100700120111322 
1056	 0.100786688502599 
1057	 0.100871338413295 
1058	 0.10094333547335 
1059	 0.10100768306701 
1060	 0.101092412304501 
1061	 0.101174555654944 
1062	 0.101204462991694 
1063	 0.101218132729846 
1064	 0.101255078009702 
1065	 0.101324316198481 
1066	 0.101395315686494 
1067	 0.101426985824407 
1068	 0.101447011540774 
1069	 0.101457400586337 
1070	 0.101509218731888 
1071	 0.101595142650562 
1072	 0.101691784063802 
1073	 0.10184779488075 
1074	 0.101925991982283 
1075	 0.101982866976188 
1076	 0.101985913029205 
1077	 0.101988149444622 
1078	 0.102042875422292 
1079	 0.102131883442674 
1080	 0.102209070398841 
1081	 0.102271345360302 
1082	 0.102320145539339 
1083	 0.102368623151556 
1084	 0.10239836649264 
1085	 0.102451886388644 
1086	 0.102523299305086 
1087	 0.102573240758549 
1088	 0.102620503723625 
1089	 0.10266084250181 
1090	 0.102685628324368 
1091	 0.10270426424128 
1092	 0.102759936855972 
1093	 0.102823721817817 
1094	 0.102890632807369 
1095	 0.102949554808571 
1096	 0.102954771182805 
1097	 0.10295797215498 
1098	 0.102990188886529 
1099	 0.103025608457451 
1100	 0.103069430462678 
1101	 0.103139589300096 
1102	 0.10320419068548 
1103	 0.10327884913875 
1104	 0.103339201987221 
1105	 0.103348315163654 
1106	 0.103339822848965 
1107	 0.103313112245884 
1108	 0.103291702975876 
1109	 0.103312338086402 
1110	 0.103348054208323 
1111	 0.103371711765945 
1112	 0.10339330614267 
1113	 0.103398674850203 
1114	 0.103397984563551 
1115	 0.103405334904314 
1116	 0.103387200139678 
1117	 0.103394852876539 
1118	 0.103411459846181 
1119	 0.103458144855141 
1120	 0.103487376867005 
1121	 0.103535886287277 
1122	 0.103613035426158 
1123	 0.103632254737504 
1124	 0.103647084049398 
1125	 0.103647824976246 
1126	 0.10366711739769 
1127	 0.103674776336887 
1128	 0.103680767261237 
1129	 0.103696522751219 
1130	 0.10370895421988 
1131	 0.10371453705295 
1132	 0.103717641634259 
1133	 0.103716836261996 
1134	 0.103726057693119 
1135	 0.103744241478914 
1136	 0.10373616375565 
1137	 0.103717803602233 
1138	 0.103754096374837 
1139	 0.103764861135454 
1140	 0.103751752441599 
1141	 0.103763653577167 
1142	 0.10379442314815 
1143	 0.103814713876307 
1144	 0.103840358683547 
1145	 0.103860992816479 
1146	 0.103889073047747 
1147	 0.103898795571249 
1148	 0.103883275638886 
1149	 0.103887156834229 
1150	 0.103889141595187 
1151	 0.103891973240136 
1152	 0.103922488798546 
1153	 0.103963857195508 
1154	 0.103974526709792 
1155	 0.103968175924583 
1156	 0.103981031320479 
1157	 0.103980648634792 
1158	 0.103992273643275 
1159	 0.104033842727541 
1160	 0.104051535608061 
1161	 0.104052648478057 
1162	 0.104060606730447 
1163	 0.104061487790349 
1164	 0.104069214607463 
1165	 0.10407653176937 
1166	 0.104093179366943 
1167	 0.1041280269574 
1168	 0.104142896184544 
1169	 0.10415203618714 
1170	 0.104159060007851 
1171	 0.10416075841668 
1172	 0.104144078422133 
1173	 0.104144071019848 
1174	 0.104146439945611 
1175	 0.104155753881404 
1176	 0.104172696002663 
1177	 0.104188470301392 
1178	 0.104210075265591 
1179	 0.104229609075365 
1180	 0.10424113608404 
1181	 0.104265348380253 
1182	 0.104302836008389 
1183	 0.104338537860101 
1184	 0.104357628298603 
1185	 0.104373300176727 
1186	 0.10439107525674 
1187	 0.104391582188074 
1188	 0.10440768360102 
1189	 0.104434174759946 
1190	 0.104463231464554 
1191	 0.104505124530432 
1192	 0.104526331661322 
1193	 0.10454320668338 
1194	 0.104561146126089 
1195	 0.104561529178571 
1196	 0.104568304514221 
1197	 0.10457727601223 
1198	 0.104594904555238 
1199	 0.104616373431261 
1200	 0.104638390480057 
1201	 0.104660818784008 
1202	 0.104691783437747 
1203	 0.104720684353973 
1204	 0.104748971896318 
1205	 0.10477145237404 
1206	 0.104799494119354 
1207	 0.104818016901143 
1208	 0.104816825320829 
1209	 0.104832249395378 
1210	 0.104851855293417 
1211	 0.104874950091008 
1212	 0.104916286585813 
1213	 0.104940632211025 
1214	 0.104951933296891 
1215	 0.104971701022 
1216	 0.104991087651108 
1217	 0.105011698333222 
1218	 0.105011228255824 
1219	 0.104999525949516 
1220	 0.105006322675733 
1221	 0.10499603852059 
1222	 0.105007036860429 
1223	 0.105055058234508 
1224	 0.105076052260668 
1225	 0.105080558547033 
1226	 0.105096229312222 
1227	 0.105118619314978 
1228	 0.105130330301543 
1229	 0.10513331380692 
1230	 0.105147007113633 
1231	 0.105166777595699 
1232	 0.105174946437503 
1233	 0.105181260233501 
1234	 0.105195077133244 
1235	 0.105201792246932 
1236	 0.105190691280718 
1237	 0.105195643737686 
1238	 0.105213542958695 
1239	 0.105220418492219 
1240	 0.105222958224265 
1241	 0.105230132321899 
1242	 0.105240575430819 
1243	 0.105243890720167 
1244	 0.105240227254163 
1245	 0.105245797885026 
1246	 0.105251871411817 
1247	 0.105257733061348 
1248	 0.105283407621068 
1249	 0.105284817922137 
1250	 0.105276968179267 
1251	 0.105283183221857 
1252	 0.105282244249433 
1253	 0.105274842000917 
1254	 0.105279027708881 
1255	 0.105297185070587 
1256	 0.105291479765387 
1257	 0.105281255579864 
1258	 0.105269719672966 
1259	 0.105231097149153 
1260	 0.105217100262317 
1261	 0.105221748905025 
1262	 0.105217213947443 
1263	 0.105214568975315 
1264	 0.105214593051794 
1265	 0.105220299897321 
1266	 0.105217441781834 
1267	 0.10521641500468 
1268	 0.105210343578684 
1269	 0.105193337992137 
1270	 0.105148526995356 
1271	 0.105142538640416 
1272	 0.1051506428315 
1273	 0.105154312905595 
1274	 0.105180408103753 
1275	 0.105190546320133 
1276	 0.105177487820237 
1277	 0.105188438864984 
1278	 0.105210163301077 
1279	 0.105235056788222 
1280	 0.105273475125195 
1281	 0.105308587635918 
1282	 0.105342445115671 
1283	 0.105382462135194 
1284	 0.105428894336164 
1285	 0.105472792167895 
1286	 0.105530808734073 
1287	 0.10557821616212 
1288	 0.105606532118761 
1289	 0.105619911925407 
1290	 0.105645659353543 
1291	 0.105648486718276 
1292	 0.105683483336936 
1293	 0.105747112581591 
1294	 0.105793239884793 
1295	 0.105847659950294 
1296	 0.105890738653555 
1297	 0.105918179264248 
1298	 0.105955855770013 
1299	 0.106002523270479 
1300	 0.106036188595925 
1301	 0.106069213159426 
1302	 0.106097264503797 
1303	 0.106115129710307 
1304	 0.10612243297786 
1305	 0.106152905404858 
1306	 0.106183022756893 
1307	 0.106193259783605 
1308	 0.106207670309983 
1309	 0.106223761846279 
1310	 0.106225908375189 
1311	 0.106244988303695 
1312	 0.106284178278755 
1313	 0.106305276535674 
1314	 0.106313578601033 
1315	 0.106336400501967 
1316	 0.106364435735862 
1317	 0.106387587765006 
1318	 0.10643042989219 
1319	 0.106444042231383 
1320	 0.106430816807351 
1321	 0.106430395755385 
1322	 0.106423917022179 
1323	 0.106413026321326 
1324	 0.106413856955213 
1325	 0.106424847988669 
1326	 0.106434557736256 
1327	 0.106434443649041 
1328	 0.106422237950415 
1329	 0.106403982694201 
1330	 0.106393783489366 
1331	 0.106377724688479 
1332	 0.106362690873559 
1333	 0.106365367705845 
1334	 0.10634221265021 
1335	 0.106295493390771 
1336	 0.10626417007266 
1337	 0.106224347148638 
1338	 0.106196600998637 
1339	 0.106179586615615 
1340	 0.10616243861877 
1341	 0.106160320912384 
1342	 0.106142141070806 
1343	 0.106119126509546 
1344	 0.106087631824507 
1345	 0.106060193521912 
1346	 0.106030322889513 
1347	 0.10600846135176 
1348	 0.105992987813322 
1349	 0.105973573854647 
1350	 0.105949008896846 
1351	 0.10592820143039 
1352	 0.105909722928235 
1353	 0.105890476955989 
1354	 0.105869345661175 
1355	 0.105852784101935 
1356	 0.105840221875807 
1357	 0.105822850503825 
1358	 0.105806850929759 
1359	 0.105793010822582 
1360	 0.105780495703215 
1361	 0.105759621227447 
1362	 0.105732788716593 
1363	 0.10570910126615 
1364	 0.105676800010255 
1365	 0.105652598801601 
1366	 0.105630612015785 
1367	 0.105627469163787 
1368	 0.105617980352684 
1369	 0.105608829451132 
1370	 0.105591042822055 
1371	 0.105555830490237 
1372	 0.105512731833755 
1373	 0.105464057508186 
1374	 0.10542399935845 
1375	 0.105390053813094 
1376	 0.105348540064697 
1377	 0.105306383907594 
1378	 0.10526564459091 
1379	 0.105219747659148 
1380	 0.105177694868815 
1381	 0.105146191871206 
1382	 0.105100064214269 
1383	 0.105046605980184 
1384	 0.104994486190637 
1385	 0.104933631432256 
1386	 0.104873904238098 
1387	 0.104820305510931 
1388	 0.104760226250955 
1389	 0.104697407087935 
1390	 0.104627546072 
1391	 0.104557936068073 
1392	 0.104484958315292 
1393	 0.104420332955978 
1394	 0.104363853049461 
1395	 0.104296313936275 
1396	 0.10421653656212 
1397	 0.104122781174368 
1398	 0.104006496812116 
1399	 0.103898731809075 
1400	 0.103783280119516 
1401	 0.103672945352032 
1402	 0.103562508693145 
1403	 0.103454006830886 
1404	 0.103345514962204 
1405	 0.103241160687049 
1406	 0.10313956506939 
1407	 0.103037539877725 
1408	 0.10293638361841 
1409	 0.102839766610443 
1410	 0.102741809165957 
1411	 0.102653044410554 
1412	 0.102573095629891 
1413	 0.102488799213174 
1414	 0.102414992972149 
1415	 0.10236386725983 
1416	 0.102323308366098 
1417	 0.102292501590961 
1418	 0.102260292489366 
1419	 0.102214453131144 
1420	 0.102182792161381 
1421	 0.102154688967573 
1422	 0.102127385826494 
1423	 0.102110241262725 
1424	 0.102088045205198 
1425	 0.102057039663936 
1426	 0.102036475123055 
1427	 0.102024410716089 
1428	 0.102011459855039 
1429	 0.101997378653543 
1430	 0.101987133488725 
1431	 0.101979709529174 
1432	 0.10197559577994 
1433	 0.101974737121723 
1434	 0.101979667808334 
1435	 0.101989602372224 
1436	 0.101996702494087 
1437	 0.102010679945596 
1438	 0.102019354536631 
1439	 0.102022968366154 
1440	 0.102031906386537 
1441	 0.102037760574913 
1442	 0.102030853685521 
1443	 0.102025043827237 
1444	 0.102028281673909 
1445	 0.102045055532423 
1446	 0.10206600554356 
1447	 0.102081801029411 
1448	 0.102106286095957 
1449	 0.102127317683393 
1450	 0.102133107851297 
1451	 0.102151770268109 
1452	 0.102181562921704 
1453	 0.102199998848436 
1454	 0.10221574044103 
1455	 0.102233541928298 
1456	 0.102251925173282 
1457	 0.10225994495521 
1458	 0.102254736754109 
1459	 0.102269084203289 
1460	 0.102289056817272 
1461	 0.10230338848029 
1462	 0.102333030209096 
1463	 0.102351598433153 
1464	 0.102349357325138 
1465	 0.102361245583931 
1466	 0.102377091188453 
1467	 0.102403055914388 
1468	 0.102439483670014 
1469	 0.10247069456854 
1470	 0.102513259118977 
1471	 0.102543831409056 
1472	 0.102554967591728 
1473	 0.10258832440075 
1474	 0.102621018085267 
1475	 0.102644059004904 
1476	 0.102680522471579 
1477	 0.102707698190719 
1478	 0.102723138467451 
1479	 0.102747409305462 
1480	 0.102772292802301 
1481	 0.102798318724407 
1482	 0.102830933115761 
1483	 0.102873962161142 
1484	 0.102910662812368 
1485	 0.102943788617193 
1486	 0.102986317600111 
1487	 0.103038325171324 
1488	 0.103075757537646 
1489	 0.103116687807442 
1490	 0.103147012715304 
1491	 0.103157900167467 
1492	 0.103179894857208 
1493	 0.103203355925957 
1494	 0.103230521003384 
1495	 0.103256324993909 
1496	 0.103289787051473 
1497	 0.10333891231294 
1498	 0.103371006763032 
1499	 0.103400408369958 
1500	 0.103428879542961 
1501	 0.103436802457318 
1502	 0.103458112731157 
1503	 0.103485041654389 
1504	 0.103524694192318 
1505	 0.103551005713541 
1506	 0.103579210539859 
1507	 0.103614530957424 
1508	 0.103640058398832 
1509	 0.103664787641481 
1510	 0.103698482563638 
1511	 0.103722691917274 
1512	 0.103740989874456 
1513	 0.103752510859927 
1514	 0.103768614694914 
1515	 0.103793949008226 
1516	 0.10381302496225 
1517	 0.103829285360174 
1518	 0.103848505217556 
1519	 0.103869309617793 
1520	 0.103881412770386 
1521	 0.103901275497716 
1522	 0.103934230403695 
1523	 0.103956170025871 
1524	 0.103971270919063 
1525	 0.10399018857643 
1526	 0.104007490416341 
1527	 0.104028284855023 
1528	 0.104051020714759 
1529	 0.104074616800121 
1530	 0.104102338655956 
1531	 0.104126946063587 
1532	 0.104151794372194 
1533	 0.104171552020248 
1534	 0.104191030500856 
1535	 0.104203209424806 
1536	 0.104214503506121 
1537	 0.104216308889349 
1538	 0.104193752575337 
1539	 0.104196081820434 
1540	 0.104203428807426 
1541	 0.104213032200782 
1542	 0.104239870083446 
1543	 0.104264158668701 
1544	 0.104283770505988 
1545	 0.104308924489039 
1546	 0.104339306647865 
1547	 0.104383750589335 
1548	 0.104398272856037 
1549	 0.104405964112669 
1550	 0.104418644724112 
1551	 0.104405966870072 
1552	 0.104422704961324 
1553	 0.104451088910319 
1554	 0.104447517975029 
1555	 0.104459852711717 
1556	 0.104476218335413 
1557	 0.104482445954469 
1558	 0.104504196661779 
1559	 0.104524642151141 
1560	 0.104541001867653 
1561	 0.104545581907987 
1562	 0.104562492606849 
1563	 0.104591664675227 
1564	 0.104601832322424 
1565	 0.104602508214036 
1566	 0.10460918862455 
1567	 0.104607597821936 
1568	 0.104615894580459 
1569	 0.104636775701655 
1570	 0.104648424817665 
1571	 0.104657259141291 
1572	 0.104662560139306 
1573	 0.10466622197303 
1574	 0.104665458905036 
1575	 0.104652935074794 
1576	 0.104654167646457 
1577	 0.104661771817213 
1578	 0.104666489940052 
1579	 0.104675045013809 
1580	 0.104687540213677 
1581	 0.104702566360824 
1582	 0.104708590750795 
1583	 0.104715559996717 
1584	 0.104723385456127 
1585	 0.104719117305413 
1586	 0.104724968449061 
1587	 0.104741534106748 
1588	 0.10475471496581 
1589	 0.10477050955991 
1590	 0.104784617472773 
1591	 0.104797409285114 
1592	 0.104809653790511 
1593	 0.104821530979616 
1594	 0.104829949959265 
1595	 0.104841065371131 
1596	 0.104846293309908 
1597	 0.104843448528704 
1598	 0.104843441275349 
1599	 0.104841003245498 
1600	 0.104836178789576 
1601	 0.104833773091485 
1602	 0.104827698108925 
1603	 0.104810575642763 
1604	 0.10480398888706 
1605	 0.104797356101743 
1606	 0.104798471917735 
1607	 0.104816249969867 
1608	 0.10482902903322 
1609	 0.104817138769285 
1610	 0.10480994147378 
1611	 0.104802832583566 
1612	 0.104800674880176 
1613	 0.104810788209913 
1614	 0.104811498654112 
1615	 0.104794331152202 
1616	 0.104773609968417 
1617	 0.104771223853406 
1618	 0.104782010428857 
1619	 0.104795282438418 
1620	 0.104808833590798 
1621	 0.10481309726645 
1622	 0.104806049055627 
1623	 0.104813821021361 
1624	 0.104830704894763 
1625	 0.104826520605578 
1626	 0.104816504253786 
1627	 0.10481899225801 
1628	 0.104807432042202 
1629	 0.10481186334831 
1630	 0.104837945350651 
1631	 0.104853744300559 
1632	 0.10486439728045 
1633	 0.104878771817726 
1634	 0.104904031158261 
1635	 0.104913526448703 
1636	 0.104913977769641 
1637	 0.104913625058735 
1638	 0.104910102158024 
1639	 0.104899031012422 
1640	 0.104877563277719 
1641	 0.104868073532975 
1642	 0.104853887562308 
1643	 0.10485020228673 
1644	 0.104867191907212 
1645	 0.104858422746164 
1646	 0.104837574878766 
1647	 0.104824985998849 
1648	 0.104797992948071 
1649	 0.104790748764639 
1650	 0.104805625824763 
1651	 0.104799724283002 
1652	 0.104790513974798 
1653	 0.104781254722496 
1654	 0.104760148819924 
1655	 0.104748893659857 
1656	 0.104741393209979 
1657	 0.10473905868037 
1658	 0.104745656442818 
1659	 0.104740744038996 
1660	 0.104731474657601 
1661	 0.104732305212428 
1662	 0.104733747966702 
1663	 0.104729030075412 
1664	 0.104729787301056 
1665	 0.104730499105524 
1666	 0.10472251592653 
1667	 0.104716499914806 
1668	 0.104719934870753 
1669	 0.104716478658252 
1670	 0.104700082836844 
1671	 0.104694777217118 
1672	 0.104697595288455 
1673	 0.104696761541593 
1674	 0.104698029628075 
1675	 0.104695579311752 
1676	 0.104688454438261 
1677	 0.10468771318518 
1678	 0.104689796447817 
1679	 0.104688283600769 
1680	 0.104688539621697 
1681	 0.104689044414303 
1682	 0.104685741528384 
1683	 0.104685331520043 
1684	 0.104696624145965 
1685	 0.104688130996943 
1686	 0.104663305746003 
1687	 0.104651262952055 
1688	 0.104631203327612 
1689	 0.104622975763176 
1690	 0.104634138205269 
1691	 0.104629682258651 
1692	 0.104616550342328 
1693	 0.104610407794398 
1694	 0.104597420154316 
1695	 0.104598542800085 
1696	 0.104628308487984 
1697	 0.104617751030618 
1698	 0.104581024766339 
1699	 0.10457392962363 
1700	 0.104551763371248 
1701	 0.104546666196747 
1702	 0.104583843633719 
1703	 0.104587443923571 
1704	 0.104569317971832 
1705	 0.104562323002121 
1706	 0.104552577133516 
1707	 0.104548432309909 
1708	 0.104556020480598 
1709	 0.104544130835628 
1710	 0.104518771958239 
1711	 0.104506708253382 
1712	 0.104485275833038 
1713	 0.104478940779355 
1714	 0.104495338717024 
1715	 0.10449467507364 
1716	 0.104488306904444 
1717	 0.104483548063245 
1718	 0.104484256186939 
1719	 0.104463048965822 
1720	 0.104425562361818 
1721	 0.104402837102079 
1722	 0.104362571099875 
1723	 0.10434923159144 
1724	 0.104371328833252 
1725	 0.104357572650576 
1726	 0.104333462305699 
1727	 0.104314743062285 
1728	 0.10427858077924 
1729	 0.104259916301937 
1730	 0.104255829992781 
1731	 0.104249628280555 
1732	 0.104249777693988 
1733	 0.104234189747633 
1734	 0.104219490986993 
1735	 0.104192961586421 
1736	 0.104146836546059 
1737	 0.104116122599906 
1738	 0.10408099023138 
1739	 0.104061733288101 
1740	 0.104060469491043 
1741	 0.104038380703573 
1742	 0.104014588478596 
1743	 0.103992482202479 
1744	 0.103957197532595 
1745	 0.103937508016802 
1746	 0.103928769141111 
1747	 0.103920607724736 
1748	 0.103909416532466 
1749	 0.103889444120167 
1750	 0.103889417177189 
1751	 0.103858089628964 
1752	 0.103814364929161 
1753	 0.103792553346888 
1754	 0.103754675672655 
1755	 0.103718808430403 
1756	 0.103691088631016 
1757	 0.103658653421137 
1758	 0.103631665352055 
1759	 0.103615179900303 
1760	 0.103599724936843 
1761	 0.103567015694581 
1762	 0.103543081629351 
1763	 0.103518317792932 
1764	 0.103490364493936 
1765	 0.103472608357285 
1766	 0.103433743673342 
1767	 0.103384541196074 
1768	 0.103336002974361 
1769	 0.103287480378345 
1770	 0.103266844218174 
1771	 0.103266531827802 
1772	 0.103267545161893 
1773	 0.10329326406077 
1774	 0.103288754975273 
1775	 0.103256428629325 
1776	 0.103252000487072 
1777	 0.103230515555014 
1778	 0.103199454022741 
1779	 0.103177063347827 
1780	 0.103148573870976 
1781	 0.103108873421018 
1782	 0.103081428915941 
1783	 0.103084587218641 
1784	 0.103072632374628 
1785	 0.103068824119639 
1786	 0.103043576739962 
1787	 0.102989467432765 
1788	 0.102958124757826 
1789	 0.10291923059169 
1790	 0.102905233368066 
1791	 0.10291964462058 
1792	 0.102928944531598 
1793	 0.102961136549244 
1794	 0.102952471117396 
1795	 0.102900407252016 
1796	 0.102897779945954 
1797	 0.102911145641674 
1798	 0.102918971266973 
1799	 0.102964997920316 
1800	 0.10298111087614 
1801	 9.86492530411991E-02 
1802	 9.86794909772612E-02 
1803	 9.87037101786478E-02 
1804	 9.87472414151943E-02 
1805	 9.88149787812456E-02 
1806	 9.88577712728059E-02 
1807	 9.88812947861132E-02 
1808	 9.89142015486758E-02 
1809	 9.89376733444973E-02 
1810	 9.89647976699264E-02 
1811	 0.098987600806832 
1812	 9.90407045950479E-02 
1813	 9.90751213365492E-02 
1814	 9.90928652725391E-02 
1815	 9.91078696584475E-02 
1816	 9.91122433303945E-02 
1817	 9.91230433374514E-02 
1818	 9.91291034819133E-02 
1819	 9.91433309193522E-02 
1820	 9.91672265027692E-02 
1821	 9.91764563374115E-02 
1822	 9.91959139048739E-02 
1823	 9.92140780362743E-02 
1824	 9.92149080162267E-02 
1825	 9.92344500719899E-02 
1826	 9.92611015903477E-02 
1827	 9.92627038927238E-02 
1828	 9.92654168708757E-02 
1829	 9.92733445341083E-02 
1830	 9.92747429137901E-02 
1831	 9.92635255695121E-02 
1832	 9.92491997698177E-02 
1833	 9.92558403496356E-02 
1834	 9.92593842609223E-02 
1835	 9.92548062347716E-02 
1836	 9.92839901202858E-02 
1837	 9.92948159431275E-02 
1838	 9.92861297707977E-02 
1839	 9.92987233138135E-02 
1840	 9.93197657415036E-02 
1841	 9.93389956474357E-02 
1842	 9.93854581671959E-02 
1843	 9.93967415122635E-02 
1844	 9.93585184002568E-02 
1845	 9.93180223855269E-02 
1846	 9.92641434349946E-02 
1847	 0.099227810675308 
1848	 9.92357263385605E-02 
1849	 0.099249165743321 
1850	 9.92445661721066E-02 
1851	 9.92238079116732E-02 
1852	 9.92234519275843E-02 
1853	 9.92185207708276E-02 
1854	 9.92021569946023E-02 
1855	 9.91935372824533E-02 
1856	 9.91551069026779E-02 
1857	 0.099094909209351 
1858	 9.90187847535226E-02 
1859	 9.89648369293022E-02 
1860	 9.89119835050639E-02 
1861	 9.88642129203155E-02 
1862	 9.88152021775627E-02 
1863	 9.87905208214331E-02 
1864	 9.87362443333714E-02 
1865	 9.86741804139273E-02 
1866	 9.86062454482312E-02 
1867	 9.85303311236388E-02 
1868	 9.84722368410218E-02 
1869	 9.83997036203738E-02 
1870	 9.83306316533608E-02 
1871	 9.82372364802134E-02 
1872	 9.81324223455964E-02 
1873	 9.79856960333737E-02 
1874	 9.78310828648223E-02 
1875	 9.76727315021581E-02 
1876	 9.75258580547148E-02 
1877	 9.73612132452491E-02 
1878	 9.71783055400972E-02 
1879	 0.097013470614616 
1880	 9.68319134846423E-02 
1881	 9.66430362234196E-02 
1882	 9.64349751125823E-02 
1883	 9.62373776826877E-02 
1884	 9.59696960472862E-02 
1885	 9.56652826292243E-02 
1886	 9.53641286900722E-02 
1887	 9.50728647730132E-02 
1888	 9.47878706231764E-02 
1889	 9.45005726750576E-02 
1890	 9.41773327983992E-02 
1891	 0.093824846666783 
1892	 9.34068641772607E-02 
1893	 9.30184589066137E-02 
1894	 9.26193485720919E-02 
1895	 9.22264494094024E-02 
1896	 9.18375329417921E-02 
1897	 9.14512572324736E-02 
1898	 9.10467168634855E-02 
1899	 9.06427342080257E-02 
1900	 9.02526891446816E-02 
1901	 0.089870548156049 
1902	 8.94989978832516E-02 
1903	 8.91421667905593E-02 
1904	 8.87982470139204E-02 
1905	 0.088462966449192 
1906	 8.81458053104151E-02 
1907	 8.78254472814479E-02 
1908	 8.75212246592096E-02 
1909	 8.72351210553382E-02 
1910	 8.69505873565521E-02 
1911	 8.67149587008803E-02 
1912	 0.086483437835463 
1913	 8.62618678812902E-02 
1914	 8.60440485720956E-02 
1915	 8.58533540864161E-02 
1916	 8.56662466603547E-02 
1917	 8.55312772904615E-02 
1918	 8.54030271087033E-02 
1919	 8.52638704958718E-02 
1920	 0.085147818220915 
1921	 8.50292029590162E-02 
1922	 0.084918805380233 
1923	 8.48451575517831E-02 
1924	 8.47563672729489E-02 
1925	 8.46522433112813E-02 
1926	 8.45770695861814E-02 
1927	 8.45117676124405E-02 
1928	 8.44534775890507E-02 
1929	 8.44215792474441E-02 
1930	 8.44198422709222E-02 
1931	 0.084417814688757 
1932	 8.44148530734239E-02 
1933	 0.084420388002594 
1934	 8.44066205309246E-02 
1935	 8.44144167164478E-02 
1936	 8.44311613114428E-02 
1937	 8.44562494941509E-02 
1938	 8.45043330129628E-02 
1939	 8.45395145232619E-02 
1940	 8.45751181165608E-02 
1941	 8.45951683783479E-02 
1942	 8.46287892352867E-02 
1943	 8.46612481150488E-02 
1944	 8.47170285544145E-02 
1945	 8.47708152159637E-02 
1946	 8.48161981683511E-02 
1947	 0.084855424306154 
1948	 8.49075122562151E-02 
1949	 8.49514280775712E-02 
1950	 8.50047388028401E-02 
1951	 8.50687929730181E-02 
1952	 8.51389453391515E-02 
1953	 8.51978654524076E-02 
1954	 8.52860462500745E-02 
1955	 8.53864856403262E-02 
1956	 8.54699170151712E-02 
1957	 8.55524606969587E-02 
1958	 8.56299703732539E-02 
1959	 8.57181374878482E-02 
1960	 8.57944165401601E-02 
1961	 8.58941343834805E-02 
1962	 8.60256517839963E-02 
1963	 8.61361156894913E-02 
1964	 8.62410747556326E-02 
1965	 8.63595712210134E-02 
1966	 8.64683043289906E-02 
1967	 8.65619209049992E-02 
1968	 8.66644414390636E-02 
1969	 8.67704353979299E-02 
1970	 8.68743224690068E-02 
1971	 8.69741174946322E-02 
1972	 8.70841152563131E-02 
1973	 8.72041203552281E-02 
1974	 8.73192866096842E-02 
1975	 8.74405275567147E-02 
1976	 8.75458063560529E-02 
1977	 8.76623851785151E-02 
1978	 8.77891345963484E-02 
1979	 8.79170500724443E-02 
1980	 8.80552416712722E-02 
1981	 8.81786452795776E-02 
1982	 8.82907714679192E-02 
1983	 8.84068347082798E-02 
1984	 8.85193084194252E-02 
1985	 8.86326487706222E-02 
1986	 8.87522225147337E-02 
1987	 8.88651063063747E-02 
1988	 8.89666330550969E-02 
1989	 8.90725966997789E-02 
1990	 8.92023325914507E-02 
1991	 8.93283301883751E-02 
1992	 0.089446972065183 
1993	 0.089577722634477 
1994	 8.96949718059794E-02 
1995	 8.97892681358777E-02 
1996	 8.98996878430371E-02 
1997	 9.00204013692762E-02 
1998	 9.01334370576196E-02 
1999	 9.02406438038409E-02 
2000	 9.03536682813356E-02 
2001	 0.090462441491975 
2002	 9.05882272242478E-02 
2003	 9.06936734375219E-02 
2004	 0.090802047439259 
2005	 9.09360362334724E-02 
2006	 9.10960769385736E-02 
2007	 9.12149579604844E-02 
2008	 9.13430095585753E-02 
2009	 9.14563405193355E-02 
2010	 9.15191090019463E-02 
2011	 9.16128415588339E-02 
2012	 9.17284630817467E-02 
2013	 0.091836190164243 
2014	 9.19423752088277E-02 
2015	 9.20464291824778E-02 
2016	 9.21576325761979E-02 
2017	 9.22895707371277E-02 
2018	 9.24114113886605E-02 
2019	 0.092543350091408 
2020	 0.092665095159844 
2021	 9.27860623522565E-02 
2022	 9.28913935864834E-02 
2023	 9.29819734672653E-02 
2024	 9.30814595052776E-02 
2025	 9.31749608288334E-02 
2026	 9.32671990379553E-02 
2027	 9.33676600106295E-02 
2028	 9.34574901293256E-02 
2029	 9.35527036705659E-02 
2030	 9.36434291696996E-02 
2031	 9.37325993742328E-02 
2032	 9.38348210776442E-02 
2033	 9.39153074233178E-02 
2034	 0.093966698243028 
2035	 9.40458271029191E-02 
2036	 9.41286305261385E-02 
2037	 9.42124480065101E-02 
2038	 9.43187745585508E-02 
2039	 9.44075616364097E-02 
2040	 9.44922990904255E-02 
2041	 9.45625069232345E-02 
2042	 9.46202668520065E-02 
2043	 9.46979311209798E-02 
2044	 9.47711114649864E-02 
2045	 9.48461139874401E-02 
2046	 9.49136417818419E-02 
2047	 9.49869539502194E-02 
2048	 9.50486927693724E-02 
2049	 9.50910183581365E-02 
2050	 9.51503311109364E-02 
2051	 9.52084103592586E-02 
2052	 9.52736451513053E-02 
2053	 0.095350942987334 
2054	 9.54276604514313E-02 
2055	 9.55205474379235E-02 
2056	 0.095594778141576 
2057	 9.56608949886694E-02 
2058	 9.57189139703741E-02 
2059	 9.57799368218702E-02 
2060	 9.58239308777734E-02 
2061	 9.58868346793976E-02 
2062	 9.59690909575805E-02 
2063	 9.60319602583494E-02 
2064	 9.60923527039916E-02 
2065	 9.61471030889158E-02 
2066	 9.61720442567255E-02 
2067	 9.62307852558999E-02 
2068	 0.096316505445593 
2069	 9.63908538652315E-02 
2070	 9.64496517683061E-02 
2071	 9.65107167739422E-02 
2072	 9.65794051394852E-02 
2073	 9.66320921843019E-02 
2074	 9.66915658207129E-02 
2075	 9.67880982702449E-02 
2076	 9.68377387559583E-02 
2077	 9.68340903263403E-02 
2078	 9.68714035763912E-02 
2079	 9.69067529776725E-02 
2080	 9.69559448641012E-02 
2081	 9.70392089168048E-02 
2082	 9.71070301840323E-02 
2083	 9.71784799735882E-02 
2084	 9.72385852138602E-02 
2085	 9.72903773773393E-02 
2086	 9.73293521977689E-02 
2087	 9.73798047841288E-02 
2088	 9.74226906195516E-02 
2089	 0.097474759238316 
2090	 9.75400481060832E-02 
2091	 9.75949809824489E-02 
2092	 9.76475785769304E-02 
2093	 9.76993887255871E-02 
2094	 9.77492479675242E-02 
2095	 9.77983533598956E-02 
2096	 9.78382055795572E-02 
2097	 9.78879862540247E-02 
2098	 9.79334672679565E-02 
2099	 9.79933866029277E-02 
2100	 0.098066389116542 
2101	 9.81681044470227E-02 
2102	 9.82315960093886E-02 
2103	 9.82853917031365E-02 
2104	 9.83501847617601E-02 
2105	 9.83981355589385E-02 
2106	 9.84543977405158E-02 
2107	 9.85339600039088E-02 
2108	 9.85974505273417E-02 
2109	 9.86398834624111E-02 
2110	 9.86942972767041E-02 
2111	 9.87607778314324E-02 
2112	 9.88160684586052E-02 
2113	 9.88606792386509E-02 
2114	 9.89172695764382E-02 
2115	 0.09896665189001 
2116	 9.90062855762841E-02 
2117	 9.90615748209342E-02 
2118	 9.91191632730558E-02 
2119	 0.099187804118622 
2120	 9.92758338640444E-02 
2121	 0.099345010784487 
2122	 9.94287447740996E-02 
2123	 9.94807316347107E-02 
2124	 9.95051548412584E-02 
2125	 9.95345094195245E-02 
2126	 9.95275992605092E-02 
2127	 9.95571158106047E-02 
2128	 0.099621844375735 
2129	 9.96612961373671E-02 
2130	 9.97062150772805E-02 
2131	 9.97465944079973E-02 
2132	 9.97817407823769E-02 
2133	 9.97993020364333E-02 
2134	 9.98146113067745E-02 
2135	 9.98366227230446E-02 
2136	 9.98432386532796E-02 
2137	 9.98212665596701E-02 
2138	 9.98198250295167E-02 
2139	 9.98284172759722E-02 
2140	 9.98283932016614E-02 
2141	 9.98437302057491E-02 
2142	 9.98288632882777E-02 
2143	 9.97935979010553E-02 
2144	 9.97569875523266E-02 
2145	 9.96869034866907E-02 
2146	 9.96385811417962E-02 
2147	 9.95973740737976E-02 
2148	 9.95624428242051E-02 
2149	 9.95322636489861E-02 
2150	 9.95167232174879E-02 
2151	 9.94891735146951E-02 
2152	 0.099469973772214 
2153	 9.94268660016196E-02 
2154	 0.099368813617325 
2155	 9.93121318092638E-02 
2156	 9.92313847609218E-02 
2157	 9.91723904249835E-02 
2158	 9.91382991620397E-02 
2159	 9.90775657930685E-02 
2160	 9.90041929530939E-02 
2161	 9.89398075890307E-02 
2162	 0.098872493149568 
2163	 9.87930572179008E-02 
2164	 9.87150428017797E-02 
2165	 9.86360733881237E-02 
2166	 9.85489755512917E-02 
2167	 9.84370972221643E-02 
2168	 9.83468157048454E-02 
2169	 9.82594693401019E-02 
2170	 9.81899289458363E-02 
2171	 9.81276906215653E-02 
2172	 9.80743725320374E-02 
2173	 9.80588320975987E-02 
2174	 0.098003553138597 
2175	 9.79312270669748E-02 
2176	 9.78631683292486E-02 
2177	 9.77726491317782E-02 
2178	 9.76953399496933E-02 
2179	 9.76257411918006E-02 
2180	 9.75587823483305E-02 
2181	 9.75024555790774E-02 
2182	 9.74353671528934E-02 
2183	 9.73602572323507E-02 
2184	 9.72955165892849E-02 
2185	 9.72264997278498E-02 
2186	 9.71474252494109E-02 
2187	 9.70776786895334E-02 
2188	 9.70160723512992E-02 
2189	 0.096953066258271 
2190	 9.68916582179027E-02 
2191	 9.68262943955129E-02 
2192	 9.67618694902277E-02 
2193	 9.66967404935849E-02 
2194	 9.66280387578726E-02 
2195	 9.65598806481896E-02 
2196	 9.64862218359704E-02 
2197	 9.64239673369552E-02 
2198	 9.63601072191041E-02 
2199	 9.63078404640906E-02 
2200	 9.62815354931505E-02 
2201	 9.62410969264246E-02 
2202	 9.61963547094665E-02 
2203	 9.61483215603449E-02 
2204	 0.096116793072887 
2205	 9.60800817095324E-02 
2206	 9.60643560831279E-02 
2207	 9.60849389659238E-02 
2208	 9.60639083180649E-02 
2209	 0.096014012393516 
2210	 9.60104607505553E-02 
2211	 9.60159527140271E-02 
2212	 9.60183023367303E-02 
2213	 9.60626060648609E-02 
2214	 9.60708339467705E-02 
2215	 9.60247706225452E-02 
2216	 9.60296757367046E-02 
2217	 9.60788356274598E-02 
2218	 9.60900680390793E-02 
2219	 0.096105052473483 
2220	 9.61136074283491E-02 
2221	 9.60923111220886E-02 
2222	 9.60644472880975E-02 
2223	 9.60763728864939E-02 
2224	 9.61064631285464E-02 
2225	 9.61190387251848E-02 
2226	 9.61387178981387E-02 
2227	 9.61399872004685E-02 
2228	 9.61123155012528E-02 
2229	 9.61255628394705E-02 
2230	 9.61510154206557E-02 
2231	 9.61821428294345E-02 
2232	 9.62483990967423E-02 
2233	 9.62824511003999E-02 
2234	 9.63006387823201E-02 
2235	 0.096322123866548 
2236	 9.63440458900437E-02 
2237	 9.63529052436742E-02 
2238	 9.63366171333575E-02 
2239	 9.63460849969693E-02 
2240	 9.63702493588014E-02 
2241	 9.63782437584329E-02 
2242	 9.64042236415757E-02 
2243	 9.64126066564097E-02 
2244	 9.63927774137327E-02 
2245	 9.63677964076254E-02 
2246	 9.63655688455048E-02 
2247	 9.63624217094567E-02 
2248	 9.63831987289982E-02 
2249	 9.64321349501805E-02 
2250	 9.64555324757343E-02 
2251	 9.64910966877409E-02 
2252	 9.65072457992706E-02 
2253	 9.65043648402916E-02 
2254	 9.64955212561207E-02 
2255	 9.64832636237907E-02 
2256	 9.64525370951827E-02 
2257	 9.63779490624933E-02 
2258	 9.63653602175694E-02 
2259	 0.09635096954713 
2260	 9.63771269156093E-02 
2261	 9.64965746706584E-02 
2262	 9.65411746284249E-02 
2263	 0.096570118921261 
2264	 9.65987022377118E-02 
2265	 9.65915901501018E-02 
2266	 9.65870426347574E-02 
2267	 9.65710880026724E-02 
2268	 9.65784613275075E-02 
2269	 9.65946061364904E-02 
2270	 9.66027642569181E-02 
2271	 0.096637699835315 
2272	 9.66784084953864E-02 
2273	 9.66625279928981E-02 
2274	 9.66528170096442E-02 
2275	 9.66608513699071E-02 
2276	 0.096667767018627 
2277	 0.096674272985712 
2278	 9.67030885938143E-02 
2279	 9.67122334099317E-02 
2280	 9.66966433241615E-02 
2281	 9.67056077040657E-02 
2282	 9.67343125203963E-02 
2283	 9.67432572828418E-02 
2284	 9.67577166601344E-02 
2285	 9.67547186280577E-02 
2286	 9.67105031284526E-02 
2287	 9.67100750099067E-02 
2288	 9.67248591484961E-02 
2289	 9.67401400095061E-02 
2290	 9.67835007900026E-02 
2291	 0.096814979386642 
2292	 9.68415859618305E-02 
2293	 9.68641222568105E-02 
2294	 0.096893887894303 
2295	 9.69198990910382E-02 
2296	 9.69537057283558E-02 
2297	 9.69483680132976E-02 
2298	 0.096943371843303 
2299	 9.69103575038759E-02 
2300	 9.68803288420337E-02 
2301	 9.68873463291277E-02 
2302	 9.69021359643147E-02 
2303	 9.69015662796139E-02 
2304	 9.68988336898883E-02 
2305	 9.68757926417102E-02 
2306	 9.68638458961206E-02 
2307	 9.68511848901669E-02 
2308	 0.096850349655039 
2309	 9.68699627784578E-02 
2310	 9.68504910539204E-02 
2311	 9.68169816042455E-02 
2312	 9.68043822931836E-02 
2313	 9.67636613572624E-02 
2314	 9.67453685524172E-02 
2315	 9.67654298452358E-02 
2316	 9.67524886557706E-02 
2317	 9.67271894846204E-02 
2318	 9.67056053819866E-02 
2319	 9.66589736132996E-02 
2320	 9.66522613183395E-02 
2321	 9.66848209194045E-02 
2322	 9.66742781787358E-02 
2323	 9.66609752334913E-02 
2324	 9.66580336406825E-02 
2325	 9.66142762442268E-02 
2326	 9.65997336972283E-02 
2327	 9.66352769461944E-02 
2328	 9.66401236514966E-02 
2329	 9.66103886717062E-02 
2330	 9.65938097279957E-02 
2331	 9.65701002577306E-02 
2332	 9.65851391657439E-02 
2333	 9.66196184891464E-02 
2334	 9.66769289827136E-02 
2335	 0.096744748411182 
2336	 9.67756037608027E-02 
2337	 9.67948023530904E-02 
2338	 9.68055303621022E-02 
2339	 9.67545316984888E-02 
2340	 9.66585879087126E-02 
2341	 9.65834442241319E-02 
2342	 9.65355892388541E-02 
2343	 9.65260838731894E-02 
2344	 9.65829133067047E-02 
2345	 9.66169271994495E-02 
2346	 9.66914731938836E-02 
2347	 9.66854824266658E-02 
2348	 9.66499865232114E-02 
2349	 9.65913209903942E-02 
2350	 9.64665091389677E-02 
2351	 9.63926195036808E-02 
2352	 9.63046254470336E-02 
2353	 9.62764568005061E-02 
2354	 9.62927579522448E-02 
2355	 9.63052415163937E-02 
2356	 9.63799799025959E-02 
2357	 9.63792590254732E-02 
2358	 0.096337373292337 
2359	 9.63144383431725E-02 
2360	 9.62825828085105E-02 
2361	 9.62214329218968E-02 
2362	 9.61424077146923E-02 
2363	 9.60767163224296E-02 
2364	 9.59677879351021E-02 
2365	 9.58987919354181E-02 
2366	 9.58671233134099E-02 
2367	 9.58524712352654E-02 
2368	 9.58513744379814E-02 
2369	 9.58445095318392E-02 
2370	 9.58739612994255E-02 
2371	 9.58826648021382E-02 
2372	 9.58082251291779E-02 
2373	 9.57975843707636E-02 
2374	 9.57778016725141E-02 
2375	 9.57067305401299E-02 
2376	 9.56886927110194E-02 
2377	 9.56284447038471E-02 
2378	 9.55211307844319E-02 
2379	 9.54463472096093E-02 
2380	 9.53642286519817E-02 
2381	 9.53184254480693E-02 
2382	 9.52874346459958E-02 
2383	 9.52686562798582E-02 
2384	 9.52521811051896E-02 
2385	 9.51281502686643E-02 
2386	 9.50389528559301E-02 
2387	 9.49751536932881E-02 
2388	 0.094854205138484 
2389	 9.48345834707191E-02 
2390	 9.48362578127837E-02 
2391	 9.48249858827192E-02 
2392	 9.47785356279456E-02 
2393	 9.46390251118596E-02 
2394	 9.45429139596058E-02 
2395	 9.44196070957606E-02 
2396	 9.43283705585735E-02 
2397	 9.43222673906184E-02 
2398	 9.42838310180066E-02 
2399	 9.42015235076096E-02 
2400	 9.40532224617614E-02 
2401	 9.39370735895566E-02 
2402	 9.38900896602321E-02 
2403	 9.38641296597133E-02 
2404	 9.38920681317767E-02 
2405	 9.39140035608228E-02 
2406	 9.37987997509008E-02 
2407	 9.36359466225812E-02 
2408	 9.34294228149147E-02 
2409	 9.32262389095072E-02 
2410	 9.31427495663147E-02 
2411	 9.30986645888535E-02 
2412	 9.31673397190791E-02 
2413	 9.32415602927374E-02 
2414	 9.32509496686466E-02 
2415	 9.32586033257453E-02 
2416	 0.093184116583517 
2417	 9.29871240968433E-02 
2418	 9.28491763157166E-02 
2419	 9.26850917750607E-02 
2420	 9.25549563030185E-02 
2421	 9.24579648294464E-02 
2422	 9.23607792810898E-02 
2423	 9.22598473060588E-02 
2424	 9.21457912151766E-02 
2425	 9.20309862345024E-02 
2426	 9.19213177250357E-02 
2427	 9.18604200605498E-02 
2428	 9.17359600480215E-02 
2429	 9.15077290849509E-02 
2430	 9.14511813714406E-02 
2431	 9.14132277983361E-02 
2432	 9.13418296322662E-02 
2433	 0.091462900201217 
2434	 9.14383323703937E-02 
2435	 9.12417956875492E-02 
2436	 9.12124144154191E-02 
2437	 9.12603530960938E-02 
2438	 9.11431366942386E-02 
2439	 9.10218515196032E-02 
2440	 9.09148544591402E-02 
2441	 9.06422649538322E-02 
2442	 9.06175017706444E-02 
2443	 9.08029702012242E-02 
2444	 9.07934778555264E-02 
2445	 9.07937033878217E-02 
2446	 9.07358201327746E-02 
2447	 9.05532190769332E-02 
2448	 9.04245949600064E-02 
2449	 0.090357588934761 
2450	 9.01954978122624E-02 
2451	 8.99160390098518E-02 
2452	 0.089748981180389 
2453	 8.95623249160524E-02 
2454	 0.089501660075342 
2455	 8.96626534673809E-02 
2456	 8.95834863001485E-02 
2457	 8.94409084384294E-02 
2458	 8.93145853197405E-02 
2459	 8.89788296215989E-02 
2460	 8.88383697129559E-02 
2461	 8.87986243788886E-02 
2462	 8.88096982370133E-02 
2463	 8.90183403682804E-02 
2464	 0.088987373510317 
2465	 8.88625104007336E-02 
2466	 8.87949326995626E-02 
2467	 8.86639491647272E-02 
2468	 0.088480058569185 
2469	 8.82986028254371E-02 
2470	 8.83706712260618E-02 
2471	 8.82708055778956E-02 
2472	 8.82157592174245E-02 
2473	 8.81910495765893E-02 
2474	 8.79496512389006E-02 
2475	 8.76651235652463E-02 
2476	 8.76583036644124E-02 
2477	 8.77186309257851E-02 
2478	 8.76914715741628E-02 
2479	 8.75945199748442E-02 
2480	 8.75484657256171E-02 
2481	 8.74467631777482E-02 
2482	 8.72905873737852E-02 
2483	 8.71841680960655E-02 
2484	 8.70042745182211E-02 
2485	 8.68788637516676E-02 
2486	 8.67743369635482E-02 
2487	 8.66884883885485E-02 
2488	 8.65857572785841E-02 
2489	 8.65159502112609E-02 
2490	 8.64999605670762E-02 
2491	 8.64584322114687E-02 
2492	 8.66063051893402E-02 
2493	 8.66784644182041E-02 
2494	 8.66446703589887E-02 
2495	 8.65417035021599E-02 
2496	 8.61476339882807E-02 
2497	 8.59829907849737E-02 
2498	 8.61251659378353E-02 
2499	 8.59333260724918E-02 
2500	 8.57163343397892E-02 
