Wavelength	MM_3100001.asd
350	 5.30231625573724E-02 
351	 4.64399951481413E-02 
352	 3.71401942943067E-02 
353	 3.62747501431565E-02 
354	 4.34013277758738E-02 
355	 4.66718592320672E-02 
356	 4.59396164687932E-02 
357	 4.46184942458355E-02 
358	 4.59845113357208E-02 
359	 4.60441353346669E-02 
360	 4.62938035846654E-02 
361	 5.06476161003995E-02 
362	 4.74744330709368E-02 
363	 4.73099686402305E-02 
364	 0.05284171436184 
365	 5.04746269503954E-02 
366	 4.98828628288043E-02 
367	 5.04473412233862E-02 
368	 5.00341931910219E-02 
369	 5.23008241533702E-02 
370	 5.20980048063606E-02 
371	 5.06580197213324E-02 
372	 5.30877044658047E-02 
373	 5.51828252427602E-02 
374	 5.31371363287061E-02 
375	 4.89396816211012E-02 
376	 0.054596646683912 
377	 5.58958858825545E-02 
378	 5.41131870923497E-02 
379	 5.42890720595969E-02 
380	 5.61700271375365E-02 
381	 5.61792628704049E-02 
382	 5.58137418966144E-02 
383	 5.96476498640969E-02 
384	 5.92578962523845E-02 
385	 5.71032263932671E-02 
386	 5.60387770014102E-02 
387	 5.64972667421778E-02 
388	 0.057857719077033 
389	 5.97723513939367E-02 
390	 0.061588247882609 
391	 6.10819321642994E-02 
392	 5.99370943723169E-02 
393	 6.02037706696023E-02 
394	 6.35525982129753E-02 
395	 0.063667909715859 
396	 6.34510022580735E-02 
397	 6.47639369106764E-02 
398	 6.36732333726237E-02 
399	 6.36210391612516E-02 
400	 6.50139979459823E-02 
401	 6.67735433515064E-02 
402	 6.66281236809618E-02 
403	 6.58434281672793E-02 
404	 0.065713394439715 
405	 0.067183123933808 
406	 6.74858164908314E-02 
407	 6.79001210501329E-02 
408	 6.90422711254708E-02 
409	 6.75389075062185E-02 
410	 0.06685986761772 
411	 6.70774152893646E-02 
412	 6.69358059959911E-02 
413	 0.068404858699822 
414	 0.068977520155258 
415	 6.82984915897379E-02 
416	 6.91726363001627E-02 
417	 6.89196102320732E-02 
418	 6.88869760873669E-02 
419	 7.02403106949235E-02 
420	 7.03026968049398E-02 
421	 0.069884266387227 
422	 6.98053950758339E-02 
423	 7.06606005632958E-02 
424	 7.10535907747406E-02 
425	 7.11016490844017E-02 
426	 7.10016926188274E-02 
427	 7.06664093858799E-02 
428	 7.03224135177069E-02 
429	 7.03089449196071E-02 
430	 7.08077455069812E-02 
431	 0.0712300138429 
432	 7.12143457570727E-02 
433	 7.09127849783613E-02 
434	 7.09200282110021E-02 
435	 7.12310567341977E-02 
436	 7.14634984754974E-02 
437	 0.071349296554172 
438	 7.09991637116705E-02 
439	 7.14288563081169E-02 
440	 7.21309318769752E-02 
441	 7.20255327813425E-02 
442	 7.22628399774402E-02 
443	 7.24548740840619E-02 
444	 7.24458311168324E-02 
445	 7.26591886941126E-02 
446	 7.26499953419993E-02 
447	 0.07282936979582 
448	 7.35127263312533E-02 
449	 7.35761496949055E-02 
450	 0.073649900621964 
451	 7.39559129261025E-02 
452	 7.42924069661307E-02 
453	 0.074028694762204 
454	 0.073808387838732 
455	 7.41232663920314E-02 
456	 7.46008978523553E-02 
457	 7.47727471853521E-02 
458	 7.47724631900936E-02 
459	 7.49948179357812E-02 
460	 7.53878261561088E-02 
461	 7.54476026552077E-02 
462	 7.51617413811429E-02 
463	 7.52401224706912E-02 
464	 7.54341804012129E-02 
465	 7.56585874842864E-02 
466	 7.58423377179815E-02 
467	 7.58225994046391E-02 
468	 7.60154695640636E-02 
469	 7.63628112018789E-02 
470	 7.64386662918636E-02 
471	 7.64885493446996E-02 
472	 7.66718886648123E-02 
473	 7.69699543668598E-02 
474	 7.69510015442002E-02 
475	 7.71798764745193E-02 
476	 7.74080728017015E-02 
477	 0.077192734338603 
478	 7.74687630678466E-02 
479	 7.77414639867361E-02 
480	 7.77537103876779E-02 
481	 7.77394717090018E-02 
482	 7.79536451851974E-02 
483	 7.82933710891392E-02 
484	 0.07855256697152 
485	 7.86082843955518E-02 
486	 7.85996438961256E-02 
487	 7.86361696229592E-02 
488	 7.87797794011445E-02 
489	 7.88308774084669E-02 
490	 7.89395256118702E-02 
491	 7.91781760576601E-02 
492	 7.92956300663986E-02 
493	 7.92475912531898E-02 
494	 0.079237613966217 
495	 7.95205483435691E-02 
496	 0.079715979061565 
497	 7.98857039090773E-02 
498	 8.00308302848993E-02 
499	 0.07999522807457 
500	 7.98576575640488E-02 
501	 7.99064773409483E-02 
502	 8.02757260374986E-02 
503	 0.080151084257096 
504	 8.02376448277347E-02 
505	 8.05732392926291E-02 
506	 8.05726430762775E-02 
507	 8.06318320754497E-02 
508	 8.07681122687772E-02 
509	 8.08654017787327E-02 
510	 8.05885688721133E-02 
511	 8.06478001190359E-02 
512	 8.09142703203605E-02 
513	 8.08730990426201E-02 
514	 8.09805226497304E-02 
515	 8.11182695581408E-02 
516	 8.11943965072216E-02 
517	 8.12694648263704E-02 
518	 0.081336206941813 
519	 8.13744502904847E-02 
520	 8.13839017792085E-02 
521	 8.15064465039138E-02 
522	 8.15211183383312E-02 
523	 8.14534301641254E-02 
524	 0.081596709926408 
525	 8.16620387256984E-02 
526	 8.16646444462157E-02 
527	 8.16842603718879E-02 
528	 0.081784850318505 
529	 8.18494718943494E-02 
530	 8.18650667870867E-02 
531	 8.18934961392414E-02 
532	 8.20151945611233E-02 
533	 8.20690113825135E-02 
534	 8.20126239323075E-02 
535	 8.21333699671337E-02 
536	 8.21595038614842E-02 
537	 8.21604918028998E-02 
538	 8.22938616588558E-02 
539	 8.23685538810792E-02 
540	 8.23236542414481E-02 
541	 8.22492058900226E-02 
542	 8.24168146238471E-02 
543	 8.25935835515406E-02 
544	 8.26589897807128E-02 
545	 8.25956425270376E-02 
546	 8.26487136745085E-02 
547	 8.27387058835576E-02 
548	 8.28092653153785E-02 
549	 8.28366537309574E-02 
550	 8.28926208919739E-02 
551	 8.29287742910361E-02 
552	 8.29259056584512E-02 
553	 8.29982014779277E-02 
554	 8.30925773621507E-02 
555	 0.083178951675533 
556	 8.32484899582724E-02 
557	 8.33904367176248E-02 
558	 8.35002558545052E-02 
559	 8.35582185125109E-02 
560	 8.37408474368498E-02 
561	 8.37990388021513E-02 
562	 8.38120778662386E-02 
563	 8.39251536864872E-02 
564	 8.39733475167298E-02 
565	 8.39860837027738E-02 
566	 8.39860321069578E-02 
567	 8.39765341150865E-02 
568	 8.40862321615413E-02 
569	 0.084282201063935 
570	 8.44899143605857E-02 
571	 8.46455316467248E-02 
572	 8.48370025594516E-02 
573	 0.08502362702178 
574	 0.085087672000307 
575	 0.085179434807576 
576	 8.52652978618482E-02 
577	 8.53319632788935E-02 
578	 8.54948963492168E-02 
579	 8.55491405892691E-02 
580	 8.54734478099293E-02 
581	 8.53511621809365E-02 
582	 0.085356873213939 
583	 8.53599663317338E-02 
584	 8.53350557310122E-02 
585	 0.085445019957835 
586	 8.56220521179735E-02 
587	 8.58046498428861E-02 
588	 8.59468735247098E-02 
589	 8.60797919471778E-02 
590	 8.61883546723136E-02 
591	 8.63052838553363E-02 
592	 0.086499977551492 
593	 8.66340320075587E-02 
594	 8.67903339583509E-02 
595	 8.69936883982591E-02 
596	 8.69858805066997E-02 
597	 0.086984982994948 
598	 8.70062467945256E-02 
599	 8.69699831035543E-02 
600	 8.69986138415032E-02 
601	 8.70130779467306E-02 
602	 8.69810750499441E-02 
603	 8.69920376076085E-02 
604	 8.70553052415736E-02 
605	 8.71072578509038E-02 
606	 8.70895183666711E-02 
607	 8.71384680421809E-02 
608	 8.72180578725521E-02 
609	 8.73064613339625E-02 
610	 8.74092141279586E-02 
611	 8.74493890831563E-02 
612	 8.74905772862362E-02 
613	 8.75757454773394E-02 
614	 8.75552459001236E-02 
615	 0.087518502660414 
616	 8.75134205724398E-02 
617	 8.75516927536225E-02 
618	 8.75945939581478E-02 
619	 8.76064936352101E-02 
620	 8.75867693986229E-02 
621	 8.76039857648411E-02 
622	 8.76460008213083E-02 
623	 8.76725662458464E-02 
624	 8.76486295108029E-02 
625	 8.76709945283133E-02 
626	 8.77018414456202E-02 
627	 0.087720512880974 
628	 8.77435026935716E-02 
629	 8.77779711593034E-02 
630	 8.77886461339905E-02 
631	 8.77616245672991E-02 
632	 0.087817833582824 
633	 8.78233398420586E-02 
634	 0.087784590912853 
635	 0.08782016008798 
636	 8.78524894008065E-02 
637	 8.78821037051336E-02 
638	 8.79153792886913E-02 
639	 8.79431240002295E-02 
640	 8.79486525478451E-02 
641	 8.79589746453992E-02 
642	 8.80132531490012E-02 
643	 8.80737132783376E-02 
644	 8.81049172498709E-02 
645	 8.81013960682558E-02 
646	 8.80988342325799E-02 
647	 8.81010776717562E-02 
648	 8.81394980659868E-02 
649	 8.82170481274016E-02 
650	 8.81896067493267E-02 
651	 8.82052305374783E-02 
652	 8.82803310843415E-02 
653	 8.83134610879137E-02 
654	 8.83466321269109E-02 
655	 8.83646802482611E-02 
656	 8.83651499027952E-02 
657	 8.83986967938648E-02 
658	 8.84439853078673E-02 
659	 8.84870201631935E-02 
660	 8.85133890551221E-02 
661	 8.84815549194978E-02 
662	 8.84949094315961E-02 
663	 8.85835887639149E-02 
664	 8.86560858299927E-02 
665	 8.86649467290934E-02 
666	 8.86481721513338E-02 
667	 8.86589256539441E-02 
668	 8.86855834175032E-02 
669	 8.87036819329379E-02 
670	 8.87081424974347E-02 
671	 8.87137590763018E-02 
672	 0.088777727458376 
673	 0.088837489679582 
674	 8.88537296381811E-02 
675	 0.088894449507702 
676	 8.89155930296501E-02 
677	 8.89165370237335E-02 
678	 8.89207467831834E-02 
679	 8.89793445158397E-02 
680	 8.90249866612171E-02 
681	 8.90380552466588E-02 
682	 8.90742929067075E-02 
683	 8.90781764723768E-02 
684	 8.91079665921149E-02 
685	 8.92017108089812E-02 
686	 8.92210715806949E-02 
687	 8.92331816742803E-02 
688	 8.92481885265179E-02 
689	 8.92378120291983E-02 
690	 8.92416587410928E-02 
691	 8.92620225789069E-02 
692	 0.089288120270655 
693	 8.92959030592508E-02 
694	 8.92866580847202E-02 
695	 8.93009571925791E-02 
696	 8.93641078600122E-02 
697	 8.93329031352994E-02 
698	 8.93140243498063E-02 
699	 8.93513206597223E-02 
700	 0.089406025820932 
701	 8.94604191413838E-02 
702	 8.94894904553962E-02 
703	 8.94846656218467E-02 
704	 8.94765761316107E-02 
705	 8.94924495512655E-02 
706	 8.95000839212836E-02 
707	 8.94517650432123E-02 
708	 8.94498357064929E-02 
709	 8.94954399244348E-02 
710	 8.95443611645167E-02 
711	 8.95032565073255E-02 
712	 8.95141206574491E-02 
713	 8.95395002870202E-02 
714	 0.089518306605657 
715	 8.95011574000391E-02 
716	 8.95014910618422E-02 
717	 8.95033416927285E-02 
718	 8.94751492320508E-02 
719	 8.94681356417179E-02 
720	 8.94767703999386E-02 
721	 8.94852239845313E-02 
722	 8.94758678849793E-02 
723	 8.94439675341795E-02 
724	 8.94326542299542E-02 
725	 8.94690134551621E-02 
726	 8.94127535336916E-02 
727	 8.93766401029545E-02 
728	 8.93805201323205E-02 
729	 8.93507259489237E-02 
730	 8.93440649953477E-02 
731	 8.93426856982688E-02 
732	 8.93238013370555E-02 
733	 8.92828508486627E-02 
734	 8.92410827462826E-02 
735	 8.92047775605624E-02 
736	 8.91705592266313E-02 
737	 8.91182861995188E-02 
738	 8.90875086479501E-02 
739	 8.90829954565024E-02 
740	 8.90676971258094E-02 
741	 8.90516660053315E-02 
742	 8.90181181185344E-02 
743	 8.89618204717996E-02 
744	 8.89194169846923E-02 
745	 8.88826935015885E-02 
746	 8.88578787028576E-02 
747	 8.88508161094414E-02 
748	 8.88289642748944E-02 
749	 8.87609645161591E-02 
750	 8.86764037481518E-02 
751	 8.86732278305316E-02 
752	 8.86065942546097E-02 
753	 8.85314566047231E-02 
754	 8.85088122207392E-02 
755	 8.84761215470918E-02 
756	 8.84542483887929E-02 
757	 8.84212162942913E-02 
758	 8.83491961739223E-02 
759	 8.83339689948418E-02 
760	 8.82907461161798E-02 
761	 8.82122183917836E-02 
762	 8.82059291016344E-02 
763	 8.81708364012137E-02 
764	 8.81155866814399E-02 
765	 8.80704882721224E-02 
766	 8.80514932131224E-02 
767	 8.80292362363238E-02 
768	 8.79895973422822E-02 
769	 8.79286683691867E-02 
770	 8.78434420499896E-02 
771	 8.77943599246408E-02 
772	 8.77820590416649E-02 
773	 8.77324470678461E-02 
774	 8.77161771534432E-02 
775	 0.087686868258104 
776	 8.76139346225232E-02 
777	 8.75837140432431E-02 
778	 8.75150703749681E-02 
779	 8.74499858687092E-02 
780	 8.74573941066118E-02 
781	 8.73940689385864E-02 
782	 8.73534829827552E-02 
783	 8.73444992461378E-02 
784	 8.72728508299829E-02 
785	 8.72025651513677E-02 
786	 8.71734476473603E-02 
787	 8.71763396585294E-02 
788	 8.70934703447331E-02 
789	 8.70464267085573E-02 
790	 8.70196523164743E-02 
791	 8.69614957865613E-02 
792	 8.69245679636008E-02 
793	 8.68716252285138E-02 
794	 8.68050119560286E-02 
795	 8.67613793313421E-02 
796	 8.67072277805877E-02 
797	 8.66612398586708E-02 
798	 0.086625993681587 
799	 8.65589555631986E-02 
800	 8.65162634989121E-02 
801	 8.64992245292717E-02 
802	 8.64838962217868E-02 
803	 8.64235222272203E-02 
804	 8.63615696569812E-02 
805	 8.63191709309693E-02 
806	 8.62948455214165E-02 
807	 8.62451832107302E-02 
808	 8.61838953156354E-02 
809	 8.61301766128976E-02 
810	 8.61000603728157E-02 
811	 8.60926423658752E-02 
812	 8.60585784859286E-02 
813	 8.59816723093647E-02 
814	 8.59670362117284E-02 
815	 0.08590625971986 
816	 8.58276889265382E-02 
817	 8.57992416138948E-02 
818	 8.57720981937646E-02 
819	 8.57331118055451E-02 
820	 8.56843603859489E-02 
821	 8.56398375109346E-02 
822	 8.56024719979221E-02 
823	 8.55687490053448E-02 
824	 8.55332569566121E-02 
825	 8.54898610918333E-02 
826	 8.54540590435953E-02 
827	 8.54092134269459E-02 
828	 8.53533610268959E-02 
829	 8.53661624041924E-02 
830	 0.085321040332008 
831	 8.52520180035776E-02 
832	 8.52489275067711E-02 
833	 8.52079098393495E-02 
834	 8.51685348077859E-02 
835	 8.51326528995052E-02 
836	 8.50653962598963E-02 
837	 8.50561914192741E-02 
838	 0.085049993140568 
839	 0.085005957361637 
840	 8.49492274456688E-02 
841	 8.48716757606287E-02 
842	 8.48356428606269E-02 
843	 8.48694354181864E-02 
844	 8.48427691928733E-02 
845	 8.48017685940263E-02 
846	 8.47478620533026E-02 
847	 8.46823420162025E-02 
848	 8.47221357284215E-02 
849	 8.47070156286778E-02 
850	 8.46213334324047E-02 
851	 0.084582335700493 
852	 8.45684823037355E-02 
853	 8.45690949377163E-02 
854	 8.45669905455416E-02 
855	 8.45379291734674E-02 
856	 8.44704164483632E-02 
857	 8.44603080310803E-02 
858	 8.45293741525677E-02 
859	 8.44463769380418E-02 
860	 8.43741963353582E-02 
861	 8.43547300953336E-02 
862	 8.43689343763746E-02 
863	 8.43349295772237E-02 
864	 8.43206388818219E-02 
865	 8.43173653716869E-02 
866	 8.42748593223461E-02 
867	 8.42238862711531E-02 
868	 8.42009643422524E-02 
869	 8.42104920126742E-02 
870	 8.42218562450553E-02 
871	 8.42030772798366E-02 
872	 8.41883054987066E-02 
873	 8.41784166750953E-02 
874	 8.41039327668254E-02 
875	 8.40853899954642E-02 
876	 8.40809841587015E-02 
877	 8.40383846398281E-02 
878	 8.39885986317165E-02 
879	 8.39405542580556E-02 
880	 8.39287328487455E-02 
881	 8.39734266985157E-02 
882	 8.40203403498955E-02 
883	 8.40044064176072E-02 
884	 8.39365032169521E-02 
885	 8.38781702213982E-02 
886	 0.083890135706965 
887	 8.39083812465844E-02 
888	 0.083906045543962 
889	 8.38975296792929E-02 
890	 8.38837190906933E-02 
891	 8.38167611107214E-02 
892	 8.37309374113375E-02 
893	 8.37562361233082E-02 
894	 8.37593096010002E-02 
895	 8.37598761027166E-02 
896	 8.37767492509434E-02 
897	 8.37740574365294E-02 
898	 8.37730615989415E-02 
899	 8.37623503609431E-02 
900	 0.083732115928473 
901	 0.083694759634313 
902	 0.083688263223271 
903	 8.36821743194355E-02 
904	 8.36478023260347E-02 
905	 8.36574210347303E-02 
906	 8.37031535414902E-02 
907	 8.37070465930868E-02 
908	 8.36138707825731E-02 
909	 8.36449732859956E-02 
910	 8.36679223785261E-02 
911	 8.36455472926238E-02 
912	 8.36166586382087E-02 
913	 8.35785888271285E-02 
914	 8.35761909261899E-02 
915	 0.083604149031007 
916	 8.36097732646233E-02 
917	 8.35608429824107E-02 
918	 8.35495367184657E-02 
919	 8.35876255230929E-02 
920	 8.35823480372168E-02 
921	 8.35806076938348E-02 
922	 8.35847131591164E-02 
923	 8.36027596542229E-02 
924	 8.36551406304934E-02 
925	 0.083570148900821 
926	 8.35482115422075E-02 
927	 8.36542200786043E-02 
928	 8.35670368673818E-02 
929	 8.35426004596003E-02 
930	 8.35380704655096E-02 
931	 8.35008836682885E-02 
932	 8.35299850621515E-02 
933	 8.35847495143861E-02 
934	 8.35980788528166E-02 
935	 8.35523658408998E-02 
936	 8.36004074341486E-02 
937	 8.35200468386392E-02 
938	 8.34280508474476E-02 
939	 8.34762654132125E-02 
940	 8.35281847338018E-02 
941	 8.35117265495724E-02 
942	 8.35007226299469E-02 
943	 8.35549326984615E-02 
944	 8.34125416699509E-02 
945	 8.34072902373483E-02 
946	 8.35108081196961E-02 
947	 8.35456552733467E-02 
948	 0.083529221909299 
949	 0.083486871274815 
950	 8.34319209221533E-02 
951	 8.33867955198382E-02 
952	 8.34576555463999E-02 
953	 8.34918280880259E-02 
954	 0.083466730778501 
955	 8.34455085308975E-02 
956	 8.34511210485462E-02 
957	 8.35176441522951E-02 
958	 8.35637152653313E-02 
959	 8.34941929860847E-02 
960	 8.35390776923811E-02 
961	 8.35686380051283E-02 
962	 8.35298905997021E-02 
963	 8.34490868152203E-02 
964	 8.33739541097177E-02 
965	 8.34290926470464E-02 
966	 8.35399638554706E-02 
967	 8.35398178941937E-02 
968	 8.35903045718448E-02 
969	 8.36034185563606E-02 
970	 8.35698250688239E-02 
971	 0.083546145296618 
972	 8.35672424489138E-02 
973	 8.35543792147328E-02 
974	 8.34701799751578E-02 
975	 0.083343893591749 
976	 8.33504469814945E-02 
977	 8.33220081874252E-02 
978	 8.33263766060158E-02 
979	 8.35163675269744E-02 
980	 0.083541273033235 
981	 8.35424475227143E-02 
982	 8.35592995052895E-02 
983	 8.35418324742267E-02 
984	 8.34260282648333E-02 
985	 0.083417872715744 
986	 8.34379725351394E-02 
987	 8.33177826154227E-02 
988	 8.33565083733176E-02 
989	 8.33541847606803E-02 
990	 8.33020272003034E-02 
991	 8.33040398498505E-02 
992	 8.34348318033669E-02 
993	 8.34071585686685E-02 
994	 8.33326897775678E-02 
995	 8.34110006366508E-02 
996	 8.33685069112334E-02 
997	 8.33407849408095E-02 
998	 8.33642458319946E-02 
999	 8.34267950477341E-02 
1000	 8.35246602920537E-02 
1001	 8.21392074756086E-02 
1002	 8.20893334384087E-02 
1003	 8.20936705314644E-02 
1004	 8.20954439083608E-02 
1005	 8.21125360588405E-02 
1006	 8.21129580122259E-02 
1007	 8.21196590567643E-02 
1008	 8.21140422105896E-02 
1009	 0.082128965490538 
1010	 8.21528253453161E-02 
1011	 8.21165104412472E-02 
1012	 8.20829370326395E-02 
1013	 8.20074870680491E-02 
1014	 8.19450690577802E-02 
1015	 8.20002674278237E-02 
1016	 8.20326743891908E-02 
1017	 8.20337074566324E-02 
1018	 8.20300277069271E-02 
1019	 8.20443157340862E-02 
1020	 8.20439575634321E-02 
1021	 8.20400033466712E-02 
1022	 8.20754080289463E-02 
1023	 8.20775291609094E-02 
1024	 8.20189231611502E-02 
1025	 8.20004287727489E-02 
1026	 8.19683775360884E-02 
1027	 8.18999607715126E-02 
1028	 8.18844041247885E-02 
1029	 0.081890137439299 
1030	 8.19087937299418E-02 
1031	 0.081903900245804 
1032	 8.19246407459828E-02 
1033	 8.19050636239846E-02 
1034	 8.18301186972409E-02 
1035	 8.17223932990574E-02 
1036	 8.16867010852166E-02 
1037	 8.16408553354376E-02 
1038	 8.16036150455096E-02 
1039	 8.16431425397178E-02 
1040	 0.081624677285483 
1041	 8.15906427749988E-02 
1042	 8.16115306535438E-02 
1043	 8.16287316500039E-02 
1044	 8.16158570870028E-02 
1045	 8.15931768850766E-02 
1046	 8.15861075206554E-02 
1047	 8.16241706099966E-02 
1048	 0.081650579308323 
1049	 8.16645703930773E-02 
1050	 0.081719780408033 
1051	 8.16733735459248E-02 
1052	 8.15688479887783E-02 
1053	 8.15667834026964E-02 
1054	 8.15711555567574E-02 
1055	 0.08157570800959 
1056	 8.15993438484817E-02 
1057	 8.16158645838979E-02 
1058	 8.16215722341083E-02 
1059	 8.16392392725895E-02 
1060	 8.16658552408432E-02 
1061	 8.16923736859243E-02 
1062	 8.17258970415058E-02 
1063	 8.17242211729117E-02 
1064	 8.16978092774009E-02 
1065	 8.16924658112556E-02 
1066	 8.16794305193354E-02 
1067	 8.16986322057621E-02 
1068	 8.17223888441518E-02 
1069	 8.16970238300042E-02 
1070	 0.081701579909287 
1071	 8.16971125293614E-02 
1072	 8.16963354685205E-02 
1073	 0.081733766120596 
1074	 8.17516071862429E-02 
1075	 8.17547671979045E-02 
1076	 8.17481654551068E-02 
1077	 8.17474852347141E-02 
1078	 0.081725579118141 
1079	 8.17404498595785E-02 
1080	 8.17600432267942E-02 
1081	 8.17734809549748E-02 
1082	 8.17803341430452E-02 
1083	 8.17903210130332E-02 
1084	 8.18016846957598E-02 
1085	 8.18072767699295E-02 
1086	 8.18120621126276E-02 
1087	 8.18062292845694E-02 
1088	 8.17960842481645E-02 
1089	 8.17583059059301E-02 
1090	 8.17296210746823E-02 
1091	 8.17631500310419E-02 
1092	 8.17875482726926E-02 
1093	 8.17600655651424E-02 
1094	 8.17468133099287E-02 
1095	 8.17178079363942E-02 
1096	 8.16704755918716E-02 
1097	 8.16770450833618E-02 
1098	 8.16735311958394E-02 
1099	 8.16807231827725E-02 
1100	 8.16702611608145E-02 
1101	 8.16471077735492E-02 
1102	 8.16392103052764E-02 
1103	 8.16276567542029E-02 
1104	 8.16209509724852E-02 
1105	 8.16339494917002E-02 
1106	 0.081668830995719 
1107	 8.16842203369813E-02 
1108	 8.16844220492436E-02 
1109	 8.16741426198348E-02 
1110	 8.16496738622356E-02 
1111	 8.16401264327903E-02 
1112	 8.16313690651355E-02 
1113	 8.16209079490631E-02 
1114	 8.16131118709025E-02 
1115	 0.081619655487438 
1116	 8.16171335241418E-02 
1117	 8.16260245921131E-02 
1118	 0.081665773940349 
1119	 8.16844243936491E-02 
1120	 8.16825976122348E-02 
1121	 8.17058617576789E-02 
1122	 8.17014576033625E-02 
1123	 0.081687992618752 
1124	 8.16893765883994E-02 
1125	 8.16821362508752E-02 
1126	 8.16945709165056E-02 
1127	 8.17325037363119E-02 
1128	 8.17560143077839E-02 
1129	 8.17821165831121E-02 
1130	 8.18074394645115E-02 
1131	 8.18330128354895E-02 
1132	 8.18444370816467E-02 
1133	 8.18458730297588E-02 
1134	 8.18557898097845E-02 
1135	 8.18554744452384E-02 
1136	 8.18645891006136E-02 
1137	 8.19055145029651E-02 
1138	 8.19149431045796E-02 
1139	 8.19182013254693E-02 
1140	 8.19223514572841E-02 
1141	 8.19129375792083E-02 
1142	 8.18751281099107E-02 
1143	 8.18621259653927E-02 
1144	 8.18425880163634E-02 
1145	 0.081837117465242 
1146	 8.18614322638456E-02 
1147	 8.18619324674802E-02 
1148	 8.18502797653561E-02 
1149	 8.18510634005432E-02 
1150	 0.0818437743938 
1151	 0.08183956338367 
1152	 8.18572662183011E-02 
1153	 8.18833730841978E-02 
1154	 8.18985689127929E-02 
1155	 8.19159752722045E-02 
1156	 8.19200936539231E-02 
1157	 8.19131196228057E-02 
1158	 8.19148659844819E-02 
1159	 8.19146076753523E-02 
1160	 8.19116602106029E-02 
1161	 8.19191483837229E-02 
1162	 8.19090542169937E-02 
1163	 0.081863388262569 
1164	 0.081855187601921 
1165	 8.18603923846868E-02 
1166	 8.18664435527093E-02 
1167	 8.18882131840438E-02 
1168	 8.19303167273907E-02 
1169	 0.081935799813155 
1170	 8.19158695439882E-02 
1171	 8.19156169931006E-02 
1172	 8.19027722580076E-02 
1173	 8.19083189592525E-02 
1174	 8.19342882055979E-02 
1175	 8.19487498846787E-02 
1176	 8.19564544509172E-02 
1177	 8.19790199569267E-02 
1178	 8.20235329376209E-02 
1179	 8.20383447953501E-02 
1180	 8.20418875535595E-02 
1181	 8.20530421972262E-02 
1182	 8.20478702038547E-02 
1183	 8.20384330727637E-02 
1184	 8.20516581984364E-02 
1185	 8.20876655737371E-02 
1186	 8.21152577084866E-02 
1187	 0.082151853898804 
1188	 8.21731430451055E-02 
1189	 8.21882347936084E-02 
1190	 8.22081635697743E-02 
1191	 8.22204266885889E-02 
1192	 8.22371104718478E-02 
1193	 8.22639560804609E-02 
1194	 8.22838647180523E-02 
1195	 8.23015432771578E-02 
1196	 0.082313451230575 
1197	 8.23156463908186E-02 
1198	 8.23262232689415E-02 
1199	 8.23379572498852E-02 
1200	 8.23448942217355E-02 
1201	 8.23590501217241E-02 
1202	 8.23827963938114E-02 
1203	 8.24017605473642E-02 
1204	 8.24196238441519E-02 
1205	 8.24377694371897E-02 
1206	 8.24575316436799E-02 
1207	 8.24762331932362E-02 
1208	 8.24916971751354E-02 
1209	 8.25108288578384E-02 
1210	 8.25299702297883E-02 
1211	 8.25533731438211E-02 
1212	 8.25856428027365E-02 
1213	 8.26097184235096E-02 
1214	 8.26344946721739E-02 
1215	 8.26553940072746E-02 
1216	 8.26722584073324E-02 
1217	 8.26788475683525E-02 
1218	 8.26961460451564E-02 
1219	 8.27192013560697E-02 
1220	 8.27327266980836E-02 
1221	 8.27387503530437E-02 
1222	 8.27600461559136E-02 
1223	 0.082783140398092 
1224	 8.28061262706531E-02 
1225	 8.28402118587384E-02 
1226	 8.28728070294856E-02 
1227	 8.29133161461074E-02 
1228	 8.29334732422976E-02 
1229	 8.29329220259722E-02 
1230	 8.29550356203222E-02 
1231	 8.29794011753746E-02 
1232	 8.29960792049067E-02 
1233	 8.30164977382356E-02 
1234	 8.30596537250594E-02 
1235	 8.30833848598949E-02 
1236	 8.30858852853083E-02 
1237	 8.31037300563471E-02 
1238	 0.083134927931487 
1239	 8.31524820487895E-02 
1240	 8.31676219240338E-02 
1241	 0.083173998859836 
1242	 0.083157097361807 
1243	 8.31696133793641E-02 
1244	 8.31992573055152E-02 
1245	 8.32130598029831E-02 
1246	 8.32423098520958E-02 
1247	 0.083259334588828 
1248	 8.32515413837312E-02 
1249	 8.32505865566927E-02 
1250	 8.32509306847593E-02 
1251	 8.32641722193037E-02 
1252	 8.32804466014452E-02 
1253	 8.33051809522395E-02 
1254	 8.33162992742973E-02 
1255	 8.33309640022792E-02 
1256	 8.33413558107671E-02 
1257	 8.33398367796348E-02 
1258	 8.33441518390715E-02 
1259	 0.083357871711911 
1260	 8.33571853970772E-02 
1261	 8.33348898115911E-02 
1262	 8.33380627618665E-02 
1263	 8.33498971305771E-02 
1264	 8.33602891750877E-02 
1265	 8.33940705032324E-02 
1266	 8.34098625133089E-02 
1267	 8.34032037003881E-02 
1268	 8.34085339500322E-02 
1269	 8.34240956768379E-02 
1270	 0.08344823425694 
1271	 8.34574143481027E-02 
1272	 8.34681314039388E-02 
1273	 8.34833834377417E-02 
1274	 8.34876420358777E-02 
1275	 8.35007112296682E-02 
1276	 8.35227387724452E-02 
1277	 8.35535405096582E-02 
1278	 8.35841166675098E-02 
1279	 8.36186098809443E-02 
1280	 8.36718526759176E-02 
1281	 8.37162553260134E-02 
1282	 8.37452983382932E-02 
1283	 8.37925614595291E-02 
1284	 8.38512740271828E-02 
1285	 8.39150720864179E-02 
1286	 8.39733375287285E-02 
1287	 8.40324401999298E-02 
1288	 8.40872666550851E-02 
1289	 0.084133070943546 
1290	 0.084184078936773 
1291	 8.42411944182442E-02 
1292	 8.42890470907076E-02 
1293	 8.43267004439041E-02 
1294	 8.43716975994363E-02 
1295	 0.084416711841762 
1296	 8.44639767895169E-02 
1297	 8.45284197861658E-02 
1298	 8.45676078949031E-02 
1299	 8.45875554014158E-02 
1300	 8.46164500142067E-02 
1301	 8.46327798915609E-02 
1302	 8.46538588403495E-02 
1303	 8.46864243854205E-02 
1304	 8.47177996161737E-02 
1305	 8.47239790978191E-02 
1306	 8.47341479912068E-02 
1307	 8.47327569383577E-02 
1308	 8.47269352931026E-02 
1309	 8.47365484153984E-02 
1310	 8.47513937737541E-02 
1311	 8.47698039080284E-02 
1312	 8.48058872230924E-02 
1313	 8.48197179424032E-02 
1314	 8.48253608904615E-02 
1315	 8.48328791229116E-02 
1316	 8.48251453197024E-02 
1317	 0.08483565281306 
1318	 8.48580080735677E-02 
1319	 8.48735890898823E-02 
1320	 8.48974652180559E-02 
1321	 8.49128310108259E-02 
1322	 8.49274110319504E-02 
1323	 8.49286993589646E-02 
1324	 8.49335605462013E-02 
1325	 8.49279390150337E-02 
1326	 8.49071463404946E-02 
1327	 8.49171046089211E-02 
1328	 8.49320425201615E-02 
1329	 0.084941901358851 
1330	 0.08495184800083 
1331	 8.49713099900608E-02 
1332	 8.49753047466137E-02 
1333	 8.49660492486823E-02 
1334	 8.49651622006686E-02 
1335	 8.49559282804104E-02 
1336	 8.49633679933667E-02 
1337	 8.49821005293435E-02 
1338	 8.50003234893104E-02 
1339	 8.50289158279587E-02 
1340	 0.085050865455264 
1341	 8.50654983067048E-02 
1342	 8.50888868890418E-02 
1343	 8.51129787955728E-02 
1344	 0.085147674726346 
1345	 8.51754707044348E-02 
1346	 8.52057375351533E-02 
1347	 8.52376879860487E-02 
1348	 8.52600991323585E-02 
1349	 8.52899232428175E-02 
1350	 8.53034772310638E-02 
1351	 8.53244637100302E-02 
1352	 0.0853347008565 
1353	 8.53703137032623E-02 
1354	 8.54264443859951E-02 
1355	 8.54636363437036E-02 
1356	 8.55106567805876E-02 
1357	 8.55385563126111E-02 
1358	 8.55425208483463E-02 
1359	 8.55610446968426E-02 
1360	 8.55802570178825E-02 
1361	 8.55996540577716E-02 
1362	 8.56197694741582E-02 
1363	 8.56411552846283E-02 
1364	 8.56663186676184E-02 
1365	 8.56863819978648E-02 
1366	 8.57056221785416E-02 
1367	 8.57246191705607E-02 
1368	 8.57396032837264E-02 
1369	 8.57578247262513E-02 
1370	 8.57628741107603E-02 
1371	 8.57655200140221E-02 
1372	 0.085772654486628 
1373	 8.57722555954739E-02 
1374	 8.57731940410765E-02 
1375	 8.57761117906384E-02 
1376	 8.57814680834143E-02 
1377	 8.57870699804941E-02 
1378	 8.57862543971394E-02 
1379	 8.57860503997107E-02 
1380	 8.57871577963591E-02 
1381	 8.57850318262849E-02 
1382	 8.57779823369085E-02 
1383	 8.57769657672755E-02 
1384	 8.57656126493015E-02 
1385	 0.085739389337802 
1386	 8.57171481107748E-02 
1387	 8.56870369305354E-02 
1388	 0.085666794688725 
1389	 8.56487786511835E-02 
1390	 8.56400740598106E-02 
1391	 8.56346766036504E-02 
1392	 0.085623152104037 
1393	 8.55864221838331E-02 
1394	 0.085540848664524 
1395	 8.54994263758669E-02 
1396	 8.54456380247239E-02 
1397	 8.53935986390678E-02 
1398	 8.53427957692553E-02 
1399	 8.52978110569915E-02 
1400	 8.52542172476143E-02 
1401	 8.52001517288566E-02 
1402	 8.51459723625267E-02 
1403	 8.50953689532698E-02 
1404	 0.085034325320184 
1405	 8.49768339591877E-02 
1406	 8.49319812134258E-02 
1407	 8.48809432878051E-02 
1408	 0.084815343276332 
1409	 8.47618547238726E-02 
1410	 8.47122058523379E-02 
1411	 8.46724638218592E-02 
1412	 8.46361190553688E-02 
1413	 8.46117352512983E-02 
1414	 8.45961751747941E-02 
1415	 8.45747876850766E-02 
1416	 8.45656342997169E-02 
1417	 8.45558182297865E-02 
1418	 8.45385122660888E-02 
1419	 8.45305303215515E-02 
1420	 8.45213384037677E-02 
1421	 8.45194579444027E-02 
1422	 8.45420453830319E-02 
1423	 8.45642637860943E-02 
1424	 8.45751097925866E-02 
1425	 8.45829086745618E-02 
1426	 8.45896512168998E-02 
1427	 8.45805512027488E-02 
1428	 8.45928381337531E-02 
1429	 8.46174120806312E-02 
1430	 8.46369525051603E-02 
1431	 8.46645743148347E-02 
1432	 8.46887510905231E-02 
1433	 8.47124436397359E-02 
1434	 0.08473074479583 
1435	 8.47406950029714E-02 
1436	 8.47629966723955E-02 
1437	 8.47853792856917E-02 
1438	 0.084812516734649 
1439	 8.48512580987124E-02 
1440	 8.48907107601719E-02 
1441	 8.49235915965028E-02 
1442	 8.49536488597259E-02 
1443	 8.49745795739709E-02 
1444	 8.49926049206923E-02 
1445	 8.50237902686756E-02 
1446	 8.50510838762258E-02 
1447	 8.50839448414497E-02 
1448	 8.51297558269274E-02 
1449	 8.51628513903614E-02 
1450	 8.51907442535307E-02 
1451	 8.52157969630428E-02 
1452	 8.52368555737374E-02 
1453	 8.52574946703736E-02 
1454	 8.52738127903734E-02 
1455	 8.52958514219021E-02 
1456	 8.53174436729495E-02 
1457	 8.53488227967477E-02 
1458	 8.53859714778345E-02 
1459	 8.54114476467886E-02 
1460	 8.54434839184745E-02 
1461	 8.54696217494371E-02 
1462	 8.54836230187685E-02 
1463	 8.55073323532819E-02 
1464	 8.55296510999748E-02 
1465	 0.085559080542699 
1466	 8.55997639400189E-02 
1467	 8.56292015637613E-02 
1468	 8.56573648956018E-02 
1469	 8.56885381610785E-02 
1470	 8.57076123937751E-02 
1471	 8.57402906573215E-02 
1472	 8.57860658904517E-02 
1473	 8.58245894937438E-02 
1474	 8.58630839316569E-02 
1475	 8.59056444887458E-02 
1476	 8.59478264872257E-02 
1477	 0.085991552265888 
1478	 8.60395330294895E-02 
1479	 8.60682215513948E-02 
1480	 8.60953530455854E-02 
1481	 8.61360021613359E-02 
1482	 8.61680732489816E-02 
1483	 8.61948688914262E-02 
1484	 8.62345352207412E-02 
1485	 8.62805589721967E-02 
1486	 8.63183214456548E-02 
1487	 8.63601485156319E-02 
1488	 8.63938444518795E-02 
1489	 8.64174206043113E-02 
1490	 8.64419480288828E-02 
1491	 8.64624599595692E-02 
1492	 8.64980805871612E-02 
1493	 0.086543094292276 
1494	 8.65762514020651E-02 
1495	 8.66059464883917E-02 
1496	 8.66460932830844E-02 
1497	 8.66897542408135E-02 
1498	 8.67223875478469E-02 
1499	 0.086763368735356 
1500	 8.67967267522296E-02 
1501	 8.68087003114819E-02 
1502	 8.68287345158883E-02 
1503	 8.68496349293505E-02 
1504	 8.68860987815082E-02 
1505	 8.69062777519716E-02 
1506	 8.69273654675616E-02 
1507	 8.69639901935615E-02 
1508	 8.69923641506617E-02 
1509	 8.70234325557273E-02 
1510	 8.70599183522399E-02 
1511	 8.70797695925382E-02 
1512	 8.70967636607671E-02 
1513	 8.71228098823128E-02 
1514	 8.71457096514287E-02 
1515	 0.087183230887291 
1516	 8.72189498164192E-02 
1517	 8.72437364723248E-02 
1518	 8.72614433373611E-02 
1519	 8.72863108415554E-02 
1520	 8.73027948070352E-02 
1521	 8.73306517941458E-02 
1522	 8.73732425848237E-02 
1523	 8.74033011144149E-02 
1524	 8.74284841949218E-02 
1525	 8.74546593571895E-02 
1526	 8.74819795044793E-02 
1527	 0.087499398473638 
1528	 8.75076245311076E-02 
1529	 8.75270294020426E-02 
1530	 8.75419473441264E-02 
1531	 8.75644283285846E-02 
1532	 8.76063593004059E-02 
1533	 8.76285095537818E-02 
1534	 8.76366182411108E-02 
1535	 8.76541682982574E-02 
1536	 0.087667024461239 
1537	 8.76860061309005E-02 
1538	 8.77176420627198E-02 
1539	 8.77406876998399E-02 
1540	 8.77542261532542E-02 
1541	 8.77759559911718E-02 
1542	 8.78002436874545E-02 
1543	 8.78242179433789E-02 
1544	 8.78537253670205E-02 
1545	 8.78837464901799E-02 
1546	 8.79191263712134E-02 
1547	 0.087944137846587 
1548	 8.79647262636954E-02 
1549	 0.08797374987186 
1550	 8.79708786221914E-02 
1551	 0.087972573808053 
1552	 8.79856238021997E-02 
1553	 8.80026213172469E-02 
1554	 8.80097017577351E-02 
1555	 0.088030086846552 
1556	 8.80538747048196E-02 
1557	 0.088060767940169 
1558	 8.80724940616145E-02 
1559	 8.80871028536951E-02 
1560	 8.81001789251297E-02 
1561	 8.81082054608772E-02 
1562	 8.81231369099628E-02 
1563	 8.81444007148107E-02 
1564	 0.088155662379148 
1565	 8.81624038895326E-02 
1566	 8.81744003301926E-02 
1567	 8.81837659827026E-02 
1568	 0.088200003972611 
1569	 8.82269758642452E-02 
1570	 8.82407428952627E-02 
1571	 8.82490104040152E-02 
1572	 8.82579492248125E-02 
1573	 8.82632218226637E-02 
1574	 8.82650211696692E-02 
1575	 8.82548301025861E-02 
1576	 8.82701133712791E-02 
1577	 8.82936793574534E-02 
1578	 8.83197629660965E-02 
1579	 8.83811212640325E-02 
1580	 8.84020619001078E-02 
1581	 8.83940155208906E-02 
1582	 8.84005905728472E-02 
1583	 0.088396286189727 
1584	 8.83972991698265E-02 
1585	 8.84020814403226E-02 
1586	 8.84142348480809E-02 
1587	 8.84312497614432E-02 
1588	 8.84435780626091E-02 
1589	 8.84640906626632E-02 
1590	 8.84813744331679E-02 
1591	 8.84894792013002E-02 
1592	 8.84998152244321E-02 
1593	 8.85177642650711E-02 
1594	 8.85299505220786E-02 
1595	 8.85294291027385E-02 
1596	 8.85393933054711E-02 
1597	 8.85609777364754E-02 
1598	 8.85719142667903E-02 
1599	 8.85767657861829E-02 
1600	 8.85911661459158E-02 
1601	 8.86044112445151E-02 
1602	 8.86158592741912E-02 
1603	 8.86452335930477E-02 
1604	 8.86570062108051E-02 
1605	 8.86379945537539E-02 
1606	 8.86435715158843E-02 
1607	 0.088659596194709 
1608	 8.86738576980605E-02 
1609	 8.86861471575241E-02 
1610	 8.87033692168381E-02 
1611	 8.86820779986587E-02 
1612	 8.86527429904936E-02 
1613	 8.86605176901253E-02 
1614	 8.86712448503665E-02 
1615	 8.87003430137194E-02 
1616	 8.87384056166986E-02 
1617	 8.87460097913247E-02 
1618	 8.87599100043945E-02 
1619	 8.87698388161534E-02 
1620	 8.87669962394973E-02 
1621	 8.87696730804039E-02 
1622	 8.87731116304446E-02 
1623	 8.87693982839327E-02 
1624	 8.87577481503803E-02 
1625	 0.088762320738174 
1626	 8.87665873279229E-02 
1627	 8.87815247592508E-02 
1628	 8.88191963548869E-02 
1629	 8.88278898502533E-02 
1630	 8.88242261164267E-02 
1631	 8.88320277786299E-02 
1632	 8.88289822792397E-02 
1633	 8.88394817766588E-02 
1634	 8.88699527172624E-02 
1635	 0.088878123721372 
1636	 8.88769038081821E-02 
1637	 8.88805195821422E-02 
1638	 8.88786373721347E-02 
1639	 8.88785945331272E-02 
1640	 8.88784995878948E-02 
1641	 8.88842953782562E-02 
1642	 8.88915652793943E-02 
1643	 8.88960144770627E-02 
1644	 0.088908898138504 
1645	 8.89119943661776E-02 
1646	 8.89049601365823E-02 
1647	 0.088902443441092 
1648	 8.88969935996547E-02 
1649	 8.88980515913757E-02 
1650	 8.88992228080304E-02 
1651	 8.89075455261625E-02 
1652	 8.89292954572669E-02 
1653	 8.89360309525801E-02 
1654	 8.89427017674529E-02 
1655	 0.088940485658889 
1656	 0.088918521130458 
1657	 0.088918815648305 
1658	 8.89226113276734E-02 
1659	 8.89339556574877E-02 
1660	 8.89604064439758E-02 
1661	 8.89824996672779E-02 
1662	 8.90103096144717E-02 
1663	 8.90291875622642E-02 
1664	 8.90494458097963E-02 
1665	 8.90609459841097E-02 
1666	 8.90610547683107E-02 
1667	 8.90650688560173E-02 
1668	 8.90755223354148E-02 
1669	 8.90647642536087E-02 
1670	 8.90269010646112E-02 
1671	 8.90258707796408E-02 
1672	 8.90305455331534E-02 
1673	 8.90341683456205E-02 
1674	 0.089070623198036 
1675	 8.90798947696954E-02 
1676	 8.90572228712997E-02 
1677	 8.90621417468299E-02 
1678	 8.90860386102181E-02 
1679	 8.90891502495799E-02 
1680	 8.90837323099554E-02 
1681	 0.089093088122466 
1682	 8.90982658511088E-02 
1683	 8.91064742136402E-02 
1684	 8.91350904212309E-02 
1685	 8.91471209301378E-02 
1686	 8.91357349195387E-02 
1687	 8.91479595862837E-02 
1688	 8.91799127541466E-02 
1689	 8.91907340153052E-02 
1690	 8.92068051480205E-02 
1691	 8.92078997816065E-02 
1692	 8.91779350831774E-02 
1693	 8.91735474801718E-02 
1694	 8.91746684063763E-02 
1695	 8.91787957492753E-02 
1696	 8.91990315972614E-02 
1697	 8.92080968454363E-02 
1698	 8.92145806998058E-02 
1699	 8.92194696673534E-02 
1700	 8.92185163339497E-02 
1701	 0.089221137517837 
1702	 8.92238785901115E-02 
1703	 8.92249935527697E-02 
1704	 0.089228576864371 
1705	 0.089229991045145 
1706	 8.92330632448265E-02 
1707	 8.92263167034277E-02 
1708	 8.92106910933788E-02 
1709	 0.089199780204376 
1710	 8.91760362823901E-02 
1711	 8.91744059272839E-02 
1712	 8.91892117871515E-02 
1713	 8.91992362729804E-02 
1714	 8.92243337408858E-02 
1715	 8.92299081372193E-02 
1716	 8.92265367144886E-02 
1717	 8.92216583380001E-02 
1718	 8.91977372761306E-02 
1719	 8.91973505492791E-02 
1720	 8.92122438831918E-02 
1721	 8.92137489580702E-02 
1722	 8.92225463942684E-02 
1723	 8.92245561426778E-02 
1724	 8.92137848929251E-02 
1725	 8.92050364709026E-02 
1726	 0.089198282102611 
1727	 8.91873948122061E-02 
1728	 0.089167722440158 
1729	 8.91621860429897E-02 
1730	 8.91658185159917E-02 
1731	 8.91635947814029E-02 
1732	 8.91682600364251E-02 
1733	 8.91562280945877E-02 
1734	 8.91298630628403E-02 
1735	 8.91142535534425E-02 
1736	 8.90901701175939E-02 
1737	 8.90866220841697E-02 
1738	 8.91024927738981E-02 
1739	 8.91001678611988E-02 
1740	 8.91088132471049E-02 
1741	 8.90865412040271E-02 
1742	 8.90278471847231E-02 
1743	 8.90144854654247E-02 
1744	 8.90084598091985E-02 
1745	 8.90027061435265E-02 
1746	 8.90178679222151E-02 
1747	 8.90187636416011E-02 
1748	 8.90204530679105E-02 
1749	 8.90360841982726E-02 
1750	 8.90667814746575E-02 
1751	 8.90654905285922E-02 
1752	 8.90545044780534E-02 
1753	 8.90472594449784E-02 
1754	 8.90236807222071E-02 
1755	 8.90009231138375E-02 
1756	 8.89781766581387E-02 
1757	 8.89655658122883E-02 
1758	 8.89530751313405E-02 
1759	 0.088922977181807 
1760	 8.89007954631581E-02 
1761	 8.88799264151585E-02 
1762	 0.088863651426309 
1763	 8.88613152223482E-02 
1764	 8.88423219656662E-02 
1765	 8.87923665822596E-02 
1766	 8.87457734181544E-02 
1767	 8.87208204572315E-02 
1768	 8.87259691589362E-02 
1769	 0.088784991180304 
1770	 8.88079051306297E-02 
1771	 8.87880720833162E-02 
1772	 8.87936901672702E-02 
1773	 8.87846225891938E-02 
1774	 8.87699679679048E-02 
1775	 8.87630258197562E-02 
1776	 8.87494781150318E-02 
1777	 8.87104507120464E-02 
1778	 8.86743207595988E-02 
1779	 8.86821820475129E-02 
1780	 8.86758581324924E-02 
1781	 8.86669366346044E-02 
1782	 8.86806391589094E-02 
1783	 8.86778758274301E-02 
1784	 8.86682911613105E-02 
1785	 8.86324312600074E-02 
1786	 8.86086893215104E-02 
1787	 8.85800797915764E-02 
1788	 8.85796635481966E-02 
1789	 8.86151564090332E-02 
1790	 0.088627381470125 
1791	 8.86508528058018E-02 
1792	 8.86425864030501E-02 
1793	 8.85915386322842E-02 
1794	 0.088585357125846 
1795	 8.85818750635461E-02 
1796	 8.85951650020602E-02 
1797	 8.86529142074403E-02 
1798	 8.86711900966528E-02 
1799	 8.86695194159735E-02 
1800	 8.86792564536956E-02 
1801	 8.47128347497535E-02 
1802	 8.47303630410663E-02 
1803	 8.47932267521812E-02 
1804	 0.084855070231882 
1805	 8.49129570090955E-02 
1806	 8.49579024533584E-02 
1807	 8.49749387137388E-02 
1808	 8.49962954612546E-02 
1809	 8.49966064893813E-02 
1810	 8.50126106185514E-02 
1811	 8.50322516471704E-02 
1812	 8.50509806368947E-02 
1813	 8.51004462425598E-02 
1814	 8.51358122989853E-02 
1815	 8.51576621614763E-02 
1816	 8.51968149041503E-02 
1817	 8.52257585263727E-02 
1818	 8.52291940639649E-02 
1819	 8.52496635464554E-02 
1820	 8.52831905414497E-02 
1821	 8.53142615566214E-02 
1822	 8.53410475189325E-02 
1823	 8.53422720659042E-02 
1824	 8.53308265143947E-02 
1825	 8.53420451048302E-02 
1826	 8.53282258128187E-02 
1827	 8.53253082116526E-02 
1828	 8.53376613179922E-02 
1829	 8.53689010910405E-02 
1830	 8.53804375659046E-02 
1831	 8.53986617343262E-02 
1832	 8.54104508308532E-02 
1833	 8.53946796472973E-02 
1834	 8.53768297711282E-02 
1835	 8.53948961222665E-02 
1836	 0.085438498055118 
1837	 8.54758289250346E-02 
1838	 8.55108027705992E-02 
1839	 8.55379494163322E-02 
1840	 8.55514530812886E-02 
1841	 8.55520875087079E-02 
1842	 8.55625364013082E-02 
1843	 8.55645377939497E-02 
1844	 8.55551200428401E-02 
1845	 8.55330956462293E-02 
1846	 8.55079602997243E-02 
1847	 8.55050320582954E-02 
1848	 8.55088276468335E-02 
1849	 8.55255727922092E-02 
1850	 8.55366103674223E-02 
1851	 8.55586183629289E-02 
1852	 8.55607728392415E-02 
1853	 8.55582573371527E-02 
1854	 8.55383560177769E-02 
1855	 8.55064335445362E-02 
1856	 8.54798146541189E-02 
1857	 8.54454990967658E-02 
1858	 8.54140788272538E-02 
1859	 8.53844771355711E-02 
1860	 8.53552742497979E-02 
1861	 8.53304091217315E-02 
1862	 8.53000476670981E-02 
1863	 8.52591376308777E-02 
1864	 8.52403132538724E-02 
1865	 8.52187838569408E-02 
1866	 0.085188972378607 
1867	 0.085164972132969 
1868	 8.51237580168156E-02 
1869	 8.50820412112466E-02 
1870	 8.50540088962541E-02 
1871	 8.49991681644502E-02 
1872	 8.49428362611471E-02 
1873	 8.48555413676367E-02 
1874	 8.47387215532987E-02 
1875	 0.084620736339701 
1876	 8.45047063054193E-02 
1877	 8.43674587918893E-02 
1878	 0.084253783056971 
1879	 8.41383804246032E-02 
1880	 8.40075423656819E-02 
1881	 8.38806888000733E-02 
1882	 8.37429419689633E-02 
1883	 8.35986631904518E-02 
1884	 8.34222181199603E-02 
1885	 8.32395290853696E-02 
1886	 0.08303020101953 
1887	 8.28068326214447E-02 
1888	 8.25728098597171E-02 
1889	 8.23319035712568E-02 
1890	 8.21032046041933E-02 
1891	 8.18636152681396E-02 
1892	 8.16154496324035E-02 
1893	 8.13650293587011E-02 
1894	 8.11112612320806E-02 
1895	 8.08531981118798E-02 
1896	 8.05773666899869E-02 
1897	 8.03143310927875E-02 
1898	 8.00577689499071E-02 
1899	 7.97888894975845E-02 
1900	 7.95520697738329E-02 
1901	 7.93122731013242E-02 
1902	 7.90698664647279E-02 
1903	 7.88284830868245E-02 
1904	 7.85981768046442E-02 
1905	 7.83566098479235E-02 
1906	 0.078139127679744 
1907	 7.79650831557492E-02 
1908	 0.077800289537994 
1909	 7.76367766628513E-02 
1910	 7.74695568249757E-02 
1911	 7.73111892419286E-02 
1912	 7.71560369635997E-02 
1913	 7.70055281691473E-02 
1914	 7.68606580351535E-02 
1915	 7.67414162678824E-02 
1916	 7.66356060987345E-02 
1917	 7.65242512857933E-02 
1918	 7.64421630134639E-02 
1919	 7.63775206955628E-02 
1920	 7.63010116516987E-02 
1921	 7.62305601596533E-02 
1922	 7.61771699188737E-02 
1923	 0.076130134536821 
1924	 7.60821933921666E-02 
1925	 7.60417430673445E-02 
1926	 7.59985695775942E-02 
1927	 7.59453837654229E-02 
1928	 7.59093263720038E-02 
1929	 7.58968852893732E-02 
1930	 7.58877694710038E-02 
1931	 7.58847572130544E-02 
1932	 7.58846394550583E-02 
1933	 7.58815814409997E-02 
1934	 7.58833118042327E-02 
1935	 7.59087858617977E-02 
1936	 7.59716535859611E-02 
1937	 7.60116760352399E-02 
1938	 7.60657138462972E-02 
1939	 7.61056252001782E-02 
1940	 0.076137714180309 
1941	 7.61409548341368E-02 
1942	 7.61682367988252E-02 
1943	 7.62049923062503E-02 
1944	 7.62462385115976E-02 
1945	 7.63056369182352E-02 
1946	 7.63601286004478E-02 
1947	 7.64199978155077E-02 
1948	 0.076474876735482 
1949	 7.65338592257819E-02 
1950	 7.65826289218344E-02 
1951	 7.66255060372355E-02 
1952	 7.66647342105999E-02 
1953	 7.67023199078901E-02 
1954	 7.67621265582299E-02 
1955	 7.68239321597847E-02 
1956	 7.68881812748316E-02 
1957	 7.69543888391387E-02 
1958	 7.70130222640658E-02 
1959	 7.70872621661978E-02 
1960	 7.71759234481344E-02 
1961	 7.72623177072671E-02 
1962	 7.73608833180962E-02 
1963	 7.74513961229781E-02 
1964	 7.75412382900496E-02 
1965	 7.76195765226877E-02 
1966	 7.77078159032871E-02 
1967	 7.78126218392609E-02 
1968	 7.79157850714335E-02 
1969	 7.80327255524227E-02 
1970	 7.81405693931386E-02 
1971	 7.82530812828414E-02 
1972	 7.83509426742031E-02 
1973	 7.84386499031908E-02 
1974	 7.85311114641782E-02 
1975	 7.86237805246713E-02 
1976	 7.86964077159196E-02 
1977	 7.87803699193023E-02 
1978	 7.88769424829678E-02 
1979	 7.89654071310465E-02 
1980	 7.90613717957265E-02 
1981	 7.91579310182678E-02 
1982	 7.92623815968371E-02 
1983	 7.93537617598122E-02 
1984	 7.94463547006176E-02 
1985	 7.95310808443897E-02 
1986	 7.96009283299184E-02 
1987	 7.96821220056343E-02 
1988	 7.97691485766795E-02 
1989	 7.98427471956356E-02 
1990	 7.99179497125159E-02 
1991	 8.00107574557152E-02 
1992	 8.01012019554534E-02 
1993	 8.01926010684363E-02 
1994	 8.02852899323731E-02 
1995	 8.03819386495775E-02 
1996	 0.080476902196252 
1997	 8.05752652153994E-02 
1998	 8.06676870796791E-02 
1999	 8.07488375334431E-02 
2000	 8.08509778014405E-02 
2001	 8.09676184821625E-02 
2002	 8.10729244783149E-02 
2003	 8.11846213079618E-02 
2004	 8.12830650560206E-02 
2005	 8.13659422035984E-02 
2006	 8.14108341697186E-02 
2007	 8.14896393848845E-02 
2008	 8.15785068981839E-02 
2009	 0.081660456500996 
2010	 8.17565395086128E-02 
2011	 0.081834399477746 
2012	 8.18820968608685E-02 
2013	 8.19584326909605E-02 
2014	 8.20422063292687E-02 
2015	 8.21318714519885E-02 
2016	 8.22428915128675E-02 
2017	 8.23450316951237E-02 
2018	 8.24277204704234E-02 
2019	 8.24823833951124E-02 
2020	 8.25665363192507E-02 
2021	 8.26520351563294E-02 
2022	 8.27379020133324E-02 
2023	 8.28472910360427E-02 
2024	 0.082938758673482 
2025	 0.083016574899886 
2026	 8.30928547217356E-02 
2027	 8.31676125709309E-02 
2028	 8.32312805658538E-02 
2029	 0.083307556510053 
2030	 8.33793445994116E-02 
2031	 0.083459070044686 
2032	 8.35602796918547E-02 
2033	 8.36386813058865E-02 
2034	 8.37071215143896E-02 
2035	 8.37762186882597E-02 
2036	 8.38294490099311E-02 
2037	 8.38934692857419E-02 
2038	 8.39561889230256E-02 
2039	 8.40311784512606E-02 
2040	 8.41229256630969E-02 
2041	 8.42099762419044E-02 
2042	 8.42806345396818E-02 
2043	 8.43514998305585E-02 
2044	 8.44125685088259E-02 
2045	 8.44506670988013E-02 
2046	 8.45013545004976E-02 
2047	 8.45580258740418E-02 
2048	 0.084609792124307 
2049	 8.46530052875626E-02 
2050	 8.47048313675371E-02 
2051	 8.47521247644836E-02 
2052	 8.48137843884863E-02 
2053	 8.49015109058844E-02 
2054	 0.084967915921125 
2055	 8.50420692283352E-02 
2056	 0.085098454586164 
2057	 8.51421651516772E-02 
2058	 8.51542799135295E-02 
2059	 8.51932006048131E-02 
2060	 8.52216586574765E-02 
2061	 8.52796636346331E-02 
2062	 8.53714254225054E-02 
2063	 8.54392026398301E-02 
2064	 8.55204370282951E-02 
2065	 8.55820861220224E-02 
2066	 8.56104823297119E-02 
2067	 8.56588737676232E-02 
2068	 0.085702323899534 
2069	 8.57669026989029E-02 
2070	 8.58249244898315E-02 
2071	 8.59011165160245E-02 
2072	 8.59437391878613E-02 
2073	 8.59657308732953E-02 
2074	 8.60047857688315E-02 
2075	 8.60304835380786E-02 
2076	 8.60730769160152E-02 
2077	 8.61335731245765E-02 
2078	 8.61891994877797E-02 
2079	 8.62464027694253E-02 
2080	 8.63015159846223E-02 
2081	 8.63646207482202E-02 
2082	 8.64190577042248E-02 
2083	 8.64551735051198E-02 
2084	 8.65116347638374E-02 
2085	 8.65653129877733E-02 
2086	 8.66214834164533E-02 
2087	 8.66702984695803E-02 
2088	 0.086726514699906 
2089	 8.67673077737694E-02 
2090	 8.67878987238273E-02 
2091	 8.68250681608516E-02 
2092	 8.68599206187864E-02 
2093	 8.69046572863668E-02 
2094	 8.69584683825091E-02 
2095	 8.70137750530046E-02 
2096	 8.70814613278336E-02 
2097	 8.71392149537179E-02 
2098	 8.71893542785183E-02 
2099	 8.72527824518854E-02 
2100	 8.73040388547179E-02 
2101	 8.73491046795322E-02 
2102	 0.087391397093651 
2103	 8.74269609841016E-02 
2104	 8.74701246464513E-02 
2105	 8.75082844941811E-02 
2106	 8.75571828868511E-02 
2107	 8.76177953633421E-02 
2108	 8.76721863193881E-02 
2109	 8.77254380469756E-02 
2110	 8.77829446804924E-02 
2111	 8.78364445689812E-02 
2112	 0.087900365627804 
2113	 8.79812135014157E-02 
2114	 8.80510397690598E-02 
2115	 8.81216266434927E-02 
2116	 8.81945364324647E-02 
2117	 8.82668281461289E-02 
2118	 0.088337394155771 
2119	 8.84037265307336E-02 
2120	 8.84795574551006E-02 
2121	 8.85322178758154E-02 
2122	 8.85624244335548E-02 
2123	 8.86059891034578E-02 
2124	 8.86459423077983E-02 
2125	 8.86825116049384E-02 
2126	 8.87209815166919E-02 
2127	 8.87600417633839E-02 
2128	 8.87931242801998E-02 
2129	 8.88254281241355E-02 
2130	 8.88604330107569E-02 
2131	 8.89042366220272E-02 
2132	 8.89236455576757E-02 
2133	 8.89234611688868E-02 
2134	 8.89406873037994E-02 
2135	 8.89555286540681E-02 
2136	 8.89645909647391E-02 
2137	 8.89817114019644E-02 
2138	 8.89902379517634E-02 
2139	 8.89908894519895E-02 
2140	 8.89849023525874E-02 
2141	 8.89806246851025E-02 
2142	 8.89634087672225E-02 
2143	 8.89190132355537E-02 
2144	 8.88905144544009E-02 
2145	 8.88676981725659E-02 
2146	 8.88417116743811E-02 
2147	 8.88265036902703E-02 
2148	 8.87982940386582E-02 
2149	 8.87720653069796E-02 
2150	 8.87383658292228E-02 
2151	 8.87112764080995E-02 
2152	 8.86949956799498E-02 
2153	 8.86576610964788E-02 
2154	 8.86018695209614E-02 
2155	 8.85661193289097E-02 
2156	 8.85299974150414E-02 
2157	 8.84907319834927E-02 
2158	 8.84760493568696E-02 
2159	 8.84344508375012E-02 
2160	 8.83673278943923E-02 
2161	 8.83067107661613E-02 
2162	 8.82351632247629E-02 
2163	 8.81708068648536E-02 
2164	 8.81178054942565E-02 
2165	 8.80466149442897E-02 
2166	 8.79857110178648E-02 
2167	 8.79327408286874E-02 
2168	 8.78653629298144E-02 
2169	 8.77872889968077E-02 
2170	 8.77210597811656E-02 
2171	 8.76466209244781E-02 
2172	 8.75871497467121E-02 
2173	 8.75462474782293E-02 
2174	 8.74968206894785E-02 
2175	 8.74453111705839E-02 
2176	 8.74003723357076E-02 
2177	 8.73693206242731E-02 
2178	 0.087317549753189 
2179	 8.72665205001222E-02 
2180	 8.72044806693958E-02 
2181	 8.71163303201291E-02 
2182	 8.70337189048913E-02 
2183	 8.69420712761354E-02 
2184	 8.68531594270585E-02 
2185	 8.67934782655115E-02 
2186	 8.67499834463187E-02 
2187	 8.67012771968945E-02 
2188	 8.66840797101016E-02 
2189	 8.66325278473168E-02 
2190	 8.65580112185494E-02 
2191	 8.64930022020833E-02 
2192	 0.086409580038174 
2193	 8.63550232952961E-02 
2194	 8.63030467877263E-02 
2195	 8.62738302184821E-02 
2196	 0.086279281151826 
2197	 8.62760397986144E-02 
2198	 8.62951413559469E-02 
2199	 8.62929755432841E-02 
2200	 0.086279411886159 
2201	 8.62653173785191E-02 
2202	 8.62335755543304E-02 
2203	 8.62158180898703E-02 
2204	 8.61910565851147E-02 
2205	 8.61581013788815E-02 
2206	 8.61476366711097E-02 
2207	 8.61371000025315E-02 
2208	 8.61514786379024E-02 
2209	 8.62031089558132E-02 
2210	 8.62269387535334E-02 
2211	 8.62702875053627E-02 
2212	 8.62656134118401E-02 
2213	 8.62133008075087E-02 
2214	 8.61941524659565E-02 
2215	 8.61407545681485E-02 
2216	 0.086140819682083 
2217	 8.62054849101531E-02 
2218	 8.62299153862677E-02 
2219	 8.62542186479402E-02 
2220	 8.62807769217067E-02 
2221	 8.62971901581287E-02 
2222	 0.086308497233974 
2223	 0.08630258438248 
2224	 8.63196478917936E-02 
2225	 8.63373901745931E-02 
2226	 8.63426453029347E-02 
2227	 8.63611647528932E-02 
2228	 0.086411228545607 
2229	 8.64269511706186E-02 
2230	 8.64153190278667E-02 
2231	 8.64221847171007E-02 
2232	 8.64288519113472E-02 
2233	 8.64405531296566E-02 
2234	 0.086457462224669 
2235	 8.64776776217708E-02 
2236	 8.64960557464304E-02 
2237	 8.65242277819186E-02 
2238	 8.65691785094237E-02 
2239	 8.66053159019059E-02 
2240	 8.66601187827789E-02 
2241	 8.66818328053963E-02 
2242	 8.66720716002794E-02 
2243	 8.66713014952377E-02 
2244	 8.66476778063714E-02 
2245	 8.66369096127471E-02 
2246	 8.66428187339201E-02 
2247	 8.66732911436121E-02 
2248	 8.66979361450049E-02 
2249	 8.67411073464049E-02 
2250	 8.67556962999336E-02 
2251	 8.67523052687857E-02 
2252	 8.67755062507161E-02 
2253	 8.68064368317263E-02 
2254	 8.68162219528755E-02 
2255	 8.68299183432014E-02 
2256	 0.086845809215701 
2257	 8.68282741899803E-02 
2258	 8.68438805152648E-02 
2259	 8.69124489140104E-02 
2260	 8.69340711121305E-02 
2261	 8.69227871786674E-02 
2262	 8.69425641192391E-02 
2263	 8.69674682275156E-02 
2264	 8.69770004411348E-02 
2265	 8.69837498659874E-02 
2266	 8.70083632569554E-02 
2267	 8.70371454308568E-02 
2268	 8.70551653325245E-02 
2269	 8.70730608388036E-02 
2270	 8.71250117089967E-02 
2271	 8.71508725956596E-02 
2272	 8.71453038133497E-02 
2273	 0.087192255721482 
2274	 8.72282324851897E-02 
2275	 8.72361256089791E-02 
2276	 8.72159094700209E-02 
2277	 0.087230151235194 
2278	 8.72340475586488E-02 
2279	 8.72542062096476E-02 
2280	 8.73102309652746E-02 
2281	 8.73471325798252E-02 
2282	 8.73753771278939E-02 
2283	 8.73966602790893E-02 
2284	 8.74173285945556E-02 
2285	 8.74401774073627E-02 
2286	 8.74374409077817E-02 
2287	 8.74643544201074E-02 
2288	 8.75307563895434E-02 
2289	 8.75645489997332E-02 
2290	 8.75986335370657E-02 
2291	 8.76217676399799E-02 
2292	 8.76076567530892E-02 
2293	 8.76194382713296E-02 
2294	 8.76423075495543E-02 
2295	 0.087665996654226 
2296	 8.77178748269574E-02 
2297	 8.77388351459514E-02 
2298	 8.77214402383352E-02 
2299	 0.087740346944715 
2300	 8.77588434036078E-02 
2301	 8.77543054778666E-02 
2302	 8.78271567060378E-02 
2303	 8.78400755837619E-02 
2304	 0.087793445900046 
2305	 8.78035597000705E-02 
2306	 8.77972361527986E-02 
2307	 8.77595305581476E-02 
2308	 8.77590300432631E-02 
2309	 8.78043063672333E-02 
2310	 8.77994879475282E-02 
2311	 8.77591175737556E-02 
2312	 8.77559868859256E-02 
2313	 8.77571723972348E-02 
2314	 8.77508513120062E-02 
2315	 8.77563272518951E-02 
2316	 8.77788896589418E-02 
2317	 8.78124391795323E-02 
2318	 8.78236183378197E-02 
2319	 0.087840691056334 
2320	 8.78569895830125E-02 
2321	 8.78381190538893E-02 
2322	 8.78445983202506E-02 
2323	 8.78686165234294E-02 
2324	 8.79133788049148E-02 
2325	 8.79789274083527E-02 
2326	 8.80404030162486E-02 
2327	 8.81499811831154E-02 
2328	 8.81986564689052E-02 
2329	 0.088245683911532 
2330	 8.82179620565642E-02 
2331	 8.81480953964614E-02 
2332	 8.81661238787662E-02 
2333	 8.81245368304086E-02 
2334	 8.80941878164423E-02 
2335	 0.08817236044897 
2336	 8.82244583092467E-02 
2337	 8.83165177398752E-02 
2338	 0.088434681988728 
2339	 8.84358531108976E-02 
2340	 8.83971378719052E-02 
2341	 8.83638026765984E-02 
2342	 8.83132359566183E-02 
2343	 8.83340140870555E-02 
2344	 8.84052805110755E-02 
2345	 0.088420883788587 
2346	 8.84371816848973E-02 
2347	 8.84357955471952E-02 
2348	 8.83804345729376E-02 
2349	 8.83606318233368E-02 
2350	 8.83635041154851E-02 
2351	 0.088362383831045 
2352	 8.83812949141976E-02 
2353	 8.83609415086956E-02 
2354	 8.82965932212333E-02 
2355	 8.82760427847542E-02 
2356	 8.82437130436166E-02 
2357	 8.82498726814289E-02 
2358	 8.83387320420019E-02 
2359	 8.83559151432934E-02 
2360	 8.83384912810814E-02 
2361	 8.83421101940942E-02 
2362	 8.83341063937009E-02 
2363	 8.83080352828895E-02 
2364	 8.82867827475092E-02 
2365	 0.088251761040748 
2366	 8.81714769472336E-02 
2367	 8.81176021151022E-02 
2368	 8.80733728362239E-02 
2369	 8.80575931430025E-02 
2370	 8.80368216905792E-02 
2371	 8.80656065882872E-02 
2372	 8.81597170282987E-02 
2373	 8.82100106586016E-02 
2374	 8.82044690466572E-02 
2375	 8.82043021347763E-02 
2376	 8.81618086941465E-02 
2377	 8.80758385674731E-02 
2378	 8.80718336030009E-02 
2379	 8.80546265991463E-02 
2380	 8.79927885547235E-02 
2381	 0.08799500072571 
2382	 8.79294540459114E-02 
2383	 8.78705435634486E-02 
2384	 8.79254427479366E-02 
2385	 8.78959707020002E-02 
2386	 8.78723022209512E-02 
2387	 8.79005528830163E-02 
2388	 0.08783628070036 
2389	 8.78379797458695E-02 
2390	 8.79553271994574E-02 
2391	 8.80585152030466E-02 
2392	 8.80371770098516E-02 
2393	 8.79072623828541E-02 
2394	 8.77955215232166E-02 
2395	 8.75899138392971E-02 
2396	 0.087424368532637 
2397	 8.74418124191968E-02 
2398	 8.74483036869423E-02 
2399	 8.74501129845609E-02 
2400	 8.75026878435328E-02 
2401	 8.76000403514976E-02 
2402	 8.75689028513482E-02 
2403	 8.74739267180532E-02 
2404	 8.75098918931324E-02 
2405	 8.74692459643967E-02 
2406	 8.73892915259335E-02 
2407	 8.73716423217087E-02 
2408	 8.73403307778571E-02 
2409	 8.72624997738539E-02 
2410	 0.087163587339035 
2411	 8.71539805771598E-02 
2412	 8.71550622442221E-02 
2413	 8.71665506226065E-02 
2414	 8.71059198083527E-02 
2415	 8.69460262918533E-02 
2416	 8.68857382635653E-02 
2417	 8.67273540936475E-02 
2418	 8.66699703124025E-02 
2419	 8.68589646189765E-02 
2420	 8.68484586072677E-02 
2421	 8.67114724799246E-02 
2422	 8.66826024512656E-02 
2423	 8.66185274383404E-02 
2424	 0.086547119869957 
2425	 8.65384454089169E-02 
2426	 8.64757648641443E-02 
2427	 8.63412237028345E-02 
2428	 8.62601024272367E-02 
2429	 8.62271583192879E-02 
2430	 8.61802331799197E-02 
2431	 8.61337792969359E-02 
2432	 8.60913321610284E-02 
2433	 8.59918610389048E-02 
2434	 8.59493744069495E-02 
2435	 8.60035620548202E-02 
2436	 0.085934245474527 
2437	 8.58775491937325E-02 
2438	 8.58196252693342E-02 
2439	 8.55375560306383E-02 
2440	 8.55316905900105E-02 
2441	 8.57390295461615E-02 
2442	 8.57986614968149E-02 
2443	 8.59591432479024E-02 
2444	 8.60153166023658E-02 
2445	 8.59896767089835E-02 
2446	 8.59080856592574E-02 
2447	 8.57519232706861E-02 
2448	 8.56737451772655E-02 
2449	 8.55381147885265E-02 
2450	 8.54257022073474E-02 
2451	 0.085346077194168 
2452	 8.52572649953183E-02 
2453	 8.51715556474477E-02 
2454	 8.51458604677458E-02 
2455	 8.51655128655644E-02 
2456	 8.52113597154182E-02 
2457	 8.52870582936773E-02 
2458	 8.52853227743418E-02 
2459	 8.53186744272427E-02 
2460	 8.52602360805413E-02 
2461	 8.50757659383243E-02 
2462	 0.085011865765417 
2463	 8.49283481640553E-02 
2464	 8.49321773149477E-02 
2465	 8.50956638689421E-02 
2466	 8.51034061430858E-02 
2467	 8.50773310396133E-02 
2468	 8.50529979787719E-02 
2469	 0.084959989844647 
2470	 8.49097626841202E-02 
2471	 8.47718605369635E-02 
2472	 8.44448290143945E-02 
2473	 8.41833939390984E-02 
2474	 8.39924784273266E-02 
2475	 8.38894165322687E-02 
2476	 8.38918704452835E-02 
2477	 8.39086772327753E-02 
2478	 8.39790486479622E-02 
2479	 8.41737715555445E-02 
2480	 8.43537120219193E-02 
2481	 8.43990724466113E-02 
2482	 8.43629351830318E-02 
2483	 8.41658753950367E-02 
2484	 0.084024016686823 
2485	 8.41110975123432E-02 
2486	 8.41685794483182E-02 
2487	 8.42210099098806E-02 
2488	 8.41238349500502E-02 
2489	 8.38163169973001E-02 
2490	 8.36778885240289E-02 
2491	 8.36318228559422E-02 
2492	 8.36730173006706E-02 
2493	 8.38214913822231E-02 
2494	 8.38028722943715E-02 
2495	 0.083775635377336 
2496	 8.39303130862942E-02 
2497	 8.38104633438086E-02 
2498	 8.34740678284496E-02 
2499	 8.33158264697958E-02 
2500	 8.31816323282161E-02 
