Wavelength	MM_3400004.asd
350	 4.47635552759043E-02 
351	 4.65103314067881E-02 
352	 4.58791118801273E-02 
353	 5.15731843839331E-02 
354	 5.63021867917611E-02 
355	 5.25546719281988E-02 
356	 4.51100089246394E-02 
357	 4.20648701937073E-02 
358	 5.20410695425016E-02 
359	 5.14317587025271E-02 
360	 4.45379999244137E-02 
361	 5.13797098165261E-02 
362	 5.08614980468573E-02 
363	 5.04175817014145E-02 
364	 5.33726720101685E-02 
365	 5.12962379232106E-02 
366	 4.82583147379493E-02 
367	 4.74105440089362E-02 
368	 5.00747446907044E-02 
369	 0.052470833913748 
370	 5.16025963605965E-02 
371	 5.02234390123606E-02 
372	 5.37877373836471E-02 
373	 5.11553218829047E-02 
374	 5.09811735057732E-02 
375	 5.58227935061053E-02 
376	 5.32679001771963E-02 
377	 5.30488364639511E-02 
378	 5.68160502261879E-02 
379	 6.20398263171946E-02 
380	 6.02877305038431E-02 
381	 5.69076652912901E-02 
382	 5.59157338572891E-02 
383	 0.059262441974158 
384	 6.27389536784274E-02 
385	 6.17733233554284E-02 
386	 5.66917789015424E-02 
387	 5.65062309756573E-02 
388	 5.93028034765576E-02 
389	 6.11258388216104E-02 
390	 5.89803487115714E-02 
391	 5.81342716956769E-02 
392	 6.01870967701607E-02 
393	 6.29938626460815E-02 
394	 6.19772518235702E-02 
395	 0.062161678345134 
396	 6.32188435697248E-02 
397	 6.42534309454521E-02 
398	 6.54580016457089E-02 
399	 6.37303678957211E-02 
400	 6.23225309297993E-02 
401	 6.49909860167746E-02 
402	 6.41908593261201E-02 
403	 6.41000077898929E-02 
404	 6.52416013397504E-02 
405	 6.39609399660675E-02 
406	 6.48053070219807E-02 
407	 6.61544952263332E-02 
408	 6.59912391695352E-02 
409	 6.41259553310265E-02 
410	 6.37778329678749E-02 
411	 6.48754586735072E-02 
412	 6.57300151566632E-02 
413	 6.58056227504119E-02 
414	 6.54441862127525E-02 
415	 6.51876528995005E-02 
416	 6.57046658295703E-02 
417	 6.55025911590659E-02 
418	 6.53147412323881E-02 
419	 6.57993664475164E-02 
420	 0.065466182145398 
421	 6.47861237781198E-02 
422	 6.48204553066292E-02 
423	 6.65416294095981E-02 
424	 6.59583716626809E-02 
425	 6.50799809376122E-02 
426	 6.52762720416382E-02 
427	 6.53670038665485E-02 
428	 0.065456898167662 
429	 6.53897906967895E-02 
430	 6.51188032711508E-02 
431	 6.54351250124195E-02 
432	 6.52570864928174E-02 
433	 0.064802853413505 
434	 6.55096632475013E-02 
435	 6.56688603233954E-02 
436	 6.54658460133438E-02 
437	 6.52950500279902E-02 
438	 6.50203737048273E-02 
439	 6.50305464714734E-02 
440	 6.53844771531063E-02 
441	 6.58995418333291E-02 
442	 6.60322959331867E-02 
443	 6.59881706386186E-02 
444	 6.59032220448652E-02 
445	 6.56675701448476E-02 
446	 6.56358921398056E-02 
447	 6.56126631880541E-02 
448	 0.065387986233305 
449	 6.53961078418187E-02 
450	 6.55963149905611E-02 
451	 6.57883284900754E-02 
452	 6.56749771834184E-02 
453	 6.54117495239901E-02 
454	 6.52996311815972E-02 
455	 6.54714576773304E-02 
456	 6.56404500249354E-02 
457	 0.065636634811602 
458	 6.55320312737425E-02 
459	 0.065500084909858 
460	 6.54551134762217E-02 
461	 6.53184571575919E-02 
462	 6.51879946492611E-02 
463	 6.54031843581557E-02 
464	 6.57483775151412E-02 
465	 6.59563683740541E-02 
466	 6.58388377131554E-02 
467	 6.55241095806707E-02 
468	 6.54621975053415E-02 
469	 6.55827555765652E-02 
470	 6.54206486043105E-02 
471	 6.53575668877214E-02 
472	 6.53387361698879E-02 
473	 6.53184388148958E-02 
474	 6.54835435891131E-02 
475	 6.53941932511058E-02 
476	 6.51687444209236E-02 
477	 6.51521185082103E-02 
478	 6.53405120802917E-02 
479	 6.53995090761662E-02 
480	 6.52448079510808E-02 
481	 6.51611852638807E-02 
482	 6.54293075954486E-02 
483	 6.55755248114576E-02 
484	 6.52387125374136E-02 
485	 6.54545811947596E-02 
486	 6.53652867331488E-02 
487	 6.49911075721898E-02 
488	 6.50816394288997E-02 
489	 6.53516899355134E-02 
490	 6.54944898506469E-02 
491	 6.53754049660058E-02 
492	 0.065275353292276 
493	 6.51668228791606E-02 
494	 6.50650692159259E-02 
495	 6.50100119347374E-02 
496	 6.51381856906448E-02 
497	 0.065241292611108 
498	 6.52250062507546E-02 
499	 6.52045796656341E-02 
500	 6.52547689679797E-02 
501	 6.53132566844458E-02 
502	 6.52772710515313E-02 
503	 6.50449553886301E-02 
504	 6.50405525710633E-02 
505	 6.52022202647701E-02 
506	 0.065042266707269 
507	 6.49835149693649E-02 
508	 6.50312101006747E-02 
509	 6.50840093079352E-02 
510	 6.49627725672448E-02 
511	 6.49399847805796E-02 
512	 6.49785843049414E-02 
513	 6.48955670127221E-02 
514	 6.47975022219526E-02 
515	 6.48256361556114E-02 
516	 6.49815040829508E-02 
517	 6.50427328235179E-02 
518	 6.49456093806097E-02 
519	 6.48189098682264E-02 
520	 6.48205814199923E-02 
521	 6.48666433391168E-02 
522	 6.48305146472574E-02 
523	 6.47374640023487E-02 
524	 6.47675129616224E-02 
525	 6.47282254188882E-02 
526	 6.46867467652975E-02 
527	 0.064725094883446 
528	 6.48024709268137E-02 
529	 6.47727339902733E-02 
530	 6.47242212113087E-02 
531	 6.48613861548646E-02 
532	 6.47762105745302E-02 
533	 6.47318564569479E-02 
534	 0.064854228160774 
535	 6.47757874630452E-02 
536	 6.47646758187657E-02 
537	 6.47951491230376E-02 
538	 6.47554112564986E-02 
539	 6.47600165754157E-02 
540	 6.47644883468217E-02 
541	 6.47656786408236E-02 
542	 6.48311951480082E-02 
543	 6.49200587641138E-02 
544	 6.49631086927535E-02 
545	 6.49295240892923E-02 
546	 6.49667209319475E-02 
547	 0.064999714461647 
548	 6.50128143959135E-02 
549	 6.50432439483934E-02 
550	 6.50447470982071E-02 
551	 6.50524476967054E-02 
552	 6.50906147739361E-02 
553	 6.51182060958742E-02 
554	 6.51343170404599E-02 
555	 6.51903373398071E-02 
556	 6.53452886585402E-02 
557	 6.54555218303964E-02 
558	 0.06556803791256 
559	 6.56919765400994E-02 
560	 0.0657223418818 
561	 6.58202961712707E-02 
562	 6.59511592359766E-02 
563	 6.60392397740473E-02 
564	 6.61958258864216E-02 
565	 6.63303043786321E-02 
566	 6.63988924459769E-02 
567	 6.64242256382265E-02 
568	 6.65363449065528E-02 
569	 6.67547183480636E-02 
570	 6.70301575823566E-02 
571	 6.71956766482263E-02 
572	 6.74025339640024E-02 
573	 6.76574509082402E-02 
574	 6.78686648589022E-02 
575	 6.81076090502979E-02 
576	 6.83480225726115E-02 
577	 6.85773112329358E-02 
578	 6.88443715732069E-02 
579	 6.91543255758017E-02 
580	 6.94247165561592E-02 
581	 6.95807346273915E-02 
582	 6.98962300311425E-02 
583	 7.01844525802606E-02 
584	 7.03728078842392E-02 
585	 7.06032112328794E-02 
586	 7.09511455686846E-02 
587	 7.13197463027791E-02 
588	 7.16100078068118E-02 
589	 7.19766921793747E-02 
590	 7.23781078670601E-02 
591	 7.27790427709176E-02 
592	 0.073159154883714 
593	 7.35301831723138E-02 
594	 7.39141266622279E-02 
595	 7.43102362706978E-02 
596	 7.46574040733088E-02 
597	 7.49608797917329E-02 
598	 7.52259038914571E-02 
599	 7.54666848115274E-02 
600	 7.57428319807457E-02 
601	 7.60268263656103E-02 
602	 7.62837741111091E-02 
603	 7.64835834858259E-02 
604	 7.66861062246699E-02 
605	 7.69183575802335E-02 
606	 7.71838548916129E-02 
607	 7.74332426135418E-02 
608	 7.76920092675709E-02 
609	 7.79631779846005E-02 
610	 0.0782189531132 
611	 7.84334540277945E-02 
612	 7.85901989488355E-02 
613	 7.86994974314396E-02 
614	 7.88425359782135E-02 
615	 7.89852106358329E-02 
616	 7.91137374857323E-02 
617	 0.079232138865379 
618	 7.93940296802523E-02 
619	 7.95266792716846E-02 
620	 7.95935847285014E-02 
621	 0.079671781347064 
622	 7.97580458217048E-02 
623	 7.98509567347419E-02 
624	 7.99461642076641E-02 
625	 8.00390161331821E-02 
626	 8.01311269541555E-02 
627	 8.02111371002191E-02 
628	 8.02495073842992E-02 
629	 8.03107863084418E-02 
630	 8.03724916213033E-02 
631	 8.04115936853166E-02 
632	 8.05043442250434E-02 
633	 8.05927392039694E-02 
634	 8.06439218540849E-02 
635	 8.06559469235917E-02 
636	 0.080736590761068 
637	 8.08099528851779E-02 
638	 8.08277036098198E-02 
639	 8.08901106506418E-02 
640	 8.09586508129541E-02 
641	 8.10236475499143E-02 
642	 8.10920244652609E-02 
643	 8.12159916128086E-02 
644	 0.081270505122933 
645	 8.12493679740034E-02 
646	 8.13404861407786E-02 
647	 0.081436238043337 
648	 8.15061535346352E-02 
649	 0.081554206338635 
650	 8.16395379951822E-02 
651	 0.081708126065307 
652	 8.17674890418839E-02 
653	 0.081875751210645 
654	 0.081966623573394 
655	 0.082012872220272 
656	 8.20352078297341E-02 
657	 8.21577219129609E-02 
658	 0.082263352289288 
659	 8.23368648845081E-02 
660	 8.24105921611239E-02 
661	 8.24784587695657E-02 
662	 8.25815306417984E-02 
663	 0.082707083323745 
664	 8.27576951095574E-02 
665	 0.082880305692966 
666	 8.30350748291472E-02 
667	 8.31417290048013E-02 
668	 8.31843394737779E-02 
669	 8.32907033946513E-02 
670	 8.34584625232703E-02 
671	 8.35760298031623E-02 
672	 8.36544200465482E-02 
673	 8.37701896503242E-02 
674	 8.39422485305763E-02 
675	 8.40227608865084E-02 
676	 8.41083803626117E-02 
677	 8.42170064366079E-02 
678	 8.43314083952678E-02 
679	 8.44283363343074E-02 
680	 8.45593059529156E-02 
681	 8.47236127833158E-02 
682	 8.48454307642758E-02 
683	 8.49973471974808E-02 
684	 8.51442368357786E-02 
685	 0.085254498629174 
686	 8.54104781748457E-02 
687	 8.55778135878526E-02 
688	 0.085738285976074 
689	 8.58873841855195E-02 
690	 8.60358428038883E-02 
691	 8.61573464395583E-02 
692	 8.62631911988471E-02 
693	 0.086456034065176 
694	 0.086608052912649 
695	 8.67424640183717E-02 
696	 8.69154481071817E-02 
697	 8.70388471748918E-02 
698	 8.71630282487417E-02 
699	 8.73046950197373E-02 
700	 8.74385136906688E-02 
701	 8.76275330254388E-02 
702	 8.78101866807119E-02 
703	 8.79397470293525E-02 
704	 8.80867024156164E-02 
705	 0.088226162799931 
706	 8.83661584042545E-02 
707	 0.088524722293162 
708	 8.86569815575899E-02 
709	 8.88345595905609E-02 
710	 8.90476245329115E-02 
711	 8.91530784184341E-02 
712	 8.92809877690261E-02 
713	 8.94085524696927E-02 
714	 8.95037413191679E-02 
715	 8.96721475695438E-02 
716	 8.97874572968798E-02 
717	 8.98698941461404E-02 
718	 0.090036585013781 
719	 9.01722961818247E-02 
720	 9.02753881612551E-02 
721	 9.03663269944425E-02 
722	 9.04732128399834E-02 
723	 9.06001514642876E-02 
724	 9.07271329003376E-02 
725	 9.08283920868867E-02 
726	 9.08950598551433E-02 
727	 9.10016654023322E-02 
728	 0.091125856404953 
729	 9.11616714602894E-02 
730	 9.12489672085782E-02 
731	 9.13499667094915E-02 
732	 9.14215447326043E-02 
733	 9.14866467962536E-02 
734	 0.091550858782644 
735	 0.091616505534365 
736	 9.16758587786359E-02 
737	 9.16751522071615E-02 
738	 9.16764107989143E-02 
739	 9.17186337801912E-02 
740	 9.18022823333109E-02 
741	 9.18195200160713E-02 
742	 9.18126095957606E-02 
743	 9.18263745042451E-02 
744	 0.091814666705243 
745	 9.18067839235129E-02 
746	 9.18068195068072E-02 
747	 9.18034556044446E-02 
748	 9.17693929596714E-02 
749	 9.17342718344936E-02 
750	 9.17220427440568E-02 
751	 9.17416148596922E-02 
752	 9.16978625453316E-02 
753	 0.091633663260967 
754	 9.15960586699419E-02 
755	 0.091538935261748 
756	 9.14966474568682E-02 
757	 9.14743553399542E-02 
758	 9.14544405670443E-02 
759	 0.091379984980103 
760	 0.091289413673252 
761	 9.12097215681239E-02 
762	 9.11406320925862E-02 
763	 9.10682044501513E-02 
764	 9.10008206633204E-02 
765	 9.09401166185592E-02 
766	 9.08479047966186E-02 
767	 9.07820945314087E-02 
768	 9.07312380459146E-02 
769	 9.06487953779381E-02 
770	 0.090516683080781 
771	 9.04015158213692E-02 
772	 9.03282156991673E-02 
773	 9.02622215398285E-02 
774	 9.01875113072683E-02 
775	 9.00813471757835E-02 
776	 8.99494986570563E-02 
777	 8.98747605559533E-02 
778	 8.97885442408684E-02 
779	 8.96930938829699E-02 
780	 8.96141632393141E-02 
781	 8.95037728629089E-02 
782	 8.94209531112804E-02 
783	 8.93499334755002E-02 
784	 8.91959900074892E-02 
785	 8.90808950137455E-02 
786	 8.90112779670373E-02 
787	 8.89508947851888E-02 
788	 8.88136636497114E-02 
789	 8.87192928766486E-02 
790	 8.86296807995983E-02 
791	 0.088483584916307 
792	 8.84384906794191E-02 
793	 8.83432754217317E-02 
794	 8.81962413285093E-02 
795	 8.81265018782432E-02 
796	 8.80211075204112E-02 
797	 8.79160796032935E-02 
798	 8.78351955812238E-02 
799	 8.77381451708285E-02 
800	 8.76362567101298E-02 
801	 8.75525714294179E-02 
802	 8.74914234598354E-02 
803	 8.73665977228957E-02 
804	 8.72872804929735E-02 
805	 8.72375646544395E-02 
806	 8.71348389754354E-02 
807	 8.70824810191204E-02 
808	 8.69997750414361E-02 
809	 8.68690204034903E-02 
810	 8.67778169524477E-02 
811	 0.086747421054432 
812	 8.67007244040247E-02 
813	 8.65910246834423E-02 
814	 8.65175332338607E-02 
815	 8.64420355963784E-02 
816	 8.63638249879557E-02 
817	 0.086294437770162 
818	 8.62304026396779E-02 
819	 8.61807781983577E-02 
820	 8.61235896825461E-02 
821	 8.60179925179535E-02 
822	 8.59202415591155E-02 
823	 8.58596428071432E-02 
824	 8.58349525017653E-02 
825	 8.58051283481989E-02 
826	 8.57455973081933E-02 
827	 8.56937428772152E-02 
828	 8.56741278161617E-02 
829	 8.56096209014539E-02 
830	 8.55420632242586E-02 
831	 8.54917619598048E-02 
832	 8.54607478656974E-02 
833	 8.54120078806568E-02 
834	 8.53743133858293E-02 
835	 8.53490320688084E-02 
836	 8.53095560774168E-02 
837	 8.52735491529754E-02 
838	 8.52431788993451E-02 
839	 0.085205083259257 
840	 8.51232755367791E-02 
841	 8.50726287594148E-02 
842	 8.50644659731831E-02 
843	 8.50764746990118E-02 
844	 8.50440376929891E-02 
845	 8.50506101417355E-02 
846	 8.50510385100071E-02 
847	 8.49762439655131E-02 
848	 8.49862247798949E-02 
849	 0.084996081194403 
850	 8.49658247002709E-02 
851	 8.49132298628608E-02 
852	 0.084887748792981 
853	 8.49038928476942E-02 
854	 8.49332647527237E-02 
855	 8.48994986607968E-02 
856	 8.49078311367422E-02 
857	 8.49519345715271E-02 
858	 8.49858106584561E-02 
859	 8.49282641159861E-02 
860	 8.49197505957988E-02 
861	 8.49367499131256E-02 
862	 0.084923805034733 
863	 8.49754034208546E-02 
864	 8.49699734874193E-02 
865	 8.49394217739876E-02 
866	 8.49934026502188E-02 
867	 8.50429651054782E-02 
868	 0.085068995705523 
869	 8.50758488809065E-02 
870	 8.50853576281765E-02 
871	 8.50948294013146E-02 
872	 8.51194108285311E-02 
873	 8.51622549928308E-02 
874	 0.085204487027722 
875	 8.52224114329767E-02 
876	 8.52337381685781E-02 
877	 8.52574717090432E-02 
878	 8.52820332978104E-02 
879	 8.53420449743258E-02 
880	 8.54058234768674E-02 
881	 8.54392225956318E-02 
882	 8.55016694250011E-02 
883	 8.55680807627064E-02 
884	 0.085620687528218 
885	 8.56513851709197E-02 
886	 8.56686875233207E-02 
887	 8.57311626182267E-02 
888	 8.58157906457482E-02 
889	 8.58420199555321E-02 
890	 8.59078146931938E-02 
891	 8.59622184159173E-02 
892	 8.59978382940115E-02 
893	 8.60781858107946E-02 
894	 8.60972673567417E-02 
895	 8.61416279970128E-02 
896	 8.62596367195265E-02 
897	 0.086365892484617 
898	 8.64273472949419E-02 
899	 8.64695110899828E-02 
900	 8.65222282958055E-02 
901	 8.65731788192724E-02 
902	 0.086634812785106 
903	 8.67180233594392E-02 
904	 8.68243145213561E-02 
905	 0.086924457371114 
906	 8.70659133077706E-02 
907	 8.71636765546364E-02 
908	 8.71426693867307E-02 
909	 0.08730141145995 
910	 8.74509184269586E-02 
911	 8.75425326916103E-02 
912	 8.76312520803999E-02 
913	 8.76671806350747E-02 
914	 8.77383072399462E-02 
915	 8.78598835201423E-02 
916	 8.79719936735485E-02 
917	 8.80516674489106E-02 
918	 8.81680264342014E-02 
919	 8.82909658757677E-02 
920	 8.82868211071132E-02 
921	 8.83891438386622E-02 
922	 8.85865782686134E-02 
923	 0.088788125829584 
924	 8.88665857591352E-02 
925	 8.88989061786951E-02 
926	 8.90234480966946E-02 
927	 8.92294630327655E-02 
928	 8.92231141473634E-02 
929	 8.93365722044858E-02 
930	 8.95178723747798E-02 
931	 8.96659869079073E-02 
932	 8.98068750894212E-02 
933	 8.99384588480866E-02 
934	 0.090055101997194 
935	 9.01658770984327E-02 
936	 9.03326018772563E-02 
937	 9.04051568931066E-02 
938	 9.04757980983866E-02 
939	 9.06546274717744E-02 
940	 9.08176720611609E-02 
941	 9.09433722996505E-02 
942	 9.10713368862393E-02 
943	 9.12403826964884E-02 
944	 9.13753155430041E-02 
945	 9.15023405845842E-02 
946	 9.16303284152262E-02 
947	 9.17570806617056E-02 
948	 9.18705634358136E-02 
949	 9.20086428843824E-02 
950	 9.21588137623043E-02 
951	 9.22946061979678E-02 
952	 9.24679864648622E-02 
953	 9.25963485877097E-02 
954	 9.27280018892857E-02 
955	 9.29573366372626E-02 
956	 9.32004124237395E-02 
957	 9.33494016715524E-02 
958	 9.34319526475574E-02 
959	 9.35456085025245E-02 
960	 9.36445200481107E-02 
961	 9.37839964374564E-02 
962	 9.39349124078052E-02 
963	 0.094033290563512 
964	 9.41619671712728E-02 
965	 9.43486178448116E-02 
966	 9.45836433644997E-02 
967	 9.48165778980589E-02 
968	 9.49193399090807E-02 
969	 9.49987811539223E-02 
970	 9.51268168476693E-02 
971	 9.53024842515379E-02 
972	 9.53419168035848E-02 
973	 9.55141256872786E-02 
974	 9.57755734544947E-02 
975	 9.58973533983535E-02 
976	 9.60238641242952E-02 
977	 9.61951334567774E-02 
978	 0.096359418809685 
979	 9.64439846865869E-02 
980	 9.65870777106566E-02 
981	 9.67518347454222E-02 
982	 9.69359082314742E-02 
983	 9.71506856351657E-02 
984	 9.73499094182787E-02 
985	 9.73640866970136E-02 
986	 9.73781806477173E-02 
987	 0.097646239414386 
988	 9.77054877173793E-02 
989	 9.78201861794887E-02 
990	 9.79989604129025E-02 
991	 9.81244568296521E-02 
992	 9.82478942631855E-02 
993	 9.83022601664674E-02 
994	 9.84470475356989E-02 
995	 9.87731039868988E-02 
996	 9.86839799309538E-02 
997	 9.88806938306597E-02 
998	 9.90874988699382E-02 
999	 9.89373266837401E-02 
1000	 9.92229473254191E-02 
1001	 9.79821744601349E-02 
1002	 9.80042570795947E-02 
1003	 9.80848659024338E-02 
1004	 0.098183163581914 
1005	 9.82311538920822E-02 
1006	 9.83264708287852E-02 
1007	 9.85145974443822E-02 
1008	 9.86251597444151E-02 
1009	 9.87235912754651E-02 
1010	 9.88132679157333E-02 
1011	 9.88862917430902E-02 
1012	 9.89894809068703E-02 
1013	 9.90769298774485E-02 
1014	 9.91237891075286E-02 
1015	 0.09919901359932 
1016	 9.93283207524696E-02 
1017	 0.099432386725844 
1018	 9.95260763852897E-02 
1019	 9.96006494456756E-02 
1020	 9.97231466916332E-02 
1021	 9.98247156938943E-02 
1022	 9.98415260521734E-02 
1023	 9.99133609997355E-02 
1024	 9.99943120537943E-02 
1025	 0.099984506061363 
1026	 0.100020360982077 
1027	 0.100057628135552 
1028	 0.100049465793373 
1029	 0.100118045535625 
1030	 0.100237153559929 
1031	 0.100303847230508 
1032	 0.100368008853949 
1033	 0.100429329450129 
1034	 0.100441206211368 
1035	 0.100382441185753 
1036	 0.100414178775181 
1037	 0.100504666135783 
1038	 0.100556227660865 
1039	 0.100644957819829 
1040	 0.100714523406799 
1041	 0.100668988114613 
1042	 0.100630098598257 
1043	 0.100678733442855 
1044	 0.10072024419052 
1045	 0.100770300734998 
1046	 0.100834543639292 
1047	 0.100921440205826 
1048	 0.100940251987282 
1049	 0.100930734442484 
1050	 0.100983848690636 
1051	 0.101026827212978 
1052	 0.101067648271766 
1053	 0.101138479359296 
1054	 0.101198864524571 
1055	 0.101251067216774 
1056	 0.101303357863301 
1057	 0.101361418909164 
1058	 0.101406124229026 
1059	 0.101461830451036 
1060	 0.10152839407747 
1061	 0.101604403567284 
1062	 0.101674567385533 
1063	 0.101772163015019 
1064	 0.101833951576604 
1065	 0.1018866253976 
1066	 0.101943709807317 
1067	 0.10198389849757 
1068	 0.102043807959733 
1069	 0.102111663984269 
1070	 0.102163190601686 
1071	 0.102198773114601 
1072	 0.102231405480346 
1073	 0.102249571621188 
1074	 0.102289876640957 
1075	 0.102329194169568 
1076	 0.102382158394538 
1077	 0.102445984988511 
1078	 0.102525741508888 
1079	 0.102636569649821 
1080	 0.102730470016687 
1081	 0.102794387837583 
1082	 0.102866032739678 
1083	 0.102910710531349 
1084	 0.102883456625215 
1085	 0.102920311110813 
1086	 0.103001790823869 
1087	 0.103042886564498 
1088	 0.103060438109817 
1089	 0.103132809086788 
1090	 0.103192022530453 
1091	 0.103214576401461 
1092	 0.103269679945157 
1093	 0.103333306301334 
1094	 0.103388955331739 
1095	 0.103428985956369 
1096	 0.103464571446388 
1097	 0.103494421310538 
1098	 0.103524232975167 
1099	 0.10353387955 
1100	 0.103574076345874 
1101	 0.10365292558782 
1102	 0.103687500604745 
1103	 0.103717307243045 
1104	 0.103723611894526 
1105	 0.103731381867195 
1106	 0.103731660896835 
1107	 0.103752278114488 
1108	 0.103791292972051 
1109	 0.103811763635594 
1110	 0.103821236625947 
1111	 0.10383889700843 
1112	 0.10386526561302 
1113	 0.103877449616739 
1114	 0.103880643830825 
1115	 0.103890891674567 
1116	 0.103883681846226 
1117	 0.103901563302028 
1118	 0.103928215328457 
1119	 0.103979881693624 
1120	 0.104031461659954 
1121	 0.104058158952578 
1122	 0.104085062984262 
1123	 0.104093834948069 
1124	 0.104107344951115 
1125	 0.104116079215084 
1126	 0.104128446528865 
1127	 0.104141737790455 
1128	 0.10415572202273 
1129	 0.104165435639932 
1130	 0.104180430203546 
1131	 0.104200723577159 
1132	 0.104214857547584 
1133	 0.104226112070282 
1134	 0.104244312029747 
1135	 0.104272398584821 
1136	 0.104290243385831 
1137	 0.104285164599376 
1138	 0.10426742164396 
1139	 0.10427300982262 
1140	 0.104261977217356 
1141	 0.10428382775423 
1142	 0.104352931018027 
1143	 0.104385064777402 
1144	 0.104417889103289 
1145	 0.104426512607392 
1146	 0.104405526974255 
1147	 0.104402246907642 
1148	 0.104380816447674 
1149	 0.104382113398996 
1150	 0.104402609487945 
1151	 0.104428258534166 
1152	 0.104443295356284 
1153	 0.104466816442495 
1154	 0.104479948874797 
1155	 0.104479672777433 
1156	 0.104491633871446 
1157	 0.104517742429505 
1158	 0.10451554248244 
1159	 0.104491235202509 
1160	 0.104496507704553 
1161	 0.104501052513273 
1162	 0.104506983593281 
1163	 0.104536616910996 
1164	 0.104554728756712 
1165	 0.104563543522969 
1166	 0.104561844131445 
1167	 0.104578070198675 
1168	 0.104600870750165 
1169	 0.104611921248978 
1170	 0.10461791906972 
1171	 0.10462611273309 
1172	 0.104622618748682 
1173	 0.104636657463758 
1174	 0.104663192579114 
1175	 0.104681888039181 
1176	 0.104715027131359 
1177	 0.104730671908776 
1178	 0.104719830036528 
1179	 0.104731645088884 
1180	 0.104747379890274 
1181	 0.10476487598374 
1182	 0.104796051782851 
1183	 0.104829223113525 
1184	 0.104855267658379 
1185	 0.104881389465619 
1186	 0.104894884708166 
1187	 0.104893921664992 
1188	 0.104912207252734 
1189	 0.104931392049525 
1190	 0.104946790516415 
1191	 0.104976941643914 
1192	 0.104996331074299 
1193	 0.104993771315056 
1194	 0.10500991694691 
1195	 0.105044953363075 
1196	 0.105065019852146 
1197	 0.105074295446114 
1198	 0.105096967178956 
1199	 0.105122521495049 
1200	 0.105143789392454 
1201	 0.105171057586561 
1202	 0.105214304749072 
1203	 0.105243215923605 
1204	 0.105265500388155 
1205	 0.105286048326502 
1206	 0.105304715384473 
1207	 0.105322359689539 
1208	 0.105330753733017 
1209	 0.10534747212553 
1210	 0.105369194790384 
1211	 0.105389335001652 
1212	 0.105417673192284 
1213	 0.105435994490738 
1214	 0.105444983227353 
1215	 0.105458442176431 
1216	 0.105471125305186 
1217	 0.105481542509641 
1218	 0.10548762064288 
1219	 0.105491826910721 
1220	 0.105501027362141 
1221	 0.105499448230459 
1222	 0.105516625964032 
1223	 0.105559666623065 
1224	 0.105577252390786 
1225	 0.105586121239019 
1226	 0.105601357760364 
1227	 0.105606990156534 
1228	 0.105615624871261 
1229	 0.105640918507993 
1230	 0.105651293724099 
1231	 0.105639874658237 
1232	 0.105642208189055 
1233	 0.105647562925564 
1234	 0.105652257609938 
1235	 0.105660872716137 
1236	 0.105684722371075 
1237	 0.105688924214708 
1238	 0.105676513927898 
1239	 0.1056828511424 
1240	 0.105690102477225 
1241	 0.10569916601443 
1242	 0.105727765651723 
1243	 0.105738115704144 
1244	 0.105733138749288 
1245	 0.105736706212533 
1246	 0.105737922429002 
1247	 0.105739792511954 
1248	 0.10574963310932 
1249	 0.105747139955139 
1250	 0.105756912107333 
1251	 0.105768898777898 
1252	 0.105781673090642 
1253	 0.105807997429597 
1254	 0.105815950838975 
1255	 0.105821331185556 
1256	 0.105810956897881 
1257	 0.105778270010321 
1258	 0.105760988688683 
1259	 0.10573713721964 
1260	 0.10571903108894 
1261	 0.105715626127707 
1262	 0.105702727416116 
1263	 0.105673619738208 
1264	 0.105662970315812 
1265	 0.105663787767854 
1266	 0.105659736620226 
1267	 0.10566306742433 
1268	 0.105670474771225 
1269	 0.105666720853742 
1270	 0.105648970498857 
1271	 0.105650345337584 
1272	 0.105655912250266 
1273	 0.105663621442009 
1274	 0.105685464993272 
1275	 0.105695646230498 
1276	 0.105695491985244 
1277	 0.105705974232407 
1278	 0.105717235448407 
1279	 0.105733633533774 
1280	 0.105751324739043 
1281	 0.10578184228253 
1282	 0.10582770838573 
1283	 0.105864804476897 
1284	 0.105910011170643 
1285	 0.105950935520988 
1286	 0.105981253684036 
1287	 0.106001969335117 
1288	 0.106044527336472 
1289	 0.106099239350711 
1290	 0.106142911497614 
1291	 0.106198595353129 
1292	 0.10624106096739 
1293	 0.106270940532003 
1294	 0.106298555564117 
1295	 0.106314372482725 
1296	 0.106347642496304 
1297	 0.106383363319541 
1298	 0.106422098446307 
1299	 0.106483234652669 
1300	 0.106524636135084 
1301	 0.106547213204765 
1302	 0.106579541756822 
1303	 0.106618112010148 
1304	 0.106648316719739 
1305	 0.106667097960774 
1306	 0.106681398104843 
1307	 0.106679053668511 
1308	 0.106672068393943 
1309	 0.106681495941683 
1310	 0.10669748803474 
1311	 0.106723983372209 
1312	 0.106765024867341 
1313	 0.106796152002836 
1314	 0.106840390786157 
1315	 0.106858596075042 
1316	 0.10685895646516 
1317	 0.1068705298341 
1318	 0.106883061530956 
1319	 0.106879523802692 
1320	 0.106859873794801 
1321	 0.106854949678184 
1322	 0.106839255981902 
1323	 0.10683789353604 
1324	 0.106847383261793 
1325	 0.106852965440916 
1326	 0.106854400054476 
1327	 0.106846294000793 
1328	 0.106834914674229 
1329	 0.106841713035307 
1330	 0.10683704707976 
1331	 0.106827583719172 
1332	 0.106813193114881 
1333	 0.106796998481384 
1334	 0.106775483587213 
1335	 0.106738542839087 
1336	 0.106718592959038 
1337	 0.106708018569176 
1338	 0.10669459923124 
1339	 0.106695599608219 
1340	 0.106674963813293 
1341	 0.106634202760307 
1342	 0.106605083283982 
1343	 0.106563310577441 
1344	 0.106543398526493 
1345	 0.106526689018947 
1346	 0.106509233341245 
1347	 0.106500784244174 
1348	 0.106477277502422 
1349	 0.106442057389969 
1350	 0.106429113465648 
1351	 0.106413958390258 
1352	 0.106396322233724 
1353	 0.106378140319239 
1354	 0.106373170575356 
1355	 0.106349176601588 
1356	 0.106306913504805 
1357	 0.106281392006534 
1358	 0.106250553300304 
1359	 0.106234883572614 
1360	 0.10624425525378 
1361	 0.106230070277947 
1362	 0.106210382033046 
1363	 0.106194780865383 
1364	 0.106170985730399 
1365	 0.106142101298755 
1366	 0.106110490103115 
1367	 0.106088643301781 
1368	 0.106061070708176 
1369	 0.106031580069457 
1370	 0.106019088689843 
1371	 0.105991642918296 
1372	 0.105944962861714 
1373	 0.105919050808925 
1374	 0.105889363916574 
1375	 0.105859718374523 
1376	 0.105829288119063 
1377	 0.105808050249275 
1378	 0.105767470440706 
1379	 0.105713467827682 
1380	 0.105667737336391 
1381	 0.105615623801248 
1382	 0.105568456086963 
1383	 0.105529839916286 
1384	 0.105481476394905 
1385	 0.105430259077878 
1386	 0.105375911321639 
1387	 0.105313195822922 
1388	 0.105256824415911 
1389	 0.105207407773657 
1390	 0.105147753903303 
1391	 0.105073426138023 
1392	 0.105011340301097 
1393	 0.104950007090498 
1394	 0.104867620250891 
1395	 0.104779932358542 
1396	 0.104687286417884 
1397	 0.104589290365495 
1398	 0.104469890470715 
1399	 0.104365700348558 
1400	 0.104274027429244 
1401	 0.104167384706304 
1402	 0.104050791126323 
1403	 0.10394257647442 
1404	 0.103832930876859 
1405	 0.103722957920345 
1406	 0.10361665298554 
1407	 0.103513239828534 
1408	 0.103400555221881 
1409	 0.103299556700277 
1410	 0.103207921864412 
1411	 0.103120337670516 
1412	 0.103031003328637 
1413	 0.102960390083625 
1414	 0.102916335262588 
1415	 0.102859090340406 
1416	 0.102794960410919 
1417	 0.102754536791019 
1418	 0.102712158640806 
1419	 0.102674557609894 
1420	 0.102661486880937 
1421	 0.102648921376453 
1422	 0.102624478011389 
1423	 0.102585457499329 
1424	 0.102552219801265 
1425	 0.102514522261683 
1426	 0.102485627941961 
1427	 0.102451121045827 
1428	 0.102437618739943 
1429	 0.102436014935343 
1430	 0.102437649754944 
1431	 0.102463019147332 
1432	 0.102469336329093 
1433	 0.102469847512029 
1434	 0.10246948355874 
1435	 0.10245669037465 
1436	 0.102454422585959 
1437	 0.102456752408081 
1438	 0.102459942472401 
1439	 0.102462924640804 
1440	 0.102474772154095 
1441	 0.102492470988762 
1442	 0.102508572656357 
1443	 0.102520104066959 
1444	 0.102532477229332 
1445	 0.102535920589925 
1446	 0.102545960399434 
1447	 0.102568536567771 
1448	 0.102582257791694 
1449	 0.102593858326219 
1450	 0.102605391559747 
1451	 0.102616775303153 
1452	 0.102621515554957 
1453	 0.102636854050758 
1454	 0.102656250984001 
1455	 0.102676770172666 
1456	 0.102705321320942 
1457	 0.102727449751228 
1458	 0.102752948634579 
1459	 0.102769911583492 
1460	 0.102779791219287 
1461	 0.102788314593031 
1462	 0.102785716719283 
1463	 0.10279554552242 
1464	 0.102806182834948 
1465	 0.102822230358203 
1466	 0.102853450284243 
1467	 0.102874781086276 
1468	 0.102886349072973 
1469	 0.102912287009064 
1470	 0.102939825933391 
1471	 0.102972961036933 
1472	 0.103023917828249 
1473	 0.103070237866865 
1474	 0.103098601845809 
1475	 0.103124837549821 
1476	 0.103139811004174 
1477	 0.103150706520463 
1478	 0.103174008243679 
1479	 0.103197329185961 
1480	 0.10323505081938 
1481	 0.103279136881182 
1482	 0.103312814486592 
1483	 0.103349242908788 
1484	 0.103380742426991 
1485	 0.103400531196406 
1486	 0.103430810034932 
1487	 0.103465677653075 
1488	 0.103497881708303 
1489	 0.103532655779245 
1490	 0.103562711902872 
1491	 0.103589766827805 
1492	 0.103620442626823 
1493	 0.103649670146935 
1494	 0.103682037679399 
1495	 0.103714010385147 
1496	 0.103749948489434 
1497	 0.103793680752352 
1498	 0.103829662361619 
1499	 0.103871275241279 
1500	 0.103904475951315 
1501	 0.103928864773824 
1502	 0.103950011654489 
1503	 0.10396152762266 
1504	 0.103974540027046 
1505	 0.104001222522268 
1506	 0.10402767231306 
1507	 0.104062809725508 
1508	 0.104098209607347 
1509	 0.10412030776587 
1510	 0.104135903937524 
1511	 0.104157599401386 
1512	 0.104180826915761 
1513	 0.104202972394396 
1514	 0.104231116269465 
1515	 0.104258624073322 
1516	 0.104284780415691 
1517	 0.104313866030324 
1518	 0.104355549231151 
1519	 0.104376384896541 
1520	 0.104388047477799 
1521	 0.104398888500495 
1522	 0.104387209128153 
1523	 0.104405532754574 
1524	 0.104441385440659 
1525	 0.104464916534725 
1526	 0.104501590712361 
1527	 0.10452814556766 
1528	 0.104546115185571 
1529	 0.104556550891508 
1530	 0.104554425549892 
1531	 0.104568672496108 
1532	 0.104580987175327 
1533	 0.104597185525447 
1534	 0.104636542035787 
1535	 0.10465745300943 
1536	 0.10465906085543 
1537	 0.104671194476888 
1538	 0.104689872889766 
1539	 0.104700801112104 
1540	 0.104707218164997 
1541	 0.104716889659954 
1542	 0.104711674963509 
1543	 0.104726548671225 
1544	 0.104772858311614 
1545	 0.104795912865847 
1546	 0.104815492836814 
1547	 0.104835100043783 
1548	 0.104832627917436 
1549	 0.104827076580436 
1550	 0.104839860417427 
1551	 0.104846966508424 
1552	 0.104863162723473 
1553	 0.10487462162064 
1554	 0.104889789783615 
1555	 0.10492279061213 
1556	 0.104949892487711 
1557	 0.104966202298128 
1558	 0.104980439910344 
1559	 0.104992811476339 
1560	 0.105000681513091 
1561	 0.105002110492656 
1562	 0.105012764357344 
1563	 0.105025103099927 
1564	 0.105029933312137 
1565	 0.105035910406471 
1566	 0.105042987429675 
1567	 0.105042436934595 
1568	 0.105050680082959 
1569	 0.105071402151592 
1570	 0.105079711078807 
1571	 0.105078424726858 
1572	 0.105086723641637 
1573	 0.105095501065521 
1574	 0.105102871688526 
1575	 0.105118436119202 
1576	 0.1051252743672 
1577	 0.105122307777654 
1578	 0.105131090298227 
1579	 0.105143792809928 
1580	 0.105153520470244 
1581	 0.105168896426831 
1582	 0.105175669793333 
1583	 0.105176165699292 
1584	 0.105180518356826 
1585	 0.105183188941851 
1586	 0.105184616602371 
1587	 0.10518412518005 
1588	 0.105186813944999 
1589	 0.105190389398106 
1590	 0.105196849874708 
1591	 0.105206533922409 
1592	 0.10521536671143 
1593	 0.105222503723973 
1594	 0.105232740335077 
1595	 0.105247669689072 
1596	 0.105260506917229 
1597	 0.105278060748393 
1598	 0.105288659295244 
1599	 0.105298620363069 
1600	 0.105299783129062 
1601	 0.105285927278416 
1602	 0.105280749002205 
1603	 0.105279771521399 
1604	 0.105269594218556 
1605	 0.105253315854901 
1606	 0.10524682265872 
1607	 0.105236720930057 
1608	 0.105227299105351 
1609	 0.105243117814006 
1610	 0.105250817526881 
1611	 0.105240801547074 
1612	 0.10523369166457 
1613	 0.105230237410818 
1614	 0.105228425858839 
1615	 0.105232224721139 
1616	 0.105239961691208 
1617	 0.105256295591886 
1618	 0.105252958268331 
1619	 0.105241950804798 
1620	 0.105255183667837 
1621	 0.10525969751361 
1622	 0.105259386068605 
1623	 0.105255719290946 
1624	 0.105258382560184 
1625	 0.105250834719125 
1626	 0.105221818765092 
1627	 0.105224970181944 
1628	 0.105242639468667 
1629	 0.105255295026817 
1630	 0.105280828894527 
1631	 0.105298988955047 
1632	 0.105314326964941 
1633	 0.105325177474472 
1634	 0.105338350170317 
1635	 0.105343114954099 
1636	 0.105332878066407 
1637	 0.10534070755274 
1638	 0.105362413847427 
1639	 0.105358657841529 
1640	 0.1053521189454 
1641	 0.105339493477073 
1642	 0.105304159920655 
1643	 0.105282556901997 
1644	 0.105263600059942 
1645	 0.10525463609625 
1646	 0.105247938279475 
1647	 0.105245677730631 
1648	 0.105256156744089 
1649	 0.105263481268605 
1650	 0.105273114054815 
1651	 0.105274684329306 
1652	 0.105280881062967 
1653	 0.105274812694925 
1654	 0.105253704542888 
1655	 0.105238444648457 
1656	 0.10522044040973 
1657	 0.105204697916187 
1658	 0.105181188834533 
1659	 0.105177448297864 
1660	 0.10519062087422 
1661	 0.105188265027774 
1662	 0.105192448841043 
1663	 0.105189983257087 
1664	 0.10516783957113 
1665	 0.105164609413076 
1666	 0.105179557818241 
1667	 0.105176546607598 
1668	 0.105170978515938 
1669	 0.105161967571747 
1670	 0.105130240844912 
1671	 0.10513041546515 
1672	 0.105149684479449 
1673	 0.105159862849211 
1674	 0.105187678967099 
1675	 0.105199022303 
1676	 0.105191831314676 
1677	 0.105198655368142 
1678	 0.105225269262867 
1679	 0.105214326089142 
1680	 0.10517660496789 
1681	 0.105164626350916 
1682	 0.105140473101789 
1683	 0.105124009050816 
1684	 0.10512807699286 
1685	 0.10513262391378 
1686	 0.105138112067127 
1687	 0.105128530281592 
1688	 0.105132310986597 
1689	 0.105113950571436 
1690	 0.105044731889637 
1691	 0.105029205639163 
1692	 0.105045056244633 
1693	 0.10504151626018 
1694	 0.105058286803851 
1695	 0.105054897455053 
1696	 0.105023300686383 
1697	 0.105010678187829 
1698	 0.105003367605732 
1699	 0.104999427674726 
1700	 0.104997067116521 
1701	 0.105001711421603 
1702	 0.105015314755833 
1703	 0.10502579996661 
1704	 0.105055214698662 
1705	 0.105049079224823 
1706	 0.105021933882621 
1707	 0.104999399797884 
1708	 0.104943678828139 
1709	 0.104928218877656 
1710	 0.104933256147466 
1711	 0.104941377231492 
1712	 0.104984865866214 
1713	 0.104984428864914 
1714	 0.104960330409386 
1715	 0.104953010469756 
1716	 0.104928087427026 
1717	 0.104916077062001 
1718	 0.104932863886414 
1719	 0.104924462593262 
1720	 0.104894940063252 
1721	 0.104876927537727 
1722	 0.104849537562312 
1723	 0.104842190182562 
1724	 0.104862629552124 
1725	 0.104851345987136 
1726	 0.104836580772639 
1727	 0.104813060060465 
1728	 0.104759054210373 
1729	 0.104727800380234 
1730	 0.104706469052693 
1731	 0.104691504034837 
1732	 0.104688266668185 
1733	 0.104665936874648 
1734	 0.104647856910262 
1735	 0.1046124962379 
1736	 0.104544508899422 
1737	 0.104517023634259 
1738	 0.104504656763527 
1739	 0.104486400139187 
1740	 0.104489247749457 
1741	 0.104471655123083 
1742	 0.104433018911494 
1743	 0.104410283804616 
1744	 0.104387579238571 
1745	 0.104377618239771 
1746	 0.104386564476567 
1747	 0.104370457680817 
1748	 0.104353359891477 
1749	 0.104317057218177 
1750	 0.104284142902893 
1751	 0.104276271302156 
1752	 0.104261339252651 
1753	 0.104239543270998 
1754	 0.104216968926148 
1755	 0.104178902887119 
1756	 0.104133365530384 
1757	 0.104094367175294 
1758	 0.104064451466147 
1759	 0.104054647225686 
1760	 0.104045482691077 
1761	 0.104044945855911 
1762	 0.104050062747988 
1763	 0.104006194535144 
1764	 0.103947974166842 
1765	 0.103908082867959 
1766	 0.103868562466327 
1767	 0.103846333338837 
1768	 0.103857365756079 
1769	 0.103857153182436 
1770	 0.103822886868666 
1771	 0.103790021986897 
1772	 0.10374428051146 
1773	 0.103707800625311 
1774	 0.103679769014107 
1775	 0.103644410666043 
1776	 0.103629261601599 
1777	 0.103605447100377 
1778	 0.103579762739255 
1779	 0.103573755753918 
1780	 0.103562971932944 
1781	 0.103540757973598 
1782	 0.10351861412611 
1783	 0.103487558716581 
1784	 0.103474642015346 
1785	 0.103489266854522 
1786	 0.103467089984205 
1787	 0.103424998486495 
1788	 0.103404348633596 
1789	 0.103369492999539 
1790	 0.103354582988 
1791	 0.103375945351521 
1792	 0.103372626749715 
1793	 0.103352216150354 
1794	 0.103340781161017 
1795	 0.103329426227151 
1796	 0.10331081553277 
1797	 0.103287881739907 
1798	 0.103284042090879 
1799	 0.103287048925364 
1800	 0.103297326248126 
1801	 9.93073561038083E-02 
1802	 9.93452779740583E-02 
1803	 9.93487880972151E-02 
1804	 9.93441949488848E-02 
1805	 9.94097844417097E-02 
1806	 9.94684366447399E-02 
1807	 9.95129930667198E-02 
1808	 9.95555414408776E-02 
1809	 0.09961157213102 
1810	 9.96389263607981E-02 
1811	 9.96337005662386E-02 
1812	 9.96511247810645E-02 
1813	 9.96858020652918E-02 
1814	 9.97193525964068E-02 
1815	 9.97613321164098E-02 
1816	 9.97994123837791E-02 
1817	 0.099825075738978 
1818	 9.98373365794865E-02 
1819	 9.98431414714986E-02 
1820	 9.98372204322769E-02 
1821	 9.98423916502554E-02 
1822	 9.98311389289406E-02 
1823	 9.98111854259491E-02 
1824	 9.97913657160366E-02 
1825	 9.97935519834055E-02 
1826	 9.98379912819123E-02 
1827	 0.09988623338578 
1828	 9.98967800641405E-02 
1829	 9.98948047870072E-02 
1830	 9.98946049168404E-02 
1831	 9.98648546080288E-02 
1832	 9.98350652167378E-02 
1833	 0.099845355688154 
1834	 9.98700057182904E-02 
1835	 9.98807728708673E-02 
1836	 9.98718363891703E-02 
1837	 9.98789424832337E-02 
1838	 0.099894020735176 
1839	 9.98936279811566E-02 
1840	 9.98798774772203E-02 
1841	 0.099891564151938 
1842	 0.099916792209547 
1843	 9.99202162959955E-02 
1844	 9.99199717429506E-02 
1845	 9.99040221088993E-02 
1846	 0.099862717593686 
1847	 9.98445435797143E-02 
1848	 9.98509784480495E-02 
1849	 9.98547237507943E-02 
1850	 9.98471142617299E-02 
1851	 9.98352013258993E-02 
1852	 9.98083573020539E-02 
1853	 9.97904067408136E-02 
1854	 9.97728120600062E-02 
1855	 9.97671635663784E-02 
1856	 0.099765283084635 
1857	 9.97350948116534E-02 
1858	 9.97060773890908E-02 
1859	 9.96938297561393E-02 
1860	 9.96544401091193E-02 
1861	 0.099593366323238 
1862	 9.95196941052491E-02 
1863	 9.94712918359031E-02 
1864	 9.93978092308305E-02 
1865	 9.93302462726827E-02 
1866	 9.92929541278173E-02 
1867	 9.92195884717861E-02 
1868	 0.099132968960869 
1869	 9.90584786269019E-02 
1870	 9.89704771740635E-02 
1871	 9.88677275972838E-02 
1872	 9.87578071493652E-02 
1873	 9.86444875106317E-02 
1874	 9.85062885019962E-02 
1875	 9.83573893284832E-02 
1876	 9.82058037379179E-02 
1877	 9.80245791944568E-02 
1878	 9.78422686226438E-02 
1879	 9.76530403380208E-02 
1880	 9.74518289969854E-02 
1881	 9.72527595817701E-02 
1882	 9.70371239120555E-02 
1883	 9.68169585979189E-02 
1884	 9.65490800983377E-02 
1885	 9.62691367781836E-02 
1886	 9.59683867997186E-02 
1887	 9.56457271233868E-02 
1888	 9.53078435026302E-02 
1889	 0.094977881100659 
1890	 9.46407696860275E-02 
1891	 9.42906107475942E-02 
1892	 9.39347504080047E-02 
1893	 9.35663178008981E-02 
1894	 9.31803281950259E-02 
1895	 9.27921996017904E-02 
1896	 9.23957409532721E-02 
1897	 9.20050555552817E-02 
1898	 0.091620280931964 
1899	 9.12111430139311E-02 
1900	 9.08174834742384E-02 
1901	 9.04460007207238E-02 
1902	 0.090087346162261 
1903	 8.97638139142202E-02 
1904	 8.94284741869177E-02 
1905	 8.90910188765253E-02 
1906	 8.87700171056462E-02 
1907	 8.84587666314644E-02 
1908	 8.81537689890658E-02 
1909	 8.78868689173233E-02 
1910	 8.76321269558418E-02 
1911	 8.73820966260181E-02 
1912	 8.71213407389089E-02 
1913	 8.68910240423875E-02 
1914	 0.086668193729055 
1915	 8.64721065136317E-02 
1916	 8.62944722409777E-02 
1917	 8.61589970350435E-02 
1918	 8.60193686309489E-02 
1919	 8.58653619956078E-02 
1920	 8.57258150236753E-02 
1921	 8.56132565907257E-02 
1922	 8.55092195208206E-02 
1923	 8.54069537195385E-02 
1924	 8.53248937162232E-02 
1925	 8.52565052689142E-02 
1926	 8.51918760585444E-02 
1927	 8.51355616254989E-02 
1928	 8.51059586835861E-02 
1929	 8.50634059795542E-02 
1930	 8.50282393276718E-02 
1931	 8.50107900449174E-02 
1932	 8.49913091731886E-02 
1933	 8.49898721051022E-02 
1934	 8.49865826927325E-02 
1935	 8.49872632465699E-02 
1936	 8.49865898062272E-02 
1937	 8.50014693023466E-02 
1938	 8.50315697882006E-02 
1939	 8.50579088377524E-02 
1940	 8.50976639438901E-02 
1941	 0.085120501141871 
1942	 8.51366179345902E-02 
1943	 8.51544955903313E-02 
1944	 8.51890723270393E-02 
1945	 0.085234784026045 
1946	 8.52788750675705E-02 
1947	 8.53361024372133E-02 
1948	 8.53871532707149E-02 
1949	 8.54254626338139E-02 
1950	 8.54833417802721E-02 
1951	 0.085549635609923 
1952	 8.56294827765401E-02 
1953	 8.57139843002585E-02 
1954	 0.085787175202935 
1955	 8.58708019295143E-02 
1956	 8.59522402876592E-02 
1957	 8.60339727908983E-02 
1958	 8.61200956834875E-02 
1959	 8.62079677352187E-02 
1960	 8.62875308879832E-02 
1961	 8.63806128589536E-02 
1962	 8.64873695672876E-02 
1963	 8.65862552433818E-02 
1964	 8.66824631500722E-02 
1965	 8.67885277435328E-02 
1966	 8.69040963750172E-02 
1967	 8.70085412767521E-02 
1968	 8.71244651319053E-02 
1969	 8.72655503420097E-02 
1970	 0.087379383086777 
1971	 8.74785556326901E-02 
1972	 8.75840054109805E-02 
1973	 8.76659382516116E-02 
1974	 8.77729045690481E-02 
1975	 8.78810834520806E-02 
1976	 8.80304147639231E-02 
1977	 8.81660426409308E-02 
1978	 8.82974109764016E-02 
1979	 8.84200102001789E-02 
1980	 0.088516707444696 
1981	 8.86293794977994E-02 
1982	 8.87327778148878E-02 
1983	 8.88602965706848E-02 
1984	 8.90127803547007E-02 
1985	 8.91430271085488E-02 
1986	 8.92860019896365E-02 
1987	 8.94070262790572E-02 
1988	 8.94936847025411E-02 
1989	 8.95980661242153E-02 
1990	 8.97191707189707E-02 
1991	 8.98393188568928E-02 
1992	 8.99637778685112E-02 
1993	 9.01137692529616E-02 
1994	 9.02339285258394E-02 
1995	 9.03348547569421E-02 
1996	 9.04456823742063E-02 
1997	 9.05473036573682E-02 
1998	 9.06583097956343E-02 
1999	 9.07770916998381E-02 
2000	 9.08954142204214E-02 
2001	 9.10210210498053E-02 
2002	 9.11377682017232E-02 
2003	 9.12519099284771E-02 
2004	 9.13717804131276E-02 
2005	 9.14883325996806E-02 
2006	 0.091606776738228 
2007	 0.09171058358782 
2008	 9.18030994048481E-02 
2009	 9.19063997097106E-02 
2010	 9.19983267374296E-02 
2011	 9.21045886891531E-02 
2012	 9.22256394885691E-02 
2013	 9.23477373824284E-02 
2014	 9.24773807527218E-02 
2015	 9.26029479732017E-02 
2016	 9.27290785909765E-02 
2017	 9.28422357239719E-02 
2018	 0.092960498608207 
2019	 9.30761914528286E-02 
2020	 9.31807898953486E-02 
2021	 9.32855365978713E-02 
2022	 9.33821267275621E-02 
2023	 9.34559723891901E-02 
2024	 9.35448611213309E-02 
2025	 9.36359965535296E-02 
2026	 9.37318557601671E-02 
2027	 9.38363074386774E-02 
2028	 9.39360622027782E-02 
2029	 9.40341348976212E-02 
2030	 9.41336666211115E-02 
2031	 9.42383185277701E-02 
2032	 9.43467149672459E-02 
2033	 9.44410304643446E-02 
2034	 9.45462722947012E-02 
2035	 9.46246426346261E-02 
2036	 9.46649535826129E-02 
2037	 0.094732054370348 
2038	 9.48001462696707E-02 
2039	 9.48688792498354E-02 
2040	 9.49526987609728E-02 
2041	 9.50293638208466E-02 
2042	 9.50949841517935E-02 
2043	 9.51508239888495E-02 
2044	 9.52200840985999E-02 
2045	 9.52884953460845E-02 
2046	 9.53681026683075E-02 
2047	 9.54665127763149E-02 
2048	 0.095546422731715 
2049	 9.56271735505356E-02 
2050	 9.56975157399648E-02 
2051	 9.57534636740149E-02 
2052	 9.58139995074474E-02 
2053	 9.58684163656328E-02 
2054	 9.59274604135057E-02 
2055	 9.59976713184371E-02 
2056	 9.60459921413222E-02 
2057	 9.61077556937972E-02 
2058	 9.61700926980855E-02 
2059	 9.62423173715189E-02 
2060	 9.63210027826959E-02 
2061	 9.63998141137282E-02 
2062	 9.64938680783203E-02 
2063	 9.65711046156359E-02 
2064	 9.66507134352167E-02 
2065	 0.096710112379403 
2066	 9.67434473130011E-02 
2067	 9.67888172060659E-02 
2068	 9.68229116366427E-02 
2069	 0.096863280462642 
2070	 9.69120275239763E-02 
2071	 9.69709950808088E-02 
2072	 9.70335823524022E-02 
2073	 0.097100601555145 
2074	 9.71686085269612E-02 
2075	 9.72590852766517E-02 
2076	 9.73177151214879E-02 
2077	 9.73486782888857E-02 
2078	 9.74046262626267E-02 
2079	 9.74494681172102E-02 
2080	 9.75092364769264E-02 
2081	 9.76098569218977E-02 
2082	 0.097681260424191 
2083	 9.77324780387282E-02 
2084	 9.77943117984357E-02 
2085	 9.78524895239014E-02 
2086	 9.79001663089579E-02 
2087	 9.79515879915169E-02 
2088	 9.80126023714622E-02 
2089	 9.80591794685619E-02 
2090	 9.80962266776928E-02 
2091	 9.81326360284863E-02 
2092	 9.81490425537095E-02 
2093	 9.81941911499148E-02 
2094	 9.82488423030598E-02 
2095	 9.83059586305603E-02 
2096	 9.83945935159427E-02 
2097	 9.84634949697361E-02 
2098	 0.098523462799869 
2099	 9.85722697556885E-02 
2100	 9.86378721563556E-02 
2101	 9.87050552398522E-02 
2102	 9.87721468035247E-02 
2103	 0.09885721190152 
2104	 9.89159284605067E-02 
2105	 9.89551797138062E-02 
2106	 9.90041784471445E-02 
2107	 0.099044662199462 
2108	 9.90912845958564E-02 
2109	 9.91461351363524E-02 
2110	 9.91968722679873E-02 
2111	 9.92406010855246E-02 
2112	 9.92911167036026E-02 
2113	 9.93507566871866E-02 
2114	 9.93989588353712E-02 
2115	 9.94567080627783E-02 
2116	 9.95236136034124E-02 
2117	 9.95791040740235E-02 
2118	 9.96300957195216E-02 
2119	 9.96849516692115E-02 
2120	 0.099728076918 
2121	 0.099791975962063 
2122	 9.98803144430973E-02 
2123	 9.99444593364808E-02 
2124	 0.100004733546812 
2125	 0.100066838730091 
2126	 0.100123488063095 
2127	 0.100169437923518 
2128	 0.100224270923621 
2129	 0.100262227936972 
2130	 0.100270744839196 
2131	 0.100284950165935 
2132	 0.10030101211541 
2133	 0.100308327816674 
2134	 0.100334202018212 
2135	 0.100381642363018 
2136	 0.100398593751141 
2137	 0.100426463617276 
2138	 0.100418859975972 
2139	 0.100354061165336 
2140	 0.100335474701158 
2141	 0.100326152603644 
2142	 0.100310193102944 
2143	 0.100328619794847 
2144	 0.100314171079205 
2145	 0.100276394230504 
2146	 0.100231258919402 
2147	 0.100151300526684 
2148	 0.100093648746797 
2149	 0.100049523398349 
2150	 0.100015233406958 
2151	 9.99641553056927E-02 
2152	 9.99211405437988E-02 
2153	 9.98810347101138E-02 
2154	 9.98167864732567E-02 
2155	 9.97807355533325E-02 
2156	 9.97960016825446E-02 
2157	 9.97587391748861E-02 
2158	 9.97041193322712E-02 
2159	 9.96413379528958E-02 
2160	 9.95372261676201E-02 
2161	 9.94594827588799E-02 
2162	 9.93974829761714E-02 
2163	 9.93220943127829E-02 
2164	 9.92524639114168E-02 
2165	 9.91741776650603E-02 
2166	 9.90895505194518E-02 
2167	 9.89888197639362E-02 
2168	 9.88997032754781E-02 
2169	 9.88070309744781E-02 
2170	 9.87261640561144E-02 
2171	 9.86465071010184E-02 
2172	 9.85797879924266E-02 
2173	 9.85320405822878E-02 
2174	 9.84727811430471E-02 
2175	 0.09841757022071 
2176	 9.83596528053538E-02 
2177	 9.83069672970625E-02 
2178	 9.82368017637052E-02 
2179	 9.81541995632625E-02 
2180	 0.098073109261424 
2181	 9.79688348634357E-02 
2182	 9.78816008705831E-02 
2183	 9.77914945974191E-02 
2184	 9.77348945843746E-02 
2185	 0.097672009330701 
2186	 9.76199101965913E-02 
2187	 0.097563410138266 
2188	 9.75143634131299E-02 
2189	 9.74574810399559E-02 
2190	 0.097397331900709 
2191	 9.73358480085841E-02 
2192	 9.72775348260757E-02 
2193	 9.72048021870979E-02 
2194	 9.71175466384626E-02 
2195	 9.70416190450997E-02 
2196	 9.69449595064757E-02 
2197	 9.68808187520496E-02 
2198	 9.68456213359063E-02 
2199	 9.68030667074232E-02 
2200	 9.67636565437004E-02 
2201	 9.67412310604341E-02 
2202	 9.67333323440534E-02 
2203	 9.67255288153563E-02 
2204	 9.67043626616007E-02 
2205	 9.66940595274526E-02 
2206	 9.66717808261488E-02 
2207	 9.66216351781919E-02 
2208	 9.65954432708002E-02 
2209	 9.65784300152436E-02 
2210	 9.65737893171866E-02 
2211	 9.65816733671672E-02 
2212	 9.65829422061593E-02 
2213	 9.66006446991566E-02 
2214	 9.66022021107507E-02 
2215	 9.65876933627141E-02 
2216	 9.65793299517099E-02 
2217	 9.65643982512084E-02 
2218	 9.65620556522912E-02 
2219	 9.65604889829808E-02 
2220	 9.65691120157095E-02 
2221	 0.096594574056974 
2222	 9.66210447299319E-02 
2223	 9.66307836651861E-02 
2224	 9.66468342694616E-02 
2225	 9.66602701995428E-02 
2226	 9.66607617566049E-02 
2227	 9.66795419511416E-02 
2228	 9.67154817452837E-02 
2229	 9.67325765470396E-02 
2230	 9.67393078508198E-02 
2231	 0.096767256932068 
2232	 9.68060940725762E-02 
2233	 9.68263586209496E-02 
2234	 9.68620588675016E-02 
2235	 9.68738936082572E-02 
2236	 9.68465174170603E-02 
2237	 9.68381276207798E-02 
2238	 9.68259957537439E-02 
2239	 9.68304839846024E-02 
2240	 9.68530016064569E-02 
2241	 9.68653155468551E-02 
2242	 9.68927541222959E-02 
2243	 9.69031248956082E-02 
2244	 9.68819058957324E-02 
2245	 9.68828287378245E-02 
2246	 9.68990683835858E-02 
2247	 9.69069067125291E-02 
2248	 9.69238293031729E-02 
2249	 9.69557991479592E-02 
2250	 9.69747643168428E-02 
2251	 9.70046686205466E-02 
2252	 9.69885427126822E-02 
2253	 9.69322979715459E-02 
2254	 9.69283571052743E-02 
2255	 0.096913836687811 
2256	 9.69103440123537E-02 
2257	 9.69575501917667E-02 
2258	 0.096971758928325 
2259	 9.69486520127047E-02 
2260	 9.69570864406986E-02 
2261	 9.69807507492081E-02 
2262	 0.097005101428477 
2263	 9.70483696782269E-02 
2264	 9.70752705491174E-02 
2265	 9.70867098148129E-02 
2266	 0.09711413482476 
2267	 9.71743616084038E-02 
2268	 9.71831983721795E-02 
2269	 9.71409494259179E-02 
2270	 9.71513003324134E-02 
2271	 9.71727042548891E-02 
2272	 9.71543099363625E-02 
2273	 9.72158162550808E-02 
2274	 9.72770632083858E-02 
2275	 9.72932441954787E-02 
2276	 0.097271020598949 
2277	 9.72653167592634E-02 
2278	 9.72457632703945E-02 
2279	 0.097232230750629 
2280	 9.72164948830588E-02 
2281	 9.72003786748711E-02 
2282	 9.71615853282926E-02 
2283	 0.097174023736948 
2284	 9.72283155041511E-02 
2285	 9.72581093552791E-02 
2286	 9.73252054202506E-02 
2287	 9.73391350600725E-02 
2288	 9.73061656589606E-02 
2289	 9.72843017416425E-02 
2290	 9.72293880166232E-02 
2291	 9.72147607498754E-02 
2292	 9.72120661088406E-02 
2293	 9.72145879575481E-02 
2294	 9.72405269073847E-02 
2295	 9.72760711998846E-02 
2296	 0.097329476768192 
2297	 9.73828920472691E-02 
2298	 9.73962880441339E-02 
2299	 9.73775647675192E-02 
2300	 9.73463494961434E-02 
2301	 9.73220375692059E-02 
2302	 0.097388009118393 
2303	 9.74392702633974E-02 
2304	 9.74297835548107E-02 
2305	 9.74325529991895E-02 
2306	 9.74346377134728E-02 
2307	 9.74139261619863E-02 
2308	 9.73930942827545E-02 
2309	 9.73947927033971E-02 
2310	 9.73609054575099E-02 
2311	 9.72779019401085E-02 
2312	 9.72259896452859E-02 
2313	 9.71723267455763E-02 
2314	 9.71474846723479E-02 
2315	 9.71389096369124E-02 
2316	 9.71301043735062E-02 
2317	 9.71430209871473E-02 
2318	 9.71488166900776E-02 
2319	 9.71544020565362E-02 
2320	 9.71662290131489E-02 
2321	 9.72050690379111E-02 
2322	 0.097212424916384 
2323	 9.71797304333206E-02 
2324	 9.71749107969101E-02 
2325	 0.097169284936888 
2326	 9.71561152430388E-02 
2327	 9.71443750600488E-02 
2328	 9.71816609593997E-02 
2329	 9.71386434124081E-02 
2330	 9.71014704519412E-02 
2331	 9.70970986441602E-02 
2332	 9.70421255471187E-02 
2333	 9.70227767278389E-02 
2334	 0.097092267521676 
2335	 9.71610779429265E-02 
2336	 9.72334297731367E-02 
2337	 9.72940243425378E-02 
2338	 9.72834808726461E-02 
2339	 9.72345113600808E-02 
2340	 9.71758368834989E-02 
2341	 9.70991567700159E-02 
2342	 0.09706188022438 
2343	 9.70328866059343E-02 
2344	 9.70525074940179E-02 
2345	 9.70818334017618E-02 
2346	 9.71625994728043E-02 
2347	 9.71701026004125E-02 
2348	 9.71828177657557E-02 
2349	 9.71406247488351E-02 
2350	 9.70343374115068E-02 
2351	 9.69841029829756E-02 
2352	 9.69081908019573E-02 
2353	 9.68478859020521E-02 
2354	 9.68059672585247E-02 
2355	 9.67743549327115E-02 
2356	 9.67643872962914E-02 
2357	 9.67647385691352E-02 
2358	 0.0967998542159 
2359	 9.67931658159445E-02 
2360	 9.67440263482937E-02 
2361	 9.67177802738179E-02 
2362	 9.67302929591097E-02 
2363	 9.66804756816594E-02 
2364	 9.65597300760681E-02 
2365	 9.65289025116821E-02 
2366	 0.096521320675102 
2367	 9.64732235994513E-02 
2368	 9.64902787079613E-02 
2369	 9.64836692811799E-02 
2370	 0.096434832815569 
2371	 9.63081976254903E-02 
2372	 9.63115565398891E-02 
2373	 9.62951558058726E-02 
2374	 9.62448555926487E-02 
2375	 9.62182492621392E-02 
2376	 9.61866414336699E-02 
2377	 9.61664017456797E-02 
2378	 9.60993821198153E-02 
2379	 9.60749231907579E-02 
2380	 9.60443844888732E-02 
2381	 9.59406996283605E-02 
2382	 9.58744270605715E-02 
2383	 9.58409709961241E-02 
2384	 9.58442751330919E-02 
2385	 9.58003727471303E-02 
2386	 0.09569306093324 
2387	 9.56128572412384E-02 
2388	 0.095458186034936 
2389	 9.53623167833042E-02 
2390	 9.54097121187669E-02 
2391	 9.53699870392354E-02 
2392	 9.53332817123096E-02 
2393	 9.53329249866612E-02 
2394	 9.52082110653964E-02 
2395	 9.50859961310086E-02 
2396	 9.50093716750616E-02 
2397	 9.49442835847792E-02 
2398	 9.48932255994477E-02 
2399	 9.48872018367803E-02 
2400	 9.49461025995113E-02 
2401	 9.48914709872726E-02 
2402	 9.47592964856068E-02 
2403	 0.094606397210051 
2404	 9.44133577728794E-02 
2405	 9.42912239680776E-02 
2406	 9.42451044251755E-02 
2407	 9.42343654772824E-02 
2408	 9.41981183234747E-02 
2409	 9.40674012591952E-02 
2410	 9.39298043288702E-02 
2411	 9.38482669944839E-02 
2412	 9.37719704141254E-02 
2413	 0.093696819001124 
2414	 9.36124202294597E-02 
2415	 9.35693857934447E-02 
2416	 9.35072817936617E-02 
2417	 9.34068166637997E-02 
2418	 9.33538943061084E-02 
2419	 9.33473462704037E-02 
2420	 9.32772001615269E-02 
2421	 9.32093566907748E-02 
2422	 9.31480282677561E-02 
2423	 9.30547407380719E-02 
2424	 9.29637257337957E-02 
2425	 9.28725589759905E-02 
2426	 9.27685514864002E-02 
2427	 9.26330395150349E-02 
2428	 9.25427886395181E-02 
2429	 0.09253349961321 
2430	 9.24557703059325E-02 
2431	 9.23283763072911E-02 
2432	 9.22228522594127E-02 
2433	 9.20512876065622E-02 
2434	 9.19222958669481E-02 
2435	 9.18808979022349E-02 
2436	 9.17625770361074E-02 
2437	 9.16279708874771E-02 
2438	 9.14856541971788E-02 
2439	 0.091270098284446 
2440	 9.11986113118454E-02 
2441	 9.11645998307611E-02 
2442	 9.10890179501374E-02 
2443	 9.11237424130798E-02 
2444	 9.09988801735589E-02 
2445	 9.07400181682487E-02 
2446	 9.06482536798669E-02 
2447	 9.05607521953216E-02 
2448	 9.05768669177134E-02 
2449	 9.07593815092824E-02 
2450	 9.07569446896697E-02 
2451	 9.07490329166662E-02 
2452	 9.06085072189274E-02 
2453	 9.02613286152278E-02 
2454	 9.01025882511155E-02 
2455	 8.99533165534827E-02 
2456	 8.98403513227707E-02 
2457	 8.98934559407547E-02 
2458	 8.98262387181888E-02 
2459	 8.96553490357778E-02 
2460	 8.95324322784101E-02 
2461	 8.93795739748593E-02 
2462	 8.92720475132343E-02 
2463	 8.92479471662835E-02 
2464	 8.91481899735728E-02 
2465	 8.89745836063174E-02 
2466	 8.88686110700519E-02 
2467	 8.87839137658866E-02 
2468	 0.088735413022665 
2469	 8.88470030155888E-02 
2470	 8.87556745592566E-02 
2471	 8.85301897929454E-02 
2472	 8.84894012440213E-02 
2473	 8.83798490985305E-02 
2474	 8.82576362282575E-02 
2475	 8.82263616433015E-02 
2476	 8.79275376200687E-02 
2477	 8.75845772824318E-02 
2478	 8.75007340397553E-02 
2479	 8.73868373048225E-02 
2480	 8.74201600276707E-02 
2481	 8.76792251787733E-02 
2482	 8.77796107482626E-02 
2483	 8.76920136246738E-02 
2484	 8.76873180669309E-02 
2485	 8.76104969259753E-02 
2486	 8.74774280872023E-02 
2487	 8.74496086604213E-02 
2488	 8.72749080212636E-02 
2489	 8.71566865103306E-02 
2490	 8.69332898803129E-02 
2491	 8.67697711296796E-02 
2492	 8.68096664531055E-02 
2493	 8.66759590087097E-02 
2494	 0.086751666081184 
2495	 8.67485691124927E-02 
2496	 8.66770880884116E-02 
2497	 8.67687022595363E-02 
2498	 0.086697873742327 
2499	 8.68275458722242E-02 
2500	 8.70156928446983E-02 
