Wavelength	MM_3400007.asd
350	 5.27474855578273E-02 
351	 5.11396154005828E-02 
352	 4.91958146354284E-02 
353	 4.70298742137972E-02 
354	 4.81853939254085E-02 
355	 4.86094236294578E-02 
356	 5.15848439180523E-02 
357	 5.86392922000514E-02 
358	 5.89198152445545E-02 
359	 5.16234641035148E-02 
360	 4.59429750165694E-02 
361	 5.44778162275545E-02 
362	 5.72354686284124E-02 
363	 5.55230730675028E-02 
364	 5.34507958820748E-02 
365	 5.53479444170666E-02 
366	 5.04579291426226E-02 
367	 4.60522708275161E-02 
368	 5.01141114335633E-02 
369	 0.054225976357095 
370	 5.40568772552567E-02 
371	 5.19230883268346E-02 
372	 5.40518036422055E-02 
373	 5.74856290770549E-02 
374	 5.75479605490157E-02 
375	 5.43444959620436E-02 
376	 5.65765423061604E-02 
377	 5.46174902808156E-02 
378	 5.26165671239263E-02 
379	 0.05592021193294 
380	 5.72236876238325E-02 
381	 5.77042944848754E-02 
382	 5.74078852770388E-02 
383	 5.56712141978936E-02 
384	 5.58042464594906E-02 
385	 5.77065897314655E-02 
386	 5.96851316909644E-02 
387	 5.78902845196619E-02 
388	 5.84470402841202E-02 
389	 5.93716986262417E-02 
390	 5.75302906405518E-02 
391	 5.71522331489165E-02 
392	 5.98116806043845E-02 
393	 6.30723154011509E-02 
394	 6.18125057070315E-02 
395	 5.99496697530624E-02 
396	 6.00031814204134E-02 
397	 6.21779593151204E-02 
398	 0.062404532254069 
399	 0.063394062069088 
400	 6.48101381101794E-02 
401	 6.53055861987561E-02 
402	 6.42496505295589E-02 
403	 6.38298745099334E-02 
404	 6.43386041029352E-02 
405	 6.40708788712814E-02 
406	 6.35956965711001E-02 
407	 6.42994601879341E-02 
408	 6.60366299596088E-02 
409	 6.42320145797642E-02 
410	 6.34791025767392E-02 
411	 6.39839220258265E-02 
412	 6.40218360794598E-02 
413	 6.42917416768286E-02 
414	 6.43617981419565E-02 
415	 6.42559984252155E-02 
416	 6.46795825377231E-02 
417	 6.47434104460319E-02 
418	 6.45947817858817E-02 
419	 0.06457130853033 
420	 6.47917681432727E-02 
421	 6.45952425658771E-02 
422	 6.40680864999262E-02 
423	 6.38002876508072E-02 
424	 6.42507526920486E-02 
425	 6.47974608226562E-02 
426	 6.49112806369593E-02 
427	 6.44060188821449E-02 
428	 6.41989345864425E-02 
429	 6.44533329219106E-02 
430	 6.49239792349226E-02 
431	 6.48627205586633E-02 
432	 6.45561496935108E-02 
433	 6.44221929467289E-02 
434	 6.48890708229412E-02 
435	 6.47626309712429E-02 
436	 6.43598167523206E-02 
437	 6.41870099876085E-02 
438	 6.44327832285155E-02 
439	 6.47699448207423E-02 
440	 6.50626150484286E-02 
441	 6.52641238120176E-02 
442	 6.51647955572034E-02 
443	 6.51449909808625E-02 
444	 6.52172413841552E-02 
445	 6.47336982548787E-02 
446	 6.48455321166718E-02 
447	 6.50190239969001E-02 
448	 6.45875470980111E-02 
449	 6.44960040684987E-02 
450	 6.44944858702965E-02 
451	 6.45480397481146E-02 
452	 6.48019789629857E-02 
453	 6.47622042229178E-02 
454	 6.45090715235686E-02 
455	 6.42997905236743E-02 
456	 6.45979952693625E-02 
457	 6.46591486203063E-02 
458	 6.44822952057972E-02 
459	 6.44006877391333E-02 
460	 6.44143021350578E-02 
461	 6.44679549740725E-02 
462	 6.45414035585429E-02 
463	 6.46831046863358E-02 
464	 6.45577533058967E-02 
465	 6.44060254354702E-02 
466	 6.45118087680651E-02 
467	 6.46644872778511E-02 
468	 6.46167041657515E-02 
469	 6.44640050596234E-02 
470	 6.45552882706584E-02 
471	 6.46482904479768E-02 
472	 6.46312359515348E-02 
473	 6.44968872827317E-02 
474	 6.44188569113968E-02 
475	 6.43485761194257E-02 
476	 6.42940075719032E-02 
477	 6.42900129628273E-02 
478	 6.44327600023108E-02 
479	 0.064443544947497 
480	 6.42683539340061E-02 
481	 6.41906765390769E-02 
482	 6.44430246186454E-02 
483	 6.46319809392269E-02 
484	 6.44035434300066E-02 
485	 6.43165491680691E-02 
486	 6.42725704789438E-02 
487	 6.41960568956899E-02 
488	 6.40596562137103E-02 
489	 0.064154578975544 
490	 6.42123246950122E-02 
491	 6.41087481676467E-02 
492	 6.43608190929588E-02 
493	 6.43052105279944E-02 
494	 6.40549700963573E-02 
495	 6.40502166556131E-02 
496	 6.41646419438223E-02 
497	 6.42284998993271E-02 
498	 6.42257219573751E-02 
499	 6.43869591102898E-02 
500	 0.064228585463608 
501	 6.40529269882905E-02 
502	 6.42255172154397E-02 
503	 6.43346485767896E-02 
504	 0.064250962290466 
505	 0.064056487688588 
506	 6.40077500659695E-02 
507	 6.41241245266758E-02 
508	 6.42542692727716E-02 
509	 6.42512796403234E-02 
510	 6.40526999082709E-02 
511	 6.39374987876194E-02 
512	 6.39528690919525E-02 
513	 6.40086012292704E-02 
514	 6.40579276072262E-02 
515	 0.064038321009064 
516	 6.39699894155352E-02 
517	 0.064014510154374 
518	 6.40001193183017E-02 
519	 0.063955613769637 
520	 6.39552167199249E-02 
521	 6.39496663695482E-02 
522	 6.39182368844614E-02 
523	 6.38549658905178E-02 
524	 6.37686578834928E-02 
525	 0.063752280149026 
526	 6.37789305888428E-02 
527	 6.37941263441932E-02 
528	 0.063744021730169 
529	 6.37686084452179E-02 
530	 6.38260586889075E-02 
531	 0.06377194512444 
532	 6.37676224808143E-02 
533	 6.38261278142957E-02 
534	 6.38887575663205E-02 
535	 6.37780144846874E-02 
536	 6.37285008581133E-02 
537	 6.37575806103316E-02 
538	 6.37932207271606E-02 
539	 6.37991224668863E-02 
540	 6.38125893577984E-02 
541	 6.38422578058353E-02 
542	 6.38508017998391E-02 
543	 6.38335216186461E-02 
544	 6.38382179112649E-02 
545	 6.38993447901946E-02 
546	 6.39444427484858E-02 
547	 6.39540279748397E-02 
548	 6.39447410170725E-02 
549	 6.39589146678996E-02 
550	 6.39337344267215E-02 
551	 6.39350593275072E-02 
552	 6.40109816793347E-02 
553	 6.41192422144804E-02 
554	 6.41487698788304E-02 
555	 6.41400034174092E-02 
556	 6.42098392877161E-02 
557	 6.43436773251841E-02 
558	 6.44760400929974E-02 
559	 6.45768021095137E-02 
560	 6.46871270779487E-02 
561	 6.47959694003828E-02 
562	 6.48961469376856E-02 
563	 6.49903230635612E-02 
564	 6.51400381380092E-02 
565	 0.065226476730754 
566	 6.52468963557702E-02 
567	 6.53366254558046E-02 
568	 6.54888951138997E-02 
569	 6.56670414224462E-02 
570	 6.58486558893874E-02 
571	 6.61070110613704E-02 
572	 6.63181384606846E-02 
573	 6.65038494147819E-02 
574	 6.67787383366578E-02 
575	 6.70047482863224E-02 
576	 6.72425449187362E-02 
577	 6.75336076606593E-02 
578	 6.78187598212019E-02 
579	 6.80400982356152E-02 
580	 6.82390567385435E-02 
581	 6.84896563480839E-02 
582	 6.87315615444751E-02 
583	 6.89672952246867E-02 
584	 0.069212950909711 
585	 6.94963975459175E-02 
586	 6.98302393025703E-02 
587	 7.01688555454999E-02 
588	 0.070477855681655 
589	 7.08600864724841E-02 
590	 7.12330626535165E-02 
591	 7.15864381134604E-02 
592	 7.19806894345282E-02 
593	 7.24051003905837E-02 
594	 7.28014183178748E-02 
595	 7.31387583913559E-02 
596	 7.34891600129728E-02 
597	 7.37858184325999E-02 
598	 7.40212886972799E-02 
599	 0.074228888952594 
600	 7.44743093898872E-02 
601	 7.47334784984161E-02 
602	 7.49850646885488E-02 
603	 7.52359010524064E-02 
604	 7.54847369784847E-02 
605	 7.57269124788766E-02 
606	 7.59601912936184E-02 
607	 7.61987997045396E-02 
608	 7.64537984719779E-02 
609	 7.67265065220538E-02 
610	 7.70065381231023E-02 
611	 7.71987892839541E-02 
612	 7.73609301967942E-02 
613	 7.75432707093354E-02 
614	 7.76280230411723E-02 
615	 7.77323055165371E-02 
616	 7.78646185966918E-02 
617	 7.79647711227776E-02 
618	 7.81562563762255E-02 
619	 7.83032458916862E-02 
620	 7.83435898144034E-02 
621	 7.84552605566272E-02 
622	 7.85423696563813E-02 
623	 7.86077276577507E-02 
624	 0.078688507912359 
625	 7.87933780345323E-02 
626	 7.88727494989426E-02 
627	 7.89207477150671E-02 
628	 7.89945274670741E-02 
629	 7.90528738303433E-02 
630	 0.079137963441133 
631	 7.92665601912818E-02 
632	 0.079264567015787 
633	 7.93047598660306E-02 
634	 7.94016592189578E-02 
635	 7.94414355585873E-02 
636	 7.95210660162567E-02 
637	 7.95921876521886E-02 
638	 7.96283534935341E-02 
639	 7.97219768287915E-02 
640	 7.97748917035399E-02 
641	 7.98206614125794E-02 
642	 7.99331104199847E-02 
643	 0.079996444093915 
644	 8.00304346922658E-02 
645	 8.00637396878373E-02 
646	 8.01176399394287E-02 
647	 8.01932447787132E-02 
648	 8.02589083038899E-02 
649	 8.02950844278409E-02 
650	 8.03747639108768E-02 
651	 8.04701643953057E-02 
652	 8.05498529175849E-02 
653	 8.05887433768682E-02 
654	 8.06936589896638E-02 
655	 8.07683302799176E-02 
656	 8.07773722826173E-02 
657	 0.080943392640219 
658	 8.10429334253286E-02 
659	 8.10857179471863E-02 
660	 8.11787788932449E-02 
661	 8.12511589605875E-02 
662	 8.13372708196383E-02 
663	 8.14510344583973E-02 
664	 8.15643546833815E-02 
665	 0.081661818347599 
666	 8.17631504078097E-02 
667	 8.18806684238846E-02 
668	 8.19428794193789E-02 
669	 8.20342056593861E-02 
670	 8.21651621252089E-02 
671	 8.22814558156709E-02 
672	 8.23772319020621E-02 
673	 8.24925157635833E-02 
674	 8.26474366294163E-02 
675	 8.28055848180098E-02 
676	 8.28877938485496E-02 
677	 8.29512208516299E-02 
678	 8.30966081532004E-02 
679	 8.32509814934422E-02 
680	 8.33596550658807E-02 
681	 8.34339806888079E-02 
682	 8.35673441815376E-02 
683	 8.37124901093924E-02 
684	 0.083843906336425 
685	 0.083961012279857 
686	 8.41383122458898E-02 
687	 8.42924564870027E-02 
688	 8.44261243867298E-02 
689	 8.45959922479274E-02 
690	 8.47048674696637E-02 
691	 8.48206680370708E-02 
692	 8.49900360034211E-02 
693	 8.51775215275285E-02 
694	 8.53066829865908E-02 
695	 8.54165600884968E-02 
696	 8.55764739689182E-02 
697	 8.57506008533158E-02 
698	 8.59165142142666E-02 
699	 8.60569384548835E-02 
700	 8.61626128030043E-02 
701	 8.63119512684129E-02 
702	 8.64837603716148E-02 
703	 8.66421679874899E-02 
704	 8.67782979049743E-02 
705	 8.68932964837931E-02 
706	 8.70268695174001E-02 
707	 8.72201538496408E-02 
708	 8.73570362891044E-02 
709	 8.74855569395864E-02 
710	 8.76352096326093E-02 
711	 8.77832723791557E-02 
712	 8.79452376478133E-02 
713	 8.80803145268821E-02 
714	 8.81703224103412E-02 
715	 8.83425740659004E-02 
716	 8.84901630145601E-02 
717	 8.85848774996022E-02 
718	 0.088665984987387 
719	 8.88042441858881E-02 
720	 8.89422636162358E-02 
721	 8.90375416449935E-02 
722	 8.91084997208916E-02 
723	 8.92371475283674E-02 
724	 8.93796891379663E-02 
725	 8.94690128313401E-02 
726	 8.95668810113646E-02 
727	 8.96886658858384E-02 
728	 8.97968487945954E-02 
729	 8.98170498608334E-02 
730	 8.99032005186617E-02 
731	 8.99801706558254E-02 
732	 9.00043921800291E-02 
733	 9.01163536190606E-02 
734	 9.01971837163159E-02 
735	 0.090224855819017 
736	 9.02288008554124E-02 
737	 9.02838705905216E-02 
738	 9.03331806402958E-02 
739	 9.03656177033467E-02 
740	 0.090428137158228 
741	 9.04228610989624E-02 
742	 9.04145977946569E-02 
743	 9.04579220563328E-02 
744	 9.04897128306247E-02 
745	 9.04600204468054E-02 
746	 9.04202474070438E-02 
747	 9.04470627837338E-02 
748	 9.04028540733815E-02 
749	 9.03721433141646E-02 
750	 9.03782390125012E-02 
751	 9.03485208496907E-02 
752	 9.03293987817165E-02 
753	 0.090294592566135 
754	 9.02302076328346E-02 
755	 9.02064295286433E-02 
756	 0.090173506367991 
757	 9.01273861594302E-02 
758	 9.00838331175604E-02 
759	 9.00192096966886E-02 
760	 0.089943387204018 
761	 8.98708298282741E-02 
762	 8.98167785571014E-02 
763	 8.97618343651612E-02 
764	 8.96836104008532E-02 
765	 8.95817701193443E-02 
766	 0.089520402832959 
767	 8.94499660191688E-02 
768	 8.93788217138158E-02 
769	 8.93298696376612E-02 
770	 8.92080266363371E-02 
771	 8.90911097065281E-02 
772	 8.90161982081544E-02 
773	 8.89521185906831E-02 
774	 8.88715315722363E-02 
775	 8.87722379187717E-02 
776	 0.088664374216425 
777	 8.85695964979814E-02 
778	 8.84794660424507E-02 
779	 8.83885442340113E-02 
780	 8.82937427276545E-02 
781	 8.81988665773538E-02 
782	 8.81213260282099E-02 
783	 8.80403847476103E-02 
784	 8.79004440661372E-02 
785	 0.087797012730503 
786	 0.087710130610601 
787	 8.76090009812888E-02 
788	 8.74896314242194E-02 
789	 8.74045213196425E-02 
790	 8.73256156264718E-02 
791	 0.087210096586321 
792	 0.087115981988031 
793	 8.70298054525352E-02 
794	 8.69367744726844E-02 
795	 8.68275984859147E-02 
796	 0.086737881483632 
797	 8.66595225404222E-02 
798	 0.086575823641997 
799	 8.64674873948765E-02 
800	 8.63643754380855E-02 
801	 0.086291996143042 
802	 8.62465159560413E-02 
803	 8.61205304683154E-02 
804	 8.60310407700591E-02 
805	 8.59833702113475E-02 
806	 0.085912158671425 
807	 8.58356526876175E-02 
808	 8.57449130260685E-02 
809	 8.56379774249039E-02 
810	 8.55249873399882E-02 
811	 8.54643677301565E-02 
812	 8.54083615432264E-02 
813	 8.53184241257354E-02 
814	 8.52520850690448E-02 
815	 8.51711998286305E-02 
816	 8.50918295917485E-02 
817	 8.50416389846384E-02 
818	 8.49840387500273E-02 
819	 8.49391916573907E-02 
820	 8.48808028354387E-02 
821	 0.084755624740605 
822	 8.47004838982738E-02 
823	 0.084669338170201 
824	 8.46181254793044E-02 
825	 8.45543321083824E-02 
826	 8.44998509516958E-02 
827	 8.44529922160748E-02 
828	 8.44076841142124E-02 
829	 8.43700250232036E-02 
830	 8.43169932844279E-02 
831	 8.42613903207663E-02 
832	 8.42282405066559E-02 
833	 8.41980194398058E-02 
834	 8.41683820111013E-02 
835	 8.41299445232537E-02 
836	 8.40705391138424E-02 
837	 8.40385254933461E-02 
838	 8.40185654641373E-02 
839	 8.39881014302861E-02 
840	 8.39315504866431E-02 
841	 8.38850997366657E-02 
842	 8.38634473062055E-02 
843	 8.38695340114159E-02 
844	 8.38992080174871E-02 
845	 0.083897129359658 
846	 8.38624169561329E-02 
847	 8.38236911254184E-02 
848	 8.38001980316855E-02 
849	 8.37736115988594E-02 
850	 8.37422712268616E-02 
851	 8.37207066644638E-02 
852	 8.37120537219804E-02 
853	 8.37142261292543E-02 
854	 8.37133964045871E-02 
855	 8.36824342361809E-02 
856	 8.36847342334954E-02 
857	 8.37188652159382E-02 
858	 8.37525315436886E-02 
859	 8.37129580693308E-02 
860	 8.37266215211197E-02 
861	 8.37576414233906E-02 
862	 8.37348880985749E-02 
863	 8.37063268587864E-02 
864	 8.37305097256143E-02 
865	 8.37785927343001E-02 
866	 8.37831596166996E-02 
867	 8.38304144169036E-02 
868	 8.38560129759703E-02 
869	 8.38591307200543E-02 
870	 8.39082570454281E-02 
871	 0.08392304948507 
872	 0.083924972676872 
873	 8.39396390026393E-02 
874	 8.39707166520567E-02 
875	 8.40120499636439E-02 
876	 8.40440050902927E-02 
877	 8.40575997746262E-02 
878	 8.40767590778279E-02 
879	 8.41109589607218E-02 
880	 8.41615507982403E-02 
881	 8.42268757926001E-02 
882	 8.43187162492945E-02 
883	 8.43667211010859E-02 
884	 8.43821762630333E-02 
885	 8.44181205907433E-02 
886	 8.44597767180912E-02 
887	 8.45100833870626E-02 
888	 8.45621774107155E-02 
889	 8.46035700700494E-02 
890	 8.46561908220771E-02 
891	 8.46983327483842E-02 
892	 8.47386498980879E-02 
893	 8.48249897942142E-02 
894	 8.48984621772114E-02 
895	 8.49530582093997E-02 
896	 8.50016218590989E-02 
897	 8.50689195215668E-02 
898	 8.51911651829523E-02 
899	 8.52950850031182E-02 
900	 8.53339851304012E-02 
901	 8.54088851332533E-02 
902	 0.085479500518946 
903	 8.55503854804511E-02 
904	 8.56380193795805E-02 
905	 8.57484287923543E-02 
906	 8.58861023886686E-02 
907	 8.59730943630797E-02 
908	 8.59520532396009E-02 
909	 8.60537387072556E-02 
910	 8.61809921787751E-02 
911	 8.62978673501455E-02 
912	 8.64092152610915E-02 
913	 8.64242475923707E-02 
914	 8.64744112079618E-02 
915	 8.65955861464873E-02 
916	 8.67139811391956E-02 
917	 8.67407624141542E-02 
918	 8.68543567854053E-02 
919	 8.70418393169075E-02 
920	 8.70584513244723E-02 
921	 0.087125832426902 
922	 8.72585426647304E-02 
923	 8.74108890522606E-02 
924	 8.75088295859281E-02 
925	 0.087604224665219 
926	 8.77585339519725E-02 
927	 8.79462278196155E-02 
928	 8.79878881583706E-02 
929	 8.81186915350259E-02 
930	 8.82852829129682E-02 
931	 8.84104304102059E-02 
932	 0.088539508128891 
933	 8.87120432052749E-02 
934	 8.88232835022274E-02 
935	 8.88272799201457E-02 
936	 8.89706543956167E-02 
937	 0.089057599664082 
938	 8.91448164605659E-02 
939	 8.93192776401824E-02 
940	 8.94692660564717E-02 
941	 8.96695876423491E-02 
942	 8.98698009137288E-02 
943	 0.08999265371173 
944	 9.00506323881035E-02 
945	 9.01945290686289E-02 
946	 9.03866379820543E-02 
947	 9.05180499942244E-02 
948	 9.06071517043888E-02 
949	 9.07391169625555E-02 
950	 9.08510203430478E-02 
951	 9.08856749376708E-02 
952	 0.091219270053618 
953	 9.14087426535523E-02 
954	 9.14752652797839E-02 
955	 9.16705354998746E-02 
956	 9.18124303446509E-02 
957	 9.19465854498376E-02 
958	 9.20885875896588E-02 
959	 9.22262859262409E-02 
960	 9.23347983888592E-02 
961	 9.24983324692553E-02 
962	 9.26740749415653E-02 
963	 9.27648453936115E-02 
964	 9.28873159772778E-02 
965	 9.30482483758726E-02 
966	 9.31990929892952E-02 
967	 0.093296236406079 
968	 9.35252580523348E-02 
969	 9.37051574491917E-02 
970	 0.093772851801889 
971	 9.37954441163392E-02 
972	 9.39313739726714E-02 
973	 9.42108467385603E-02 
974	 9.44282228599606E-02 
975	 9.43662958324424E-02 
976	 9.46160433091111E-02 
977	 9.48171058346785E-02 
978	 9.49056941450286E-02 
979	 9.50432593292535E-02 
980	 0.09521184669844 
981	 9.53686042389502E-02 
982	 9.55080955879741E-02 
983	 0.095641558539368 
984	 9.57097509175299E-02 
985	 9.58518986395142E-02 
986	 9.59784054778699E-02 
987	 9.59768219086548E-02 
988	 9.63311064376625E-02 
989	 0.096511246612087 
990	 9.65701423715455E-02 
991	 9.67789943377189E-02 
992	 9.67803302040374E-02 
993	 9.68768503407806E-02 
994	 9.70734242687267E-02 
995	 9.72407604818285E-02 
996	 9.73818042901615E-02 
997	 9.74565081325602E-02 
998	 9.74823607593132E-02 
999	 9.75293929622188E-02 
1000	 9.77486243174092E-02 
1001	 9.65278668858396E-02 
1002	 9.65609216765655E-02 
1003	 9.66615669091562E-02 
1004	 9.67841987853807E-02 
1005	 9.69724591208667E-02 
1006	 9.70753778695556E-02 
1007	 9.71645627945162E-02 
1008	 9.72464741313359E-02 
1009	 9.73241280970777E-02 
1010	 0.097403095372387 
1011	 9.75022125759772E-02 
1012	 9.76124162888172E-02 
1013	 9.76163009492015E-02 
1014	 9.76251267932938E-02 
1015	 9.77799165931411E-02 
1016	 9.79110097569868E-02 
1017	 9.80236749990452E-02 
1018	 9.81653541413765E-02 
1019	 0.098325442347803 
1020	 9.83680535082447E-02 
1021	 9.84167708697082E-02 
1022	 9.85205990893231E-02 
1023	 9.85348821231014E-02 
1024	 9.85347978087348E-02 
1025	 9.85993244982023E-02 
1026	 9.86148178644201E-02 
1027	 9.86416562164459E-02 
1028	 9.87362983267689E-02 
1029	 9.88002032668716E-02 
1030	 9.88558004900637E-02 
1031	 9.88985681129652E-02 
1032	 9.89500167771098E-02 
1033	 9.89856351959706E-02 
1034	 9.89670573430386E-02 
1035	 9.88693210516271E-02 
1036	 9.88840049933142E-02 
1037	 9.89509177645418E-02 
1038	 9.90047341981049E-02 
1039	 9.91650472998253E-02 
1040	 9.92498290153329E-02 
1041	 0.099240461236835 
1042	 9.92514058017202E-02 
1043	 9.92782819305801E-02 
1044	 9.93129788680333E-02 
1045	 9.93695938887046E-02 
1046	 9.94036797609713E-02 
1047	 9.94481497445399E-02 
1048	 9.94646346823817E-02 
1049	 9.94682023496074E-02 
1050	 0.09952907238044 
1051	 9.95632783624988E-02 
1052	 9.96380447787484E-02 
1053	 9.97225498156522E-02 
1054	 9.97689843649201E-02 
1055	 9.98132134126163E-02 
1056	 9.98297858628907E-02 
1057	 9.98707737215551E-02 
1058	 9.99092519720584E-02 
1059	 9.99413192246964E-02 
1060	 9.99770551221751E-02 
1061	 0.100044040140607 
1062	 0.100098520073596 
1063	 0.100180875828574 
1064	 0.100210671973323 
1065	 0.100226911578227 
1066	 0.100265147290198 
1067	 0.100305400212339 
1068	 0.100392841723818 
1069	 0.100513577970778 
1070	 0.100615288078573 
1071	 0.100715393885561 
1072	 0.100766041230307 
1073	 0.100781377307663 
1074	 0.100826603509567 
1075	 0.10083277130614 
1076	 0.100890813664339 
1077	 0.100967407346863 
1078	 0.10107624564468 
1079	 0.101181300560615 
1080	 0.101244935167837 
1081	 0.101320349602956 
1082	 0.101387566186685 
1083	 0.101429523700843 
1084	 0.101425545515904 
1085	 0.101453739417883 
1086	 0.10148938943877 
1087	 0.101521013277684 
1088	 0.101536665172017 
1089	 0.101605696589034 
1090	 0.101693960406992 
1091	 0.10172113188903 
1092	 0.101777337089821 
1093	 0.101839174957707 
1094	 0.101860758237185 
1095	 0.101917107846086 
1096	 0.101993212294301 
1097	 0.102009624963295 
1098	 0.10207179362739 
1099	 0.102173896940015 
1100	 0.102231823859677 
1101	 0.102298316418257 
1102	 0.102351703864124 
1103	 0.102390923566512 
1104	 0.102370774842274 
1105	 0.102399970793708 
1106	 0.102405430849149 
1107	 0.102419427393803 
1108	 0.102448266808442 
1109	 0.10246380845556 
1110	 0.10249267951755 
1111	 0.102489599033838 
1112	 0.102441649152186 
1113	 0.102445678862145 
1114	 0.102452735065981 
1115	 0.102472568477033 
1116	 0.102553334374457 
1117	 0.102575987253573 
1118	 0.102559047617948 
1119	 0.102561204929379 
1120	 0.102576108660759 
1121	 0.102609825242147 
1122	 0.10262576509895 
1123	 0.102627485575584 
1124	 0.102643638842163 
1125	 0.102628535521457 
1126	 0.102638117394669 
1127	 0.102685798162071 
1128	 0.102712331807518 
1129	 0.102728374652289 
1130	 0.102737170344063 
1131	 0.102748839877066 
1132	 0.10275590506139 
1133	 0.102738211821565 
1134	 0.102740906139793 
1135	 0.102763614951431 
1136	 0.102766244006354 
1137	 0.10278606799303 
1138	 0.102808073182761 
1139	 0.10281810398717 
1140	 0.102824984087136 
1141	 0.102833045912702 
1142	 0.102823746820823 
1143	 0.102835327792811 
1144	 0.102870194492159 
1145	 0.102881720335351 
1146	 0.102890369663849 
1147	 0.102898962406824 
1148	 0.10289018222821 
1149	 0.102890183141842 
1150	 0.102895402164808 
1151	 0.102903332298731 
1152	 0.102915931492406 
1153	 0.102929365450992 
1154	 0.10294570904995 
1155	 0.102974755169533 
1156	 0.102985454210581 
1157	 0.102982377909136 
1158	 0.102993640579512 
1159	 0.103006990824129 
1160	 0.103017451174093 
1161	 0.103030838172597 
1162	 0.103048373019393 
1163	 0.103072239934783 
1164	 0.103080952519929 
1165	 0.103085267066388 
1166	 0.103092396690894 
1167	 0.103098680177989 
1168	 0.10309798650929 
1169	 0.103095618739569 
1170	 0.103095520762286 
1171	 0.103106921087611 
1172	 0.103109003965595 
1173	 0.103122282973571 
1174	 0.10317221356855 
1175	 0.103183142330872 
1176	 0.103159864415935 
1177	 0.10316860133735 
1178	 0.103172385226234 
1179	 0.103188135507356 
1180	 0.103230029380244 
1181	 0.103265227885172 
1182	 0.103303681503755 
1183	 0.10333953973604 
1184	 0.103364699954578 
1185	 0.103388629351652 
1186	 0.103406656729816 
1187	 0.10340916924103 
1188	 0.103423640813601 
1189	 0.103444108526797 
1190	 0.10345898066679 
1191	 0.103471868375987 
1192	 0.103485839746046 
1193	 0.103492599065467 
1194	 0.103510982775518 
1195	 0.103536750623095 
1196	 0.103561938351154 
1197	 0.103603359332146 
1198	 0.103628048384264 
1199	 0.103645882663289 
1200	 0.103655829388865 
1201	 0.103671211221417 
1202	 0.103676123193023 
1203	 0.1036928257413 
1204	 0.103713764182149 
1205	 0.10374239850224 
1206	 0.103778272034567 
1207	 0.103811703582564 
1208	 0.103863474005327 
1209	 0.103891893241919 
1210	 0.103907942777031 
1211	 0.103921625438852 
1212	 0.103915846945804 
1213	 0.103921755297235 
1214	 0.10392718712213 
1215	 0.103938734517444 
1216	 0.103955216907624 
1217	 0.103980042244345 
1218	 0.103999989249402 
1219	 0.10402054421392 
1220	 0.104045359082845 
1221	 0.104080892013234 
1222	 0.104094841155898 
1223	 0.104095957286473 
1224	 0.104110248171464 
1225	 0.104117742951763 
1226	 0.104125807780889 
1227	 0.104151802665998 
1228	 0.104163268779758 
1229	 0.104153418924039 
1230	 0.104154383304624 
1231	 0.104159601883841 
1232	 0.104163994136907 
1233	 0.104169501403922 
1234	 0.104176794131631 
1235	 0.104187735439176 
1236	 0.104195619163896 
1237	 0.104215443416953 
1238	 0.104249051144968 
1239	 0.104270589119694 
1240	 0.104304093782582 
1241	 0.104312503833755 
1242	 0.104298863791355 
1243	 0.104294370576306 
1244	 0.104280649575899 
1245	 0.104269476989713 
1246	 0.104251244159397 
1247	 0.104250531666901 
1248	 0.104256495361826 
1249	 0.10426507981187 
1250	 0.10429929840886 
1251	 0.104314446832993 
1252	 0.104313897132244 
1253	 0.104284940073983 
1254	 0.104292024549458 
1255	 0.104308595497987 
1256	 0.104310461690659 
1257	 0.104328640619159 
1258	 0.104331026901214 
1259	 0.104305296929057 
1260	 0.104292345734671 
1261	 0.104295159533125 
1262	 0.104282242435011 
1263	 0.104249658499953 
1264	 0.104231781880007 
1265	 0.104209698604015 
1266	 0.104199285774693 
1267	 0.104217665935855 
1268	 0.104214899191258 
1269	 0.104198361102334 
1270	 0.104171763942612 
1271	 0.104156044835996 
1272	 0.104110980756542 
1273	 0.104121162876011 
1274	 0.104180259636673 
1275	 0.104199667159707 
1276	 0.104220272945376 
1277	 0.104244862764503 
1278	 0.104254596118505 
1279	 0.10427269008011 
1280	 0.104308269100701 
1281	 0.104337436380833 
1282	 0.104350781819612 
1283	 0.104376212414777 
1284	 0.104413196763957 
1285	 0.104454609517104 
1286	 0.104471124625176 
1287	 0.104496657843541 
1288	 0.1045412836875 
1289	 0.10459157119011 
1290	 0.104638877508575 
1291	 0.104717441250674 
1292	 0.104759787674575 
1293	 0.104768024667406 
1294	 0.104799983309637 
1295	 0.104837268157676 
1296	 0.104864695549124 
1297	 0.104890741325284 
1298	 0.104925420824359 
1299	 0.104958072749957 
1300	 0.104987888973753 
1301	 0.105019797887172 
1302	 0.10505811736855 
1303	 0.10509684009232 
1304	 0.105134365565182 
1305	 0.105170250749854 
1306	 0.105207870653233 
1307	 0.105235348674725 
1308	 0.105260118820362 
1309	 0.105286368741687 
1310	 0.105323700103704 
1311	 0.105340871453345 
1312	 0.105339899521836 
1313	 0.105355911995116 
1314	 0.1053647021702 
1315	 0.105390140313714 
1316	 0.105442379116265 
1317	 0.105466394464105 
1318	 0.105484736823079 
1319	 0.105500830436072 
1320	 0.105506464831715 
1321	 0.105509898506237 
1322	 0.105514751249007 
1323	 0.105507751648889 
1324	 0.10551506837475 
1325	 0.105502018419787 
1326	 0.105479766277167 
1327	 0.105476355026084 
1328	 0.105462090875903 
1329	 0.105440075451324 
1330	 0.105433623190245 
1331	 0.1054470229675 
1332	 0.105440306806793 
1333	 0.10543462329273 
1334	 0.105417949050709 
1335	 0.105385010818872 
1336	 0.105362341490184 
1337	 0.105345233183485 
1338	 0.105312829994548 
1339	 0.105272150267943 
1340	 0.105239807365473 
1341	 0.105192970029096 
1342	 0.105159353499579 
1343	 0.105138468899577 
1344	 0.10512238676338 
1345	 0.105098693507281 
1346	 0.105080192146254 
1347	 0.105075389027639 
1348	 0.105051909317774 
1349	 0.105007657308725 
1350	 0.104988281600148 
1351	 0.104961059676499 
1352	 0.104917851835557 
1353	 0.104891685773043 
1354	 0.104887417204878 
1355	 0.104859628162865 
1356	 0.104821524424512 
1357	 0.104797447670137 
1358	 0.104759926316293 
1359	 0.104743241551287 
1360	 0.10476386899401 
1361	 0.104745222261722 
1362	 0.104710206926854 
1363	 0.104684238649955 
1364	 0.104631360794289 
1365	 0.104600904947787 
1366	 0.104593181079461 
1367	 0.104590819046037 
1368	 0.104560808320705 
1369	 0.104527768484994 
1370	 0.104489410096042 
1371	 0.104445665726486 
1372	 0.104414240113343 
1373	 0.104384483533805 
1374	 0.104350869767163 
1375	 0.104314809837989 
1376	 0.104275131984235 
1377	 0.104236091215335 
1378	 0.104193568478923 
1379	 0.104140525321444 
1380	 0.104094590526049 
1381	 0.104055743208817 
1382	 0.104006910136542 
1383	 0.103952422616231 
1384	 0.103904857763203 
1385	 0.103859131142078 
1386	 0.103803466355468 
1387	 0.103746625133535 
1388	 0.103691455700255 
1389	 0.103625611306477 
1390	 0.103568723452893 
1391	 0.103519626549466 
1392	 0.103467589167023 
1393	 0.103407550831291 
1394	 0.10332665257166 
1395	 0.103227499980812 
1396	 0.10312305760514 
1397	 0.103022738848978 
1398	 0.102915358418049 
1399	 0.102807473090044 
1400	 0.10270796095439 
1401	 0.102598986204414 
1402	 0.102471655150478 
1403	 0.102367276363542 
1404	 0.10226734963715 
1405	 0.102168419291941 
1406	 0.102088586131248 
1407	 0.101994176539014 
1408	 0.101888558669248 
1409	 0.101794018003185 
1410	 0.101691808119852 
1411	 0.101604435543032 
1412	 0.101523635644102 
1413	 0.101459545684722 
1414	 0.101403848966815 
1415	 0.101353040814646 
1416	 0.101312974494913 
1417	 0.101272414397591 
1418	 0.101232542580106 
1419	 0.101204602754259 
1420	 0.101177804165788 
1421	 0.101151831183307 
1422	 0.101119568826417 
1423	 0.101084701249601 
1424	 0.101062785658668 
1425	 0.101042867638545 
1426	 0.101028432721924 
1427	 0.101030146559491 
1428	 0.101020665347225 
1429	 0.101006317129618 
1430	 0.100995544188591 
1431	 0.100981042086156 
1432	 0.100974322229865 
1433	 0.100969451421645 
1434	 0.100970727092064 
1435	 0.100986111809934 
1436	 0.100993821149472 
1437	 0.100994463969873 
1438	 0.101005384276774 
1439	 0.101026268630291 
1440	 0.101030573900385 
1441	 0.101038447331445 
1442	 0.10105591021529 
1443	 0.101057521120846 
1444	 0.101064048414119 
1445	 0.101083947791037 
1446	 0.101091827161835 
1447	 0.101098887415425 
1448	 0.101112579931867 
1449	 0.101127945082897 
1450	 0.101148195632946 
1451	 0.101168950916376 
1452	 0.101199995795368 
1453	 0.101218821165343 
1454	 0.10123153117569 
1455	 0.101244790762856 
1456	 0.101256133333077 
1457	 0.101263134318602 
1458	 0.101260995749095 
1459	 0.101270791242808 
1460	 0.101282055831008 
1461	 0.101296052168911 
1462	 0.101321901349461 
1463	 0.101340935068283 
1464	 0.101358707328053 
1465	 0.10137422828021 
1466	 0.101375660942513 
1467	 0.101397452640223 
1468	 0.101428042492221 
1469	 0.101458551151716 
1470	 0.101500427358747 
1471	 0.101553254947981 
1472	 0.101573834706707 
1473	 0.101594314277129 
1474	 0.101621049459402 
1475	 0.101640590619449 
1476	 0.101678751264652 
1477	 0.101707027495466 
1478	 0.101711925511761 
1479	 0.101727395191236 
1480	 0.101756654945946 
1481	 0.10179418224101 
1482	 0.10183559503947 
1483	 0.101901656440003 
1484	 0.101942007629112 
1485	 0.101969552260336 
1486	 0.102003386296807 
1487	 0.102035099664626 
1488	 0.102064481352455 
1489	 0.10209012150839 
1490	 0.10212185587843 
1491	 0.102154506414774 
1492	 0.102187317996415 
1493	 0.102229035134772 
1494	 0.102258537608269 
1495	 0.1022740763823 
1496	 0.1022993867822 
1497	 0.102329289279929 
1498	 0.102358039243125 
1499	 0.102391635172331 
1500	 0.102419348484364 
1501	 0.102436682378259 
1502	 0.102456712800043 
1503	 0.102460064599132 
1504	 0.102510016660327 
1505	 0.102547015859936 
1506	 0.102566945695214 
1507	 0.102618636061439 
1508	 0.102647161844934 
1509	 0.102660119613867 
1510	 0.102699978798706 
1511	 0.10272324252808 
1512	 0.102734190106504 
1513	 0.102757079772197 
1514	 0.102784435006295 
1515	 0.102804747596297 
1516	 0.102814797796772 
1517	 0.102831970654818 
1518	 0.102851667140995 
1519	 0.102863599194932 
1520	 0.102870823711645 
1521	 0.102889554478428 
1522	 0.102901782526845 
1523	 0.102924618307851 
1524	 0.102967673487447 
1525	 0.102997626173379 
1526	 0.103028766061647 
1527	 0.103052357000515 
1528	 0.103064604143146 
1529	 0.103082659739583 
1530	 0.103096299920039 
1531	 0.103114070212869 
1532	 0.103142831077986 
1533	 0.103162562455303 
1534	 0.103182376643818 
1535	 0.103191419102039 
1536	 0.103184952826783 
1537	 0.103187966583226 
1538	 0.103184241010636 
1539	 0.103191053893786 
1540	 0.103209926190972 
1541	 0.10322928691504 
1542	 0.103250350256016 
1543	 0.103272140087591 
1544	 0.103307006626946 
1545	 0.103327046276853 
1546	 0.103336768348876 
1547	 0.103352413035106 
1548	 0.103365507295999 
1549	 0.10336070946566 
1550	 0.103355719317329 
1551	 0.103364162288418 
1552	 0.103379442450628 
1553	 0.103394527034773 
1554	 0.10342550473091 
1555	 0.103449728384393 
1556	 0.10345363687832 
1557	 0.103463382514439 
1558	 0.103470720216558 
1559	 0.103481226494162 
1560	 0.103490154917057 
1561	 0.103499082505923 
1562	 0.103512351992519 
1563	 0.103525975025223 
1564	 0.10354321448071 
1565	 0.103570927148584 
1566	 0.103588173929805 
1567	 0.103601481079174 
1568	 0.10361149502686 
1569	 0.103618035572189 
1570	 0.103620968429681 
1571	 0.103619725328322 
1572	 0.103618821958402 
1573	 0.103609524733912 
1574	 0.103612876728774 
1575	 0.103623036001403 
1576	 0.103627770604086 
1577	 0.103636228443968 
1578	 0.103645887605143 
1579	 0.103655423408113 
1580	 0.103660824004643 
1581	 0.103665857880303 
1582	 0.103673662260516 
1583	 0.103674445369742 
1584	 0.103683744400842 
1585	 0.10371176545468 
1586	 0.103717885858042 
1587	 0.103705411960421 
1588	 0.103710936443055 
1589	 0.103715646709785 
1590	 0.10372116944241 
1591	 0.103740987464137 
1592	 0.103755082147563 
1593	 0.103763711430262 
1594	 0.103770734662651 
1595	 0.103779967241129 
1596	 0.103785331387121 
1597	 0.10378270617787 
1598	 0.103782297082991 
1599	 0.103779645424923 
1600	 0.10378397345629 
1601	 0.103802657332634 
1602	 0.103801608535034 
1603	 0.103781973119548 
1604	 0.103782329170442 
1605	 0.103788885977589 
1606	 0.103781553462312 
1607	 0.103780478218863 
1608	 0.103778811310694 
1609	 0.103768884094606 
1610	 0.103757541686705 
1611	 0.103756250551537 
1612	 0.103761908819243 
1613	 0.103734546031048 
1614	 0.103719480743794 
1615	 0.103729183359795 
1616	 0.103720751743149 
1617	 0.103711018327962 
1618	 0.10370552723262 
1619	 0.103716889035202 
1620	 0.103731251046534 
1621	 0.103737531478557 
1622	 0.103762517779248 
1623	 0.103771054822008 
1624	 0.103758545790491 
1625	 0.103756164886399 
1626	 0.103760413396119 
1627	 0.103765774255158 
1628	 0.103761035105146 
1629	 0.103770412536644 
1630	 0.103801497221413 
1631	 0.103806237338366 
1632	 0.103796106542489 
1633	 0.10380585491143 
1634	 0.103817780820818 
1635	 0.103819394917288 
1636	 0.103836062414561 
1637	 0.103826271894518 
1638	 0.103782892571394 
1639	 0.103772740441707 
1640	 0.103766622358978 
1641	 0.103768808899115 
1642	 0.103791947562156 
1643	 0.103796939122577 
1644	 0.103795818249917 
1645	 0.103800011562276 
1646	 0.103806053760296 
1647	 0.103801596951288 
1648	 0.103796157482229 
1649	 0.103787584872774 
1650	 0.103764945576422 
1651	 0.103752715195842 
1652	 0.103748254094041 
1653	 0.103738231828822 
1654	 0.103725328944135 
1655	 0.103714230090701 
1656	 0.103703689009161 
1657	 0.103692008442952 
1658	 0.103674437835265 
1659	 0.103672071835776 
1660	 0.103676640524301 
1661	 0.103680250116753 
1662	 0.1036999856953 
1663	 0.103702176987271 
1664	 0.103688952656326 
1665	 0.103689635081578 
1666	 0.103692567593933 
1667	 0.103692972304488 
1668	 0.103708188720538 
1669	 0.103698791754978 
1670	 0.103662339387596 
1671	 0.103652513854183 
1672	 0.103637405892843 
1673	 0.103640515163671 
1674	 0.103683301075977 
1675	 0.103685244437898 
1676	 0.10367408032117 
1677	 0.103660051203769 
1678	 0.103615930914642 
1679	 0.103599712035861 
1680	 0.103604254974309 
1681	 0.103590359952761 
1682	 0.103565066098688 
1683	 0.103564117477235 
1684	 0.103572028631654 
1685	 0.103569146470029 
1686	 0.103584817369673 
1687	 0.103585399566425 
1688	 0.103563698445854 
1689	 0.103548464935322 
1690	 0.103535974422657 
1691	 0.103526893836525 
1692	 0.103512812430915 
1693	 0.103502653142236 
1694	 0.103502114685344 
1695	 0.103497321910982 
1696	 0.103488027595593 
1697	 0.103481869379964 
1698	 0.103479596030384 
1699	 0.103476325645787 
1700	 0.103462446120958 
1701	 0.103468728167748 
1702	 0.103492539065568 
1703	 0.103503624269683 
1704	 0.103528474836424 
1705	 0.103531272415314 
1706	 0.103510700234028 
1707	 0.103504918999848 
1708	 0.103505713347038 
1709	 0.103488111843239 
1710	 0.103453850339747 
1711	 0.103444074233739 
1712	 0.103426998089482 
1713	 0.103426875724015 
1714	 0.103467923404268 
1715	 0.103471887333598 
1716	 0.103457639340092 
1717	 0.103451108096871 
1718	 0.103435094064196 
1719	 0.103423655194378 
1720	 0.103411787138348 
1721	 0.103409760420326 
1722	 0.103419472788626 
1723	 0.103409200582441 
1724	 0.103397592748352 
1725	 0.103382768194101 
1726	 0.103355838532255 
1727	 0.103325552453868 
1728	 0.103292295839738 
1729	 0.10326641835462 
1730	 0.103224041169699 
1731	 0.103210287550123 
1732	 0.103235439322438 
1733	 0.103216398894659 
1734	 0.10318419156163 
1735	 0.103150135909182 
1736	 0.103092200533666 
1737	 0.103049744397096 
1738	 0.103014919132789 
1739	 0.102990595662293 
1740	 0.102966793393671 
1741	 0.102941796542553 
1742	 0.102932100569984 
1743	 0.102918193480794 
1744	 0.102896191265244 
1745	 0.102875846065345 
1746	 0.102858338777975 
1747	 0.102824241918504 
1748	 0.102814169395782 
1749	 0.102800455290142 
1750	 0.102792587017353 
1751	 0.102753867174635 
1752	 0.102709971878531 
1753	 0.102673058432738 
1754	 0.102624757513481 
1755	 0.102606083257718 
1756	 0.102591644712702 
1757	 0.102567011502971 
1758	 0.102554985275344 
1759	 0.102539303108254 
1760	 0.102512192909335 
1761	 0.102473959439491 
1762	 0.102436864035285 
1763	 0.102416138438624 
1764	 0.102409526710617 
1765	 0.102412096260654 
1766	 0.102392789729385 
1767	 0.102359864747539 
1768	 0.102354985246355 
1769	 0.102336841204315 
1770	 0.102323315569086 
1771	 0.102337362327623 
1772	 0.102297844637397 
1773	 0.102255502363094 
1774	 0.102230209721252 
1775	 0.102164425454415 
1776	 0.102102910646826 
1777	 0.102058390045098 
1778	 0.102036244967811 
1779	 0.102037699280347 
1780	 0.102031631234718 
1781	 0.102029750746271 
1782	 0.102037302579287 
1783	 0.102036441983967 
1784	 0.102027367407272 
1785	 0.102007929770138 
1786	 0.101988283671715 
1787	 0.101964137025231 
1788	 0.101941177993761 
1789	 0.101912430105385 
1790	 0.101900451788163 
1791	 0.101893215598013 
1792	 0.101888428915801 
1793	 0.101906279855416 
1794	 0.10190083183196 
1795	 0.101886040948826 
1796	 0.101876126127089 
1797	 0.10185468567938 
1798	 0.101838233510006 
1799	 0.101808455496823 
1800	 0.101800181725193 
1801	 9.76748590851123E-02 
1802	 9.77091152894151E-02 
1803	 9.77433759526509E-02 
1804	 9.78002403820486E-02 
1805	 9.78150170099708E-02 
1806	 9.78260000778425E-02 
1807	 9.78592871730311E-02 
1808	 9.78823391171351E-02 
1809	 9.79078493438317E-02 
1810	 9.79364257321919E-02 
1811	 9.79724339927738E-02 
1812	 0.09799141169288 
1813	 9.79733422817633E-02 
1814	 9.79875152416621E-02 
1815	 9.79774257958061E-02 
1816	 9.79616343806013E-02 
1817	 9.79660557114723E-02 
1818	 9.79992676476824E-02 
1819	 9.80111638476813E-02 
1820	 9.80125144434143E-02 
1821	 9.80267931320552E-02 
1822	 9.80634181154897E-02 
1823	 9.80955090903799E-02 
1824	 9.81334441073857E-02 
1825	 9.81651485475754E-02 
1826	 9.81582029762031E-02 
1827	 9.81629920449271E-02 
1828	 9.81728103201474E-02 
1829	 9.81865466485608E-02 
1830	 9.81894512596621E-02 
1831	 9.81997061641776E-02 
1832	 9.81915571425308E-02 
1833	 9.81664470958668E-02 
1834	 9.81490363096248E-02 
1835	 9.81327071237971E-02 
1836	 9.81671558556113E-02 
1837	 9.82167705935283E-02 
1838	 9.82447581797283E-02 
1839	 0.098278211411679 
1840	 9.83289635578317E-02 
1841	 9.83420120616439E-02 
1842	 9.83178163330449E-02 
1843	 9.83215459035871E-02 
1844	 9.83278318122663E-02 
1845	 9.83045543983682E-02 
1846	 9.83036745939585E-02 
1847	 9.83180482987629E-02 
1848	 9.82858267444617E-02 
1849	 9.82407818194596E-02 
1850	 9.82254048196622E-02 
1851	 9.82314096665293E-02 
1852	 9.82130752465579E-02 
1853	 9.81799589153909E-02 
1854	 9.81827912822496E-02 
1855	 9.81549499120217E-02 
1856	 9.81105712554655E-02 
1857	 9.80939182928627E-02 
1858	 9.80689028699789E-02 
1859	 9.80533807274734E-02 
1860	 9.80267631369176E-02 
1861	 9.80018092367833E-02 
1862	 9.79634899626692E-02 
1863	 9.79151380558284E-02 
1864	 0.09783395669555 
1865	 9.77444260645573E-02 
1866	 9.76587154952154E-02 
1867	 9.75785814831445E-02 
1868	 9.75058043531097E-02 
1869	 9.74326850388156E-02 
1870	 9.73675689385513E-02 
1871	 9.72797134811233E-02 
1872	 9.71854646030534E-02 
1873	 9.70603661235859E-02 
1874	 9.69335712157321E-02 
1875	 9.67949854067434E-02 
1876	 9.66320041650926E-02 
1877	 9.64776602694936E-02 
1878	 9.63208943030856E-02 
1879	 9.61277354994363E-02 
1880	 9.59289482119487E-02 
1881	 9.57365515461602E-02 
1882	 0.095515904226968 
1883	 0.095266538023479 
1884	 9.50067406871265E-02 
1885	 9.47565265196507E-02 
1886	 9.44638261398192E-02 
1887	 9.41563952895652E-02 
1888	 0.093841766016131 
1889	 9.34915929384836E-02 
1890	 9.31362970900431E-02 
1891	 9.27730629075957E-02 
1892	 9.23907118297952E-02 
1893	 9.20094785969321E-02 
1894	 0.091621252959694 
1895	 9.12296596973265E-02 
1896	 9.08442147364554E-02 
1897	 9.04719111390602E-02 
1898	 9.00906093333157E-02 
1899	 8.97029381886178E-02 
1900	 8.93070326350325E-02 
1901	 0.088916674619937 
1902	 8.85449515676231E-02 
1903	 8.81775019095677E-02 
1904	 8.78425291488589E-02 
1905	 8.75313703421697E-02 
1906	 8.72359019670992E-02 
1907	 8.69619967243136E-02 
1908	 8.67088561901758E-02 
1909	 8.64421260264039E-02 
1910	 8.61707884892074E-02 
1911	 8.59141295987059E-02 
1912	 8.56635433974224E-02 
1913	 8.54406133919642E-02 
1914	 8.52456940426933E-02 
1915	 8.50556781496726E-02 
1916	 0.08487730393343 
1917	 8.47262698314942E-02 
1918	 8.45809879417166E-02 
1919	 8.44252209021616E-02 
1920	 8.43060434165776E-02 
1921	 8.42035875447329E-02 
1922	 8.40833232357123E-02 
1923	 8.40039663710794E-02 
1924	 8.39256052025279E-02 
1925	 8.38508563088307E-02 
1926	 8.37819174964227E-02 
1927	 8.37230649367706E-02 
1928	 8.36767910415593E-02 
1929	 8.36460832099391E-02 
1930	 8.36116528973206E-02 
1931	 8.35955444346957E-02 
1932	 8.36044150714788E-02 
1933	 8.35939125971724E-02 
1934	 8.36045831966083E-02 
1935	 8.36221308998728E-02 
1936	 8.36547230348022E-02 
1937	 8.36730111461915E-02 
1938	 8.36924993255143E-02 
1939	 0.083717003842675 
1940	 8.37331370029327E-02 
1941	 8.37655832477996E-02 
1942	 8.38000341377702E-02 
1943	 8.38300703851319E-02 
1944	 8.38633133515504E-02 
1945	 8.38825103738866E-02 
1946	 8.39180840123963E-02 
1947	 8.39648616665091E-02 
1948	 8.40115787508227E-02 
1949	 8.40605964933613E-02 
1950	 8.41236631623136E-02 
1951	 8.42005276099797E-02 
1952	 8.42619399356851E-02 
1953	 8.43495414573642E-02 
1954	 8.44158288584107E-02 
1955	 8.44721059252993E-02 
1956	 8.45678088591274E-02 
1957	 8.46530152037801E-02 
1958	 8.47394215585636E-02 
1959	 8.48339077508596E-02 
1960	 0.084931169462597 
1961	 0.085031579224868 
1962	 8.51555131230273E-02 
1963	 8.52583718359287E-02 
1964	 0.08534617555347 
1965	 8.54452848228819E-02 
1966	 8.55405424464322E-02 
1967	 8.56364141930757E-02 
1968	 8.57415266140951E-02 
1969	 8.58633071901148E-02 
1970	 8.59729485852611E-02 
1971	 8.60816701224632E-02 
1972	 8.61887802956371E-02 
1973	 8.62882102566881E-02 
1974	 8.63998769438966E-02 
1975	 8.65203465169009E-02 
1976	 0.086631878587501 
1977	 8.67468058613795E-02 
1978	 8.68611839102868E-02 
1979	 8.69822534871904E-02 
1980	 8.71211196387761E-02 
1981	 8.72504793775324E-02 
1982	 8.74003491598267E-02 
1983	 8.75266647966136E-02 
1984	 8.76254304143633E-02 
1985	 8.77397473306623E-02 
1986	 8.78483658880754E-02 
1987	 0.087966470653307 
1988	 8.80824658384927E-02 
1989	 8.82353584901443E-02 
1990	 8.83638429784322E-02 
1991	 8.84960675426419E-02 
1992	 8.86259603813207E-02 
1993	 8.87529430703223E-02 
1994	 0.088877694430849 
1995	 8.90139869720639E-02 
1996	 8.91220879352199E-02 
1997	 8.92093832822905E-02 
1998	 8.93042823883394E-02 
1999	 8.93704811014756E-02 
2000	 8.94655542319049E-02 
2001	 8.95771206045292E-02 
2002	 8.96927920363201E-02 
2003	 8.98273496060311E-02 
2004	 8.99639925807357E-02 
2005	 9.00926508646818E-02 
2006	 9.02303447022088E-02 
2007	 9.03515098097224E-02 
2008	 9.04547872069974E-02 
2009	 9.05694278938956E-02 
2010	 0.090692773270147 
2011	 9.07952949292742E-02 
2012	 9.08796043941556E-02 
2013	 0.090979823453836 
2014	 9.10727401087637E-02 
2015	 9.11662563497274E-02 
2016	 9.12829014813981E-02 
2017	 9.14150709007045E-02 
2018	 9.15262679918642E-02 
2019	 9.16242918829828E-02 
2020	 9.17355655997359E-02 
2021	 9.18524408112781E-02 
2022	 9.19575618610091E-02 
2023	 9.20592476664682E-02 
2024	 9.21685158921999E-02 
2025	 9.22767065844158E-02 
2026	 0.092375939662096 
2027	 9.24877980530007E-02 
2028	 9.25865408549998E-02 
2029	 9.26667002611646E-02 
2030	 9.27140879264178E-02 
2031	 9.27946801870551E-02 
2032	 9.28754070177244E-02 
2033	 0.092964499171669 
2034	 9.30813108200902E-02 
2035	 9.31723812607953E-02 
2036	 9.32554857959298E-02 
2037	 9.33328894183017E-02 
2038	 9.33856995762025E-02 
2039	 0.093457765051356 
2040	 9.35350329149622E-02 
2041	 9.36213644822646E-02 
2042	 9.36875273818276E-02 
2043	 9.37552752552267E-02 
2044	 9.38192112465847E-02 
2045	 9.38589867056579E-02 
2046	 9.39205320765361E-02 
2047	 9.40000095367658E-02 
2048	 9.40693666470011E-02 
2049	 9.41372642386717E-02 
2050	 9.42040862924992E-02 
2051	 9.42810913645287E-02 
2052	 9.43392181687337E-02 
2053	 9.43679853840623E-02 
2054	 9.44245484755598E-02 
2055	 9.44846103124219E-02 
2056	 9.45453378616786E-02 
2057	 9.46142992226832E-02 
2058	 9.47117068426648E-02 
2059	 9.47832588612509E-02 
2060	 9.48366473955089E-02 
2061	 9.49057703210748E-02 
2062	 9.49780143374034E-02 
2063	 9.50508467667581E-02 
2064	 9.51381230405415E-02 
2065	 9.52076530805427E-02 
2066	 0.095268314096372 
2067	 9.53294267391737E-02 
2068	 0.095377929752498 
2069	 9.54295187860524E-02 
2070	 9.54899356470249E-02 
2071	 9.55591228399934E-02 
2072	 9.56155965520125E-02 
2073	 9.56736988051618E-02 
2074	 0.095724518801622 
2075	 9.57581017072103E-02 
2076	 9.58088395026771E-02 
2077	 9.58683634298458E-02 
2078	 9.59243748898777E-02 
2079	 0.095989874386662 
2080	 9.60451288370732E-02 
2081	 9.60813329007794E-02 
2082	 9.61369411873532E-02 
2083	 9.61986330959817E-02 
2084	 9.62704559258053E-02 
2085	 9.63250158299946E-02 
2086	 9.63896353117642E-02 
2087	 0.096434367607088 
2088	 9.64505534130689E-02 
2089	 9.64872047326444E-02 
2090	 9.65217164228882E-02 
2091	 9.65686288105596E-02 
2092	 9.66240270070969E-02 
2093	 0.096683717112357 
2094	 9.67588577820817E-02 
2095	 9.68265928996664E-02 
2096	 9.68950363018349E-02 
2097	 9.69604339132174E-02 
2098	 9.70253554702999E-02 
2099	 0.097079213705421 
2100	 9.71518499327057E-02 
2101	 9.72349451805982E-02 
2102	 9.73092410894073E-02 
2103	 9.74031485664821E-02 
2104	 9.74605117239463E-02 
2105	 9.74808061471548E-02 
2106	 9.75328103928839E-02 
2107	 9.75875995792218E-02 
2108	 9.76323966737321E-02 
2109	 9.76906930488749E-02 
2110	 9.77419548254077E-02 
2111	 9.77686380557274E-02 
2112	 9.78101774041825E-02 
2113	 9.78721696186251E-02 
2114	 9.79196043458153E-02 
2115	 9.79687096272127E-02 
2116	 9.80200457055634E-02 
2117	 9.80586667923769E-02 
2118	 9.80792332700831E-02 
2119	 9.81279380616669E-02 
2120	 9.81809563541359E-02 
2121	 9.82356351981888E-02 
2122	 9.83126428281448E-02 
2123	 9.83762431444033E-02 
2124	 9.84311542942277E-02 
2125	 9.84862104847884E-02 
2126	 9.85545090831529E-02 
2127	 9.86026396907744E-02 
2128	 9.86291351013924E-02 
2129	 9.86618998486323E-02 
2130	 9.86909216511254E-02 
2131	 9.87023295085762E-02 
2132	 9.87438051964073E-02 
2133	 9.88156042366983E-02 
2134	 9.88428863865314E-02 
2135	 9.88667599525887E-02 
2136	 9.88784253716952E-02 
2137	 9.88465689058913E-02 
2138	 9.88473777236272E-02 
2139	 9.88827435359415E-02 
2140	 9.88751105320815E-02 
2141	 9.88465937665067E-02 
2142	 0.098826704232166 
2143	 9.87758843228295E-02 
2144	 9.87460344108882E-02 
2145	 9.87639737865439E-02 
2146	 0.098735034082022 
2147	 9.86687580288155E-02 
2148	 9.86188964483819E-02 
2149	 9.85682949482788E-02 
2150	 9.84882479781369E-02 
2151	 9.84445550262751E-02 
2152	 9.84352867136235E-02 
2153	 9.84038325213973E-02 
2154	 9.83781904637669E-02 
2155	 9.83338606686934E-02 
2156	 9.82820419510123E-02 
2157	 9.82233991813826E-02 
2158	 9.81414652469009E-02 
2159	 9.80740723233028E-02 
2160	 9.80048852537125E-02 
2161	 0.097941676657731 
2162	 9.78930325241397E-02 
2163	 9.78339258085434E-02 
2164	 9.77687607126695E-02 
2165	 9.77173040704227E-02 
2166	 9.76389837404664E-02 
2167	 9.75391072890183E-02 
2168	 9.74611490675885E-02 
2169	 9.73725926363776E-02 
2170	 9.73041444372188E-02 
2171	 9.72655586721426E-02 
2172	 9.72004087657334E-02 
2173	 9.71198789036338E-02 
2174	 9.70596252540533E-02 
2175	 9.70083858635351E-02 
2176	 9.69442981235629E-02 
2177	 9.68985877820059E-02 
2178	 9.68283253225728E-02 
2179	 9.67233896782319E-02 
2180	 9.66320588586831E-02 
2181	 9.65300336036079E-02 
2182	 0.096443207218716 
2183	 9.63700416848229E-02 
2184	 9.62863308768093E-02 
2185	 9.62324864427951E-02 
2186	 9.62090693574261E-02 
2187	 9.61525256484288E-02 
2188	 9.61062990785942E-02 
2189	 9.60359734590543E-02 
2190	 9.59290842726314E-02 
2191	 9.58478252853694E-02 
2192	 9.57674960696877E-02 
2193	 9.56922427675822E-02 
2194	 9.56201580788593E-02 
2195	 9.55554340365023E-02 
2196	 9.54950679950649E-02 
2197	 9.54442904582659E-02 
2198	 9.54150353451444E-02 
2199	 9.53705637039281E-02 
2200	 9.53133070817416E-02 
2201	 0.095271146281671 
2202	 9.52194788685262E-02 
2203	 9.51928260958624E-02 
2204	 9.51627436059753E-02 
2205	 9.51433668531687E-02 
2206	 9.51330352747362E-02 
2207	 9.51239499195886E-02 
2208	 9.51227080342781E-02 
2209	 0.095149215068518 
2210	 9.51550044941531E-02 
2211	 9.51549454052296E-02 
2212	 9.51529024461543E-02 
2213	 9.51344043859684E-02 
2214	 9.51329465447606E-02 
2215	 9.51496246600262E-02 
2216	 0.095143343728955 
2217	 9.51258663993489E-02 
2218	 9.51246303762883E-02 
2219	 0.095119655055142 
2220	 9.51088602211274E-02 
2221	 9.50954163605668E-02 
2222	 0.09510422027042 
2223	 9.51256745059031E-02 
2224	 9.51446490376024E-02 
2225	 9.51569748364377E-02 
2226	 9.51969651646033E-02 
2227	 9.52085882702795E-02 
2228	 0.09517682621459 
2229	 0.095192083144023 
2230	 9.52346505233584E-02 
2231	 9.52612876359411E-02 
2232	 9.53023520647852E-02 
2233	 9.53242493983362E-02 
2234	 9.53307874165623E-02 
2235	 9.53394888172961E-02 
2236	 9.53395531771211E-02 
2237	 9.53443618164823E-02 
2238	 0.095345870589376 
2239	 9.53549371751627E-02 
2240	 9.53743553485342E-02 
2241	 9.53849277406681E-02 
2242	 9.53941646774972E-02 
2243	 9.54056548541359E-02 
2244	 9.54091688955933E-02 
2245	 9.54171772031363E-02 
2246	 9.54368994410836E-02 
2247	 9.54632634468149E-02 
2248	 9.54754810868193E-02 
2249	 9.54873752956688E-02 
2250	 9.54882722271641E-02 
2251	 9.54622467676315E-02 
2252	 9.54785704834945E-02 
2253	 9.55193747857051E-02 
2254	 9.55371658504418E-02 
2255	 0.095576177397604 
2256	 9.55817255347334E-02 
2257	 9.55370306482218E-02 
2258	 0.095540692895532 
2259	 9.55670235498729E-02 
2260	 9.55780116974988E-02 
2261	 0.095604739987598 
2262	 9.56173160550387E-02 
2263	 9.56125374881553E-02 
2264	 9.56094308321811E-02 
2265	 9.55876129057024E-02 
2266	 9.56011387095203E-02 
2267	 9.56344001129639E-02 
2268	 9.56533169976861E-02 
2269	 9.56953457679945E-02 
2270	 9.57376627745931E-02 
2271	 9.57199965098029E-02 
2272	 0.095720743965188 
2273	 9.57296655423225E-02 
2274	 0.095717707694998 
2275	 9.57405987155901E-02 
2276	 9.57986541548179E-02 
2277	 9.58198609228789E-02 
2278	 9.58423726759098E-02 
2279	 9.58514297577795E-02 
2280	 9.58367639725099E-02 
2281	 9.58252112404451E-02 
2282	 9.58111303314899E-02 
2283	 9.57974081415851E-02 
2284	 9.57632838789268E-02 
2285	 9.57577919570012E-02 
2286	 9.57717980395497E-02 
2287	 9.57852091989112E-02 
2288	 9.58138648924443E-02 
2289	 9.58360676612402E-02 
2290	 9.58562934752771E-02 
2291	 9.58709221519409E-02 
2292	 9.58909467366248E-02 
2293	 9.59060389093116E-02 
2294	 9.59180960908789E-02 
2295	 9.59229245032716E-02 
2296	 9.59386630213412E-02 
2297	 0.095909937681688 
2298	 9.58763840949436E-02 
2299	 9.58690044615854E-02 
2300	 9.58746422789595E-02 
2301	 9.58819213570994E-02 
2302	 9.58993583341845E-02 
2303	 0.095900105619495 
2304	 9.58860753453073E-02 
2305	 9.58815490386014E-02 
2306	 0.095868974964058 
2307	 9.58498717191365E-02 
2308	 0.095832477476722 
2309	 9.58202700854536E-02 
2310	 9.57895374630768E-02 
2311	 9.57336034581505E-02 
2312	 9.57137219638851E-02 
2313	 9.56946373069884E-02 
2314	 9.56944343899157E-02 
2315	 0.09573408464133 
2316	 9.57525947497842E-02 
2317	 9.57929997596675E-02 
2318	 9.57744604433566E-02 
2319	 9.56933710879053E-02 
2320	 9.56705928653965E-02 
2321	 9.56495808828349E-02 
2322	 0.095615570871663 
2323	 9.55990240035453E-02 
2324	 9.56061682726653E-02 
2325	 9.55915880873049E-02 
2326	 9.55998503987917E-02 
2327	 9.56646483048839E-02 
2328	 9.57241625503372E-02 
2329	 9.57087474709582E-02 
2330	 9.56729608187895E-02 
2331	 9.56397763382691E-02 
2332	 9.56432972643657E-02 
2333	 9.57258569987394E-02 
2334	 9.58224487086778E-02 
2335	 9.58636737552493E-02 
2336	 9.58495777936595E-02 
2337	 9.58040924910563E-02 
2338	 9.57689730670504E-02 
2339	 9.57488076401555E-02 
2340	 9.57419588725127E-02 
2341	 9.57181975907906E-02 
2342	 9.56746646995734E-02 
2343	 9.56742389988106E-02 
2344	 9.57012776869392E-02 
2345	 9.57127354233645E-02 
2346	 9.57338148523637E-02 
2347	 9.57417260763262E-02 
2348	 9.57611290560914E-02 
2349	 9.57247865514714E-02 
2350	 0.095684630327128 
2351	 9.56128203660213E-02 
2352	 9.54326360805812E-02 
2353	 9.53450406268934E-02 
2354	 9.52798546518879E-02 
2355	 0.095222224446572 
2356	 9.52294356470349E-02 
2357	 9.52204701258666E-02 
2358	 9.52002882883987E-02 
2359	 9.51862569241231E-02 
2360	 9.51814084628996E-02 
2361	 9.51396655268232E-02 
2362	 9.50847284955814E-02 
2363	 9.50589756673099E-02 
2364	 9.50254112894354E-02 
2365	 9.49999637551427E-02 
2366	 9.49840910272446E-02 
2367	 9.49705722577471E-02 
2368	 9.49747141532282E-02 
2369	 9.49524511224428E-02 
2370	 9.49246449952651E-02 
2371	 9.49166651378965E-02 
2372	 9.48385236746572E-02 
2373	 9.47996518645195E-02 
2374	 9.48421760880937E-02 
2375	 9.48107643559766E-02 
2376	 9.47343312104526E-02 
2377	 9.46158516920519E-02 
2378	 9.45080464727008E-02 
2379	 9.44701999645184E-02 
2380	 9.44390283163993E-02 
2381	 9.44151163302025E-02 
2382	 9.44036967046138E-02 
2383	 9.43177284141426E-02 
2384	 9.42277603401021E-02 
2385	 0.094201635831836 
2386	 9.41277508887502E-02 
2387	 9.40282847109741E-02 
2388	 9.39817634141037E-02 
2389	 9.39581947118353E-02 
2390	 0.093952441546957 
2391	 9.39047642959842E-02 
2392	 9.37868671803671E-02 
2393	 9.37291369010952E-02 
2394	 9.36783380571452E-02 
2395	 9.36321271539504E-02 
2396	 0.093651879442918 
2397	 9.36049342154843E-02 
2398	 9.34937901782952E-02 
2399	 9.33852526765384E-02 
2400	 9.32855591240117E-02 
2401	 9.32391384881201E-02 
2402	 9.32052302450422E-02 
2403	 9.30796440020242E-02 
2404	 9.29052248011157E-02 
2405	 9.27573994129252E-02 
2406	 9.26346178556518E-02 
2407	 9.25297520464881E-02 
2408	 9.24991019639591E-02 
2409	 9.24278347128548E-02 
2410	 9.22582113426143E-02 
2411	 9.22196940878188E-02 
2412	 9.22146319498947E-02 
2413	 9.21566900202516E-02 
2414	 9.21879460843683E-02 
2415	 9.21178210050341E-02 
2416	 9.19820455599405E-02 
2417	 9.16995117105356E-02 
2418	 9.16004367319916E-02 
2419	 9.15154133343482E-02 
2420	 9.14829227890871E-02 
2421	 0.091600197148418 
2422	 9.16130376311818E-02 
2423	 9.16036065170048E-02 
2424	 0.091559898398258 
2425	 9.14765862630497E-02 
2426	 0.091401965186732 
2427	 9.13038310299831E-02 
2428	 9.11722007073932E-02 
2429	 9.10242117719787E-02 
2430	 0.090890919863974 
2431	 9.06732522839267E-02 
2432	 9.05669857386942E-02 
2433	 9.05665896533016E-02 
2434	 9.05275634128873E-02 
2435	 9.05456975539117E-02 
2436	 9.04570163616314E-02 
2437	 9.03111229633745E-02 
2438	 9.01970882648256E-02 
2439	 9.00313817503471E-02 
2440	 0.089925498825936 
2441	 8.98565989495392E-02 
2442	 8.97282703212725E-02 
2443	 8.95477303549739E-02 
2444	 8.94833551320266E-02 
2445	 8.95071082670509E-02 
2446	 8.94808456693705E-02 
2447	 0.089487045461246 
2448	 8.94130535422326E-02 
2449	 8.92545784405155E-02 
2450	 8.91576814185355E-02 
2451	 8.91072349011055E-02 
2452	 0.089001058623714 
2453	 8.88645399651156E-02 
2454	 8.87594199070578E-02 
2455	 8.86292303656041E-02 
2456	 8.85487534318337E-02 
2457	 8.84681419758917E-02 
2458	 8.83981499669583E-02 
2459	 8.83456506354728E-02 
2460	 8.83030106309927E-02 
2461	 8.83827355417764E-02 
2462	 8.84161963962595E-02 
2463	 8.84116826607253E-02 
2464	 8.82683863058932E-02 
2465	 8.80229562901881E-02 
2466	 8.78313087510112E-02 
2467	 8.75566030091232E-02 
2468	 8.74228328795242E-02 
2469	 8.73618814297659E-02 
2470	 8.73840167237415E-02 
2471	 0.087409203685103 
2472	 8.72315216314374E-02 
2473	 8.70678017492602E-02 
2474	 8.68481525947852E-02 
2475	 0.086651651968978 
2476	 8.66813877316447E-02 
2477	 8.67615124765957E-02 
2478	 0.086834955994649 
2479	 8.68111884616965E-02 
2480	 8.67494084581358E-02 
2481	 8.67109348040414E-02 
2482	 8.65215395812598E-02 
2483	 8.63500378610678E-02 
2484	 8.61679951793775E-02 
2485	 8.59933549976213E-02 
2486	 8.60178286749203E-02 
2487	 8.60326877663255E-02 
2488	 8.59577468566242E-02 
2489	 8.58207923155771E-02 
2490	 8.56752170038008E-02 
2491	 8.55129199364004E-02 
2492	 8.53259780729886E-02 
2493	 8.52881831368685E-02 
2494	 8.53427547821846E-02 
2495	 8.53452792173513E-02 
2496	 8.53475960173429E-02 
2497	 0.085420930630916 
2498	 8.54775430910938E-02 
2499	 8.55400094200515E-02 
2500	 8.56678175419087E-02 
