Wavelength	MM_3100004.asd
350	 5.71627256715153E-02 
351	 5.73362553951443E-02 
352	 5.05596363291768E-02 
353	 4.18023902969799E-02 
354	 0.041726385682456 
355	 5.14856222660047E-02 
356	 5.61503669879881E-02 
357	 4.69938558933892E-02 
358	 5.37962662217714E-02 
359	 5.32211429827808E-02 
360	 4.90960420825216E-02 
361	 5.98425231951887E-02 
362	 5.31746344640978E-02 
363	 4.61830695536963E-02 
364	 4.80575484193149E-02 
365	 4.58790847363484E-02 
366	 0.050174407168675 
367	 5.51758363131928E-02 
368	 5.38613776005386E-02 
369	 5.16916802108663E-02 
370	 4.95921082829096E-02 
371	 4.94698710230664E-02 
372	 0.053000280381165 
373	 5.14237017077594E-02 
374	 5.15770098574441E-02 
375	 5.64417893427475E-02 
376	 5.93895609267568E-02 
377	 5.59195938646473E-02 
378	 5.27582212838644E-02 
379	 5.61771654941234E-02 
380	 5.47780793680241E-02 
381	 5.48613976896652E-02 
382	 5.77738598527366E-02 
383	 6.03859390287962E-02 
384	 5.84585361710197E-02 
385	 5.67824835037512E-02 
386	 5.82961193068731E-02 
387	 6.01934520625326E-02 
388	 5.97541972016127E-02 
389	 5.81017605445873E-02 
390	 5.74919861316627E-02 
391	 0.058243082816687 
392	 0.059198385933734 
393	 6.04428783727526E-02 
394	 6.29801301816503E-02 
395	 6.38037157862679E-02 
396	 6.34900683195677E-02 
397	 6.31208447660488E-02 
398	 0.063341311206946 
399	 6.48679927635481E-02 
400	 6.64279386193705E-02 
401	 6.64718918901415E-02 
402	 0.066463929074887 
403	 6.62860556396992E-02 
404	 6.57549013694798E-02 
405	 6.47824178040123E-02 
406	 0.066265158704457 
407	 6.82340333369189E-02 
408	 6.86712305930303E-02 
409	 6.77993295337622E-02 
410	 6.75000601325205E-02 
411	 0.067905444966913 
412	 0.06829542035127 
413	 0.06872581533753 
414	 6.88069548926188E-02 
415	 6.86696219817214E-02 
416	 6.91382197869458E-02 
417	 6.85926257146152E-02 
418	 6.85709182333899E-02 
419	 7.01789115414853E-02 
420	 7.06537054992403E-02 
421	 7.01320512638459E-02 
422	 6.94815865042176E-02 
423	 6.98583448118207E-02 
424	 7.06224085933433E-02 
425	 7.08589848116308E-02 
426	 7.04010264211905E-02 
427	 7.03984308193136E-02 
428	 7.05954967852009E-02 
429	 7.06387347924702E-02 
430	 7.03700385618318E-02 
431	 7.09676572011104E-02 
432	 7.08465244292368E-02 
433	 7.02300408693331E-02 
434	 7.10587716662598E-02 
435	 7.12988917169411E-02 
436	 7.13806392350093E-02 
437	 7.17032260197495E-02 
438	 7.11949267676192E-02 
439	 7.11631894415621E-02 
440	 7.16460887514821E-02 
441	 7.20011526750335E-02 
442	 0.071736335167577 
443	 7.16322195334382E-02 
444	 7.19503058506011E-02 
445	 0.071983270759426 
446	 7.23158776200588E-02 
447	 0.072709721387726 
448	 0.072836335967164 
449	 0.072991838727292 
450	 7.33155984738957E-02 
451	 7.36728879986044E-02 
452	 7.37350386837258E-02 
453	 7.39142593888959E-02 
454	 7.40440736771888E-02 
455	 7.40698558661181E-02 
456	 7.45135014908874E-02 
457	 7.46172054090663E-02 
458	 7.44351113682733E-02 
459	 0.074421801095808 
460	 7.49668371616053E-02 
461	 7.52383232943246E-02 
462	 7.50355029746619E-02 
463	 7.51740162357292E-02 
464	 7.54617609359955E-02 
465	 7.57049528476288E-02 
466	 7.57693769587563E-02 
467	 7.57847529620689E-02 
468	 7.61513177754042E-02 
469	 7.66328808690119E-02 
470	 7.65283485384314E-02 
471	 7.62836473430392E-02 
472	 7.62813039883235E-02 
473	 7.66298562345206E-02 
474	 7.68895668567626E-02 
475	 7.68514030538137E-02 
476	 7.67241827412064E-02 
477	 7.68696425857947E-02 
478	 7.71305135164252E-02 
479	 7.73333297778448E-02 
480	 7.74359452526165E-02 
481	 7.75734575739474E-02 
482	 7.78179572264591E-02 
483	 7.81015328999119E-02 
484	 7.82951943642473E-02 
485	 7.81985286642866E-02 
486	 7.82048348052227E-02 
487	 7.83484348125926E-02 
488	 0.078372313317661 
489	 7.85723479477585E-02 
490	 7.88364998331332E-02 
491	 7.90039979544083E-02 
492	 7.89554920858583E-02 
493	 7.88871444826869E-02 
494	 7.89668803784559E-02 
495	 0.079287294747385 
496	 7.95462151894256E-02 
497	 7.96010705486615E-02 
498	 7.95203569533458E-02 
499	 7.96458442797554E-02 
500	 7.97823781926011E-02 
501	 7.99501400619162E-02 
502	 8.01500098025622E-02 
503	 8.00277933390178E-02 
504	 7.99834049249477E-02 
505	 8.01046427749701E-02 
506	 8.01792934662495E-02 
507	 8.03393654883356E-02 
508	 8.05343964857997E-02 
509	 8.06473458810422E-02 
510	 8.04334391667456E-02 
511	 8.03779592050686E-02 
512	 0.080499867109471 
513	 8.05641734295327E-02 
514	 8.05368100485003E-02 
515	 8.05401531994847E-02 
516	 8.06457898983415E-02 
517	 8.08198668475538E-02 
518	 8.09058221452003E-02 
519	 8.09543124623121E-02 
520	 8.10538973876894E-02 
521	 8.10671970202226E-02 
522	 0.081156076315033 
523	 0.081294320719547 
524	 8.12511626716834E-02 
525	 8.12939702368049E-02 
526	 8.13543802184345E-02 
527	 0.081359011387265 
528	 8.14757750995554E-02 
529	 0.081524854957216 
530	 8.15403386697843E-02 
531	 0.081675128663402 
532	 8.16956053009644E-02 
533	 8.16864236424864E-02 
534	 8.17182098554459E-02 
535	 8.17316335331827E-02 
536	 8.17925952425992E-02 
537	 8.18707527492999E-02 
538	 8.19118070676973E-02 
539	 8.19830686519163E-02 
540	 8.20303068133654E-02 
541	 8.20436625748686E-02 
542	 0.082081773209426 
543	 8.21704320855056E-02 
544	 8.22575744341982E-02 
545	 8.22860670958576E-02 
546	 8.22706090136151E-02 
547	 8.22656456602524E-02 
548	 8.23263343172721E-02 
549	 8.24922494965736E-02 
550	 8.25099056242235E-02 
551	 8.25025650330388E-02 
552	 8.25925538628149E-02 
553	 8.27260854880044E-02 
554	 8.27436313472342E-02 
555	 8.27474994357762E-02 
556	 8.29423736431017E-02 
557	 8.30706063837684E-02 
558	 8.31471202088213E-02 
559	 8.32213841746901E-02 
560	 8.33541256440493E-02 
561	 8.33815378640962E-02 
562	 8.33934089186235E-02 
563	 0.083520355829968 
564	 0.083594400298827 
565	 8.36355196518529E-02 
566	 8.36582125895897E-02 
567	 8.36597656505193E-02 
568	 8.37976524502882E-02 
569	 8.40062988283724E-02 
570	 8.41836690210779E-02 
571	 8.43022224902156E-02 
572	 0.084463616166453 
573	 8.46487458291953E-02 
574	 8.47562978750871E-02 
575	 8.48130205909149E-02 
576	 8.49106931867857E-02 
577	 8.50689409941753E-02 
578	 8.51308787747102E-02 
579	 8.51454198189969E-02 
580	 8.51067781845672E-02 
581	 8.50100194052728E-02 
582	 8.49800476402358E-02 
583	 8.49520464203269E-02 
584	 8.49329565214302E-02 
585	 8.50556230165475E-02 
586	 8.52609591147777E-02 
587	 8.54354623350825E-02 
588	 8.55135865301347E-02 
589	 8.57204986134491E-02 
590	 8.58901808478069E-02 
591	 8.59949467303226E-02 
592	 8.61427396870606E-02 
593	 0.086296110883982 
594	 8.64736810931086E-02 
595	 8.66556894693325E-02 
596	 8.66917568316841E-02 
597	 8.67185466201829E-02 
598	 8.67245709040727E-02 
599	 8.66407325995354E-02 
600	 8.66416156010226E-02 
601	 8.66765941567406E-02 
602	 8.66969309089188E-02 
603	 0.086703431903606 
604	 8.67555368555245E-02 
605	 8.68083847204636E-02 
606	 8.68047734445086E-02 
607	 8.68405087372933E-02 
608	 8.69034429399356E-02 
609	 8.69950166955412E-02 
610	 8.71371321078536E-02 
611	 8.71405462264604E-02 
612	 0.087139226828757 
613	 8.72437884651072E-02 
614	 8.72004777214851E-02 
615	 8.71572401215165E-02 
616	 8.71542235091587E-02 
617	 8.71593395502875E-02 
618	 8.72571715074095E-02 
619	 8.73173999078198E-02 
620	 8.72781434636704E-02 
621	 8.72882934563048E-02 
622	 8.73002791406794E-02 
623	 8.72982170438695E-02 
624	 8.72835790097363E-02 
625	 8.73151555442401E-02 
626	 8.73213074210772E-02 
627	 8.73009610383021E-02 
628	 8.73588392601967E-02 
629	 8.74051764286087E-02 
630	 0.087428042347706 
631	 8.74419792535164E-02 
632	 8.74779433972668E-02 
633	 8.75047489690333E-02 
634	 0.087509493932205 
635	 8.74983972809491E-02 
636	 8.75112078187997E-02 
637	 8.75304467599063E-02 
638	 8.75387452777319E-02 
639	 8.75425816499769E-02 
640	 0.087570230864087 
641	 8.76179051596784E-02 
642	 8.76647824317523E-02 
643	 8.76973367417989E-02 
644	 8.77352233368548E-02 
645	 8.77750225510235E-02 
646	 8.77742510519841E-02 
647	 8.77894212239653E-02 
648	 0.087810424716627 
649	 8.78196775244002E-02 
650	 0.087860241769958 
651	 8.78735778112526E-02 
652	 8.78578586948914E-02 
653	 0.087864017747665 
654	 8.79347683320723E-02 
655	 8.80041775377474E-02 
656	 8.80277604151714E-02 
657	 8.80683967033383E-02 
658	 8.80877022950125E-02 
659	 8.80921145925366E-02 
660	 8.81082672508484E-02 
661	 8.81440356409751E-02 
662	 8.81767569937016E-02 
663	 8.82103026006182E-02 
664	 8.82938643769563E-02 
665	 0.088303869629075 
666	 8.82886093982034E-02 
667	 8.83156010545407E-02 
668	 8.83031986761799E-02 
669	 8.83161915507448E-02 
670	 8.83392724207503E-02 
671	 0.088299135541497 
672	 8.83480039078219E-02 
673	 8.84496289972425E-02 
674	 8.85253323411225E-02 
675	 8.84597874283779E-02 
676	 8.84999743649208E-02 
677	 8.85910834938647E-02 
678	 8.85761433140715E-02 
679	 8.86144066178492E-02 
680	 8.86319472178486E-02 
681	 8.86113458705765E-02 
682	 8.86322258250138E-02 
683	 8.86809138154216E-02 
684	 8.87262843674389E-02 
685	 0.088745800119647 
686	 8.87700607892525E-02 
687	 8.87893885660452E-02 
688	 8.88238323400258E-02 
689	 8.89026315501522E-02 
690	 8.89017385503766E-02 
691	 8.88835347948233E-02 
692	 8.89014349882549E-02 
693	 8.89397439372077E-02 
694	 8.89327990816482E-02 
695	 8.89264672611906E-02 
696	 8.89814514181057E-02 
697	 0.088990000718578 
698	 8.89848978096247E-02 
699	 8.89929167582039E-02 
700	 8.90238880383529E-02 
701	 8.90340789707074E-02 
702	 8.90691906350958E-02 
703	 8.91400879170914E-02 
704	 8.90996362280162E-02 
705	 8.90951214789599E-02 
706	 8.91152471302929E-02 
707	 8.90795215239729E-02 
708	 0.089073220186393 
709	 8.91113222132267E-02 
710	 0.08916214351188 
711	 8.91378171652442E-02 
712	 8.91608305518204E-02 
713	 8.91676477397899E-02 
714	 8.90984928086672E-02 
715	 0.089114193578882 
716	 8.91127621721452E-02 
717	 8.90771922841696E-02 
718	 8.90574949984813E-02 
719	 8.90794498406717E-02 
720	 8.90825895802543E-02 
721	 8.90487806606739E-02 
722	 8.90683530722676E-02 
723	 8.90658359031502E-02 
724	 8.90382497697155E-02 
725	 8.90062292139528E-02 
726	 8.89686597836044E-02 
727	 0.0889810625971 
728	 8.90137637307968E-02 
729	 8.89647578622234E-02 
730	 8.89355318605027E-02 
731	 8.89348610249989E-02 
732	 8.89357136966182E-02 
733	 8.88610743352449E-02 
734	 8.88280267125889E-02 
735	 8.88210281226375E-02 
736	 8.87765250126908E-02 
737	 8.87062289282655E-02 
738	 8.86628333609746E-02 
739	 8.86545872392948E-02 
740	 8.86381573620911E-02 
741	 0.08861068874726 
742	 8.85850295974873E-02 
743	 8.85634183136811E-02 
744	 8.85036107148694E-02 
745	 8.84573479192162E-02 
746	 0.088444512514888 
747	 8.84561603916933E-02 
748	 8.84131920999266E-02 
749	 8.83464123269563E-02 
750	 0.08829251135128 
751	 8.82800146401326E-02 
752	 8.82143065468441E-02 
753	 8.81345228478418E-02 
754	 8.80872608983051E-02 
755	 8.80420948938388E-02 
756	 8.80101239313358E-02 
757	 8.79936247259329E-02 
758	 8.79844073794606E-02 
759	 8.79371292019816E-02 
760	 8.78801085142818E-02 
761	 8.78336102123414E-02 
762	 8.77977994963259E-02 
763	 8.77511498529509E-02 
764	 8.77097494648191E-02 
765	 8.76844606431245E-02 
766	 8.76451936070631E-02 
767	 8.75883657596308E-02 
768	 8.75341151875699E-02 
769	 0.087504726603001 
770	 8.74401692517507E-02 
771	 8.73934631535065E-02 
772	 8.73688171534643E-02 
773	 8.73031187259968E-02 
774	 0.087290878412176 
775	 8.72494771911188E-02 
776	 8.71342505694776E-02 
777	 8.71133001084394E-02 
778	 0.08709180283154 
779	 8.70540814635613E-02 
780	 8.70171246539812E-02 
781	 8.69643381835011E-02 
782	 8.69332959266224E-02 
783	 0.086917674444822 
784	 8.68635605967131E-02 
785	 8.67960865789154E-02 
786	 8.67555430136486E-02 
787	 8.67436849583231E-02 
788	 8.66586436100803E-02 
789	 8.66153925954569E-02 
790	 8.65949032965206E-02 
791	 8.65388658266477E-02 
792	 8.64712065129958E-02 
793	 8.64107827472528E-02 
794	 8.63630737453795E-02 
795	 0.086320253613611 
796	 8.62649687328134E-02 
797	 8.62125291521662E-02 
798	 8.61758420878392E-02 
799	 0.086155516421728 
800	 8.60961832963146E-02 
801	 8.60369375171554E-02 
802	 8.60235031950473E-02 
803	 8.60084448524807E-02 
804	 8.59678204436321E-02 
805	 8.59126556564738E-02 
806	 0.085872556154723 
807	 8.58232485452196E-02 
808	 0.085776361460466 
809	 8.57325859030109E-02 
810	 8.56747503512059E-02 
811	 8.56584136454663E-02 
812	 8.56389249919619E-02 
813	 0.085580646370073 
814	 8.55380934611744E-02 
815	 8.54623748086148E-02 
816	 8.53898953210288E-02 
817	 8.53748701219255E-02 
818	 8.53716914079554E-02 
819	 8.53227646021011E-02 
820	 8.52395369267139E-02 
821	 8.51905626572774E-02 
822	 8.51691799467342E-02 
823	 8.51498659198528E-02 
824	 8.51171836673083E-02 
825	 8.50790551628261E-02 
826	 8.50344165061038E-02 
827	 8.49823461602803E-02 
828	 8.49315330271233E-02 
829	 8.49255381217569E-02 
830	 8.48790239059384E-02 
831	 8.48180573017184E-02 
832	 8.48064244688178E-02 
833	 0.084771463972509 
834	 8.47003912714676E-02 
835	 8.46299437492222E-02 
836	 8.46292357428084E-02 
837	 8.46198985693617E-02 
838	 8.45761982617914E-02 
839	 8.45088770329256E-02 
840	 8.44731182077578E-02 
841	 0.084439251505116 
842	 8.44147678594099E-02 
843	 8.44063673639052E-02 
844	 8.43861644641682E-02 
845	 8.44004358822242E-02 
846	 0.08440251949395 
847	 8.43320908913932E-02 
848	 8.43147652783924E-02 
849	 0.084277600500172 
850	 8.42155298273916E-02 
851	 8.41848795650657E-02 
852	 8.41345392453382E-02 
853	 8.41188989696615E-02 
854	 8.41258014893346E-02 
855	 8.40325366061595E-02 
856	 8.40185904078671E-02 
857	 8.40627322195003E-02 
858	 8.40892193361315E-02 
859	 8.40090804415303E-02 
860	 8.39542704947608E-02 
861	 8.39442052442609E-02 
862	 8.39489330928029E-02 
863	 8.39298212029803E-02 
864	 8.38936136432869E-02 
865	 8.38565613710101E-02 
866	 8.38365971723205E-02 
867	 8.38278368404596E-02 
868	 8.37919974122913E-02 
869	 8.37498647548631E-02 
870	 8.37748152893965E-02 
871	 0.083788464350272 
872	 8.37472769122443E-02 
873	 8.36709156162095E-02 
874	 8.36648711749634E-02 
875	 8.36425881586947E-02 
876	 8.36176373743821E-02 
877	 8.36104581436238E-02 
878	 8.35951976863214E-02 
879	 8.35697507172755E-02 
880	 8.35604500379876E-02 
881	 0.083582978678624 
882	 8.35653986810201E-02 
883	 8.35719426817188E-02 
884	 0.083570684255942 
885	 8.34992237983127E-02 
886	 8.34614413049493E-02 
887	 0.083446989118852 
888	 8.34498194304452E-02 
889	 8.34689970145909E-02 
890	 8.34627549907333E-02 
891	 8.33917114122872E-02 
892	 8.33177954381531E-02 
893	 8.34036584053337E-02 
894	 8.33665591242382E-02 
895	 8.33155391709983E-02 
896	 0.083334934793321 
897	 8.33236061890485E-02 
898	 8.33116076815713E-02 
899	 8.32768736485921E-02 
900	 8.32217481962956E-02 
901	 8.32462039496325E-02 
902	 8.32349197055349E-02 
903	 8.32169644606731E-02 
904	 8.32407557161782E-02 
905	 8.32290496123766E-02 
906	 8.32231014910831E-02 
907	 8.32093300073217E-02 
908	 8.31709651599344E-02 
909	 8.32183961471097E-02 
910	 8.32262109499232E-02 
911	 8.31896549840699E-02 
912	 8.31770655715071E-02 
913	 8.30924939433848E-02 
914	 8.31131122750553E-02 
915	 8.32044127518001E-02 
916	 8.31554009584623E-02 
917	 8.31285734089587E-02 
918	 8.31259969806512E-02 
919	 8.31340950534296E-02 
920	 8.31415741609453E-02 
921	 8.31069720680205E-02 
922	 8.30783925438851E-02 
923	 8.30971311181722E-02 
924	 8.31642001230266E-02 
925	 8.31147749366484E-02 
926	 8.30782912627336E-02 
927	 8.31192365039749E-02 
928	 8.30665504614801E-02 
929	 8.30215830269808E-02 
930	 0.083041723009324 
931	 8.31071649669711E-02 
932	 8.30496852761183E-02 
933	 8.30961661096406E-02 
934	 8.31632693930199E-02 
935	 0.083131127693446 
936	 8.30482650167697E-02 
937	 8.30002149502886E-02 
938	 0.082997195428425 
939	 8.30248085348447E-02 
940	 8.31092431645949E-02 
941	 8.30978998794761E-02 
942	 8.30993066002529E-02 
943	 8.32183987187997E-02 
944	 8.31061802324318E-02 
945	 8.30512965758908E-02 
946	 8.30897198921349E-02 
947	 8.31241999028921E-02 
948	 8.30648988576347E-02 
949	 8.31260037463116E-02 
950	 8.31578650165195E-02 
951	 8.29599978746472E-02 
952	 8.30717770842065E-02 
953	 8.30999616475839E-02 
954	 8.30306695870844E-02 
955	 8.30554573783487E-02 
956	 8.30701888070871E-02 
957	 8.31421528877288E-02 
958	 8.31467877497243E-02 
959	 8.29473949455362E-02 
960	 8.30097843682115E-02 
961	 8.31151178022661E-02 
962	 8.31459790910529E-02 
963	 8.30998570465068E-02 
964	 8.30098029319849E-02 
965	 0.083067485226166 
966	 8.31849388138039E-02 
967	 8.31277425430867E-02 
968	 8.30205799901016E-02 
969	 8.30508775172226E-02 
970	 8.31292800284354E-02 
971	 8.30435308459228E-02 
972	 8.30761820837265E-02 
973	 8.30774736534071E-02 
974	 8.30298603205301E-02 
975	 8.30312960018766E-02 
976	 8.31879759136895E-02 
977	 8.31407056464826E-02 
978	 8.29626332971522E-02 
979	 0.082973441844288 
980	 0.083033891272246 
981	 8.30298577154258E-02 
982	 8.29918289804087E-02 
983	 8.30065296661692E-02 
984	 0.082924683599847 
985	 8.29019510104057E-02 
986	 8.29088943230595E-02 
987	 8.28543113366653E-02 
988	 0.082958241698538 
989	 8.29651659923916E-02 
990	 8.29013881047396E-02 
991	 8.29313141876302E-02 
992	 8.30646818481544E-02 
993	 0.083098596187602 
994	 8.30660922305317E-02 
995	 8.30658774230505E-02 
996	 8.29443173100901E-02 
997	 0.082913077137863 
998	 8.28936080658665E-02 
999	 8.28177574517089E-02 
1000	 8.31146116935703E-02 
1001	 8.16350997026191E-02 
1002	 8.16352749635174E-02 
1003	 8.16356553617668E-02 
1004	 8.16363528148605E-02 
1005	 8.16489611305161E-02 
1006	 8.16490624597465E-02 
1007	 8.16448908810216E-02 
1008	 8.16358661225988E-02 
1009	 0.08158950239155 
1010	 8.16120964309051E-02 
1011	 8.16550978020318E-02 
1012	 8.16572968048049E-02 
1013	 8.16735047558274E-02 
1014	 8.16770541921384E-02 
1015	 8.16354441014971E-02 
1016	 0.081611609934255 
1017	 8.15882600951464E-02 
1018	 8.15642051891707E-02 
1019	 8.15419232719318E-02 
1020	 8.15790910742217E-02 
1021	 8.15852940572657E-02 
1022	 8.15653177931751E-02 
1023	 8.15311340173761E-02 
1024	 0.081454453416308 
1025	 8.14404957781204E-02 
1026	 0.081462419310255 
1027	 8.14577866574736E-02 
1028	 8.14639482344799E-02 
1029	 8.14551600583015E-02 
1030	 0.081407014480237 
1031	 0.081374349561656 
1032	 8.13692325885673E-02 
1033	 8.13696827049761E-02 
1034	 8.12995075536224E-02 
1035	 8.12450927774634E-02 
1036	 8.12236113991685E-02 
1037	 8.12083744370048E-02 
1038	 0.081224469331692 
1039	 8.11863211734107E-02 
1040	 8.11428794226419E-02 
1041	 0.081127632248092 
1042	 8.10944739159184E-02 
1043	 0.081121856038012 
1044	 8.11152891086868E-02 
1045	 8.11241694611064E-02 
1046	 8.10472373046639E-02 
1047	 0.081017036136588 
1048	 8.10463452949559E-02 
1049	 8.10330055119572E-02 
1050	 8.10703954398556E-02 
1051	 0.081126786933008 
1052	 8.10781381391664E-02 
1053	 8.10750448205711E-02 
1054	 8.11077814414912E-02 
1055	 8.10765416261034E-02 
1056	 8.10780924887173E-02 
1057	 8.10933644324908E-02 
1058	 8.11144769917244E-02 
1059	 8.11350265807891E-02 
1060	 8.11800510723999E-02 
1061	 8.12245357037798E-02 
1062	 8.12135590872657E-02 
1063	 0.081198555118383 
1064	 8.12004088824805E-02 
1065	 8.11833450230506E-02 
1066	 8.11653005649232E-02 
1067	 8.11921812293424E-02 
1068	 8.12160715031716E-02 
1069	 0.081223815494995 
1070	 8.12532359686201E-02 
1071	 8.13278111923607E-02 
1072	 8.13622753959252E-02 
1073	 8.13916800863452E-02 
1074	 8.13810097457878E-02 
1075	 8.13354865362768E-02 
1076	 8.12960557405009E-02 
1077	 8.12178990272063E-02 
1078	 8.12248869781201E-02 
1079	 8.12914439599024E-02 
1080	 8.13003966251271E-02 
1081	 8.13051709837702E-02 
1082	 8.13037826692968E-02 
1083	 8.12874166331937E-02 
1084	 8.12272232204379E-02 
1085	 8.12080843914777E-02 
1086	 8.12062772647164E-02 
1087	 8.11979126325579E-02 
1088	 8.12025866449339E-02 
1089	 8.11845084669174E-02 
1090	 8.11556333167408E-02 
1091	 8.11454064904096E-02 
1092	 8.11513014833204E-02 
1093	 8.11342503441333E-02 
1094	 8.11454736827936E-02 
1095	 8.11845541984014E-02 
1096	 0.081200972933021 
1097	 8.12103000808191E-02 
1098	 8.11988050761897E-02 
1099	 8.11499707262427E-02 
1100	 0.081145743702206 
1101	 8.11501092999436E-02 
1102	 8.11439070967763E-02 
1103	 0.081166171175125 
1104	 8.11628434768561E-02 
1105	 8.11374572156925E-02 
1106	 8.11311051088606E-02 
1107	 8.11256272998154E-02 
1108	 8.11067157616153E-02 
1109	 0.081118805917909 
1110	 8.11733098392899E-02 
1111	 0.08118989327486 
1112	 8.12291614607008E-02 
1113	 8.12439778221224E-02 
1114	 8.12117731976967E-02 
1115	 0.081193228668659 
1116	 8.11830866711716E-02 
1117	 8.11781494811188E-02 
1118	 8.11563648855553E-02 
1119	 8.11664143534351E-02 
1120	 0.081192480253302 
1121	 8.12008972347192E-02 
1122	 8.12113046505668E-02 
1123	 0.081227803386927 
1124	 8.12417995353848E-02 
1125	 8.12507996507267E-02 
1126	 8.12667486437686E-02 
1127	 8.12915145350938E-02 
1128	 8.13089514344054E-02 
1129	 8.13251958726823E-02 
1130	 8.13452671392532E-02 
1131	 8.13632734812069E-02 
1132	 8.13762822226482E-02 
1133	 8.14046236209208E-02 
1134	 8.14076166425095E-02 
1135	 8.13884210570001E-02 
1136	 8.13720709223925E-02 
1137	 8.13688821744602E-02 
1138	 8.13653711348161E-02 
1139	 8.13619991444936E-02 
1140	 8.13773190420671E-02 
1141	 8.13783041379175E-02 
1142	 8.13622070380293E-02 
1143	 8.13584866678983E-02 
1144	 8.13513172858849E-02 
1145	 8.13663118835807E-02 
1146	 8.14100540351739E-02 
1147	 8.14192457754832E-02 
1148	 8.14224553327376E-02 
1149	 8.14323112419365E-02 
1150	 8.14200014378669E-02 
1151	 8.14184490842889E-02 
1152	 8.14329190891056E-02 
1153	 8.14328133883195E-02 
1154	 0.08144069206935 
1155	 8.14404364177193E-02 
1156	 8.14484299159541E-02 
1157	 8.14737109210876E-02 
1158	 8.14792281846721E-02 
1159	 8.14793223066072E-02 
1160	 8.14690219619554E-02 
1161	 8.14387071874149E-02 
1162	 8.14258708195582E-02 
1163	 8.13963283106615E-02 
1164	 8.13952272969614E-02 
1165	 8.14159460965025E-02 
1166	 8.14531644682541E-02 
1167	 8.14600767019571E-02 
1168	 8.14791393768523E-02 
1169	 8.14827342725402E-02 
1170	 8.14598933509172E-02 
1171	 8.14541648420928E-02 
1172	 0.081451562549237 
1173	 8.14584510640443E-02 
1174	 8.14732412252109E-02 
1175	 8.14825285109508E-02 
1176	 0.081491143808715 
1177	 8.15109432426537E-02 
1178	 8.15453228403774E-02 
1179	 8.15564058097473E-02 
1180	 8.15608940071408E-02 
1181	 8.15741635192202E-02 
1182	 0.081577240013167 
1183	 8.15718034646756E-02 
1184	 8.15810837414091E-02 
1185	 8.16150221455516E-02 
1186	 8.16231237173813E-02 
1187	 8.16141151114378E-02 
1188	 8.16206554829502E-02 
1189	 8.16174479085443E-02 
1190	 8.16396331260967E-02 
1191	 8.16940607434377E-02 
1192	 0.081719002267877 
1193	 8.17436783587037E-02 
1194	 8.17654120591287E-02 
1195	 8.17624691406973E-02 
1196	 8.17740070403788E-02 
1197	 8.18049107211952E-02 
1198	 8.18231036986594E-02 
1199	 8.18373287285893E-02 
1200	 8.18442372380524E-02 
1201	 8.18624823507378E-02 
1202	 8.18808280909445E-02 
1203	 8.18981836390456E-02 
1204	 0.08191739876285 
1205	 8.19454462989705E-02 
1206	 8.19819196042895E-02 
1207	 8.20029982301435E-02 
1208	 8.20204362888821E-02 
1209	 8.20472249015697E-02 
1210	 8.20720103052176E-02 
1211	 8.20887283651806E-02 
1212	 0.082107615433607 
1213	 8.21327836326822E-02 
1214	 8.21561093177851E-02 
1215	 0.082169381923164 
1216	 8.21817074822348E-02 
1217	 0.082200729185994 
1218	 8.22228791149017E-02 
1219	 0.082235537765057 
1220	 8.22518150845998E-02 
1221	 8.22851931117691E-02 
1222	 8.23043593227127E-02 
1223	 8.23020282114116E-02 
1224	 8.23187772828904E-02 
1225	 8.23515126701168E-02 
1226	 8.23714048000102E-02 
1227	 8.23849429062476E-02 
1228	 8.24068169367153E-02 
1229	 8.24265231338243E-02 
1230	 8.24486615138634E-02 
1231	 8.24894095043522E-02 
1232	 8.25146619047632E-02 
1233	 8.25326814112852E-02 
1234	 8.25382324538934E-02 
1235	 8.25559514671784E-02 
1236	 8.25713906442466E-02 
1237	 8.25861923171519E-02 
1238	 8.26042305534482E-02 
1239	 8.26260892438348E-02 
1240	 8.26488176176172E-02 
1241	 8.26654026965751E-02 
1242	 8.26904535527021E-02 
1243	 8.27050412521214E-02 
1244	 8.27032131964456E-02 
1245	 8.27082989151159E-02 
1246	 8.27180620581016E-02 
1247	 0.082721463182964 
1248	 8.27123718454081E-02 
1249	 8.27168725823204E-02 
1250	 8.27278568262941E-02 
1251	 8.27438977644733E-02 
1252	 8.27570407938607E-02 
1253	 8.27784864607508E-02 
1254	 8.27980924723595E-02 
1255	 8.28180382957576E-02 
1256	 8.28290192719607E-02 
1257	 8.28412078637848E-02 
1258	 8.28507084695846E-02 
1259	 8.28482330616431E-02 
1260	 8.28477859385368E-02 
1261	 8.28532113727959E-02 
1262	 8.28553543990768E-02 
1263	 8.28486593641753E-02 
1264	 8.28462768123916E-02 
1265	 8.28335854653081E-02 
1266	 8.28406239597234E-02 
1267	 8.28610710850096E-02 
1268	 8.28840602274859E-02 
1269	 8.29060903527866E-02 
1270	 8.29479112105738E-02 
1271	 8.29672192034225E-02 
1272	 8.29715485124925E-02 
1273	 0.082982073891933 
1274	 8.29787190719444E-02 
1275	 8.30009332988925E-02 
1276	 8.30378931517726E-02 
1277	 0.08306870381164 
1278	 8.31120241275041E-02 
1279	 8.31537711167892E-02 
1280	 8.31874619744473E-02 
1281	 8.32266416128587E-02 
1282	 0.083269456385095 
1283	 0.083320764638894 
1284	 0.083376849908574 
1285	 8.34356996350498E-02 
1286	 8.35002397709858E-02 
1287	 8.35704018591436E-02 
1288	 8.36173107838989E-02 
1289	 8.36464518596283E-02 
1290	 8.36892724274617E-02 
1291	 8.37184954879815E-02 
1292	 8.37684207421055E-02 
1293	 0.083847125305062 
1294	 8.38903686354517E-02 
1295	 8.39189372190731E-02 
1296	 8.39589556724753E-02 
1297	 8.39846035958905E-02 
1298	 8.40184521556892E-02 
1299	 8.40730467123144E-02 
1300	 8.41102061617534E-02 
1301	 8.41359588112455E-02 
1302	 0.084159969132261 
1303	 8.41737841814944E-02 
1304	 8.41973807201343E-02 
1305	 0.084217961095328 
1306	 8.42261243423569E-02 
1307	 8.42396013732496E-02 
1308	 8.42594835774929E-02 
1309	 8.42600032301456E-02 
1310	 8.42453467358038E-02 
1311	 8.42467046023732E-02 
1312	 0.08423000104701 
1313	 8.42459145361077E-02 
1314	 8.42974345152745E-02 
1315	 8.43183638186647E-02 
1316	 8.43433436412663E-02 
1317	 8.43615871210603E-02 
1318	 8.43663455557931E-02 
1319	 8.43687365880234E-02 
1320	 8.43741853441504E-02 
1321	 8.43702783664065E-02 
1322	 8.43504664397379E-02 
1323	 8.43274520544149E-02 
1324	 8.43305224086764E-02 
1325	 8.43413803159463E-02 
1326	 8.43380683697846E-02 
1327	 8.43459493490605E-02 
1328	 8.43705624781297E-02 
1329	 8.43723031909785E-02 
1330	 8.43846065628321E-02 
1331	 8.44172696675482E-02 
1332	 8.44334614803882E-02 
1333	 0.084428540764601 
1334	 0.084447015473273 
1335	 8.44836371393918E-02 
1336	 8.45013337867237E-02 
1337	 8.45211474368473E-02 
1338	 8.45296967704273E-02 
1339	 8.45100702584641E-02 
1340	 8.45191433377224E-02 
1341	 8.45371041801936E-02 
1342	 8.45594619982343E-02 
1343	 8.46102770812308E-02 
1344	 8.46369734550712E-02 
1345	 8.46328078676191E-02 
1346	 8.46538966126279E-02 
1347	 8.46647514146001E-02 
1348	 0.084681325411553 
1349	 0.084730403325616 
1350	 8.47817579382395E-02 
1351	 8.48117350835712E-02 
1352	 8.48288833475855E-02 
1353	 8.48594876239332E-02 
1354	 8.48793676484394E-02 
1355	 8.49078209765105E-02 
1356	 8.49588230877875E-02 
1357	 8.49877777852506E-02 
1358	 8.49992794754408E-02 
1359	 8.50252552126081E-02 
1360	 0.085053372895255 
1361	 8.50788896521484E-02 
1362	 8.51120808525585E-02 
1363	 8.51358712325805E-02 
1364	 8.51493857835227E-02 
1365	 8.51670160037669E-02 
1366	 8.51844306992557E-02 
1367	 8.52031451240874E-02 
1368	 8.52215598158296E-02 
1369	 8.52255127016663E-02 
1370	 8.52275066815797E-02 
1371	 0.085228295446785 
1372	 8.52205970368821E-02 
1373	 0.085224341006864 
1374	 8.52259641157151E-02 
1375	 8.52286488594194E-02 
1376	 8.52271559643513E-02 
1377	 8.52253664721626E-02 
1378	 0.085225302583088 
1379	 8.52209938258796E-02 
1380	 8.52211907116922E-02 
1381	 8.52304656400495E-02 
1382	 0.085228670880921 
1383	 8.52189348364758E-02 
1384	 8.52182193447729E-02 
1385	 0.085227222988015 
1386	 8.52172490076422E-02 
1387	 0.085207875103354 
1388	 0.085186239316245 
1389	 8.51446000077453E-02 
1390	 8.50971540148276E-02 
1391	 8.50664762032726E-02 
1392	 8.50297137779838E-02 
1393	 8.49870209035369E-02 
1394	 8.49505090731563E-02 
1395	 8.49144475368262E-02 
1396	 8.48748273514684E-02 
1397	 8.48236236974355E-02 
1398	 8.47680082994002E-02 
1399	 8.47116707811877E-02 
1400	 8.46424142510158E-02 
1401	 8.45806576580731E-02 
1402	 8.45225889517684E-02 
1403	 0.084471168917287 
1404	 8.44215332528528E-02 
1405	 8.43661780909605E-02 
1406	 8.43150044134666E-02 
1407	 0.084262968470311 
1408	 8.42057310644431E-02 
1409	 8.41534478639023E-02 
1410	 8.40970994471375E-02 
1411	 8.40571093766294E-02 
1412	 8.40242789690708E-02 
1413	 8.39950556801778E-02 
1414	 8.39755457547834E-02 
1415	 8.39584706428679E-02 
1416	 0.08393747701034 
1417	 8.39061987803853E-02 
1418	 8.38880008250366E-02 
1419	 8.38860625655796E-02 
1420	 0.083890334071008 
1421	 8.38999489814111E-02 
1422	 8.39013114596236E-02 
1423	 8.38980312190657E-02 
1424	 8.39071633495237E-02 
1425	 8.39227874213365E-02 
1426	 8.39312417594485E-02 
1427	 8.39425621494597E-02 
1428	 8.39614961623237E-02 
1429	 8.39781581380216E-02 
1430	 8.39900912699121E-02 
1431	 8.40117153178395E-02 
1432	 0.084025476442896 
1433	 8.40233350647185E-02 
1434	 8.40348114442992E-02 
1435	 8.40572039708464E-02 
1436	 8.40756495222035E-02 
1437	 8.40873114251458E-02 
1438	 8.41110136133752E-02 
1439	 0.084141800721979 
1440	 8.41709008858076E-02 
1441	 8.42114279295744E-02 
1442	 8.42559379494234E-02 
1443	 8.42878751198465E-02 
1444	 8.43179857613359E-02 
1445	 8.43355141455044E-02 
1446	 8.43459104715573E-02 
1447	 8.43670928638765E-02 
1448	 8.43972235351711E-02 
1449	 8.44392936227263E-02 
1450	 8.44808067578244E-02 
1451	 8.45141075244596E-02 
1452	 8.45431678887427E-02 
1453	 8.45667622813666E-02 
1454	 8.45799314266723E-02 
1455	 8.46090282139708E-02 
1456	 8.46424519092644E-02 
1457	 8.46747181407755E-02 
1458	 8.47199546998147E-02 
1459	 8.47469943778969E-02 
1460	 8.47566225201266E-02 
1461	 8.47816172019879E-02 
1462	 8.48094645440596E-02 
1463	 8.48350924820479E-02 
1464	 8.48618047177499E-02 
1465	 8.48964209927913E-02 
1466	 8.49346318565168E-02 
1467	 8.49668574470112E-02 
1468	 8.50083356359423E-02 
1469	 8.50437155263021E-02 
1470	 8.50701607754513E-02 
1471	 8.50939478844111E-02 
1472	 8.51204133504253E-02 
1473	 8.51554218404267E-02 
1474	 8.51887571036157E-02 
1475	 0.085222153517257 
1476	 8.52567101662233E-02 
1477	 8.52866041688874E-02 
1478	 8.53119255227626E-02 
1479	 8.53391339825439E-02 
1480	 0.085386007887403 
1481	 0.085434837911682 
1482	 8.54765315940668E-02 
1483	 8.55262418899877E-02 
1484	 8.55641781775019E-02 
1485	 8.55819151241542E-02 
1486	 8.56212521862314E-02 
1487	 8.56762581815952E-02 
1488	 8.57128865864727E-02 
1489	 0.085748153184042 
1490	 8.57843804915898E-02 
1491	 8.58045081444712E-02 
1492	 8.58368550052721E-02 
1493	 0.085887050375145 
1494	 8.59214382500574E-02 
1495	 8.59443144472485E-02 
1496	 8.59768019549096E-02 
1497	 8.60091782979761E-02 
1498	 8.60407712226166E-02 
1499	 8.60750942800349E-02 
1500	 0.086113716160987 
1501	 8.61556000947125E-02 
1502	 8.61931997687269E-02 
1503	 8.62360608008756E-02 
1504	 8.62717110371172E-02 
1505	 8.63079328210605E-02 
1506	 8.63294773574708E-02 
1507	 8.63573577736734E-02 
1508	 8.64027827936764E-02 
1509	 8.64245309662053E-02 
1510	 8.64380511394537E-02 
1511	 8.64489228217328E-02 
1512	 8.64584749497376E-02 
1513	 8.64968517411596E-02 
1514	 8.65461918627998E-02 
1515	 8.65949133308715E-02 
1516	 8.66316276989136E-02 
1517	 8.66567325438948E-02 
1518	 8.66573802161835E-02 
1519	 8.66828728758537E-02 
1520	 8.67128814492655E-02 
1521	 8.67418084400797E-02 
1522	 8.67782710194356E-02 
1523	 8.68097358962274E-02 
1524	 0.086840695586253 
1525	 8.68665698062478E-02 
1526	 8.68927228795713E-02 
1527	 0.086917977503103 
1528	 0.086934849145623 
1529	 8.69537187598378E-02 
1530	 8.69740731190567E-02 
1531	 0.08699470049487 
1532	 8.70127125404689E-02 
1533	 8.70338135087279E-02 
1534	 8.70624157055779E-02 
1535	 8.70824562253171E-02 
1536	 8.70921751341902E-02 
1537	 8.71139864380906E-02 
1538	 8.71404098984318E-02 
1539	 8.71643629597646E-02 
1540	 8.71979615823545E-02 
1541	 8.72247608067617E-02 
1542	 0.087237020879334 
1543	 8.72622538540778E-02 
1544	 8.72922667399705E-02 
1545	 0.087323555790135 
1546	 0.087371582848509 
1547	 8.74059800372458E-02 
1548	 8.74121973784178E-02 
1549	 8.74248998871741E-02 
1550	 0.087419123943456 
1551	 8.74050359199364E-02 
1552	 8.74140668809396E-02 
1553	 8.74396205404435E-02 
1554	 8.74520101935351E-02 
1555	 8.74661357660008E-02 
1556	 8.74781635315176E-02 
1557	 8.74809699564579E-02 
1558	 8.75029726507303E-02 
1559	 8.75338930731714E-02 
1560	 8.75613617321512E-02 
1561	 8.75991871080195E-02 
1562	 8.76166638733192E-02 
1563	 8.76255167922711E-02 
1564	 8.76359362524992E-02 
1565	 8.76352988566516E-02 
1566	 8.76399054476617E-02 
1567	 0.08764456730764 
1568	 8.76545379064711E-02 
1569	 8.76671688273723E-02 
1570	 8.76771300591828E-02 
1571	 8.76893581367839E-02 
1572	 8.77057539754573E-02 
1573	 8.77225088359916E-02 
1574	 8.77367667475179E-02 
1575	 8.77630955603722E-02 
1576	 8.77674811324756E-02 
1577	 8.77431685699428E-02 
1578	 8.77511586689686E-02 
1579	 8.77655561490288E-02 
1580	 8.77822127385979E-02 
1581	 8.78260456290158E-02 
1582	 8.78477088237008E-02 
1583	 8.78574718725148E-02 
1584	 8.78667520142034E-02 
1585	 8.78643953412015E-02 
1586	 0.087871627684451 
1587	 8.78793251638739E-02 
1588	 8.78875803329886E-02 
1589	 8.79022764554182E-02 
1590	 8.79178174221591E-02 
1591	 8.79337411243178E-02 
1592	 8.79463325940352E-02 
1593	 8.79598902464395E-02 
1594	 8.79741908272211E-02 
1595	 8.79778394269595E-02 
1596	 8.79951156900429E-02 
1597	 8.80422491436816E-02 
1598	 8.80554814895929E-02 
1599	 8.80437480682004E-02 
1600	 8.80514434531428E-02 
1601	 8.80478216200549E-02 
1602	 8.80460064035565E-02 
1603	 8.80719070557103E-02 
1604	 8.80803350207236E-02 
1605	 8.80591836180879E-02 
1606	 8.80579609393318E-02 
1607	 8.80681856493662E-02 
1608	 8.80713552954799E-02 
1609	 8.80820032057573E-02 
1610	 8.80998565933506E-02 
1611	 8.81125467204671E-02 
1612	 8.81217619049356E-02 
1613	 8.81363132345024E-02 
1614	 8.81561024866262E-02 
1615	 8.81657536549845E-02 
1616	 8.81772742398908E-02 
1617	 0.088192349506262 
1618	 8.81827040759902E-02 
1619	 0.088181638873041 
1620	 8.81888816517402E-02 
1621	 8.81980143918083E-02 
1622	 8.82147902687119E-02 
1623	 8.82208155315118E-02 
1624	 8.82252442581543E-02 
1625	 8.82310064636686E-02 
1626	 8.82297151545429E-02 
1627	 8.82343666924732E-02 
1628	 8.82439815170966E-02 
1629	 8.82527996578477E-02 
1630	 8.82588124806901E-02 
1631	 8.82706424250228E-02 
1632	 8.82884863421228E-02 
1633	 8.83058136236762E-02 
1634	 8.83292813474643E-02 
1635	 8.83383389256822E-02 
1636	 8.83419820614744E-02 
1637	 8.83484174256152E-02 
1638	 8.83456893587606E-02 
1639	 0.088348633366251 
1640	 8.83575366516778E-02 
1641	 8.83626059538719E-02 
1642	 8.83615859465745E-02 
1643	 8.83703424345891E-02 
1644	 8.83874154531929E-02 
1645	 8.83958721271173E-02 
1646	 8.84058870660599E-02 
1647	 8.84111107130619E-02 
1648	 8.84125907730558E-02 
1649	 8.84096230652548E-02 
1650	 8.83955851518214E-02 
1651	 0.088398875432879 
1652	 8.84075188567013E-02 
1653	 0.088411485610746 
1654	 8.84289820744551E-02 
1655	 8.84329942763569E-02 
1656	 8.84186887507086E-02 
1657	 8.84205632255657E-02 
1658	 8.84281348590185E-02 
1659	 8.84365612137982E-02 
1660	 0.088452269669154 
1661	 8.84627464868209E-02 
1662	 8.84682375296312E-02 
1663	 0.088483489334871 
1664	 8.85088497025701E-02 
1665	 8.85187231349239E-02 
1666	 8.85288670783091E-02 
1667	 8.85333196113083E-02 
1668	 0.088515410755081 
1669	 8.85208341806878E-02 
1670	 8.85466500572164E-02 
1671	 8.85506994948741E-02 
1672	 8.85483223537026E-02 
1673	 8.85538741149517E-02 
1674	 8.85487659260805E-02 
1675	 0.088552993589315 
1676	 8.85793557209238E-02 
1677	 8.85822424801134E-02 
1678	 8.85707961863351E-02 
1679	 8.85637231032115E-02 
1680	 8.85420266103663E-02 
1681	 8.85409910137728E-02 
1682	 8.85541799138332E-02 
1683	 8.85580229776949E-02 
1684	 8.85696970664996E-02 
1685	 8.85752785736587E-02 
1686	 8.85707981573559E-02 
1687	 8.85717749012248E-02 
1688	 8.85743932776428E-02 
1689	 8.85801068064744E-02 
1690	 8.85862950959353E-02 
1691	 8.85956742320655E-02 
1692	 8.86190215401995E-02 
1693	 8.86210210727278E-02 
1694	 8.86016115099767E-02 
1695	 8.86090935481272E-02 
1696	 0.088618060105976 
1697	 8.86306048023537E-02 
1698	 8.86813663188135E-02 
1699	 8.86815713420057E-02 
1700	 8.86393687688002E-02 
1701	 8.86346576657083E-02 
1702	 8.86166340063716E-02 
1703	 8.86225947896706E-02 
1704	 8.86735961984203E-02 
1705	 8.86849258287758E-02 
1706	 0.088687738093302 
1707	 8.86822842918301E-02 
1708	 8.86522510101068E-02 
1709	 8.86425193217288E-02 
1710	 8.86308661145049E-02 
1711	 8.86299794738352E-02 
1712	 8.86418629646527E-02 
1713	 8.86536504593465E-02 
1714	 0.088675405434091 
1715	 8.86868118267003E-02 
1716	 8.87005605222075E-02 
1717	 0.088706509533688 
1718	 8.86986268734093E-02 
1719	 8.86986843564189E-02 
1720	 8.86953996271908E-02 
1721	 0.088700373858164 
1722	 8.87211048291573E-02 
1723	 8.87239741928273E-02 
1724	 8.87162883368957E-02 
1725	 8.87253455209353E-02 
1726	 8.87411196713881E-02 
1727	 8.87245342119195E-02 
1728	 8.87001189765362E-02 
1729	 8.86893898669782E-02 
1730	 8.86543311208484E-02 
1731	 8.86429195610885E-02 
1732	 8.86757608384142E-02 
1733	 8.86616064674959E-02 
1734	 8.86141801947544E-02 
1735	 8.85905880964716E-02 
1736	 8.85566491348637E-02 
1737	 8.85434904762324E-02 
1738	 8.85575901060119E-02 
1739	 8.85463974102871E-02 
1740	 8.85268367014779E-02 
1741	 0.088518194266088 
1742	 8.85023215481179E-02 
1743	 8.84922954374636E-02 
1744	 8.84998083919371E-02 
1745	 0.08848630184989 
1746	 8.84564143382032E-02 
1747	 0.088450256432855 
1748	 8.84592381940893E-02 
1749	 8.84937063837842E-02 
1750	 8.84853370602266E-02 
1751	 8.84766596612593E-02 
1752	 8.84669099662179E-02 
1753	 8.84436887133375E-02 
1754	 8.84497246806136E-02 
1755	 8.84414396382268E-02 
1756	 8.84209762037608E-02 
1757	 8.84084827522741E-02 
1758	 8.83842594467064E-02 
1759	 8.83712945068122E-02 
1760	 8.83739493299972E-02 
1761	 8.83852152610072E-02 
1762	 8.83828771695802E-02 
1763	 8.83821798508232E-02 
1764	 8.83841275730976E-02 
1765	 8.83539523326159E-02 
1766	 8.83521166581891E-02 
1767	 8.83517275278974E-02 
1768	 8.83070496691291E-02 
1769	 8.82916560076262E-02 
1770	 8.82912105085879E-02 
1771	 8.82695604268885E-02 
1772	 8.82747069923105E-02 
1773	 8.82700832863133E-02 
1774	 0.088218692698049 
1775	 8.81888572494901E-02 
1776	 8.81668356222624E-02 
1777	 8.81372636397638E-02 
1778	 8.81511116470958E-02 
1779	 8.81692040598754E-02 
1780	 8.81789027729999E-02 
1781	 8.82072384585478E-02 
1782	 8.81936215744403E-02 
1783	 8.81803561477662E-02 
1784	 8.81600811740624E-02 
1785	 8.81154236332021E-02 
1786	 8.80974952887099E-02 
1787	 8.80824494533833E-02 
1788	 8.80666766921563E-02 
1789	 8.80628586892319E-02 
1790	 8.80677679428435E-02 
1791	 8.80704992064145E-02 
1792	 8.80852438180451E-02 
1793	 8.81245726444094E-02 
1794	 8.81439361133999E-02 
1795	 8.81566222077157E-02 
1796	 8.81678252186492E-02 
1797	 8.81796135057099E-02 
1798	 8.81833087598929E-02 
1799	 8.81741206519834E-02 
1800	 8.81857902493658E-02 
1801	 8.43377070189296E-02 
1802	 8.43773888862635E-02 
1803	 8.43915833980029E-02 
1804	 0.084404815999897 
1805	 8.44426515356107E-02 
1806	 8.44841151850203E-02 
1807	 8.45320722616456E-02 
1808	 0.084555589079246 
1809	 8.45391483539733E-02 
1810	 8.45574423429145E-02 
1811	 8.45841736772144E-02 
1812	 8.46076606453562E-02 
1813	 8.46322303572864E-02 
1814	 8.46842351558993E-02 
1815	 8.47471587429965E-02 
1816	 8.47782155017692E-02 
1817	 8.48029989906397E-02 
1818	 8.48384659779376E-02 
1819	 8.48583010424494E-02 
1820	 8.48409730728374E-02 
1821	 8.48519239498925E-02 
1822	 8.49221214070242E-02 
1823	 8.49147725073977E-02 
1824	 8.48775515101204E-02 
1825	 8.48746163212759E-02 
1826	 8.48342263550704E-02 
1827	 8.48220482769832E-02 
1828	 8.48285148433609E-02 
1829	 8.48794498825091E-02 
1830	 8.49089897122081E-02 
1831	 8.49397535349648E-02 
1832	 8.49626121537338E-02 
1833	 8.50074264053182E-02 
1834	 8.50271201833911E-02 
1835	 8.50083064883103E-02 
1836	 8.50000533910209E-02 
1837	 8.50041712828695E-02 
1838	 8.50121709843732E-02 
1839	 0.085023921546055 
1840	 8.50483436909521E-02 
1841	 8.50920738256808E-02 
1842	 8.51217885046803E-02 
1843	 8.51148659159829E-02 
1844	 8.51199406696399E-02 
1845	 8.51072709746341E-02 
1846	 8.50471694367952E-02 
1847	 8.50210657059762E-02 
1848	 8.50163636189488E-02 
1849	 8.50232821723776E-02 
1850	 8.50336102962818E-02 
1851	 8.50751381161694E-02 
1852	 8.50879658341978E-02 
1853	 0.085104709953462 
1854	 8.51026974102697E-02 
1855	 8.50736882399804E-02 
1856	 8.50712987765068E-02 
1857	 8.50578100332864E-02 
1858	 8.50381430942167E-02 
1859	 8.50238718715118E-02 
1860	 8.49994406424823E-02 
1861	 8.49684253654934E-02 
1862	 8.49336986358203E-02 
1863	 8.48929567683941E-02 
1864	 8.48428654087024E-02 
1865	 8.47964694566222E-02 
1866	 8.47455611531968E-02 
1867	 8.46947482853226E-02 
1868	 8.46611923625071E-02 
1869	 8.46287483730402E-02 
1870	 8.45852471205279E-02 
1871	 8.45336178558301E-02 
1872	 0.084477250878352 
1873	 8.44108978272423E-02 
1874	 8.43142640457808E-02 
1875	 8.41980001578361E-02 
1876	 8.40622519170621E-02 
1877	 8.38930317252587E-02 
1878	 8.37327514677638E-02 
1879	 8.35897852360642E-02 
1880	 8.34312915814441E-02 
1881	 8.32759424992275E-02 
1882	 8.30996600115148E-02 
1883	 0.082916650040922 
1884	 8.26980009719935E-02 
1885	 0.082472713189631 
1886	 8.22556432138761E-02 
1887	 8.20107367251252E-02 
1888	 8.17750974310222E-02 
1889	 8.15684949820698E-02 
1890	 0.081338587869029 
1891	 8.10879258754463E-02 
1892	 8.08318833265214E-02 
1893	 8.05656486848614E-02 
1894	 8.02667057709177E-02 
1895	 7.99748076127362E-02 
1896	 7.96885169956013E-02 
1897	 7.94073482967409E-02 
1898	 0.079117639913401 
1899	 7.88232359447018E-02 
1900	 7.85441464061664E-02 
1901	 7.82734053817136E-02 
1902	 7.80278861192561E-02 
1903	 7.78182457436378E-02 
1904	 7.75913417602203E-02 
1905	 7.73684475076397E-02 
1906	 7.71631716906031E-02 
1907	 7.69540769747162E-02 
1908	 7.67431569505856E-02 
1909	 7.65574228624131E-02 
1910	 7.63835500848748E-02 
1911	 7.62199743773132E-02 
1912	 7.60790184509202E-02 
1913	 7.59431909424265E-02 
1914	 7.58243074714299E-02 
1915	 7.57114575462602E-02 
1916	 0.075611197898223 
1917	 7.54998426683103E-02 
1918	 7.54102770256727E-02 
1919	 0.075343579480092 
1920	 7.52855893537803E-02 
1921	 7.52348144199257E-02 
1922	 7.51719347818637E-02 
1923	 7.51089485418175E-02 
1924	 7.50621376936334E-02 
1925	 7.50197095115712E-02 
1926	 7.49801483244845E-02 
1927	 7.49471904042781E-02 
1928	 7.49349598661812E-02 
1929	 7.49208004892254E-02 
1930	 7.49141632450585E-02 
1931	 7.49360792411455E-02 
1932	 7.49499286615228E-02 
1933	 7.49631981577029E-02 
1934	 7.49755846950742E-02 
1935	 7.49853967463402E-02 
1936	 7.49857994418255E-02 
1937	 7.50117341474032E-02 
1938	 7.50443444169431E-02 
1939	 7.50783823823571E-02 
1940	 7.51402972146167E-02 
1941	 7.51783041409669E-02 
1942	 7.51929663593906E-02 
1943	 7.52442837867487E-02 
1944	 7.52876439260121E-02 
1945	 7.53135330307056E-02 
1946	 7.53598112610844E-02 
1947	 7.54138773936561E-02 
1948	 7.54682657794844E-02 
1949	 7.55361588566654E-02 
1950	 7.56019459993872E-02 
1951	 7.56678134194274E-02 
1952	 7.57353988450612E-02 
1953	 7.58070247755979E-02 
1954	 7.58769250080261E-02 
1955	 7.59528057763449E-02 
1956	 7.60234738599115E-02 
1957	 7.61000112775351E-02 
1958	 0.076183436300052 
1959	 7.62604030492428E-02 
1960	 7.63254909405652E-02 
1961	 7.64098864760448E-02 
1962	 7.65064919187836E-02 
1963	 7.65943819698194E-02 
1964	 7.66828384841144E-02 
1965	 7.67912576539693E-02 
1966	 7.68856090461955E-02 
1967	 7.69682499263017E-02 
1968	 7.70620218921616E-02 
1969	 7.71677694320228E-02 
1970	 7.72639770957048E-02 
1971	 7.73540432275436E-02 
1972	 0.077447024377965 
1973	 7.75401959373459E-02 
1974	 7.76313202368441E-02 
1975	 7.77148973420059E-02 
1976	 7.78198735003895E-02 
1977	 7.79062631781051E-02 
1978	 7.79951634672746E-02 
1979	 7.80988908874369E-02 
1980	 7.81905934861263E-02 
1981	 7.82934165773899E-02 
1982	 7.84159303721877E-02 
1983	 0.078513682075018 
1984	 7.86018857051622E-02 
1985	 7.86938631019454E-02 
1986	 7.87707713135885E-02 
1987	 7.88580203258157E-02 
1988	 7.89566215053932E-02 
1989	 7.90438177142134E-02 
1990	 7.91369363621598E-02 
1991	 7.92368056177515E-02 
1992	 7.93347498332744E-02 
1993	 7.94372671313066E-02 
1994	 7.95353760414406E-02 
1995	 7.96322271141981E-02 
1996	 7.97259295647624E-02 
1997	 7.98218364021294E-02 
1998	 7.99114527536935E-02 
1999	 7.99798899237367E-02 
2000	 8.00750797910893E-02 
2001	 8.01890446616319E-02 
2002	 8.02891960083377E-02 
2003	 8.03950238744511E-02 
2004	 0.080508965141496 
2005	 8.06074753327026E-02 
2006	 8.06850914943207E-02 
2007	 8.07752395345755E-02 
2008	 0.080869494777788 
2009	 8.09584625696647E-02 
2010	 8.10360231502168E-02 
2011	 8.11284894831809E-02 
2012	 8.12379781324221E-02 
2013	 8.13330450324405E-02 
2014	 8.14293561209983E-02 
2015	 8.15265521541389E-02 
2016	 8.16037125095965E-02 
2017	 8.16598534317103E-02 
2018	 8.17314750616144E-02 
2019	 8.17934565498443E-02 
2020	 8.18763486055329E-02 
2021	 8.19748731857912E-02 
2022	 8.20695599243157E-02 
2023	 8.21825334717544E-02 
2024	 0.082277827886989 
2025	 8.23616877931121E-02 
2026	 0.08244847767514 
2027	 0.082524866680852 
2028	 8.26107054936325E-02 
2029	 8.26967633583284E-02 
2030	 8.27908020939215E-02 
2031	 0.082870776960849 
2032	 8.29536554691952E-02 
2033	 8.30177289574761E-02 
2034	 8.30541466251235E-02 
2035	 8.31163895338909E-02 
2036	 8.31805023502525E-02 
2037	 8.32442931108746E-02 
2038	 8.33237703294222E-02 
2039	 8.33952976800989E-02 
2040	 8.34614858129625E-02 
2041	 8.35219575640526E-02 
2042	 8.35861605063008E-02 
2043	 0.08365811531654 
2044	 8.37220315074119E-02 
2045	 8.37840863860194E-02 
2046	 8.38418541664436E-02 
2047	 0.083896848544606 
2048	 8.39487217300608E-02 
2049	 8.39936741835706E-02 
2050	 8.40419219467147E-02 
2051	 8.40861607608424E-02 
2052	 8.41353260074846E-02 
2053	 8.41785695874307E-02 
2054	 8.42358433607245E-02 
2055	 8.43154253374622E-02 
2056	 8.43782690355058E-02 
2057	 0.084440211231754 
2058	 8.45103410857175E-02 
2059	 8.45713628163418E-02 
2060	 0.084620204842617 
2061	 8.46706486253769E-02 
2062	 8.47166948655366E-02 
2063	 8.47696345977867E-02 
2064	 0.084807622849684 
2065	 8.48701670573598E-02 
2066	 8.49721183333695E-02 
2067	 8.50436603151983E-02 
2068	 8.51058502298533E-02 
2069	 8.51774581292678E-02 
2070	 8.52321753369443E-02 
2071	 8.52610233958543E-02 
2072	 8.53063044483915E-02 
2073	 8.53503305106154E-02 
2074	 8.54089286707057E-02 
2075	 8.54747293624862E-02 
2076	 8.55379130035322E-02 
2077	 0.085617989804204 
2078	 0.085683407136768 
2079	 8.57381426625348E-02 
2080	 8.57952437119874E-02 
2081	 0.085851441209519 
2082	 8.59040634758529E-02 
2083	 8.59512747553332E-02 
2084	 8.60013181115312E-02 
2085	 8.60493081533555E-02 
2086	 8.60895106021419E-02 
2087	 8.61464733537797E-02 
2088	 8.62177584635509E-02 
2089	 0.086271338209914 
2090	 0.086323416489959 
2091	 8.63788897383352E-02 
2092	 8.64348298450627E-02 
2093	 0.086474862532286 
2094	 8.65060520920522E-02 
2095	 8.65467891725063E-02 
2096	 8.65671494322888E-02 
2097	 0.086603537795312 
2098	 8.66513125199634E-02 
2099	 8.67193586573779E-02 
2100	 0.086780019680921 
2101	 8.68439853575232E-02 
2102	 8.69038346758726E-02 
2103	 8.69744122511361E-02 
2104	 8.70256688472811E-02 
2105	 8.70691123967046E-02 
2106	 8.71033438311499E-02 
2107	 8.71060799724261E-02 
2108	 8.71431258819231E-02 
2109	 8.71840024755511E-02 
2110	 8.72360488729619E-02 
2111	 8.73182484736741E-02 
2112	 8.73921877737481E-02 
2113	 0.087470892391296 
2114	 8.75448030067278E-02 
2115	 8.76094927457135E-02 
2116	 0.087676047019496 
2117	 8.77267719784202E-02 
2118	 8.77517181072106E-02 
2119	 8.78031597199572E-02 
2120	 8.78624471900219E-02 
2121	 8.79132849983487E-02 
2122	 8.79701756605923E-02 
2123	 8.80268265849131E-02 
2124	 8.80711002910819E-02 
2125	 8.81273428570722E-02 
2126	 8.82098572557834E-02 
2127	 8.82665627774046E-02 
2128	 8.83142523104508E-02 
2129	 8.83549082878184E-02 
2130	 8.83681675503472E-02 
2131	 8.83993543407704E-02 
2132	 8.84231766665814E-02 
2133	 8.84461227492571E-02 
2134	 8.84668585023842E-02 
2135	 8.84931669014953E-02 
2136	 8.85004018270326E-02 
2137	 8.84994027717104E-02 
2138	 8.84921941088468E-02 
2139	 8.84535997479259E-02 
2140	 0.088448940849681 
2141	 0.08846643071597 
2142	 8.84681866530433E-02 
2143	 8.84986244994046E-02 
2144	 8.84907378122515E-02 
2145	 8.84414504091279E-02 
2146	 8.84027643437025E-02 
2147	 8.83422614135491E-02 
2148	 8.82880638627025E-02 
2149	 8.82654079235027E-02 
2150	 8.82698497290201E-02 
2151	 8.82550693651075E-02 
2152	 8.82688126730563E-02 
2153	 8.82407393970925E-02 
2154	 8.81795125150878E-02 
2155	 8.81318572978038E-02 
2156	 8.80726627558601E-02 
2157	 8.80187912525282E-02 
2158	 0.087964096298881 
2159	 0.087915149667431 
2160	 8.78791575921757E-02 
2161	 8.78245172954917E-02 
2162	 8.77624443881571E-02 
2163	 8.77030200543665E-02 
2164	 8.76232553777313E-02 
2165	 8.75589001017222E-02 
2166	 8.74941920558102E-02 
2167	 8.74365119669696E-02 
2168	 8.73794283560069E-02 
2169	 8.73229766689866E-02 
2170	 8.72671325878632E-02 
2171	 8.72184780855922E-02 
2172	 8.71662211789908E-02 
2173	 8.71129749354371E-02 
2174	 8.70562600942199E-02 
2175	 8.69971185367851E-02 
2176	 8.69402197937586E-02 
2177	 8.68838208288573E-02 
2178	 8.68211463329478E-02 
2179	 8.67503202737844E-02 
2180	 8.66913860831377E-02 
2181	 8.66321817126075E-02 
2182	 8.65757492442341E-02 
2183	 0.086537455492675 
2184	 8.64924134215644E-02 
2185	 8.64321028902749E-02 
2186	 8.63475486744413E-02 
2187	 8.63019234248524E-02 
2188	 0.086265607121981 
2189	 8.62237291768054E-02 
2190	 8.62084872157064E-02 
2191	 8.61706360507238E-02 
2192	 8.61031418234024E-02 
2193	 0.086061558972932 
2194	 8.60234830075599E-02 
2195	 8.60014451113463E-02 
2196	 8.60114855993617E-02 
2197	 8.59933849673922E-02 
2198	 0.085966300659515 
2199	 8.59485641716282E-02 
2200	 8.59161836530283E-02 
2201	 8.58915729891238E-02 
2202	 8.58888454315934E-02 
2203	 8.58769131468415E-02 
2204	 8.58564966010904E-02 
2205	 8.58216720051498E-02 
2206	 8.58059436649212E-02 
2207	 8.57861700489082E-02 
2208	 8.57867308985452E-02 
2209	 8.58109732715631E-02 
2210	 8.58217317449818E-02 
2211	 0.085842735534438 
2212	 8.58468078575536E-02 
2213	 8.58267139504948E-02 
2214	 8.58320434012252E-02 
2215	 8.58637413012497E-02 
2216	 8.58600337567154E-02 
2217	 8.58418376192427E-02 
2218	 8.58369317819893E-02 
2219	 8.58064211146616E-02 
2220	 8.57902079044229E-02 
2221	 8.57917460480661E-02 
2222	 8.58030914536608E-02 
2223	 8.58116693051436E-02 
2224	 8.58306929002977E-02 
2225	 0.085852936499839 
2226	 8.58973011594359E-02 
2227	 8.59229358490948E-02 
2228	 8.59410868824845E-02 
2229	 8.59520733556971E-02 
2230	 8.59577459890968E-02 
2231	 8.59666944789209E-02 
2232	 8.59621697888926E-02 
2233	 8.59771714366918E-02 
2234	 8.60064594690799E-02 
2235	 8.60277699614868E-02 
2236	 0.086059875594336 
2237	 8.60784684828163E-02 
2238	 8.60880855456014E-02 
2239	 8.60972022759352E-02 
2240	 8.61123040991554E-02 
2241	 8.61044979933367E-02 
2242	 8.60596338739633E-02 
2243	 8.60495635078948E-02 
2244	 8.60301972160254E-02 
2245	 8.60334995308784E-02 
2246	 8.60811680163317E-02 
2247	 8.61381728160919E-02 
2248	 8.61664178541545E-02 
2249	 8.61875337850623E-02 
2250	 8.62071279787832E-02 
2251	 8.62055427918007E-02 
2252	 8.62278665311029E-02 
2253	 8.62636208514188E-02 
2254	 8.62929576947488E-02 
2255	 0.086326646211331 
2256	 8.63590748882059E-02 
2257	 8.64017034645866E-02 
2258	 8.64185506955287E-02 
2259	 0.086427731227931 
2260	 8.64271049617256E-02 
2261	 8.63866345883883E-02 
2262	 0.086383237652353 
2263	 8.63828402237577E-02 
2264	 8.64016764922562E-02 
2265	 8.64625518280521E-02 
2266	 8.64968230178611E-02 
2267	 8.65434801056982E-02 
2268	 8.65753883948653E-02 
2269	 8.66025705470299E-02 
2270	 8.65806604278929E-02 
2271	 8.66092500188576E-02 
2272	 8.65783070511881E-02 
2273	 8.65682891153473E-02 
2274	 0.086613969175653 
2275	 8.66367712219777E-02 
2276	 8.66704451361334E-02 
2277	 8.66917978057026E-02 
2278	 8.67075482932612E-02 
2279	 8.67309285247008E-02 
2280	 0.086748148615904 
2281	 8.67772333047816E-02 
2282	 8.68263951597824E-02 
2283	 8.68491771272766E-02 
2284	 8.68540989797146E-02 
2285	 8.68797874459456E-02 
2286	 8.69009560661663E-02 
2287	 8.69266851742586E-02 
2288	 0.086989706306084 
2289	 8.70184025575199E-02 
2290	 0.087022286881678 
2291	 8.70237139404864E-02 
2292	 8.69745330998134E-02 
2293	 8.69833111637008E-02 
2294	 8.70387673996027E-02 
2295	 8.70765418729232E-02 
2296	 8.71462390356721E-02 
2297	 8.72002002927344E-02 
2298	 8.72290398167849E-02 
2299	 8.72228843923534E-02 
2300	 8.72134246891129E-02 
2301	 8.72356263110852E-02 
2302	 8.72988001088517E-02 
2303	 8.73651320937799E-02 
2304	 8.73540201089609E-02 
2305	 8.73496302836632E-02 
2306	 8.73465923691505E-02 
2307	 8.72591574868844E-02 
2308	 8.72682395352917E-02 
2309	 8.73699844335898E-02 
2310	 8.74009223662906E-02 
2311	 8.74320237095606E-02 
2312	 0.087448477693724 
2313	 8.74377891347003E-02 
2314	 8.74329863435332E-02 
2315	 8.74063456755005E-02 
2316	 8.74088083970371E-02 
2317	 8.74306939619318E-02 
2318	 8.74420795892455E-02 
2319	 8.74800339170175E-02 
2320	 8.74884431565305E-02 
2321	 8.74514587076585E-02 
2322	 8.74397518333572E-02 
2323	 8.74260620127034E-02 
2324	 8.74357265706672E-02 
2325	 0.087475553202918 
2326	 8.75101147526007E-02 
2327	 8.75784068181849E-02 
2328	 8.75811253780778E-02 
2329	 8.75965190667772E-02 
2330	 8.76492091369798E-02 
2331	 8.76657875146048E-02 
2332	 8.77106187513066E-02 
2333	 8.77372889231155E-02 
2334	 8.77175592849435E-02 
2335	 8.76885039052223E-02 
2336	 0.0876551358349 
2337	 8.76870844968609E-02 
2338	 8.77322122938673E-02 
2339	 8.77668716460312E-02 
2340	 8.78288476736724E-02 
2341	 8.78336910698352E-02 
2342	 8.77793081783586E-02 
2343	 8.77618592911521E-02 
2344	 8.78079412045086E-02 
2345	 8.78275647463018E-02 
2346	 8.78730593505902E-02 
2347	 8.78773915232685E-02 
2348	 8.78430535861295E-02 
2349	 8.78269301621914E-02 
2350	 8.78274713803673E-02 
2351	 8.77842311565942E-02 
2352	 8.76924466404355E-02 
2353	 8.76809498972254E-02 
2354	 8.76630942806502E-02 
2355	 8.76721473057711E-02 
2356	 8.78025760265128E-02 
2357	 8.78248910138999E-02 
2358	 8.77596744974806E-02 
2359	 8.77523629983416E-02 
2360	 8.77515830134281E-02 
2361	 8.77245738883509E-02 
2362	 8.77008756043072E-02 
2363	 8.76935043975795E-02 
2364	 8.76520829233582E-02 
2365	 8.76461795037467E-02 
2366	 8.77238275591251E-02 
2367	 8.77142278244304E-02 
2368	 8.76220038592827E-02 
2369	 8.76017318766431E-02 
2370	 8.75803537370127E-02 
2371	 8.75820235866919E-02 
2372	 8.75709858848202E-02 
2373	 8.76067164691388E-02 
2374	 8.76172562577665E-02 
2375	 8.75593482433275E-02 
2376	 8.76016478654717E-02 
2377	 0.087614564011987 
2378	 0.087517953278643 
2379	 8.74716347328119E-02 
2380	 8.74358374659072E-02 
2381	 8.73752102914839E-02 
2382	 8.73220386881335E-02 
2383	 8.73033439052091E-02 
2384	 0.087287812239089 
2385	 8.72546554367845E-02 
2386	 8.72975096776701E-02 
2387	 8.73329028010028E-02 
2388	 8.73257042284562E-02 
2389	 8.73473503094157E-02 
2390	 8.73561356264231E-02 
2391	 8.73203947822954E-02 
2392	 8.72270103267061E-02 
2393	 8.71527150392035E-02 
2394	 8.70689736427619E-02 
2395	 8.69927824322634E-02 
2396	 8.69415669500688E-02 
2397	 0.086850130178736 
2398	 8.67912806640119E-02 
2399	 8.67563560310763E-02 
2400	 8.67439400521765E-02 
2401	 8.66982985990467E-02 
2402	 8.66401113363117E-02 
2403	 8.66578194691261E-02 
2404	 8.66103793150741E-02 
2405	 8.65862798124819E-02 
2406	 8.65856675639536E-02 
2407	 8.64850729726226E-02 
2408	 8.64770221277795E-02 
2409	 8.65376706410475E-02 
2410	 0.086596553236787 
2411	 8.66146774605288E-02 
2412	 8.65751034074571E-02 
2413	 0.086559440145418 
2414	 8.65398093100013E-02 
2415	 8.65875091708091E-02 
2416	 0.086559503049951 
2417	 8.64951929198408E-02 
2418	 8.64150440675978E-02 
2419	 8.62516946993523E-02 
2420	 8.61781229006138E-02 
2421	 8.61367891255689E-02 
2422	 8.61423814166775E-02 
2423	 8.62332431853041E-02 
2424	 8.62333717306539E-02 
2425	 8.62748365738592E-02 
2426	 8.62183107650164E-02 
2427	 8.60319153425988E-02 
2428	 8.59310306606451E-02 
2429	 8.58172987598241E-02 
2430	 8.57088322361145E-02 
2431	 8.55984282061908E-02 
2432	 8.55695467868215E-02 
2433	 8.55733472703208E-02 
2434	 8.55491794433624E-02 
2435	 8.56346773860914E-02 
2436	 0.085598421729649 
2437	 8.54837671973909E-02 
2438	 8.54304307091941E-02 
2439	 8.53044332502279E-02 
2440	 8.52612465739943E-02 
2441	 8.52603727175404E-02 
2442	 8.52016609518009E-02 
2443	 8.52352929591626E-02 
2444	 8.52000911651343E-02 
2445	 8.50802906398596E-02 
2446	 8.50130070671728E-02 
2447	 8.49182114013794E-02 
2448	 8.48114160673748E-02 
2449	 8.47411422733277E-02 
2450	 8.46675477061026E-02 
2451	 8.45181883602013E-02 
2452	 8.44457523814331E-02 
2453	 8.44580825092648E-02 
2454	 8.43905482691548E-02 
2455	 8.43463630408158E-02 
2456	 8.43761639305962E-02 
2457	 8.43567514479155E-02 
2458	 8.43454737383061E-02 
2459	 0.084437901512686 
2460	 8.43482035795928E-02 
2461	 8.41751020662541E-02 
2462	 8.40458148013399E-02 
2463	 0.083782320062598 
2464	 8.37026997088169E-02 
2465	 8.37359714672653E-02 
2466	 8.37095528088143E-02 
2467	 0.083766268597803 
2468	 8.37702289250594E-02 
2469	 8.36685429177667E-02 
2470	 8.36722032004057E-02 
2471	 8.37488442275748E-02 
2472	 8.37405308928787E-02 
2473	 8.37871207257755E-02 
2474	 8.37940909854586E-02 
2475	 8.36859287251115E-02 
2476	 8.35161430032939E-02 
2477	 8.33988859163028E-02 
2478	 8.34470236391054E-02 
2479	 8.35600116792483E-02 
2480	 8.37609926492851E-02 
2481	 8.39495070921359E-02 
2482	 8.38675476939262E-02 
2483	 8.37692835309139E-02 
2484	 8.36062048841286E-02 
2485	 8.31780061965752E-02 
2486	 8.29786347054397E-02 
2487	 8.28363286722971E-02 
2488	 8.26653112226716E-02 
2489	 8.29775180756731E-02 
2490	 8.32863243622542E-02 
2491	 8.34090156410533E-02 
2492	 8.34927421935811E-02 
2493	 8.31222523927829E-02 
2494	 8.27135410345952E-02 
2495	 8.25399224483841E-02 
2496	 8.23927956777316E-02 
2497	 0.082570501996497 
2498	 8.28613552484544E-02 
2499	 8.27712177008253E-02 
2500	 0.082592933223357 
