Wavelength	LMW100000.asd
350	 7.95804969057486E-02 
351	 0.084686580678525 
352	 8.17920207639602E-02 
353	 7.11137594498029E-02 
354	 7.72882229894281E-02 
355	 8.15479552719549E-02 
356	 8.07049469347841E-02 
357	 7.73272658632179E-02 
358	 0.078802828800206 
359	 7.78091406147651E-02 
360	 7.48694341711176E-02 
361	 7.52363369358023E-02 
362	 7.41544053473164E-02 
363	 7.61655626678921E-02 
364	 8.13346221272653E-02 
365	 8.14467786154612E-02 
366	 7.67183282831305E-02 
367	 7.36643537940811E-02 
368	 0.077340863302415 
369	 8.10954652330285E-02 
370	 8.06507022238924E-02 
371	 0.078275486630607 
372	 7.99597050993497E-02 
373	 7.99830539513914E-02 
374	 7.98326860776495E-02 
375	 8.05809646839658E-02 
376	 8.10011945355845E-02 
377	 8.10396825189383E-02 
378	 8.15172605209463E-02 
379	 8.27777113870895E-02 
380	 8.18397897357315E-02 
381	 8.18102090356786E-02 
382	 0.083334464081231 
383	 8.49168891686421E-02 
384	 8.49884104044704E-02 
385	 0.084922602239907 
386	 0.085749539805215 
387	 8.70801292558275E-02 
388	 8.78080169105887E-02 
389	 8.85690059495331E-02 
390	 8.99943521426449E-02 
391	 0.089631721366547 
392	 9.04644291954141E-02 
393	 0.092507371192344 
394	 9.32309081203744E-02 
395	 9.40369678346566E-02 
396	 9.42374711796228E-02 
397	 9.39912737686898E-02 
398	 9.59939551712926E-02 
399	 0.098260303639029 
400	 0.100185161290295 
401	 0.101475231597458 
402	 0.100645235884681 
403	 9.99766284944781E-02 
404	 0.100306045539229 
405	 0.100788629219266 
406	 0.102030782329104 
407	 0.103711214468412 
408	 0.105131221026665 
409	 0.104975338082467 
410	 0.105157651212345 
411	 0.10586387145017 
412	 0.10648878500845 
413	 0.107266365133403 
414	 0.107888122696704 
415	 0.108311770611567 
416	 0.108881770027687 
417	 0.109038844082263 
418	 0.10921770747235 
419	 0.109792627237774 
420	 0.110198053560937 
421	 0.109898830117888 
422	 0.109662042115968 
423	 0.110781454944534 
424	 0.110655105047303 
425	 0.110200960776488 
426	 0.110099062536447 
427	 0.10971079916944 
428	 0.109737573796184 
429	 0.109868165762771 
430	 0.10965457370105 
431	 0.109727672507541 
432	 0.109585811211829 
433	 0.109262778766644 
434	 0.109320997210943 
435	 0.109308841495108 
436	 0.109439087554175 
437	 0.109743346621135 
438	 0.109374407487767 
439	 0.109424431865196 
440	 0.110015083361149 
441	 0.110738759809336 
442	 0.111336052051851 
443	 0.111688811461438 
444	 0.111826199505196 
445	 0.111920382073451 
446	 0.112494130018479 
447	 0.113160061760445 
448	 0.113469174412654 
449	 0.113962352961133 
450	 0.114502981198382 
451	 0.114938788025715 
452	 0.115161872718669 
453	 0.115813039153813 
454	 0.116417654804006 
455	 0.116669156283343 
456	 0.117186570348923 
457	 0.117431601563165 
458	 0.117620576643118 
459	 0.118189451996879 
460	 0.118507469553446 
461	 0.11860830288059 
462	 0.118685973099178 
463	 0.119061615323749 
464	 0.119534428916741 
465	 0.119939439624502 
466	 0.120178615766638 
467	 0.120380346094057 
468	 0.120538998602391 
469	 0.120704518433654 
470	 0.12095557043531 
471	 0.121057585361263 
472	 0.121190366594404 
473	 0.121448547465922 
474	 0.121552511417733 
475	 0.121713712888921 
476	 0.121898569511272 
477	 0.121997338593082 
478	 0.122166435052169 
479	 0.122344408349559 
480	 0.122506106765049 
481	 0.122705790531389 
482	 0.122780588503641 
483	 0.122928219030936 
484	 0.123302271791585 
485	 0.123473919291051 
486	 0.123626950420336 
487	 0.123767991239708 
488	 0.123764031934479 
489	 0.123892351456429 
490	 0.124026278076867 
491	 0.124101824362806 
492	 0.12443094781123 
493	 0.124470565252 
494	 0.124374973055831 
495	 0.124567056678569 
496	 0.124745621241732 
497	 0.124902765789563 
498	 0.125051073935961 
499	 0.125195240608393 
500	 0.125255806144605 
501	 0.125313865567045 
502	 0.125454149893342 
503	 0.125558056149232 
504	 0.125637927027585 
505	 0.12571567610617 
506	 0.125814118107574 
507	 0.125844004330132 
508	 0.125980785092356 
509	 0.126268305733063 
510	 0.12625805783 
511	 0.126298417967758 
512	 0.126456059184524 
513	 0.126627513244202 
514	 0.126626631522399 
515	 0.126633686068577 
516	 0.126754961819536 
517	 0.126905768329863 
518	 0.127049988436734 
519	 0.127130441580355 
520	 0.12712894676585 
521	 0.127228120367258 
522	 0.127328150351437 
523	 0.127401884162864 
524	 0.127513597703016 
525	 0.127623383024896 
526	 0.12772468844372 
527	 0.127816947715147 
528	 0.127895864346632 
529	 0.127953449327387 
530	 0.128017308387818 
531	 0.128129328061436 
532	 0.128195135267839 
533	 0.128321431294819 
534	 0.128540530077854 
535	 0.128673703080506 
536	 0.128807173877346 
537	 0.128933450355288 
538	 0.129015917798982 
539	 0.129050658494406 
540	 0.129129633617838 
541	 0.129271218260744 
542	 0.129389836242754 
543	 0.129472005257251 
544	 0.129625621674873 
545	 0.129895151377875 
546	 0.129927604833786 
547	 0.129992243683985 
548	 0.130169921230762 
549	 0.130364066891611 
550	 0.130516731572004 
551	 0.130675087595744 
552	 0.130875301561066 
553	 0.131067061116269 
554	 0.131273156997165 
555	 0.131478031902559 
556	 0.13165981562771 
557	 0.131928608534876 
558	 0.132188595995958 
559	 0.132418686316171 
560	 0.132781672893066 
561	 0.133025351984861 
562	 0.133224468675958 
563	 0.133532458100021 
564	 0.13384903137161 
565	 0.134187479856396 
566	 0.134548584798499 
567	 0.134913675456212 
568	 0.135355293063125 
569	 0.135799439341028 
570	 0.136197403254188 
571	 0.136711821329682 
572	 0.137214346247418 
573	 0.137714845000016 
574	 0.138303825819279 
575	 0.138771457335254 
576	 0.139265312978231 
577	 0.139874229133027 
578	 0.140432139527664 
579	 0.141058562307548 
580	 0.141773732512441 
581	 0.142542080300097 
582	 0.143254097830165 
583	 0.143979218934456 
584	 0.144745029720804 
585	 0.145499641131248 
586	 0.146239596103413 
587	 0.146922588619991 
588	 0.147546709101938 
589	 0.148323963279262 
590	 0.149098871054429 
591	 0.149822818134101 
592	 0.150558081521219 
593	 0.151253853308328 
594	 0.151994051728849 
595	 0.152838915477992 
596	 0.153721883153114 
597	 0.154698073728925 
598	 0.155700270418514 
599	 0.15660789525955 
600	 0.15745807631134 
601	 0.158253828969011 
602	 0.158990378475907 
603	 0.159656161991335 
604	 0.160290724090349 
605	 0.160941652388925 
606	 0.1616298115845 
607	 0.162229326939376 
608	 0.162815089163305 
609	 0.163421449614974 
610	 0.164022563032005 
611	 0.164579261022513 
612	 0.165121451502385 
613	 0.165676762276608 
614	 0.166221339864405 
615	 0.166668420821998 
616	 0.16707500237526 
617	 0.167577714061269 
618	 0.167966460702006 
619	 0.168319133900713 
620	 0.168700304556737 
621	 0.169050354998641 
622	 0.169367686008449 
623	 0.16968091677 
624	 0.17002427615669 
625	 0.170367237597256 
626	 0.170644331570166 
627	 0.170868369700452 
628	 0.171155959095624 
629	 0.171448942454482 
630	 0.171723864697114 
631	 0.171975045516328 
632	 0.172232130686542 
633	 0.172477940029584 
634	 0.172715453160704 
635	 0.172965165044043 
636	 0.173233100373791 
637	 0.173482499947762 
638	 0.173694318801281 
639	 0.173901570649148 
640	 0.174179366069761 
641	 0.174473798584204 
642	 0.174687348392704 
643	 0.174925743505864 
644	 0.175175323184695 
645	 0.175421670260466 
646	 0.175665343474156 
647	 0.17590842687943 
648	 0.17614796111555 
649	 0.176392317636804 
650	 0.176703565000264 
651	 0.177017968502932 
652	 0.177290748669212 
653	 0.177508921470007 
654	 0.177856163906317 
655	 0.178197766983186 
656	 0.178444273081977 
657	 0.178767832070478 
658	 0.179113720043174 
659	 0.179443911837059 
660	 0.179738406992888 
661	 0.180088414587972 
662	 0.180416324622068 
663	 0.180695103396249 
664	 0.18099074889314 
665	 0.181397774932757 
666	 0.181840467349272 
667	 0.182223078225979 
668	 0.182598702506992 
669	 0.1829736755721 
670	 0.183367433128203 
671	 0.183804520380902 
672	 0.184210792895136 
673	 0.184630536602511 
674	 0.185092635388773 
675	 0.185544775261063 
676	 0.185965899519101 
677	 0.186382854103307 
678	 0.186836600876496 
679	 0.187279257746191 
680	 0.18774370791961 
681	 0.18825547520621 
682	 0.188822810152728 
683	 0.189292082416994 
684	 0.189766210336738 
685	 0.190344011527978 
686	 0.190839573077328 
687	 0.191396143275317 
688	 0.192003672892893 
689	 0.192544968296883 
690	 0.193051898114175 
691	 0.193604278686612 
692	 0.194223634959409 
693	 0.19480503048216 
694	 0.195371783575484 
695	 0.195942650568101 
696	 0.196539052538178 
697	 0.19718906998981 
698	 0.197792423226884 
699	 0.198359978467297 
700	 0.199022423830613 
701	 0.199690920202509 
702	 0.200321861553186 
703	 0.2009077369313 
704	 0.201508763595986 
705	 0.202118581590445 
706	 0.20275531698516 
707	 0.203430067584051 
708	 0.204010709778954 
709	 0.204597895539638 
710	 0.205255346032297 
711	 0.205962668971251 
712	 0.206519952472282 
713	 0.207057288018449 
714	 0.207723326725175 
715	 0.208345554361134 
716	 0.208938972832231 
717	 0.209516231886639 
718	 0.210085601495415 
719	 0.21065190022373 
720	 0.211221718831698 
721	 0.211785184940991 
722	 0.212302144415182 
723	 0.212826206338539 
724	 0.21335844305218 
725	 0.213875906518276 
726	 0.214330423995038 
727	 0.214787671939807 
728	 0.21524256555119 
729	 0.215623534144214 
730	 0.216025834662045 
731	 0.216427629723909 
732	 0.216800785656635 
733	 0.217157562764852 
734	 0.21749921540096 
735	 0.217786417789656 
736	 0.217986847437993 
737	 0.218212504403265 
738	 0.218436322632289 
739	 0.218630578467527 
740	 0.218780005494627 
741	 0.218917810226791 
742	 0.219019056875715 
743	 0.219075617062314 
744	 0.219163323438938 
745	 0.219198586077153 
746	 0.219191558947273 
747	 0.219188460675155 
748	 0.219143537008647 
749	 0.219071074936847 
750	 0.218983534304657 
751	 0.218884102126652 
752	 0.218727576269066 
753	 0.218546739944824 
754	 0.218376506351684 
755	 0.218205797108841 
756	 0.21799508476344 
757	 0.217753484576771 
758	 0.217516483481294 
759	 0.217302067251022 
760	 0.217043092224064 
761	 0.216723817405118 
762	 0.21640177205658 
763	 0.216135106315547 
764	 0.215824657816365 
765	 0.215408663225027 
766	 0.215043653387079 
767	 0.214687060846191 
768	 0.214349712051452 
769	 0.214040030142872 
770	 0.213574710403595 
771	 0.213128923517952 
772	 0.212765791879169 
773	 0.212377754272647 
774	 0.211992531835159 
775	 0.211587493506319 
776	 0.211147346229141 
777	 0.210699470899141 
778	 0.210239990284215 
779	 0.209810006091181 
780	 0.209443304106583 
781	 0.209006440852284 
782	 0.208555313153131 
783	 0.208122906183881 
784	 0.207702073536146 
785	 0.207308375115411 
786	 0.206885413094862 
787	 0.206421631552301 
788	 0.206048317538646 
789	 0.205635521898568 
790	 0.205178509516993 
791	 0.204727350791295 
792	 0.204340936251057 
793	 0.203996026808585 
794	 0.203633443651532 
795	 0.203181855486442 
796	 0.202745354415363 
797	 0.202342337996798 
798	 0.201964238956318 
799	 0.201582411945545 
800	 0.201194536411568 
801	 0.200829002850537 
802	 0.200497726669438 
803	 0.200109613707107 
804	 0.199750959162698 
805	 0.199425499469191 
806	 0.199085837819875 
807	 0.198747280307993 
808	 0.198411512415011 
809	 0.198079402238447 
810	 0.19775099774234 
811	 0.197436157891142 
812	 0.197106568296692 
813	 0.196765545722387 
814	 0.196531412240124 
815	 0.196259338642902 
816	 0.195945375124201 
817	 0.195642770683698 
818	 0.195354515881164 
819	 0.195099978399206 
820	 0.194872699297948 
821	 0.194644184061426 
822	 0.19441235762781 
823	 0.194170232493492 
824	 0.193906538181376 
825	 0.193601738175719 
826	 0.19334363644828 
827	 0.193146864943047 
828	 0.192984707272883 
829	 0.192782117593212 
830	 0.192563106073205 
831	 0.192368977557167 
832	 0.192231019656435 
833	 0.192079253156131 
834	 0.191843416572041 
835	 0.191584874751908 
836	 0.191467459772557 
837	 0.191323956084155 
838	 0.19120138613432 
839	 0.191105230252163 
840	 0.190911235354647 
841	 0.190825395238979 
842	 0.190758836936326 
843	 0.190602685951016 
844	 0.190452765674974 
845	 0.190345542550324 
846	 0.19024339780303 
847	 0.190108037406928 
848	 0.190128671287975 
849	 0.190081491378935 
850	 0.189936379838102 
851	 0.189843120360821 
852	 0.189756011033901 
853	 0.189717642725064 
854	 0.189713297276468 
855	 0.18963651099093 
856	 0.189612251355877 
857	 0.189609456052071 
858	 0.189591267982185 
859	 0.189607906149521 
860	 0.189587946379342 
861	 0.189558270437754 
862	 0.189566462430223 
863	 0.189583835608932 
864	 0.189579457764051 
865	 0.189593441567093 
866	 0.189686773909094 
867	 0.189748864799646 
868	 0.189744105573255 
869	 0.189717133583007 
870	 0.189775860978038 
871	 0.189867740552782 
872	 0.189956633490192 
873	 0.190033203836308 
874	 0.1901278079759 
875	 0.190218667891578 
876	 0.190277087310254 
877	 0.190304161550022 
878	 0.190372436767169 
879	 0.190520306802432 
880	 0.190691619594799 
881	 0.190816933194 
882	 0.190934429082417 
883	 0.191083007983324 
884	 0.191230356432572 
885	 0.191326416603945 
886	 0.191476625271943 
887	 0.191648219493693 
888	 0.191823850963198 
889	 0.19201095644888 
890	 0.19224368100255 
891	 0.192440084722442 
892	 0.192583917624163 
893	 0.192758455760668 
894	 0.193015920324897 
895	 0.193243446281816 
896	 0.193402058586755 
897	 0.193642008187499 
898	 0.193954362684943 
899	 0.194251856948197 
900	 0.194477244336339 
901	 0.194711257774559 
902	 0.194937463707646 
903	 0.195190000624253 
904	 0.19550712461729 
905	 0.195903860968829 
906	 0.196181384373591 
907	 0.196399465248539 
908	 0.196706593783174 
909	 0.19697317362328 
910	 0.19727343410049 
911	 0.197608406334348 
912	 0.197931351199717 
913	 0.198256931849498 
914	 0.198712204908705 
915	 0.199206091880979 
916	 0.199498687600063 
917	 0.19990839538134 
918	 0.200322493616106 
919	 0.200673107878596 
920	 0.201013092522406 
921	 0.201426507471176 
922	 0.201898965061576 
923	 0.202380393896486 
924	 0.202805769356711 
925	 0.203195774390438 
926	 0.203637069528305 
927	 0.204149125973008 
928	 0.204606976547673 
929	 0.205062174333883 
930	 0.205564006018427 
931	 0.206120783841037 
932	 0.206652501012177 
933	 0.207183355372374 
934	 0.207707838161799 
935	 0.208236459830766 
936	 0.208846050004974 
937	 0.209460479872453 
938	 0.210005476919827 
939	 0.210472266379833 
940	 0.211048047317817 
941	 0.211699335763654 
942	 0.212366781952501 
943	 0.213004745750989 
944	 0.213680835378217 
945	 0.214294208234952 
946	 0.214846983910322 
947	 0.215405832274791 
948	 0.216062613897888 
949	 0.216780313756361 
950	 0.217491850310339 
951	 0.218157455293224 
952	 0.21892497359374 
953	 0.219677766963702 
954	 0.220401662108315 
955	 0.221128693686074 
956	 0.221757827833195 
957	 0.222498132192004 
958	 0.223318568948861 
959	 0.224066627530678 
960	 0.22487419064632 
961	 0.225684773367506 
962	 0.226520541652533 
963	 0.227408995824583 
964	 0.228061584533517 
965	 0.228827325693715 
966	 0.229751570104472 
967	 0.230656232967174 
968	 0.231586221752238 
969	 0.232374938486486 
970	 0.233112403345575 
971	 0.234000334692686 
972	 0.234748577999783 
973	 0.235613843326404 
974	 0.236601434344671 
975	 0.237535405700217 
976	 0.238416776075937 
977	 0.23928733756528 
978	 0.240179433468786 
979	 0.241113140709589 
980	 0.242128269885669 
981	 0.243042236448908 
982	 0.243859458219219 
983	 0.244726073288273 
984	 0.245800103279122 
985	 0.246745223794113 
986	 0.247641918654189 
987	 0.24874019130606 
988	 0.249784022911317 
989	 0.250647647303725 
990	 0.251445265656555 
991	 0.25238513095289 
992	 0.253485582932819 
993	 0.25444533206944 
994	 0.255250691797324 
995	 0.256068861510704 
996	 0.257121469804716 
997	 0.258237888101229 
998	 0.259275267719323 
999	 0.260172942545851 
1000	 0.261053658702342 
1001	 0.264488659458666 
1002	 0.265379021629744 
1003	 0.266327377808745 
1004	 0.267248305488855 
1005	 0.268198046158379 
1006	 0.269096314068798 
1007	 0.269966489289221 
1008	 0.270774237114766 
1009	 0.27165327788042 
1010	 0.272525537361966 
1011	 0.273447577036702 
1012	 0.274444801816122 
1013	 0.275353871858993 
1014	 0.276216117085106 
1015	 0.277095630708533 
1016	 0.277925052191368 
1017	 0.278750349133495 
1018	 0.27954935862682 
1019	 0.280389823035374 
1020	 0.281228077448084 
1021	 0.282044825277091 
1022	 0.282840905224665 
1023	 0.283584031522199 
1024	 0.284334445997378 
1025	 0.285097973144052 
1026	 0.285861694496791 
1027	 0.28667591480218 
1028	 0.287472449148596 
1029	 0.288243011901425 
1030	 0.288955917921225 
1031	 0.2896586951211 
1032	 0.290322790550326 
1033	 0.291027077792907 
1034	 0.291747986092499 
1035	 0.292487104743232 
1036	 0.293266739285848 
1037	 0.294035223511224 
1038	 0.29474298956286 
1039	 0.295511732981492 
1040	 0.29630886303245 
1041	 0.297009921887155 
1042	 0.297717700413658 
1043	 0.298421502738257 
1044	 0.299113195771148 
1045	 0.299771034883893 
1046	 0.300473257587118 
1047	 0.301223979212142 
1048	 0.301987653035455 
1049	 0.302724773084311 
1050	 0.303455812027751 
1051	 0.304127712334757 
1052	 0.304774461917249 
1053	 0.305476260601652 
1054	 0.306184710444555 
1055	 0.30687073540241 
1056	 0.307524139733212 
1057	 0.308172769019072 
1058	 0.308780341164181 
1059	 0.30940483043664 
1060	 0.310039360302247 
1061	 0.310653800824073 
1062	 0.31127643615202 
1063	 0.311870302186011 
1064	 0.312461877094088 
1065	 0.313077623093819 
1066	 0.313641379470483 
1067	 0.314193369071257 
1068	 0.31475642362821 
1069	 0.315295838683325 
1070	 0.315845627402945 
1071	 0.316404373505268 
1072	 0.316959092042893 
1073	 0.317528013516108 
1074	 0.318065088748607 
1075	 0.318587201815328 
1076	 0.319077958148394 
1077	 0.319593837068975 
1078	 0.320064058598626 
1079	 0.32053578841222 
1080	 0.321031207481058 
1081	 0.321523879888042 
1082	 0.322028484103624 
1083	 0.322538608154473 
1084	 0.323088968006687 
1085	 0.323606221635983 
1086	 0.324085313158968 
1087	 0.324589748397538 
1088	 0.325105694887401 
1089	 0.325602844367442 
1090	 0.326105088357128 
1091	 0.326660778144124 
1092	 0.32720755575256 
1093	 0.327728156613534 
1094	 0.328251749962641 
1095	 0.328761096683895 
1096	 0.329238577636905 
1097	 0.329728542858108 
1098	 0.330253825432251 
1099	 0.330794668481301 
1100	 0.331351749908611 
1101	 0.331965054475384 
1102	 0.332537674298216 
1103	 0.333106544013455 
1104	 0.333646859227751 
1105	 0.334211021200735 
1106	 0.334796066004207 
1107	 0.335403281159729 
1108	 0.336037481738244 
1109	 0.336647710093408 
1110	 0.337229111940733 
1111	 0.337827881720716 
1112	 0.338427700044198 
1113	 0.339019420633364 
1114	 0.339601570101575 
1115	 0.340215238216113 
1116	 0.34083711535629 
1117	 0.341450710483048 
1118	 0.34208676343458 
1119	 0.342714195934068 
1120	 0.343317966105319 
1121	 0.34392205636568 
1122	 0.344522821019728 
1123	 0.345138823327234 
1124	 0.345755525953206 
1125	 0.346360449620614 
1126	 0.34699599086614 
1127	 0.347661792247369 
1128	 0.348300604081846 
1129	 0.348947220821382 
1130	 0.349577911736123 
1131	 0.350177542047216 
1132	 0.350802232644713 
1133	 0.351455849536254 
1134	 0.352079893766682 
1135	 0.352687580717846 
1136	 0.353296973706851 
1137	 0.353950077270547 
1138	 0.354551489113994 
1139	 0.355143699743707 
1140	 0.35574549312961 
1141	 0.356339265610592 
1142	 0.35689523289786 
1143	 0.357462941193467 
1144	 0.358050285960098 
1145	 0.358623465433632 
1146	 0.359163927806188 
1147	 0.359725685454947 
1148	 0.360319462416569 
1149	 0.360887187209796 
1150	 0.361439329885065 
1151	 0.361994370796675 
1152	 0.362557717809841 
1153	 0.363091529826149 
1154	 0.363637244640179 
1155	 0.364193130015101 
1156	 0.364734862746793 
1157	 0.365274213396701 
1158	 0.365797248030773 
1159	 0.366324806624076 
1160	 0.366819978680459 
1161	 0.367280277096718 
1162	 0.367750816529617 
1163	 0.368210710907937 
1164	 0.368662594051625 
1165	 0.36911578032135 
1166	 0.369563632459748 
1167	 0.369985949754527 
1168	 0.370419632146957 
1169	 0.370843428861092 
1170	 0.371267459906421 
1171	 0.371676507087276 
1172	 0.372092809198349 
1173	 0.372468225200452 
1174	 0.372791841291527 
1175	 0.373163760603995 
1176	 0.373533596427417 
1177	 0.373905290223148 
1178	 0.374321435654695 
1179	 0.374705451597151 
1180	 0.375063689025249 
1181	 0.375421833614263 
1182	 0.375772457666268 
1183	 0.376120735033927 
1184	 0.376469541791801 
1185	 0.376829895326995 
1186	 0.377144207626442 
1187	 0.377433995918418 
1188	 0.37773677971049 
1189	 0.378006084864852 
1190	 0.378299308933804 
1191	 0.378627924085539 
1192	 0.378925234930192 
1193	 0.379211663904489 
1194	 0.379489040261712 
1195	 0.379746441511227 
1196	 0.380012257821725 
1197	 0.380269376554336 
1198	 0.380531959689568 
1199	 0.380798314414892 
1200	 0.381076178814982 
1201	 0.381338479086132 
1202	 0.381611572396076 
1203	 0.381843516914333 
1204	 0.382041307020319 
1205	 0.382263840228265 
1206	 0.382461432212141 
1207	 0.38268745432073 
1208	 0.382952245853821 
1209	 0.383189575770966 
1210	 0.38343091298481 
1211	 0.383652222161975 
1212	 0.38384841728413 
1213	 0.38405388617121 
1214	 0.384249922774744 
1215	 0.384448670750754 
1216	 0.384649539509871 
1217	 0.384861203281778 
1218	 0.385055883772073 
1219	 0.385238349157793 
1220	 0.385434077975545 
1221	 0.385634095859725 
1222	 0.385823924505041 
1223	 0.386023330896657 
1224	 0.38620442734353 
1225	 0.386360746681803 
1226	 0.386531350383714 
1227	 0.386712946939157 
1228	 0.386875428790892 
1229	 0.387035907621602 
1230	 0.387187841548192 
1231	 0.387301057162505 
1232	 0.387444334087756 
1233	 0.387598823095753 
1234	 0.38776497591804 
1235	 0.387927045510136 
1236	 0.388112919520835 
1237	 0.388271762787467 
1238	 0.388410853791953 
1239	 0.388563241665521 
1240	 0.38872438106184 
1241	 0.388863072295849 
1242	 0.388988573163423 
1243	 0.389125732232956 
1244	 0.38924797112526 
1245	 0.389381630312296 
1246	 0.389541623152829 
1247	 0.389682987983939 
1248	 0.389816590397286 
1249	 0.389941130237252 
1250	 0.390079372762476 
1251	 0.390205129910152 
1252	 0.390322433871376 
1253	 0.390428448041643 
1254	 0.390553225915259 
1255	 0.390677961752991 
1256	 0.390797894430619 
1257	 0.390946476061124 
1258	 0.391053958859046 
1259	 0.391117275460524 
1260	 0.391209211893283 
1261	 0.391300632562464 
1262	 0.391389769520394 
1263	 0.391482127384848 
1264	 0.39158456403723 
1265	 0.391678434035427 
1266	 0.391788136132209 
1267	 0.391924123846041 
1268	 0.392055132331823 
1269	 0.392182839946214 
1270	 0.392300403372247 
1271	 0.392455827225732 
1272	 0.392632233841325 
1273	 0.392791689650203 
1274	 0.392968640952455 
1275	 0.393139429398678 
1276	 0.393286824569253 
1277	 0.393454161216868 
1278	 0.393664199866577 
1279	 0.393827413486016 
1280	 0.393973822660233 
1281	 0.394109520915961 
1282	 0.394218328863262 
1283	 0.394321589824492 
1284	 0.394420074203264 
1285	 0.394509072632988 
1286	 0.394552537563949 
1287	 0.394605094434766 
1288	 0.394637703924893 
1289	 0.394638717485879 
1290	 0.39465579689571 
1291	 0.394682077020132 
1292	 0.394675486516882 
1293	 0.394667693930343 
1294	 0.394631617497639 
1295	 0.394546915490508 
1296	 0.394495781043538 
1297	 0.394447527450944 
1298	 0.394384538015253 
1299	 0.394344276960918 
1300	 0.394271517253492 
1301	 0.394155325219715 
1302	 0.394056337008633 
1303	 0.393954859452807 
1304	 0.393851413191237 
1305	 0.393736493858154 
1306	 0.393630202092795 
1307	 0.3935093835528 
1308	 0.39338047876607 
1309	 0.39329455420474 
1310	 0.393232156469796 
1311	 0.393171668277588 
1312	 0.393152180583947 
1313	 0.393097188609397 
1314	 0.393016914896855 
1315	 0.392962170344131 
1316	 0.392896428483942 
1317	 0.392860219205389 
1318	 0.392853662146511 
1319	 0.392847294890876 
1320	 0.392858809443481 
1321	 0.392867859123802 
1322	 0.3928742886711 
1323	 0.392891344083436 
1324	 0.392920371737871 
1325	 0.392936076524826 
1326	 0.392988425242521 
1327	 0.393055705462187 
1328	 0.393130008009763 
1329	 0.393231988739052 
1330	 0.393321870343292 
1331	 0.393412717739109 
1332	 0.393507627867983 
1333	 0.393594196796008 
1334	 0.393707042706322 
1335	 0.393829782928192 
1336	 0.393960157456819 
1337	 0.394127606053993 
1338	 0.394261559969292 
1339	 0.394375642987225 
1340	 0.394506851321437 
1341	 0.394625477963742 
1342	 0.394759398148988 
1343	 0.394919136740599 
1344	 0.395069805865209 
1345	 0.395195486492788 
1346	 0.395323359237896 
1347	 0.395444161285947 
1348	 0.395563248032177 
1349	 0.395692033903436 
1350	 0.395818759843796 
1351	 0.39595077291644 
1352	 0.396077879701901 
1353	 0.396221327965836 
1354	 0.396386173072852 
1355	 0.396523046280502 
1356	 0.396655687050309 
1357	 0.396787975159624 
1358	 0.396907665870233 
1359	 0.397032960209275 
1360	 0.397172103056176 
1361	 0.397285463845322 
1362	 0.397378681894076 
1363	 0.397477744880703 
1364	 0.39754955269323 
1365	 0.397655746838832 
1366	 0.397795627590715 
1367	 0.3979097595643 
1368	 0.398021967789709 
1369	 0.398161789404225 
1370	 0.398266358607602 
1371	 0.398354568967262 
1372	 0.39846089398195 
1373	 0.398545687490346 
1374	 0.398624602694802 
1375	 0.398691242534026 
1376	 0.3987682297117 
1377	 0.398849882325892 
1378	 0.39890697172788 
1379	 0.398968934073824 
1380	 0.39899966687161 
1381	 0.398989374072271 
1382	 0.398995563449336 
1383	 0.3990023375506 
1384	 0.398992505411415 
1385	 0.398999618782415 
1386	 0.398961703448205 
1387	 0.398888847930913 
1388	 0.398802288566443 
1389	 0.39869716809523 
1390	 0.398562884216761 
1391	 0.398398482107735 
1392	 0.398228001967201 
1393	 0.398034082538085 
1394	 0.397827585964237 
1395	 0.397617247313291 
1396	 0.397391299418239 
1397	 0.397171417894095 
1398	 0.396947234865479 
1399	 0.396710193827457 
1400	 0.396472072104481 
1401	 0.396234610415005 
1402	 0.395967373298579 
1403	 0.395732356944529 
1404	 0.3955146368623 
1405	 0.395298565628505 
1406	 0.395079243983951 
1407	 0.394897115402625 
1408	 0.394723826294414 
1409	 0.394582720067788 
1410	 0.394471754391658 
1411	 0.394390406363465 
1412	 0.394327721460101 
1413	 0.394305341782692 
1414	 0.394316246390513 
1415	 0.394328969234566 
1416	 0.394375368837909 
1417	 0.394428029847074 
1418	 0.394479954915159 
1419	 0.394560878204239 
1420	 0.394646673025603 
1421	 0.394713334750229 
1422	 0.394782053168432 
1423	 0.394839934247304 
1424	 0.394885117593815 
1425	 0.394913808982708 
1426	 0.394938351401502 
1427	 0.394957927744346 
1428	 0.394965199607315 
1429	 0.394954656164629 
1430	 0.394947686191439 
1431	 0.394931992324096 
1432	 0.39491792774539 
1433	 0.394901340374729 
1434	 0.39488934298985 
1435	 0.394876979998757 
1436	 0.394869138306996 
1437	 0.394866461171402 
1438	 0.394862176691063 
1439	 0.394863787452186 
1440	 0.394858010193036 
1441	 0.39483763615946 
1442	 0.394819269252574 
1443	 0.394792438344311 
1444	 0.394762196429063 
1445	 0.394750210229646 
1446	 0.394726472401043 
1447	 0.394708296638748 
1448	 0.394709894690634 
1449	 0.394700187467556 
1450	 0.394702155087083 
1451	 0.394704276783003 
1452	 0.394702632101875 
1453	 0.394709924324856 
1454	 0.394739183152429 
1455	 0.394737704686046 
1456	 0.394723728399405 
1457	 0.394717106258225 
1458	 0.394693880912191 
1459	 0.394674249496078 
1460	 0.394663058994385 
1461	 0.394651826614694 
1462	 0.394622672199248 
1463	 0.39462327244985 
1464	 0.394646249860557 
1465	 0.394664885977226 
1466	 0.394693958048173 
1467	 0.394725845761725 
1468	 0.394759932385735 
1469	 0.394796322111049 
1470	 0.394840430004799 
1471	 0.394882554746106 
1472	 0.394926189527121 
1473	 0.394968042550054 
1474	 0.39500885182621 
1475	 0.395073530700812 
1476	 0.395144974577101 
1477	 0.39520916892095 
1478	 0.395288057897339 
1479	 0.395369333055479 
1480	 0.395447731552855 
1481	 0.395539524799254 
1482	 0.395626251193301 
1483	 0.395714045780966 
1484	 0.395801192140065 
1485	 0.395890788075788 
1486	 0.395977249672399 
1487	 0.396058179345785 
1488	 0.39614821937217 
1489	 0.396248553135305 
1490	 0.396330416015907 
1491	 0.39641575417522 
1492	 0.396486555360904 
1493	 0.396523732581169 
1494	 0.396588679366375 
1495	 0.396670951358178 
1496	 0.39673761329702 
1497	 0.396810712454106 
1498	 0.396876219330231 
1499	 0.39691472922833 
1500	 0.396974479475694 
1501	 0.397050051105635 
1502	 0.397118108737954 
1503	 0.397186878284177 
1504	 0.397261597211554 
1505	 0.397344515032456 
1506	 0.397417035768256 
1507	 0.397485677857189 
1508	 0.397566675131315 
1509	 0.397619792189725 
1510	 0.397681780569163 
1511	 0.397737872394001 
1512	 0.397768338432942 
1513	 0.397813358877106 
1514	 0.397855142496076 
1515	 0.397911891419422 
1516	 0.397982271439748 
1517	 0.398048186677968 
1518	 0.398118334347616 
1519	 0.398187502363001 
1520	 0.398261243217167 
1521	 0.39832667568217 
1522	 0.398386986344886 
1523	 0.398450004624315 
1524	 0.398512137661165 
1525	 0.39856745525563 
1526	 0.398618617615306 
1527	 0.398676129016299 
1528	 0.398732107369511 
1529	 0.398786522414917 
1530	 0.398850060694339 
1531	 0.39890363538221 
1532	 0.398946199150626 
1533	 0.39898961850286 
1534	 0.399032653518435 
1535	 0.39907282516767 
1536	 0.399105907060197 
1537	 0.399141575808754 
1538	 0.399170950726003 
1539	 0.399214818139678 
1540	 0.399266093761604 
1541	 0.399321759048005 
1542	 0.399401794782237 
1543	 0.399455075205343 
1544	 0.399503572056447 
1545	 0.399538305587342 
1546	 0.399539145580807 
1547	 0.399558948802784 
1548	 0.399597700218595 
1549	 0.399630314495176 
1550	 0.399683335497095 
1551	 0.399740226107904 
1552	 0.399779232079317 
1553	 0.39982638786982 
1554	 0.399893707144113 
1555	 0.399948314544212 
1556	 0.400004601270637 
1557	 0.400068942361927 
1558	 0.400114034142969 
1559	 0.400151232933934 
1560	 0.400188137895863 
1561	 0.400218392717533 
1562	 0.400252955183758 
1563	 0.400289680218592 
1564	 0.400317610050601 
1565	 0.400338707619466 
1566	 0.400369833459873 
1567	 0.400399899532428 
1568	 0.400432560513213 
1569	 0.400468545698747 
1570	 0.400514433156779 
1571	 0.400567392790892 
1572	 0.400607504320225 
1573	 0.400652486375402 
1574	 0.40069733042058 
1575	 0.400732824826731 
1576	 0.40076739662441 
1577	 0.400819608548157 
1578	 0.400842573716852 
1579	 0.400838099666284 
1580	 0.400844414779777 
1581	 0.400829434282392 
1582	 0.400846065537263 
1583	 0.400879891186129 
1584	 0.400913425827368 
1585	 0.400970446397409 
1586	 0.401012542807148 
1587	 0.401037195861424 
1588	 0.401084277332766 
1589	 0.401153088072771 
1590	 0.401199503442543 
1591	 0.401247811642722 
1592	 0.401291433455536 
1593	 0.401313613890263 
1594	 0.401342638935758 
1595	 0.401381062068568 
1596	 0.401413892002917 
1597	 0.40144027360927 
1598	 0.401465623252195 
1599	 0.401484764559281 
1600	 0.401512807672821 
1601	 0.401556027587249 
1602	 0.401576337103786 
1603	 0.401567954771202 
1604	 0.401596362355143 
1605	 0.401625368193204 
1606	 0.401665199265378 
1607	 0.401741279923557 
1608	 0.401822107162902 
1609	 0.401874914199199 
1610	 0.401929912532329 
1611	 0.401977031197618 
1612	 0.402006012875883 
1613	 0.402030696548339 
1614	 0.402057000114158 
1615	 0.402066123005618 
1616	 0.402072516630788 
1617	 0.402065837816109 
1618	 0.402047365724401 
1619	 0.402072794066324 
1620	 0.402112315199858 
1621	 0.402145338252064 
1622	 0.402196391990057 
1623	 0.402242969393121 
1624	 0.402280769812834 
1625	 0.402325677945431 
1626	 0.402393723303841 
1627	 0.402425689746188 
1628	 0.402435085244365 
1629	 0.402455753766022 
1630	 0.402465562181462 
1631	 0.402482332115738 
1632	 0.402499630447336 
1633	 0.402531739449678 
1634	 0.402564317736888 
1635	 0.402610759757241 
1636	 0.402690109669376 
1637	 0.402726625666745 
1638	 0.402748293895701 
1639	 0.402775612117304 
1640	 0.402777640613083 
1641	 0.402806879458233 
1642	 0.402852952680588 
1643	 0.402895932354221 
1644	 0.402948054970692 
1645	 0.402989771718411 
1646	 0.403041547782295 
1647	 0.403063997635169 
1648	 0.403047455342372 
1649	 0.403083251345114 
1650	 0.403137702661355 
1651	 0.403168856167666 
1652	 0.403221960182896 
1653	 0.403259707502042 
1654	 0.403255846278478 
1655	 0.403288167622896 
1656	 0.403357348251146 
1657	 0.403395409097222 
1658	 0.40342561537839 
1659	 0.403450831718719 
1660	 0.403455893053592 
1661	 0.40348310826252 
1662	 0.403515225968893 
1663	 0.403551674458766 
1664	 0.403606763037592 
1665	 0.403645152868923 
1666	 0.403684628308536 
1667	 0.40370622342322 
1668	 0.403708526212293 
1669	 0.403722387413026 
1670	 0.403721416466218 
1671	 0.403741778184111 
1672	 0.403786916054636 
1673	 0.403809837703175 
1674	 0.403830693035361 
1675	 0.403849024037156 
1676	 0.403843489190952 
1677	 0.403869638064235 
1678	 0.403917156125356 
1679	 0.403953864044424 
1680	 0.40400807749496 
1681	 0.404041544120811 
1682	 0.404052218366555 
1683	 0.404081147815832 
1684	 0.404099784631084 
1685	 0.404147884841237 
1686	 0.404230684326317 
1687	 0.40428578520903 
1688	 0.404346911139753 
1689	 0.404397339577698 
1690	 0.404424063936383 
1691	 0.404465053632774 
1692	 0.404502639066093 
1693	 0.404562572734151 
1694	 0.404645129420965 
1695	 0.404702783390859 
1696	 0.404781477262961 
1697	 0.404820457290523 
1698	 0.40481983033727 
1699	 0.40482627193983 
1700	 0.404809681052156 
1701	 0.404815649819331 
1702	 0.404826912464696 
1703	 0.404838243883929 
1704	 0.404850785619946 
1705	 0.404886101414769 
1706	 0.404932076631595 
1707	 0.40497601492233 
1708	 0.40505344432222 
1709	 0.405094495611362 
1710	 0.405102222919343 
1711	 0.405135501368555 
1712	 0.405172593246453 
1713	 0.405204661789131 
1714	 0.405254164064825 
1715	 0.40527613231964 
1716	 0.40527050473465 
1717	 0.405283634654661 
1718	 0.405290152572751 
1719	 0.405310744678761 
1720	 0.40535820387831 
1721	 0.405367328104106 
1722	 0.405351402552857 
1723	 0.405363389377325 
1724	 0.405371812542479 
1725	 0.405387167184868 
1726	 0.405444523846882 
1727	 0.40543627490756 
1728	 0.405390000067935 
1729	 0.405349024988353 
1730	 0.405256785024021 
1731	 0.405235318423163 
1732	 0.405255302457572 
1733	 0.405243872487974 
1734	 0.405254795611837 
1735	 0.405252566175841 
1736	 0.405230287276579 
1737	 0.405200733514656 
1738	 0.405171331558673 
1739	 0.405146940678214 
1740	 0.405093463095525 
1741	 0.405088226806439 
1742	 0.405128933965207 
1743	 0.405121444808799 
1744	 0.40510973036045 
1745	 0.405094994556045 
1746	 0.405057605790853 
1747	 0.405043004941544 
1748	 0.405023612080257 
1749	 0.404991127066745 
1750	 0.404980380587283 
1751	 0.404972467681798 
1752	 0.404945231023729 
1753	 0.404918206934988 
1754	 0.404892046507322 
1755	 0.404880402091166 
1756	 0.404872061292135 
1757	 0.404876262265152 
1758	 0.404881887163941 
1759	 0.404866373476773 
1760	 0.404852370108168 
1761	 0.40480898013385 
1762	 0.404749209312467 
1763	 0.404712084027666 
1764	 0.404692518936686 
1765	 0.404707521241338 
1766	 0.404734884281371 
1767	 0.404776066381212 
1768	 0.404820558318035 
1769	 0.404840885025724 
1770	 0.404878921088595 
1771	 0.404902295589273 
1772	 0.404906470406811 
1773	 0.404915232048254 
1774	 0.404903905012902 
1775	 0.404895023364286 
1776	 0.404892875329312 
1777	 0.404917663864609 
1778	 0.40496459169233 
1779	 0.405005999224581 
1780	 0.405051696433001 
1781	 0.405064359121786 
1782	 0.405073892552708 
1783	 0.405062293088463 
1784	 0.405041113745452 
1785	 0.405007385831735 
1786	 0.405004073410182 
1787	 0.405005419170277 
1788	 0.405008640192668 
1789	 0.405021668405165 
1790	 0.405048717185576 
1791	 0.405081764518008 
1792	 0.405134069584073 
1793	 0.405230786561208 
1794	 0.405292853460752 
1795	 0.405331438641641 
1796	 0.405372476933343 
1797	 0.405412235314771 
1798	 0.405438986411969 
1799	 0.405466491201092 
1800	 0.405479675772715 
1801	 0.410186993087251 
1802	 0.410174716962651 
1803	 0.410188880756867 
1804	 0.41021708789898 
1805	 0.410202065052129 
1806	 0.410182345912667 
1807	 0.41018503032171 
1808	 0.410189452460463 
1809	 0.410163285367101 
1810	 0.410170348744365 
1811	 0.410206607444444 
1812	 0.410261125783512 
1813	 0.410264938913008 
1814	 0.410302448643667 
1815	 0.410367075549194 
1816	 0.410388661033908 
1817	 0.410410650852014 
1818	 0.410446483634492 
1819	 0.410454004460035 
1820	 0.410435266177188 
1821	 0.410415563587787 
1822	 0.410405424833435 
1823	 0.410380973290165 
1824	 0.410351726053347 
1825	 0.41035115746668 
1826	 0.410330837887776 
1827	 0.410291181093468 
1828	 0.410261290827304 
1829	 0.410237693435838 
1830	 0.410195294011992 
1831	 0.410127882425622 
1832	 0.410100638281988 
1833	 0.410086806640798 
1834	 0.410055919852625 
1835	 0.410057688940247 
1836	 0.410049129905371 
1837	 0.41002341065872 
1838	 0.409994702656846 
1839	 0.409969174103369 
1840	 0.409930785150525 
1841	 0.409923805186915 
1842	 0.409944775626805 
1843	 0.409962657047877 
1844	 0.409977104287564 
1845	 0.409987399660265 
1846	 0.409998179219966 
1847	 0.410018226475625 
1848	 0.410088222489314 
1849	 0.410167231211011 
1850	 0.410197674383194 
1851	 0.410201305583073 
1852	 0.410200628989952 
1853	 0.410169544247489 
1854	 0.410143928707926 
1855	 0.41015898936958 
1856	 0.410155179336105 
1857	 0.41015436932935 
1858	 0.41014814208233 
1859	 0.410134598004762 
1860	 0.410118376635299 
1861	 0.410108468853986 
1862	 0.410087782058413 
1863	 0.410044789606625 
1864	 0.409970422401084 
1865	 0.409878565735822 
1866	 0.409769107447728 
1867	 0.409668268657051 
1868	 0.409589071850666 
1869	 0.40952087883684 
1870	 0.409452526946616 
1871	 0.409356212451494 
1872	 0.409249493557929 
1873	 0.40911577117098 
1874	 0.408953337594288 
1875	 0.408777518549061 
1876	 0.408577670567258 
1877	 0.408344609636965 
1878	 0.408083446993298 
1879	 0.407797494938662 
1880	 0.407487785935908 
1881	 0.407158172492754 
1882	 0.406796609552503 
1883	 0.406418316289429 
1884	 0.405978701349491 
1885	 0.405522070454086 
1886	 0.40504098028034 
1887	 0.404504841836428 
1888	 0.403974168240996 
1889	 0.403416972126564 
1890	 0.402810625473317 
1891	 0.402200916095576 
1892	 0.40157972305632 
1893	 0.400928026909541 
1894	 0.400239936972393 
1895	 0.399559528451676 
1896	 0.398865444258975 
1897	 0.39818480457275 
1898	 0.397548147822302 
1899	 0.39694961887978 
1900	 0.396376540702557 
1901	 0.395851989187907 
1902	 0.395346573798207 
1903	 0.394878375465038 
1904	 0.394413937550265 
1905	 0.393969685392341 
1906	 0.393548403802903 
1907	 0.393129241350147 
1908	 0.392738486094622 
1909	 0.392380917536728 
1910	 0.392026051532123 
1911	 0.391712091970588 
1912	 0.391395645283058 
1913	 0.391088100118232 
1914	 0.390795743294028 
1915	 0.390512501613221 
1916	 0.390228018958994 
1917	 0.389968375295597 
1918	 0.389716071939242 
1919	 0.389444809437737 
1920	 0.389218321804493 
1921	 0.389019225062728 
1922	 0.388822409491083 
1923	 0.388678010727421 
1924	 0.388543338368967 
1925	 0.388416307697601 
1926	 0.388311695972485 
1927	 0.388234512903658 
1928	 0.388179103032284 
1929	 0.38814203216061 
1930	 0.388095599744761 
1931	 0.388044183131911 
1932	 0.387999069642996 
1933	 0.387956241076482 
1934	 0.387918386680565 
1935	 0.387895177456672 
1936	 0.387887984806702 
1937	 0.387893789674942 
1938	 0.387891374716355 
1939	 0.387936238538222 
1940	 0.388018082660749 
1941	 0.388114590801119 
1942	 0.388230853221863 
1943	 0.388351552292622 
1944	 0.388456348330968 
1945	 0.388575583899381 
1946	 0.388716269785118 
1947	 0.38888346619899 
1948	 0.389029216554915 
1949	 0.389186545303943 
1950	 0.389343532218693 
1951	 0.389493056346718 
1952	 0.389627474350167 
1953	 0.389790707627268 
1954	 0.389987424935861 
1955	 0.390157510148877 
1956	 0.390331844323385 
1957	 0.390521273428354 
1958	 0.390717109960154 
1959	 0.390902228359404 
1960	 0.39110281784269 
1961	 0.391300873712264 
1962	 0.39148026390417 
1963	 0.391677297351009 
1964	 0.391888125145064 
1965	 0.392090075969399 
1966	 0.392311738392881 
1967	 0.392565375079703 
1968	 0.392792619884476 
1969	 0.393022642480058 
1970	 0.393250643507571 
1971	 0.393467841867866 
1972	 0.393680034541637 
1973	 0.393910442542027 
1974	 0.394115603459723 
1975	 0.394285692411485 
1976	 0.394468043762479 
1977	 0.394682981121399 
1978	 0.394885580081211 
1979	 0.395125701492026 
1980	 0.395393470406463 
1981	 0.395642016680996 
1982	 0.39589212584636 
1983	 0.396136608049691 
1984	 0.396365219946853 
1985	 0.396612305039682 
1986	 0.396864943460591 
1987	 0.397122448193066 
1988	 0.397395185570247 
1989	 0.397670438692424 
1990	 0.397920210958943 
1991	 0.398172170840529 
1992	 0.398445120923008 
1993	 0.398724532305119 
1994	 0.399003650357529 
1995	 0.399316883162069 
1996	 0.399590477706853 
1997	 0.399825096550235 
1998	 0.400092149389501 
1999	 0.400361728947415 
2000	 0.400630838184956 
2001	 0.400916739170623 
2002	 0.401203016083372 
2003	 0.40147005553677 
2004	 0.401736116176729 
2005	 0.401991345080068 
2006	 0.402238514111958 
2007	 0.402488549328746 
2008	 0.402715927921809 
2009	 0.40297049261159 
2010	 0.403232407100276 
2011	 0.403507819151166 
2012	 0.403813833926522 
2013	 0.404105173920168 
2014	 0.404402548246075 
2015	 0.404689726944778 
2016	 0.404977382370099 
2017	 0.405277377989725 
2018	 0.405573370103575 
2019	 0.405880980233218 
2020	 0.406177291976555 
2021	 0.406472532090964 
2022	 0.406752693581416 
2023	 0.407024860880711 
2024	 0.407299078352379 
2025	 0.407562030801887 
2026	 0.407822245089063 
2027	 0.408097290108227 
2028	 0.408338089566291 
2029	 0.40858690824996 
2030	 0.408834197707621 
2031	 0.409064878718518 
2032	 0.409285350034757 
2033	 0.409506249785652 
2034	 0.40970029456902 
2035	 0.409918026324906 
2036	 0.410151444512258 
2037	 0.410379350854447 
2038	 0.41062368436128 
2039	 0.410848698683829 
2040	 0.411071152066616 
2041	 0.411271069326953 
2042	 0.411480608076086 
2043	 0.411682485228786 
2044	 0.411865549818195 
2045	 0.4120400507044 
2046	 0.412214056295994 
2047	 0.412363254453648 
2048	 0.412523711224362 
2049	 0.41269429350103 
2050	 0.412857760342502 
2051	 0.413009427729443 
2052	 0.413171496615809 
2053	 0.41335189564896 
2054	 0.413511099944402 
2055	 0.413661159663681 
2056	 0.413803854200403 
2057	 0.413956755789131 
2058	 0.414106394192751 
2059	 0.414246931288542 
2060	 0.4143997548261 
2061	 0.41453047055728 
2062	 0.414627811508725 
2063	 0.414748616630686 
2064	 0.414870765471726 
2065	 0.414999932845844 
2066	 0.415136700201492 
2067	 0.415276688740126 
2068	 0.415424155044323 
2069	 0.415561436115358 
2070	 0.415728122328821 
2071	 0.415923014077778 
2072	 0.416080838734354 
2073	 0.416247226610678 
2074	 0.416391159334066 
2075	 0.416486111732835 
2076	 0.41662411232646 
2077	 0.416772604617571 
2078	 0.4169303555298 
2079	 0.417118025095665 
2080	 0.417285711587388 
2081	 0.417449381565916 
2082	 0.41761378057501 
2083	 0.417767213023487 
2084	 0.41792490849565 
2085	 0.418091027189115 
2086	 0.418272318821731 
2087	 0.418430914533628 
2088	 0.418589126757926 
2089	 0.418732855411963 
2090	 0.418862624117524 
2091	 0.418985748766355 
2092	 0.419096312588204 
2093	 0.419210978443835 
2094	 0.41929542127645 
2095	 0.419417286366128 
2096	 0.419570833071419 
2097	 0.419709377939243 
2098	 0.419838770783529 
2099	 0.420002566183559 
2100	 0.420176962919752 
2101	 0.420352815143799 
2102	 0.420536633869173 
2103	 0.420761844258109 
2104	 0.420952807514626 
2105	 0.421117932252268 
2106	 0.421300515301749 
2107	 0.421485652288218 
2108	 0.421673471318066 
2109	 0.42186587834018 
2110	 0.422058773318867 
2111	 0.422259577013191 
2112	 0.422452318492723 
2113	 0.422635357731112 
2114	 0.422826631375559 
2115	 0.423024537498377 
2116	 0.423224176566336 
2117	 0.423424108873784 
2118	 0.423625304023557 
2119	 0.423844259586222 
2120	 0.424075698541196 
2121	 0.424293295613871 
2122	 0.424532296933681 
2123	 0.424744980996954 
2124	 0.42493338674418 
2125	 0.4251219748477 
2126	 0.425326864227858 
2127	 0.425487865364565 
2128	 0.425608163630658 
2129	 0.425737459618242 
2130	 0.42584161367982 
2131	 0.42595276257286 
2132	 0.426040619996546 
2133	 0.426146975498927 
2134	 0.426187963669628 
2135	 0.426183422042844 
2136	 0.426169107276604 
2137	 0.426117803352906 
2138	 0.426064342958448 
2139	 0.425986794403981 
2140	 0.425914170425965 
2141	 0.425846650000164 
2142	 0.425748896782485 
2143	 0.42563271783532 
2144	 0.425513078580234 
2145	 0.425370548727259 
2146	 0.4252215526332 
2147	 0.42506485888987 
2148	 0.424906898024696 
2149	 0.424752244360149 
2150	 0.424596115904684 
2151	 0.424419406630477 
2152	 0.42425575106437 
2153	 0.424049735680069 
2154	 0.423823763738023 
2155	 0.423555381898513 
2156	 0.423243261780976 
2157	 0.422934063760023 
2158	 0.422571306864961 
2159	 0.422237696251685 
2160	 0.421935907870657 
2161	 0.421599372726456 
2162	 0.421271958394454 
2163	 0.420902740606189 
2164	 0.42048940816841 
2165	 0.420062558349828 
2166	 0.419641428433612 
2167	 0.419188005438053 
2168	 0.418768195780085 
2169	 0.418360504476411 
2170	 0.41795923166707 
2171	 0.417569215623137 
2172	 0.417182506296485 
2173	 0.416810492220739 
2174	 0.416428927351408 
2175	 0.416045823504347 
2176	 0.415661151183181 
2177	 0.415292302490652 
2178	 0.414890626242351 
2179	 0.414478191828105 
2180	 0.414050505610557 
2181	 0.413580026790257 
2182	 0.413122906426054 
2183	 0.412663280241089 
2184	 0.412201937547721 
2185	 0.411748666237356 
2186	 0.411285176114794 
2187	 0.410865798292634 
2188	 0.410465755581238 
2189	 0.41007303119758 
2190	 0.409713311254781 
2191	 0.409348429531748 
2192	 0.40896878689695 
2193	 0.40863227098462 
2194	 0.408312675453176 
2195	 0.408022920581268 
2196	 0.407759208290262 
2197	 0.40752626482832 
2198	 0.407349198523833 
2199	 0.407153667078267 
2200	 0.406962582587075 
2201	 0.406796155177424 
2202	 0.406631281701239 
2203	 0.406472001926192 
2204	 0.406363721483741 
2205	 0.406290811744815 
2206	 0.406251499751795 
2207	 0.40624828140318 
2208	 0.406267821685328 
2209	 0.406335406871551 
2210	 0.406401646873703 
2211	 0.4064942350226 
2212	 0.406579119203696 
2213	 0.406681904381942 
2214	 0.406767197503766 
2215	 0.406857198344909 
2216	 0.406926074966484 
2217	 0.406970819422277 
2218	 0.407025542053509 
2219	 0.4070648231749 
2220	 0.407115234011513 
2221	 0.407178536525181 
2222	 0.407244771860261 
2223	 0.407275181892598 
2224	 0.407326254194103 
2225	 0.407351793643287 
2226	 0.407356137675048 
2227	 0.407360629853831 
2228	 0.40736298106335 
2229	 0.407350579615974 
2230	 0.407327207573424 
2231	 0.407293029161854 
2232	 0.407239146820377 
2233	 0.407193983745518 
2234	 0.407140485446212 
2235	 0.407093550389722 
2236	 0.40706119194508 
2237	 0.407011837429262 
2238	 0.406950972645004 
2239	 0.406889101641003 
2240	 0.406803417840333 
2241	 0.406747608831762 
2242	 0.406724289289521 
2243	 0.406674584235104 
2244	 0.406636580431229 
2245	 0.406566320062893 
2246	 0.406512451843615 
2247	 0.406451835275892 
2248	 0.406414237505716 
2249	 0.406401766342512 
2250	 0.406402951644539 
2251	 0.40641491799505 
2252	 0.406426158855613 
2253	 0.40645368390626 
2254	 0.406487037743214 
2255	 0.40651023800536 
2256	 0.406559658784367 
2257	 0.406641190513894 
2258	 0.406717793096361 
2259	 0.406797435264398 
2260	 0.406889902834081 
2261	 0.406996076191081 
2262	 0.407103369769603 
2263	 0.407257505336286 
2264	 0.407336392802764 
2265	 0.407339849179643 
2266	 0.407409633824722 
2267	 0.407458681751176 
2268	 0.407536379913195 
2269	 0.407695160166192 
2270	 0.407821225849685 
2271	 0.40793137895294 
2272	 0.408022268773811 
2273	 0.408069293891649 
2274	 0.40818062460601 
2275	 0.408287395137291 
2276	 0.408380854035109 
2277	 0.408501625649393 
2278	 0.408662246637895 
2279	 0.408806321052618 
2280	 0.408953594395327 
2281	 0.40910214353609 
2282	 0.40925895684596 
2283	 0.409404869030266 
2284	 0.409542328111913 
2285	 0.409688086688585 
2286	 0.409828815589834 
2287	 0.409984155242412 
2288	 0.410155622101248 
2289	 0.410313222843175 
2290	 0.410475208333492 
2291	 0.410633734219176 
2292	 0.410812658379586 
2293	 0.410932814873346 
2294	 0.410997384809646 
2295	 0.411097060657248 
2296	 0.411156593611118 
2297	 0.411246349896187 
2298	 0.411396346587481 
2299	 0.4115802824672 
2300	 0.411765930179575 
2301	 0.411930496727223 
2302	 0.412066257917326 
2303	 0.412204149989832 
2304	 0.412323338475958 
2305	 0.412438802798493 
2306	 0.412548272085096 
2307	 0.41267000838899 
2308	 0.412749216008154 
2309	 0.412794520402342 
2310	 0.412838310859949 
2311	 0.412845356938172 
2312	 0.412906471795274 
2313	 0.412991951966883 
2314	 0.413065317571232 
2315	 0.41316301274806 
2316	 0.413243505916925 
2317	 0.413304352103899 
2318	 0.413365028319469 
2319	 0.413422849886188 
2320	 0.413488097370639 
2321	 0.413531800861196 
2322	 0.413615019440843 
2323	 0.41372390520286 
2324	 0.413845288441259 
2325	 0.414002226198722 
2326	 0.414147210700723 
2327	 0.414296951327836 
2328	 0.414457210047163 
2329	 0.414606728976552 
2330	 0.414744694154712 
2331	 0.414896470952784 
2332	 0.415036263959895 
2333	 0.415152531938446 
2334	 0.415231414496412 
2335	 0.415316640310456 
2336	 0.415420211482998 
2337	 0.415525980645311 
2338	 0.415667541734897 
2339	 0.415814128784814 
2340	 0.415900355695767 
2341	 0.415998389082737 
2342	 0.416114340736582 
2343	 0.416182480341074 
2344	 0.416299752126865 
2345	 0.416355356342084 
2346	 0.416391493332697 
2347	 0.416372534515567 
2348	 0.416280064465396 
2349	 0.416219527098686 
2350	 0.416135805834708 
2351	 0.416076901816322 
2352	 0.416017072878747 
2353	 0.415998489652208 
2354	 0.415993919205461 
2355	 0.415997358864948 
2356	 0.41606308373794 
2357	 0.41608398064267 
2358	 0.416107668306383 
2359	 0.4161001864145 
2360	 0.416048005748546 
2361	 0.416007311156115 
2362	 0.415946538445612 
2363	 0.415881144065276 
2364	 0.415847568437079 
2365	 0.41576658077207 
2366	 0.41560685647906 
2367	 0.415510277492726 
2368	 0.415460956716716 
2369	 0.415354359618881 
2370	 0.415238669332558 
2371	 0.415134166756306 
2372	 0.415034169539555 
2373	 0.41484275499108 
2374	 0.414700988332632 
2375	 0.414631737564392 
2376	 0.414493200571155 
2377	 0.414327920175807 
2378	 0.414173172161427 
2379	 0.413999537465431 
2380	 0.413862020684196 
2381	 0.413785720946322 
2382	 0.413709403011606 
2383	 0.413610117728693 
2384	 0.413518893600087 
2385	 0.413399413847102 
2386	 0.413234419261635 
2387	 0.413080841771232 
2388	 0.412856549810028 
2389	 0.412593527404779 
2390	 0.412403922648592 
2391	 0.412245854119158 
2392	 0.412107529197961 
2393	 0.412012745934882 
2394	 0.411917319154726 
2395	 0.411793397878399 
2396	 0.411634243031886 
2397	 0.411412736187056 
2398	 0.411207829755393 
2399	 0.411057614926826 
2400	 0.410940684100818 
2401	 0.410847094692027 
2402	 0.410651748698828 
2403	 0.410385495023145 
2404	 0.410151999750288 
2405	 0.409893843580183 
2406	 0.409691074973113 
2407	 0.409535636193466 
2408	 0.409267000950975 
2409	 0.408991852255142 
2410	 0.408778778308182 
2411	 0.408591067279771 
2412	 0.408464999407856 
2413	 0.408328358212923 
2414	 0.408150413957788 
2415	 0.407910023636925 
2416	 0.407637380969229 
2417	 0.407294641712623 
2418	 0.407011285716711 
2419	 0.406696798092523 
2420	 0.40646865247137 
2421	 0.406305561252049 
2422	 0.406139087654532 
2423	 0.406069852658816 
2424	 0.405831248317996 
2425	 0.405492526260573 
2426	 0.405236838890281 
2427	 0.404881927241695 
2428	 0.404690102272564 
2429	 0.404697945031764 
2430	 0.404517081564567 
2431	 0.404272185971866 
2432	 0.404093973261722 
2433	 0.403866172038492 
2434	 0.403642075052783 
2435	 0.40348546193971 
2436	 0.403310883410963 
2437	 0.403048401358173 
2438	 0.402871370606877 
2439	 0.402818369165438 
2440	 0.402665020488293 
2441	 0.402464131078855 
2442	 0.402361559959693 
2443	 0.402279258654335 
2444	 0.402147058309338 
2445	 0.402039496522322 
2446	 0.401858470687996 
2447	 0.401594580996572 
2448	 0.401403842613579 
2449	 0.401241877382611 
2450	 0.401103972319214 
2451	 0.400967114044377 
2452	 0.400878923302222 
2453	 0.400870169957473 
2454	 0.400717168847754 
2455	 0.400552807847507 
2456	 0.400353162005895 
2457	 0.400020401585939 
2458	 0.399785792521271 
2459	 0.399588678460994 
2460	 0.399377263988783 
2461	 0.399156404452896 
2462	 0.398964984408039 
2463	 0.398787391616374 
2464	 0.39863234424508 
2465	 0.398550301527195 
2466	 0.398541527501282 
2467	 0.398577480580792 
2468	 0.398418457231229 
2469	 0.398193929558779 
2470	 0.397791922289767 
2471	 0.397663075329765 
2472	 0.39750958459771 
2473	 0.397279429604023 
2474	 0.397066876146647 
2475	 0.396723358852664 
2476	 0.396549664212927 
2477	 0.396431937666036 
2478	 0.396409067395551 
2479	 0.396517436911558 
2480	 0.396359398307363 
2481	 0.396262637065391 
2482	 0.396134127711189 
2483	 0.395808074419172 
2484	 0.395692879078878 
2485	 0.395543247775089 
2486	 0.395504890295581 
2487	 0.395622984155468 
2488	 0.395529415673268 
2489	 0.395433446773055 
2490	 0.395079882583966 
2491	 0.394596869243081 
2492	 0.39431860641843 
2493	 0.394033337098319 
2494	 0.393894933812951 
2495	 0.393760262994001 
2496	 0.393561093930515 
2497	 0.393345015578699 
2498	 0.393202120709256 
2499	 0.393342954383974 
2500	 0.393369459518261 
