Wavelength	LMW100009.asd
350	 0.084551992674593 
351	 8.49688056670356E-02 
352	 8.16030438479817E-02 
353	 7.83586690438027E-02 
354	 8.10838178313627E-02 
355	 7.95519532890503E-02 
356	 0.077114958258148 
357	 0.078393466003323 
358	 7.82308575601007E-02 
359	 0.077567835677371 
360	 7.75410038565334E-02 
361	 7.89103502034322E-02 
362	 7.78630533416221E-02 
363	 7.92706909295648E-02 
364	 8.32285815362109E-02 
365	 8.07869352023542E-02 
366	 7.87391860425185E-02 
367	 7.72655180595737E-02 
368	 0.07600789130021 
369	 8.04233728655919E-02 
370	 8.11835859122465E-02 
371	 7.93922748533721E-02 
372	 0.082718402645731 
373	 8.43843944478469E-02 
374	 8.36265599213599E-02 
375	 8.18730921169983E-02 
376	 8.29214379679238E-02 
377	 8.28337823863696E-02 
378	 8.36669662307819E-02 
379	 8.73350735164151E-02 
380	 8.76412890637804E-02 
381	 8.72195598328827E-02 
382	 8.79562321621253E-02 
383	 9.04636455053943E-02 
384	 8.99133250811162E-02 
385	 8.92558531190159E-02 
386	 9.05718719222596E-02 
387	 0.092418745253624 
388	 9.14390014504257E-02 
389	 9.01963759787263E-02 
390	 9.19175567770025E-02 
391	 9.29464702187549E-02 
392	 9.40813708831258E-02 
393	 9.50840515256649E-02 
394	 9.48258668953411E-02 
395	 9.45381167347435E-02 
396	 9.45174390510367E-02 
397	 0.095371317582211 
398	 0.099151036260546 
399	 0.101383420939071 
400	 0.102041696821032 
401	 0.102803203090964 
402	 0.104742612957046 
403	 0.104305334377113 
404	 0.102605568321521 
405	 0.105339720191604 
406	 0.106964670937324 
407	 0.107492813971931 
408	 0.107825829241735 
409	 0.108061510390195 
410	 0.108748580275121 
411	 0.109699951433184 
412	 0.11048535209471 
413	 0.11184816819454 
414	 0.112518067323864 
415	 0.112433769122724 
416	 0.113244362489856 
417	 0.113626384606382 
418	 0.114263108537348 
419	 0.11546224373015 
420	 0.11454859880621 
421	 0.114177355563828 
422	 0.114835440903924 
423	 0.115499156822194 
424	 0.115640725779146 
425	 0.11535961212532 
426	 0.115030941177302 
427	 0.115402601399658 
428	 0.115168055449811 
429	 0.114622621874217 
430	 0.114501843784 
431	 0.114997781881979 
432	 0.114886726073499 
433	 0.114269267424882 
434	 0.11449400352356 
435	 0.114633220004158 
436	 0.114427778002959 
437	 0.113972318819722 
438	 0.113835292228354 
439	 0.114418155504858 
440	 0.115215140343405 
441	 0.115396058658357 
442	 0.115633521572277 
443	 0.115960568125029 
444	 0.116320220673503 
445	 0.116611301550475 
446	 0.117125888800995 
447	 0.11774947576668 
448	 0.118275703735123 
449	 0.11863916377593 
450	 0.119212027991286 
451	 0.11985446903036 
452	 0.120044402316151 
453	 0.120636651883965 
454	 0.12130394557872 
455	 0.121713646472386 
456	 0.122008531804222 
457	 0.122501725434595 
458	 0.122997333157586 
459	 0.123153173366202 
460	 0.123509690820512 
461	 0.123779811795605 
462	 0.123954801000489 
463	 0.124521391362319 
464	 0.124845743905374 
465	 0.125036226105863 
466	 0.125329232035653 
467	 0.125586021542999 
468	 0.125816999176212 
469	 0.125918004108176 
470	 0.125743845420039 
471	 0.126044450251017 
472	 0.12633512229434 
473	 0.126337207841123 
474	 0.126813659498911 
475	 0.126949529101805 
476	 0.126909410229241 
477	 0.127190844994321 
478	 0.127291309143024 
479	 0.127552208416185 
480	 0.127972842069327 
481	 0.127987534139395 
482	 0.128073651743647 
483	 0.128243399181737 
484	 0.12841217632033 
485	 0.128676288455227 
486	 0.128752841824089 
487	 0.128704794836539 
488	 0.128868119315735 
489	 0.129000993355871 
490	 0.129245015771358 
491	 0.129604315614575 
492	 0.129577762816675 
493	 0.129572194043892 
494	 0.129667861109344 
495	 0.129787680198909 
496	 0.129891485126398 
497	 0.130018625594057 
498	 0.130164872744517 
499	 0.130248499767644 
500	 0.130338358458342 
501	 0.130465472967409 
502	 0.13061785254549 
503	 0.130645440513392 
504	 0.130716401295967 
505	 0.130854929881217 
506	 0.13094690573907 
507	 0.130974700481242 
508	 0.131147271419456 
509	 0.131511780953839 
510	 0.13158215692181 
511	 0.131565393299783 
512	 0.131578454317262 
513	 0.131673667210247 
514	 0.131721712110941 
515	 0.131786295443091 
516	 0.13191202724702 
517	 0.132083243736607 
518	 0.132181669923888 
519	 0.132262980399783 
520	 0.132404214642244 
521	 0.132446805421463 
522	 0.132543592387121 
523	 0.132726216218286 
524	 0.132882824655737 
525	 0.132870134862049 
526	 0.132833750322725 
527	 0.132930851553699 
528	 0.133156218047709 
529	 0.133248492010643 
530	 0.133258361989784 
531	 0.133422225207551 
532	 0.133524781133909 
533	 0.133656501783095 
534	 0.133836919822417 
535	 0.133828061078613 
536	 0.133932337356213 
537	 0.134125442107627 
538	 0.134257826273806 
539	 0.134293411886129 
540	 0.134334154325015 
541	 0.134442218767569 
542	 0.134613960337177 
543	 0.13474328103884 
544	 0.134860066722944 
545	 0.135009932484592 
546	 0.135138542118566 
547	 0.135203443402645 
548	 0.13528643564746 
549	 0.135552256448899 
550	 0.135659229722206 
551	 0.135760233635203 
552	 0.135998082640423 
553	 0.136259289324982 
554	 0.136454060833848 
555	 0.136613185987787 
556	 0.136831925751062 
557	 0.137111752106214 
558	 0.137390985497526 
559	 0.137646905968632 
560	 0.137941776689873 
561	 0.138194851573069 
562	 0.138433939193771 
563	 0.138717564613235 
564	 0.139053549672126 
565	 0.139339007906707 
566	 0.139601423074202 
567	 0.140015358086206 
568	 0.140415311343141 
569	 0.140816712679269 
570	 0.141270895005131 
571	 0.1418072448077 
572	 0.142333480908979 
573	 0.142843111704966 
574	 0.14338186132648 
575	 0.14383204904149 
576	 0.144317132793542 
577	 0.144901605270843 
578	 0.14543452699209 
579	 0.146049922224177 
580	 0.14675549231661 
581	 0.147502556595302 
582	 0.148262338535877 
583	 0.14903148392271 
584	 0.149778762499156 
585	 0.150429235836005 
586	 0.151112130590161 
587	 0.151812380328138 
588	 0.152492290207153 
589	 0.153221036594207 
590	 0.153981484802886 
591	 0.15474439194105 
592	 0.155479400130419 
593	 0.156230009469577 
594	 0.156994753877559 
595	 0.157787779405541 
596	 0.158697939394014 
597	 0.15964197819923 
598	 0.160585991503172 
599	 0.161521226903726 
600	 0.162398757908191 
601	 0.163206977211566 
602	 0.16394424020854 
603	 0.164616359609109 
604	 0.165283577710789 
605	 0.165965390922767 
606	 0.166646659508703 
607	 0.167227523727627 
608	 0.167821387015573 
609	 0.168454703518882 
610	 0.169042239108463 
611	 0.169656145955089 
612	 0.170246729915404 
613	 0.170780175308634 
614	 0.17140128790047 
615	 0.171883440169491 
616	 0.172271985448019 
617	 0.17278088092608 
618	 0.173178413807659 
619	 0.173533446579696 
620	 0.173916445900179 
621	 0.174307792776267 
622	 0.174655388757199 
623	 0.174965282182545 
624	 0.175274421941264 
625	 0.175632200837848 
626	 0.175945911369511 
627	 0.176198970281361 
628	 0.176487884930569 
629	 0.17682741526936 
630	 0.177141922724338 
631	 0.177378128982859 
632	 0.177683442927761 
633	 0.177930872705752 
634	 0.178136335620011 
635	 0.178427007927643 
636	 0.178672712915448 
637	 0.178906451123307 
638	 0.179158453473255 
639	 0.179373783006295 
640	 0.179662375553658 
641	 0.179977698834417 
642	 0.180213814156488 
643	 0.180434592943154 
644	 0.180697095267422 
645	 0.180999869382261 
646	 0.181258665533875 
647	 0.181496872284291 
648	 0.181749772508318 
649	 0.182041484328699 
650	 0.182325309147854 
651	 0.182630061826333 
652	 0.182930938136864 
653	 0.183165113967654 
654	 0.183469943691302 
655	 0.183786644413475 
656	 0.184068151347307 
657	 0.184388417636059 
658	 0.184722389211528 
659	 0.185059479129717 
660	 0.185393917062969 
661	 0.185716699507339 
662	 0.186061270242174 
663	 0.186431619570316 
664	 0.186784537525224 
665	 0.187139983181279 
666	 0.187506940719808 
667	 0.187886421846433 
668	 0.188253849826431 
669	 0.188627875961416 
670	 0.18903317102419 
671	 0.189491790843741 
672	 0.189928762749755 
673	 0.190356557967527 
674	 0.190799452655819 
675	 0.191276239053938 
676	 0.191727006995797 
677	 0.192140447833204 
678	 0.192540575782196 
679	 0.193008005224197 
680	 0.193503071699275 
681	 0.194013473295143 
682	 0.194577855590041 
683	 0.195072440045613 
684	 0.195538917364347 
685	 0.196047045178976 
686	 0.196582956309027 
687	 0.197219504560148 
688	 0.197857429264001 
689	 0.19830271338484 
690	 0.198788871575253 
691	 0.199369665319279 
692	 0.200009952441562 
693	 0.200554051260934 
694	 0.201123205194604 
695	 0.201714737574856 
696	 0.202294757836684 
697	 0.202908401972155 
698	 0.203517515153136 
699	 0.204124607251471 
700	 0.204778287851955 
701	 0.205421636458299 
702	 0.206040005212491 
703	 0.206644159927278 
704	 0.207290954861218 
705	 0.20790091565903 
706	 0.208504089878814 
707	 0.209169344357741 
708	 0.209781426627774 
709	 0.210371375999591 
710	 0.210987712313743 
711	 0.211684783317412 
712	 0.212270797508834 
713	 0.212845520795005 
714	 0.213530588982165 
715	 0.214198334381587 
716	 0.214789559151705 
717	 0.215315485544403 
718	 0.215840152588561 
719	 0.216398957258635 
720	 0.217003812144345 
721	 0.217612174758887 
722	 0.218087704510149 
723	 0.218568175151093 
724	 0.219071947460909 
725	 0.219576391503311 
726	 0.220073986856393 
727	 0.220538263693213 
728	 0.22095650352572 
729	 0.221332167527858 
730	 0.221759599308037 
731	 0.222180919149533 
732	 0.222543676764188 
733	 0.222878717689491 
734	 0.22320544457321 
735	 0.223485108755343 
736	 0.223675292684379 
737	 0.22386613086202 
738	 0.224085541785412 
739	 0.224313322853371 
740	 0.2244846143917 
741	 0.224633530687312 
742	 0.224710189086431 
743	 0.224710980796158 
744	 0.224801461614585 
745	 0.224878830387022 
746	 0.22490400193057 
747	 0.224877690138361 
748	 0.224862739370819 
749	 0.224758367902453 
750	 0.224591252346979 
751	 0.22455173088204 
752	 0.224421045740884 
753	 0.224239016526224 
754	 0.224074808181723 
755	 0.22390280470541 
756	 0.223693734699467 
757	 0.223455608685966 
758	 0.223216824155598 
759	 0.222991352116843 
760	 0.222723687985616 
761	 0.222401189551176 
762	 0.22207198186071 
763	 0.221785887613726 
764	 0.221462397866619 
765	 0.221054802260613 
766	 0.220707852035765 
767	 0.220354572310379 
768	 0.219992486805861 
769	 0.219638200659775 
770	 0.219210784545971 
771	 0.218785324016775 
772	 0.218398612187139 
773	 0.218025120162971 
774	 0.217638246290121 
775	 0.217220008391124 
776	 0.216773144516745 
777	 0.216345956161362 
778	 0.215901695078092 
779	 0.215462512695358 
780	 0.215065078499461 
781	 0.21466239206541 
782	 0.214243763214224 
783	 0.213810991568481 
784	 0.213377573669938 
785	 0.212978841052402 
786	 0.212552769444504 
787	 0.212082900034996 
788	 0.211712675766996 
789	 0.211294736906942 
790	 0.210837521652378 
791	 0.210399211918162 
792	 0.209955329761104 
793	 0.209572633022178 
794	 0.209237678236171 
795	 0.208865260661616 
796	 0.208414264203476 
797	 0.207963886560675 
798	 0.207567207878031 
799	 0.207192776856365 
800	 0.206826770639973 
801	 0.206467558894426 
802	 0.206113208010226 
803	 0.20574270061976 
804	 0.205363548647353 
805	 0.205013130176964 
806	 0.204729967453438 
807	 0.204408911785763 
808	 0.204034441009698 
809	 0.203639637002707 
810	 0.203301509028177 
811	 0.203013308321146 
812	 0.202706702068836 
813	 0.202357448375767 
814	 0.202105254953016 
815	 0.201819061268523 
816	 0.201493220743343 
817	 0.201182020915919 
818	 0.20095189462158 
819	 0.200709268446646 
820	 0.200452059286005 
821	 0.20025243665193 
822	 0.199996270836882 
823	 0.199699730294542 
824	 0.199408179651871 
825	 0.199178760035409 
826	 0.198936992576635 
827	 0.198707642874231 
828	 0.19851640869733 
829	 0.19830252948191 
830	 0.198094160777747 
831	 0.197930470469112 
832	 0.197822677018842 
833	 0.197594872280404 
834	 0.19735706153309 
835	 0.197160246455321 
836	 0.196983143552388 
837	 0.19690927344355 
838	 0.19682008321099 
839	 0.19663930376171 
840	 0.196415093536476 
841	 0.196329934706416 
842	 0.196285246772468 
843	 0.196155619949738 
844	 0.196009526213094 
845	 0.1958381880513 
846	 0.195695501109182 
847	 0.195645093289157 
848	 0.195653566353159 
849	 0.195581866855375 
850	 0.195423199877505 
851	 0.195288696512105 
852	 0.195189353840858 
853	 0.195143075625048 
854	 0.195141314821144 
855	 0.195141962457996 
856	 0.195156992642277 
857	 0.195129325355939 
858	 0.195041876474826 
859	 0.19501338572965 
860	 0.194977304710443 
861	 0.19496468029909 
862	 0.195008892025878 
863	 0.195009308295136 
864	 0.195009366072516 
865	 0.195046841637409 
866	 0.195134641814102 
867	 0.195170193031543 
868	 0.195183923221759 
869	 0.195187014956612 
870	 0.195166929758231 
871	 0.19524555462777 
872	 0.195359880704187 
873	 0.195451781579044 
874	 0.195525987634808 
875	 0.195618903201167 
876	 0.195689313939691 
877	 0.195724727383967 
878	 0.195836760441056 
879	 0.195979097932697 
880	 0.196115178518267 
881	 0.196228247776707 
882	 0.196369421332828 
883	 0.196559955015733 
884	 0.196697721979775 
885	 0.196685453495231 
886	 0.19688104108452 
887	 0.197059889997796 
888	 0.197178330147712 
889	 0.197374740617817 
890	 0.197619657607773 
891	 0.197797747177359 
892	 0.197919383189864 
893	 0.198154590126386 
894	 0.198434622723593 
895	 0.198643390218494 
896	 0.198764987865641 
897	 0.198973544821628 
898	 0.199274322722153 
899	 0.199579414261815 
900	 0.199824184294314 
901	 0.200078246439974 
902	 0.200360974709539 
903	 0.200615204020254 
904	 0.200815631204447 
905	 0.201167808271984 
906	 0.201470333121625 
907	 0.201752706806826 
908	 0.202113022863725 
909	 0.202366026434593 
910	 0.20264307306307 
911	 0.202969147200123 
912	 0.203292145717346 
913	 0.2036298027772 
914	 0.204024112011478 
915	 0.204422307411398 
916	 0.204721049196036 
917	 0.205176236887282 
918	 0.205587246726641 
919	 0.2059127828872 
920	 0.206345087004467 
921	 0.206739472139498 
922	 0.207185131607639 
923	 0.207690570960465 
924	 0.208103640129851 
925	 0.20855812185544 
926	 0.209046871168997 
927	 0.209521882344754 
928	 0.209919834873647 
929	 0.210390999895015 
930	 0.210881774173484 
931	 0.211347859834367 
932	 0.211893596430772 
933	 0.212477122757577 
934	 0.213010362921513 
935	 0.213481849132331 
936	 0.214136050879995 
937	 0.214756515847392 
938	 0.215289539481442 
939	 0.215767056149735 
940	 0.216281887545139 
941	 0.216976506854754 
942	 0.21767289317777 
943	 0.218184640655769 
944	 0.218828812583519 
945	 0.219513249214986 
946	 0.220170182973109 
947	 0.220761612199563 
948	 0.221301516579876 
949	 0.221990012859739 
950	 0.222733814278332 
951	 0.223358165606477 
952	 0.224114058758813 
953	 0.224897505206984 
954	 0.225624900120847 
955	 0.226268764485864 
956	 0.226963448907988 
957	 0.227692582080433 
958	 0.228454911576941 
959	 0.229251723537656 
960	 0.230030192376323 
961	 0.230798815493069 
962	 0.231606170715018 
963	 0.232478827476401 
964	 0.23319262483859 
965	 0.233944681339661 
966	 0.234802208025126 
967	 0.235711655086516 
968	 0.236633919444691 
969	 0.237429479505439 
970	 0.238150776078843 
971	 0.238961589466143 
972	 0.239825171137458 
973	 0.240703673292455 
974	 0.241590833814862 
975	 0.242498322665073 
976	 0.24338328779073 
977	 0.244325825723776 
978	 0.245286151205864 
979	 0.246163467438213 
980	 0.247013182808619 
981	 0.247924498886918 
982	 0.248825311563907 
983	 0.249615419884199 
984	 0.25059609825484 
985	 0.25165445622757 
986	 0.252595292739042 
987	 0.253328548786852 
988	 0.254374545778207 
989	 0.255418694569994 
990	 0.256416709826994 
991	 0.257445127933418 
992	 0.258346482745441 
993	 0.259130500857854 
994	 0.259980019106205 
995	 0.261032324693385 
996	 0.261957931003561 
997	 0.262986885560514 
998	 0.263983205393021 
999	 0.26482733814808 
1000	 0.265987642294793 
1001	 0.269425940198532 
1002	 0.270321855103011 
1003	 0.271214787147522 
1004	 0.272125695482088 
1005	 0.273071873947004 
1006	 0.273962644155912 
1007	 0.274828057305441 
1008	 0.275697047414865 
1009	 0.276546744224052 
1010	 0.277389521114299 
1011	 0.278281766686013 
1012	 0.279188721956074 
1013	 0.280008793904714 
1014	 0.280803040324297 
1015	 0.281658843380579 
1016	 0.282487378879323 
1017	 0.283303197940659 
1018	 0.284120501032882 
1019	 0.284999400313075 
1020	 0.2858035454855 
1021	 0.286552833019123 
1022	 0.287366684326483 
1023	 0.288171552173111 
1024	 0.288951368323213 
1025	 0.289717811722726 
1026	 0.290484280037133 
1027	 0.291201388791468 
1028	 0.291901582621233 
1029	 0.292694580885093 
1030	 0.293458885185661 
1031	 0.294225786941402 
1032	 0.295025129661306 
1033	 0.295815246099967 
1034	 0.296513610903371 
1035	 0.297255571376155 
1036	 0.297970976677867 
1037	 0.298673646615328 
1038	 0.29945275425964 
1039	 0.300209133511648 
1040	 0.300912949963043 
1041	 0.301636668598211 
1042	 0.302361393777947 
1043	 0.303057761799617 
1044	 0.303753413367398 
1045	 0.304463390527613 
1046	 0.305172777530084 
1047	 0.305854477887026 
1048	 0.306548675322953 
1049	 0.307284336808826 
1050	 0.308021870162363 
1051	 0.308748076224735 
1052	 0.30945826178675 
1053	 0.310121711415195 
1054	 0.310773851827446 
1055	 0.31143848987806 
1056	 0.312094429104618 
1057	 0.312738493888376 
1058	 0.313390389557336 
1059	 0.314027045774128 
1060	 0.314641985415708 
1061	 0.31523928944165 
1062	 0.315882722987743 
1063	 0.316512706542606 
1064	 0.317082356097266 
1065	 0.317639489319039 
1066	 0.318193645381161 
1067	 0.318720525957368 
1068	 0.319278965830259 
1069	 0.319843730032269 
1070	 0.320388571486677 
1071	 0.320889640126873 
1072	 0.321442029340789 
1073	 0.322033968533481 
1074	 0.322587375165509 
1075	 0.323145287399249 
1076	 0.323671185378467 
1077	 0.324200077728636 
1078	 0.324677116044813 
1079	 0.325152465972499 
1080	 0.325691354681567 
1081	 0.326214212285638 
1082	 0.326709511360293 
1083	 0.327227749458954 
1084	 0.327782224540009 
1085	 0.328294605853792 
1086	 0.328767611983815 
1087	 0.329288028935372 
1088	 0.329833928296252 
1089	 0.330325958525556 
1090	 0.330861923203341 
1091	 0.331433418270198 
1092	 0.331949633923387 
1093	 0.33246145669138 
1094	 0.332960883551156 
1095	 0.333440879555055 
1096	 0.333964172234991 
1097	 0.334521479443771 
1098	 0.335056104934102 
1099	 0.335608736216753 
1100	 0.33615124638366 
1101	 0.336646810662207 
1102	 0.337193179239567 
1103	 0.337773283803342 
1104	 0.338349697109055 
1105	 0.338934324985232 
1106	 0.339553664968902 
1107	 0.340175483586655 
1108	 0.340814187736644 
1109	 0.34142523428162 
1110	 0.342046783137058 
1111	 0.342660588721563 
1112	 0.343248331764196 
1113	 0.343849639828762 
1114	 0.344458323261667 
1115	 0.345072320171175 
1116	 0.345699317744231 
1117	 0.346313975394828 
1118	 0.346932572424437 
1119	 0.347544235528826 
1120	 0.348127045638252 
1121	 0.348729465618269 
1122	 0.349372064203694 
1123	 0.350005961683958 
1124	 0.350659434846847 
1125	 0.351355360906848 
1126	 0.352005276333446 
1127	 0.352632721583107 
1128	 0.353286670360812 
1129	 0.35393517069111 
1130	 0.35458346721105 
1131	 0.355258701316853 
1132	 0.355910863406959 
1133	 0.356552310939884 
1134	 0.35718346256152 
1135	 0.357806789082602 
1136	 0.358407639020487 
1137	 0.359042367173423 
1138	 0.359640442475148 
1139	 0.360232175280656 
1140	 0.360816244510234 
1141	 0.361416892028803 
1142	 0.362011233919607 
1143	 0.362597339288227 
1144	 0.363199691380608 
1145	 0.36378361641256 
1146	 0.364330265078399 
1147	 0.364900446506204 
1148	 0.365498102528394 
1149	 0.366072857883969 
1150	 0.36664365055891 
1151	 0.367201088496633 
1152	 0.367750053341192 
1153	 0.368288806876057 
1154	 0.368830942929468 
1155	 0.369372910491219 
1156	 0.369907795742105 
1157	 0.370447291800913 
1158	 0.370967250332021 
1159	 0.371482952855864 
1160	 0.371980614642912 
1161	 0.372459839629395 
1162	 0.372934786117351 
1163	 0.373387708525961 
1164	 0.373849301545062 
1165	 0.374313852308805 
1166	 0.374776910031779 
1167	 0.375214378139983 
1168	 0.375680676073396 
1169	 0.376106197617309 
1170	 0.376502072639076 
1171	 0.376912457000809 
1172	 0.377314422216121 
1173	 0.377716149821223 
1174	 0.378126584983457 
1175	 0.378524670005587 
1176	 0.378908385982728 
1177	 0.379298794486231 
1178	 0.379697295379246 
1179	 0.380078586126802 
1180	 0.38046237943832 
1181	 0.380828939018248 
1182	 0.381173006117189 
1183	 0.381512813672105 
1184	 0.38186316010822 
1185	 0.382221732242766 
1186	 0.382548304893325 
1187	 0.382866837018752 
1188	 0.383185154587116 
1189	 0.383481000348171 
1190	 0.383778919700079 
1191	 0.384090088598578 
1192	 0.384384419885371 
1193	 0.384657171207176 
1194	 0.384933301241789 
1195	 0.385202203921781 
1196	 0.385479728053174 
1197	 0.385756734209877 
1198	 0.386034901243104 
1199	 0.386316117517701 
1200	 0.386612313291271 
1201	 0.386883253638676 
1202	 0.387152843536645 
1203	 0.387398522916937 
1204	 0.387619545357255 
1205	 0.3878508414118 
1206	 0.388064444792063 
1207	 0.388292851999359 
1208	 0.388538709624346 
1209	 0.388767625993972 
1210	 0.388989691924491 
1211	 0.389213594037745 
1212	 0.38942933986326 
1213	 0.389647628160142 
1214	 0.389872974725696 
1215	 0.390092063402539 
1216	 0.390307962668543 
1217	 0.390525288861366 
1218	 0.390725243807892 
1219	 0.390911508897767 
1220	 0.391107738379478 
1221	 0.391292109961735 
1222	 0.391489975816665 
1223	 0.391716073693445 
1224	 0.391905140832958 
1225	 0.392074008185631 
1226	 0.392251136778592 
1227	 0.392418638556617 
1228	 0.392580080122637 
1229	 0.392728977664669 
1230	 0.392899967628954 
1231	 0.393083621685893 
1232	 0.39325082241117 
1233	 0.393418582546364 
1234	 0.393607776047747 
1235	 0.393772287140281 
1236	 0.393905396175342 
1237	 0.3940638181921 
1238	 0.394247810329549 
1239	 0.394393007576155 
1240	 0.394518535218465 
1241	 0.394653499545567 
1242	 0.394767711059684 
1243	 0.394895105817393 
1244	 0.395033627299583 
1245	 0.395174910188117 
1246	 0.395326259061007 
1247	 0.395462560930515 
1248	 0.395600631437388 
1249	 0.395732551037882 
1250	 0.395859861779061 
1251	 0.395963843564684 
1252	 0.396077784487712 
1253	 0.396188164212719 
1254	 0.39631228289892 
1255	 0.396442006569527 
1256	 0.396565645136478 
1257	 0.396703546030232 
1258	 0.396823682811327 
1259	 0.39692847698645 
1260	 0.39703588799722 
1261	 0.397140059522273 
1262	 0.397241962122492 
1263	 0.397321431488785 
1264	 0.397431261416447 
1265	 0.397568443760913 
1266	 0.397689712717572 
1267	 0.397821704866319 
1268	 0.397952197658687 
1269	 0.398074090104476 
1270	 0.398171219684828 
1271	 0.398299510742841 
1272	 0.398436374933335 
1273	 0.398584341509408 
1274	 0.398750055339318 
1275	 0.3989068578088 
1276	 0.399068965445437 
1277	 0.399235763828812 
1278	 0.399418300922869 
1279	 0.399568800683998 
1280	 0.399716952438632 
1281	 0.399848854299289 
1282	 0.399946685425084 
1283	 0.40005102208629 
1284	 0.400165490504163 
1285	 0.400252959375707 
1286	 0.400331054664295 
1287	 0.400390886643079 
1288	 0.400435883053096 
1289	 0.400464553985057 
1290	 0.400476305894979 
1291	 0.400469631767402 
1292	 0.400451414125444 
1293	 0.400405686647786 
1294	 0.400370693364261 
1295	 0.400341465083843 
1296	 0.400289310095687 
1297	 0.400232104556861 
1298	 0.400158857560719 
1299	 0.400047249466322 
1300	 0.399956555348378 
1301	 0.399860171911827 
1302	 0.39977449130813 
1303	 0.399700329002641 
1304	 0.399635328916069 
1305	 0.399550639981136 
1306	 0.399480095161424 
1307	 0.399404873194799 
1308	 0.399299164733933 
1309	 0.399214824936275 
1310	 0.399130440323431 
1311	 0.399062742999059 
1312	 0.399004634553921 
1313	 0.398954390320294 
1314	 0.398911887026078 
1315	 0.398881587619366 
1316	 0.398863871623678 
1317	 0.398844303781074 
1318	 0.398837108907251 
1319	 0.398829841509506 
1320	 0.398807040339583 
1321	 0.398811833287179 
1322	 0.398832620825255 
1323	 0.398868557687565 
1324	 0.398891470639604 
1325	 0.398920195535971 
1326	 0.398974980174615 
1327	 0.399023387742475 
1328	 0.399082367369443 
1329	 0.399172438448912 
1330	 0.399264786249524 
1331	 0.399357315129428 
1332	 0.399460575780177 
1333	 0.399586875276415 
1334	 0.399704233924681 
1335	 0.399810209162334 
1336	 0.399938863867586 
1337	 0.400090480004482 
1338	 0.40022621352642 
1339	 0.400368002517586 
1340	 0.400499605315153 
1341	 0.400619982763229 
1342	 0.400739265612144 
1343	 0.400851979828522 
1344	 0.400972470153519 
1345	 0.401093867811496 
1346	 0.401223013270876 
1347	 0.401354289262699 
1348	 0.401490513968126 
1349	 0.401611506733943 
1350	 0.401723108980653 
1351	 0.401842414675645 
1352	 0.401955605829572 
1353	 0.402082353056119 
1354	 0.402225146450077 
1355	 0.402352462756563 
1356	 0.402480646409493 
1357	 0.402601587844869 
1358	 0.402709794955154 
1359	 0.402822956686648 
1360	 0.402937462326346 
1361	 0.403052036056933 
1362	 0.403170125207072 
1363	 0.403278591785891 
1364	 0.403382957025525 
1365	 0.403485480041271 
1366	 0.403574389877336 
1367	 0.403674774217688 
1368	 0.40378606479462 
1369	 0.403897777891349 
1370	 0.404002184391744 
1371	 0.404088025896847 
1372	 0.404171544723033 
1373	 0.404238396352221 
1374	 0.404314842192698 
1375	 0.404400811353741 
1376	 0.404475149204268 
1377	 0.404552555486667 
1378	 0.404609194079382 
1379	 0.404660762356904 
1380	 0.404691384677702 
1381	 0.404695360369924 
1382	 0.404702695141327 
1383	 0.404700471021283 
1384	 0.404685440613963 
1385	 0.404666956735584 
1386	 0.404640677309211 
1387	 0.404624727712089 
1388	 0.404560241394117 
1389	 0.40447726303209 
1390	 0.404363824739654 
1391	 0.404201422733538 
1392	 0.404038877213001 
1393	 0.403875405066045 
1394	 0.403692676947538 
1395	 0.403494708687765 
1396	 0.403274864157141 
1397	 0.403058954234985 
1398	 0.402833180169249 
1399	 0.402603319210805 
1400	 0.402362744199095 
1401	 0.402139869974712 
1402	 0.401907976793111 
1403	 0.401697822517793 
1404	 0.401509208443251 
1405	 0.401321015188847 
1406	 0.401137603736685 
1407	 0.400959100136683 
1408	 0.400774086330557 
1409	 0.400623041957384 
1410	 0.400472003534817 
1411	 0.400372936328573 
1412	 0.400309479535723 
1413	 0.400273637123711 
1414	 0.400290000746675 
1415	 0.400316887220705 
1416	 0.400376430449434 
1417	 0.400447615703773 
1418	 0.400509469729785 
1419	 0.400571138336519 
1420	 0.400620225515109 
1421	 0.400677742667143 
1422	 0.400743802743266 
1423	 0.400805314025202 
1424	 0.400857584288748 
1425	 0.40091484685546 
1426	 0.400944188628789 
1427	 0.400954526773275 
1428	 0.400963013384348 
1429	 0.40095611385028 
1430	 0.400948511388373 
1431	 0.400929386793398 
1432	 0.40092057603243 
1433	 0.400908282119599 
1434	 0.400902657288492 
1435	 0.400905992232555 
1436	 0.400908207815486 
1437	 0.400924521664668 
1438	 0.400917645518464 
1439	 0.400897803548496 
1440	 0.400881137515199 
1441	 0.40085771323425 
1442	 0.400832271596923 
1443	 0.40083103758273 
1444	 0.400831492465728 
1445	 0.400818640290166 
1446	 0.400804716983252 
1447	 0.400796357860282 
1448	 0.400789160908601 
1449	 0.400788141902124 
1450	 0.400812235823337 
1451	 0.400819617664943 
1452	 0.400822213497917 
1453	 0.400827805656429 
1454	 0.400829744356204 
1455	 0.400831527494142 
1456	 0.400848994997737 
1457	 0.400840756810717 
1458	 0.400815369620085 
1459	 0.400793620476699 
1460	 0.400745136582582 
1461	 0.400727962047845 
1462	 0.400729121241076 
1463	 0.400728771499486 
1464	 0.40074032473238 
1465	 0.400753685790211 
1466	 0.400759444705519 
1467	 0.400783420252804 
1468	 0.400827801534302 
1469	 0.400868436052947 
1470	 0.400915213553731 
1471	 0.400965888026239 
1472	 0.401021695174911 
1473	 0.401061801219628 
1474	 0.401113058733729 
1475	 0.401184472243985 
1476	 0.401247850843734 
1477	 0.401317974025416 
1478	 0.401391595906171 
1479	 0.401457510288593 
1480	 0.401520753800628 
1481	 0.401591309457445 
1482	 0.401656827734106 
1483	 0.401712840635756 
1484	 0.401782040288142 
1485	 0.401856985626429 
1486	 0.401928959345986 
1487	 0.402010419321766 
1488	 0.402085756363997 
1489	 0.402146848107452 
1490	 0.402232391319447 
1491	 0.402340783614388 
1492	 0.402421481449481 
1493	 0.402501891008542 
1494	 0.402577688721356 
1495	 0.402636283291449 
1496	 0.402694109695799 
1497	 0.40275959211507 
1498	 0.402817274812405 
1499	 0.402842284923586 
1500	 0.402895088985107 
1501	 0.402968950662262 
1502	 0.403034739959375 
1503	 0.403100850285331 
1504	 0.403188836340642 
1505	 0.403268526639929 
1506	 0.403328069171596 
1507	 0.403386561851041 
1508	 0.403441199239939 
1509	 0.403477514921131 
1510	 0.403522538730803 
1511	 0.403574858288655 
1512	 0.403614359056903 
1513	 0.403666908251243 
1514	 0.403725216152475 
1515	 0.403775781434508 
1516	 0.403832385843222 
1517	 0.403886961980612 
1518	 0.403936827097615 
1519	 0.403991007509499 
1520	 0.404049009420372 
1521	 0.404108984722555 
1522	 0.404173131421138 
1523	 0.40423095461849 
1524	 0.404288872274652 
1525	 0.404341514424663 
1526	 0.4043849784216 
1527	 0.404436643285904 
1528	 0.404493602564121 
1529	 0.404544397399183 
1530	 0.404596139700133 
1531	 0.404646616957835 
1532	 0.404694751877176 
1533	 0.404734589073648 
1534	 0.404776053599319 
1535	 0.40480751317472 
1536	 0.404809875178244 
1537	 0.404841462860857 
1538	 0.40488516884501 
1539	 0.404928522597171 
1540	 0.404995108330947 
1541	 0.405049613681378 
1542	 0.405100147053344 
1543	 0.40514135184979 
1544	 0.405165659607311 
1545	 0.405203317153983 
1546	 0.405240483725075 
1547	 0.405280937707051 
1548	 0.405330335108226 
1549	 0.405379543963189 
1550	 0.405432572757533 
1551	 0.405485701777097 
1552	 0.405536048265149 
1553	 0.405596037673987 
1554	 0.405649207454769 
1555	 0.405693801447926 
1556	 0.405754595525489 
1557	 0.405807997886518 
1558	 0.405847512063656 
1559	 0.405887286709844 
1560	 0.405912687658631 
1561	 0.405916308174192 
1562	 0.405939931799785 
1563	 0.405965389756244 
1564	 0.405991916187939 
1565	 0.40603085406565 
1566	 0.406054594317798 
1567	 0.406060253143432 
1568	 0.406089901693795 
1569	 0.406121606969823 
1570	 0.406166745533578 
1571	 0.406242042511286 
1572	 0.406286065039129 
1573	 0.406317985611659 
1574	 0.406356790068254 
1575	 0.40638586165692 
1576	 0.406419681914194 
1577	 0.406472352577147 
1578	 0.406499301762416 
1579	 0.406505645824989 
1580	 0.406520140763282 
1581	 0.406518686200492 
1582	 0.406535010755077 
1583	 0.406557027908101 
1584	 0.406589332617856 
1585	 0.406637205869997 
1586	 0.406683603834343 
1587	 0.406741814359378 
1588	 0.406791537786819 
1589	 0.406843781562022 
1590	 0.406883138600765 
1591	 0.406901723797975 
1592	 0.406940764502074 
1593	 0.406994091535352 
1594	 0.407029745520056 
1595	 0.407070358767258 
1596	 0.407103451353437 
1597	 0.4071132811808 
1598	 0.407127271560508 
1599	 0.407135876100996 
1600	 0.407161303172009 
1601	 0.407199949596419 
1602	 0.407228431878476 
1603	 0.407259821728953 
1604	 0.40729730353385 
1605	 0.407325564503222 
1606	 0.407361196380518 
1607	 0.40740445802478 
1608	 0.407459502796059 
1609	 0.407530278601407 
1610	 0.407590599050886 
1611	 0.407660391245279 
1612	 0.407719186284105 
1613	 0.407744594568335 
1614	 0.407764794814395 
1615	 0.407762793692185 
1616	 0.407777622963921 
1617	 0.407807683643209 
1618	 0.407817566397749 
1619	 0.407832719490332 
1620	 0.407848443608216 
1621	 0.407863898008493 
1622	 0.407863733900585 
1623	 0.407886954608837 
1624	 0.407927883327545 
1625	 0.407958650329952 
1626	 0.407993717576804 
1627	 0.408024162367865 
1628	 0.408051511775475 
1629	 0.40807940002294 
1630	 0.408107021056252 
1631	 0.408130062991946 
1632	 0.408144719859417 
1633	 0.408177150392592 
1634	 0.408217370360144 
1635	 0.408250949999447 
1636	 0.408298580082455 
1637	 0.408325497191691 
1638	 0.408329481669357 
1639	 0.408357368010823 
1640	 0.40838712400213 
1641	 0.408425491589622 
1642	 0.408481099004437 
1643	 0.408523182064968 
1644	 0.408571225846427 
1645	 0.408597376876404 
1646	 0.408603044616986 
1647	 0.408627436500104 
1648	 0.408645555817844 
1649	 0.408669267134447 
1650	 0.408711468610093 
1651	 0.408738056563769 
1652	 0.408749255748108 
1653	 0.408774412800108 
1654	 0.408805296241559 
1655	 0.408832836114945 
1656	 0.40885858928221 
1657	 0.408895660345772 
1658	 0.408933952262566 
1659	 0.408979628805218 
1660	 0.409050446223408 
1661	 0.409089734214177 
1662	 0.409117750272066 
1663	 0.409142684167557 
1664	 0.409144229993874 
1665	 0.409164014586862 
1666	 0.409183866059167 
1667	 0.409219889081687 
1668	 0.409272630647633 
1669	 0.409315337944711 
1670	 0.40936557996344 
1671	 0.40941268827049 
1672	 0.409453247778502 
1673	 0.409495016189034 
1674	 0.40954495912055 
1675	 0.409583081797579 
1676	 0.409611221454412 
1677	 0.409641400458857 
1678	 0.40966487114188 
1679	 0.409696346484571 
1680	 0.409725424317265 
1681	 0.409765684145145 
1682	 0.409827286806272 
1683	 0.409861915760396 
1684	 0.409894648408717 
1685	 0.40991512548402 
1686	 0.409906269153098 
1687	 0.409916987098731 
1688	 0.40992852276259 
1689	 0.409948181637973 
1690	 0.409973854773261 
1691	 0.4100051908549 
1692	 0.410045282021652 
1693	 0.410085713850501 
1694	 0.41012470779855 
1695	 0.410180854659587 
1696	 0.410266260886396 
1697	 0.410308471846619 
1698	 0.410343276061726 
1699	 0.410368381917577 
1700	 0.410347095696789 
1701	 0.410366709960059 
1702	 0.410410682453502 
1703	 0.41044402100557 
1704	 0.410486725250386 
1705	 0.410518489658933 
1706	 0.410537198669896 
1707	 0.410571374215895 
1708	 0.410613159654858 
1709	 0.410647604730954 
1710	 0.410685319828914 
1711	 0.410722012404752 
1712	 0.410755555239125 
1713	 0.410788161688198 
1714	 0.410827925839271 
1715	 0.410850934306677 
1716	 0.41084867021409 
1717	 0.41087956003681 
1718	 0.410921826080069 
1719	 0.4109559989188 
1720	 0.411016912197767 
1721	 0.411044472690428 
1722	 0.411045961248096 
1723	 0.411055548452286 
1724	 0.411061983214266 
1725	 0.411058209456842 
1726	 0.411059198983755 
1727	 0.411027759918414 
1728	 0.410965117075874 
1729	 0.410920722350788 
1730	 0.410849569423704 
1731	 0.410816181444414 
1732	 0.410815759431276 
1733	 0.410800044624674 
1734	 0.410796979395999 
1735	 0.410775920030133 
1736	 0.410741305727564 
1737	 0.410714544822739 
1738	 0.410678667111496 
1739	 0.410658172530141 
1740	 0.410656341432703 
1741	 0.410638569874232 
1742	 0.410609863528368 
1743	 0.410603064684205 
1744	 0.41059815745898 
1745	 0.410591106023484 
1746	 0.410601515289593 
1747	 0.410591774944503 
1748	 0.410586437127633 
1749	 0.410569004470641 
1750	 0.410583027398764 
1751	 0.410584077346349 
1752	 0.4105604458739 
1753	 0.410579979877565 
1754	 0.410589665824726 
1755	 0.41059004757985 
1756	 0.410607302368959 
1757	 0.410605505193904 
1758	 0.410599544026464 
1759	 0.410576915457933 
1760	 0.410536637098332 
1761	 0.410502775352627 
1762	 0.410441176822935 
1763	 0.410395838611887 
1764	 0.410393011368997 
1765	 0.410361385716931 
1766	 0.410340217394089 
1767	 0.410362023914566 
1768	 0.41035859853336 
1769	 0.410365506059817 
1770	 0.410414314699751 
1771	 0.410423580170285 
1772	 0.410430818143551 
1773	 0.410447298611687 
1774	 0.410414794617858 
1775	 0.410407698358078 
1776	 0.410405088307359 
1777	 0.410400198864803 
1778	 0.410447716953048 
1779	 0.410497522783698 
1780	 0.410529197279443 
1781	 0.410556986502376 
1782	 0.410567276723887 
1783	 0.410525038436396 
1784	 0.410529930297368 
1785	 0.410550628984644 
1786	 0.410562655544504 
1787	 0.410604362622585 
1788	 0.410629986058479 
1789	 0.410635797197683 
1790	 0.410657806990716 
1791	 0.410680096637036 
1792	 0.410712281757198 
1793	 0.410758700293124 
1794	 0.410796632413441 
1795	 0.410839714554888 
1796	 0.410880542092476 
1797	 0.410915671236016 
1798	 0.410946260205326 
1799	 0.410995050266318 
1800	 0.410996553202778 
1801	 0.415329780547801 
1802	 0.415328181534471 
1803	 0.415313077044583 
1804	 0.415286802697185 
1805	 0.415285197459062 
1806	 0.415288939568215 
1807	 0.415299069198989 
1808	 0.415314763889934 
1809	 0.415328042004199 
1810	 0.415347365060541 
1811	 0.415379411989025 
1812	 0.415415894399884 
1813	 0.415416723970955 
1814	 0.41545135982082 
1815	 0.415476710396999 
1816	 0.415499898583626 
1817	 0.415523306584436 
1818	 0.415554777320899 
1819	 0.41557003904244 
1820	 0.415570226013625 
1821	 0.415580863888653 
1822	 0.415620197542442 
1823	 0.415650533306982 
1824	 0.415675464890783 
1825	 0.415692192882672 
1826	 0.415664515141632 
1827	 0.415648435389549 
1828	 0.415614775422402 
1829	 0.415561234480415 
1830	 0.415511596682818 
1831	 0.415450247669957 
1832	 0.415390180641619 
1833	 0.415335535496152 
1834	 0.415314287271802 
1835	 0.415301818276274 
1836	 0.415281644470382 
1837	 0.415289740397226 
1838	 0.415294517316939 
1839	 0.415300164665592 
1840	 0.415310725609113 
1841	 0.415328207481178 
1842	 0.415319503620336 
1843	 0.415305347669294 
1844	 0.415279554182336 
1845	 0.415245173815964 
1846	 0.415241874366057 
1847	 0.415250699434046 
1848	 0.415270792051955 
1849	 0.4152985427094 
1850	 0.415300034221491 
1851	 0.415288552000056 
1852	 0.415255224067607 
1853	 0.415212367701578 
1854	 0.41518624122578 
1855	 0.415178004569782 
1856	 0.415186879547457 
1857	 0.415189703612257 
1858	 0.415188737800211 
1859	 0.415192167758905 
1860	 0.415167016550128 
1861	 0.415121393285494 
1862	 0.415083681140737 
1863	 0.415030613352251 
1864	 0.414949899005716 
1865	 0.414893662707932 
1866	 0.414826897128735 
1867	 0.414762525607149 
1868	 0.414700827478589 
1869	 0.414619839619257 
1870	 0.41455046464661 
1871	 0.414464328681071 
1872	 0.414360595845199 
1873	 0.414262104123021 
1874	 0.414173175299252 
1875	 0.414031442788463 
1876	 0.413868798499855 
1877	 0.413684258693301 
1878	 0.413457418220145 
1879	 0.413225999933612 
1880	 0.412953907232138 
1881	 0.412657576912768 
1882	 0.412321466119167 
1883	 0.411944285124968 
1884	 0.411538086850952 
1885	 0.411116047227639 
1886	 0.41067271400264 
1887	 0.410207681183339 
1888	 0.409701642299512 
1889	 0.409147403598541 
1890	 0.408574147643978 
1891	 0.408003570048298 
1892	 0.407416716977829 
1893	 0.406809389005242 
1894	 0.406194025398198 
1895	 0.405568972776859 
1896	 0.404910676790901 
1897	 0.404267575900285 
1898	 0.403649081558564 
1899	 0.403065275121777 
1900	 0.402511146801464 
1901	 0.401986475741702 
1902	 0.401502599131128 
1903	 0.401072688697229 
1904	 0.400650310772127 
1905	 0.400262589405328 
1906	 0.39988900094226 
1907	 0.399515860213131 
1908	 0.399158860933187 
1909	 0.398817622974939 
1910	 0.39848520938297 
1911	 0.398184138689036 
1912	 0.397888350384776 
1913	 0.397591665539979 
1914	 0.397290013825606 
1915	 0.397020393510239 
1916	 0.396765909941389 
1917	 0.39650957631301 
1918	 0.396280805825453 
1919	 0.396069867498762 
1920	 0.395864029938204 
1921	 0.39567717085116 
1922	 0.395512560059423 
1923	 0.395363989781975 
1924	 0.395228972962381 
1925	 0.395104236527423 
1926	 0.395001135300926 
1927	 0.394917434908448 
1928	 0.394850441331639 
1929	 0.394790056448037 
1930	 0.394735536627185 
1931	 0.394704460347468 
1932	 0.3946678676568 
1933	 0.394629417045545 
1934	 0.394601562703665 
1935	 0.394586612814357 
1936	 0.394558920621863 
1937	 0.394573522613596 
1938	 0.394613255946426 
1939	 0.394675018244014 
1940	 0.394763296641796 
1941	 0.394874426068972 
1942	 0.39499681624723 
1943	 0.39511824406652 
1944	 0.395241973784917 
1945	 0.395352290314576 
1946	 0.395471268797033 
1947	 0.395585843472858 
1948	 0.395717770511142 
1949	 0.395848976217228 
1950	 0.396006434357765 
1951	 0.396188172966866 
1952	 0.396369092219471 
1953	 0.396560678524657 
1954	 0.39675237046112 
1955	 0.396927760651457 
1956	 0.397084849505607 
1957	 0.397246163241679 
1958	 0.397394319169549 
1959	 0.397555630562431 
1960	 0.397720876406768 
1961	 0.397890737639163 
1962	 0.398064456773575 
1963	 0.398245181964903 
1964	 0.398419663410496 
1965	 0.398614537846035 
1966	 0.398835746780248 
1967	 0.399049467995739 
1968	 0.399268296619055 
1969	 0.399499219786618 
1970	 0.399726335436385 
1971	 0.399962340132136 
1972	 0.400182576333741 
1973	 0.400407460736694 
1974	 0.40061401576232 
1975	 0.400803157559121 
1976	 0.400974481733958 
1977	 0.401159854699511 
1978	 0.401353376746952 
1979	 0.401563549844635 
1980	 0.401799367351554 
1981	 0.402028462058364 
1982	 0.402272685654874 
1983	 0.402508243341122 
1984	 0.402736293267205 
1985	 0.402976883917388 
1986	 0.403218972890754 
1987	 0.403469313626234 
1988	 0.403738380253376 
1989	 0.403990208675634 
1990	 0.404245783947844 
1991	 0.404529742983442 
1992	 0.404809918799119 
1993	 0.405093154498457 
1994	 0.405390153922072 
1995	 0.405725842391356 
1996	 0.406001027872194 
1997	 0.406261390642769 
1998	 0.406513289528267 
1999	 0.406718163494585 
2000	 0.406939042118842 
2001	 0.407171349259768 
2002	 0.407388826359414 
2003	 0.40760648688869 
2004	 0.407815828215355 
2005	 0.408055202556418 
2006	 0.408311589380787 
2007	 0.408577429480736 
2008	 0.408883803627822 
2009	 0.409149986154262 
2010	 0.40939246535794 
2011	 0.409654988549606 
2012	 0.409911773079678 
2013	 0.410167389388252 
2014	 0.410446517840884 
2015	 0.410709061673955 
2016	 0.410956442373701 
2017	 0.411208938611736 
2018	 0.411449201270571 
2019	 0.41167305912038 
2020	 0.411927391931592 
2021	 0.412171829495074 
2022	 0.412447964625349 
2023	 0.412768925144223 
2024	 0.413069059786758 
2025	 0.413393765530122 
2026	 0.413684998044338 
2027	 0.413958055071429 
2028	 0.414227759673761 
2029	 0.414474192271556 
2030	 0.414686372355574 
2031	 0.414922247431729 
2032	 0.4151609279617 
2033	 0.415382140937294 
2034	 0.415601129276459 
2035	 0.415816337208211 
2036	 0.416008584647885 
2037	 0.416214581771044 
2038	 0.416448016727667 
2039	 0.416647982676843 
2040	 0.416837180893796 
2041	 0.417007037632304 
2042	 0.417163544546207 
2043	 0.417325279360836 
2044	 0.417487973912955 
2045	 0.417659636901524 
2046	 0.417816819033522 
2047	 0.417959855247106 
2048	 0.418115554072792 
2049	 0.418273267707362 
2050	 0.418426284221811 
2051	 0.418588478093439 
2052	 0.418742336738767 
2053	 0.418877074969457 
2054	 0.41902592958729 
2055	 0.419188817900523 
2056	 0.419334576095606 
2057	 0.419492115781541 
2058	 0.419662203132689 
2059	 0.419818028577015 
2060	 0.419970174096488 
2061	 0.420118150308031 
2062	 0.420253279804268 
2063	 0.420399781767387 
2064	 0.420548053657222 
2065	 0.420700580224854 
2066	 0.420855467176441 
2067	 0.421016575053068 
2068	 0.421190472040976 
2069	 0.421353409453008 
2070	 0.421512822533437 
2071	 0.421677057301699 
2072	 0.421829998325544 
2073	 0.421963988246546 
2074	 0.422114704668325 
2075	 0.422273540151841 
2076	 0.422424369382036 
2077	 0.422579007376881 
2078	 0.42272797433343 
2079	 0.422854794296998 
2080	 0.4230084931212 
2081	 0.423169816542998 
2082	 0.423340787496707 
2083	 0.423530692380024 
2084	 0.4237300541934 
2085	 0.423916105766323 
2086	 0.42412041257222 
2087	 0.4242707784627 
2088	 0.424396927701522 
2089	 0.424511521877952 
2090	 0.424565176358367 
2091	 0.4246734139929 
2092	 0.424808328705579 
2093	 0.424925070714261 
2094	 0.425050354188237 
2095	 0.425175947178866 
2096	 0.425278767340783 
2097	 0.425400995356069 
2098	 0.425521864277265 
2099	 0.425678060188027 
2100	 0.425850107672008 
2101	 0.426045955445083 
2102	 0.42622939046063 
2103	 0.42643869813122 
2104	 0.426627166308531 
2105	 0.42678800797461 
2106	 0.426977830089179 
2107	 0.427202645982363 
2108	 0.427386695617425 
2109	 0.427543415768329 
2110	 0.427728952480237 
2111	 0.4278964732111 
2112	 0.428084228711609 
2113	 0.428312363324637 
2114	 0.428537617962266 
2115	 0.428737762326475 
2116	 0.428920845363904 
2117	 0.429116087652381 
2118	 0.429296453498139 
2119	 0.429499481506489 
2120	 0.42972608160186 
2121	 0.429931706517438 
2122	 0.430128922165162 
2123	 0.430339499334981 
2124	 0.430559184358314 
2125	 0.430760737937842 
2126	 0.430995744962696 
2127	 0.431171558436399 
2128	 0.431300440437405 
2129	 0.431421097642517 
2130	 0.431518428115395 
2131	 0.431590023095291 
2132	 0.431635310393975 
2133	 0.431659892853073 
2134	 0.431670320380795 
2135	 0.431648327080729 
2136	 0.431616577674699 
2137	 0.431562030343687 
2138	 0.431519696476835 
2139	 0.431474296759533 
2140	 0.431405777711472 
2141	 0.431332771883164 
2142	 0.431256888526245 
2143	 0.431169479946438 
2144	 0.431058156924556 
2145	 0.430956461652901 
2146	 0.430819964234795 
2147	 0.43063430526151 
2148	 0.43043526273493 
2149	 0.430248764904775 
2150	 0.430058661610319 
2151	 0.429857982109373 
2152	 0.429681091445983 
2153	 0.429432621917806 
2154	 0.429134869855209 
2155	 0.428847863745252 
2156	 0.428526720583525 
2157	 0.428205627814686 
2158	 0.427897044267247 
2159	 0.427558943376871 
2160	 0.427182355969555 
2161	 0.426814977905216 
2162	 0.426442884527048 
2163	 0.426063472163965 
2164	 0.425699228381221 
2165	 0.425291858481298 
2166	 0.424888311942734 
2167	 0.424471599283385 
2168	 0.424056616590541 
2169	 0.423623669178723 
2170	 0.4232143095837 
2171	 0.422809268574584 
2172	 0.422409927900269 
2173	 0.422027219542678 
2174	 0.421634490918035 
2175	 0.421239591668884 
2176	 0.420848653391224 
2177	 0.420462153107526 
2178	 0.420067762023052 
2179	 0.419686347709476 
2180	 0.419278544690806 
2181	 0.418837198151545 
2182	 0.418412418238432 
2183	 0.417998645127406 
2184	 0.417545462546033 
2185	 0.417120897916563 
2186	 0.416708052651899 
2187	 0.416303913409773 
2188	 0.415900812484275 
2189	 0.41550706455908 
2190	 0.41512549522343 
2191	 0.414754937756411 
2192	 0.414372442618083 
2193	 0.414035494277047 
2194	 0.413725247827909 
2195	 0.413433357076922 
2196	 0.413169245774413 
2197	 0.412928084299373 
2198	 0.412736896912954 
2199	 0.412520516622857 
2200	 0.412287720320895 
2201	 0.412096637308865 
2202	 0.411910757327751 
2203	 0.411731029283881 
2204	 0.411608767863375 
2205	 0.411533486905574 
2206	 0.41149390699261 
2207	 0.411498823233433 
2208	 0.411510444962792 
2209	 0.411573750832909 
2210	 0.411624220728662 
2211	 0.411681985935699 
2212	 0.411736998950642 
2213	 0.411797554155893 
2214	 0.411867650429681 
2215	 0.411939552330361 
2216	 0.412016431493817 
2217	 0.412115443754734 
2218	 0.412200809853494 
2219	 0.412272869615423 
2220	 0.412353170730186 
2221	 0.412433321463391 
2222	 0.412524524005719 
2223	 0.412601372266988 
2224	 0.412675992119726 
2225	 0.412700480122748 
2226	 0.412681539830507 
2227	 0.412680455609261 
2228	 0.412652527136159 
2229	 0.412636462047315 
2230	 0.412652552380047 
2231	 0.412606150476852 
2232	 0.412514582235667 
2233	 0.412440309730349 
2234	 0.41231794249657 
2235	 0.412255202979187 
2236	 0.412236396148866 
2237	 0.412196458099817 
2238	 0.412191411782948 
2239	 0.412145226549883 
2240	 0.412048902298101 
2241	 0.411988947559224 
2242	 0.411932734446034 
2243	 0.411874712182997 
2244	 0.411826491978429 
2245	 0.411793463494728 
2246	 0.411762053586198 
2247	 0.411709993734257 
2248	 0.411673263367755 
2249	 0.411642507927605 
2250	 0.411636079034978 
2251	 0.411636205102648 
2252	 0.411645719813749 
2253	 0.411679247384013 
2254	 0.411718320910011 
2255	 0.411754221237742 
2256	 0.411809483467341 
2257	 0.41189856241785 
2258	 0.411965644197374 
2259	 0.412020300209199 
2260	 0.412098478770506 
2261	 0.412186102866649 
2262	 0.412279799005481 
2263	 0.412413886328952 
2264	 0.412503928883589 
2265	 0.41253349717862 
2266	 0.412622652649565 
2267	 0.412734393987208 
2268	 0.412833588873878 
2269	 0.412964710711111 
2270	 0.413109363982347 
2271	 0.413202429362249 
2272	 0.413276646308934 
2273	 0.41334638324358 
2274	 0.413418102161852 
2275	 0.413475225281035 
2276	 0.413481261303381 
2277	 0.413579972967232 
2278	 0.413717700850726 
2279	 0.413855732963525 
2280	 0.414041768676492 
2281	 0.414221595026892 
2282	 0.414411215833365 
2283	 0.4145752704785 
2284	 0.414760114082276 
2285	 0.414913597313416 
2286	 0.415011045322577 
2287	 0.415140228885387 
2288	 0.415297432038801 
2289	 0.415415107849749 
2290	 0.415512648798315 
2291	 0.415623683601484 
2292	 0.415687500389365 
2293	 0.415805612201563 
2294	 0.415972028810824 
2295	 0.416128560497223 
2296	 0.416315938705059 
2297	 0.41648614781724 
2298	 0.41662673460821 
2299	 0.416772401458753 
2300	 0.416914612734836 
2301	 0.417085175481079 
2302	 0.41728708451856 
2303	 0.417459515086526 
2304	 0.417578964052736 
2305	 0.417686180297146 
2306	 0.41777226119184 
2307	 0.417816288402533 
2308	 0.417858480469883 
2309	 0.41787537709961 
2310	 0.417904981223194 
2311	 0.417904446008347 
2312	 0.417959750847609 
2313	 0.41804965977509 
2314	 0.418149813500364 
2315	 0.418290817138055 
2316	 0.418398884315454 
2317	 0.418522876636727 
2318	 0.418614157899189 
2319	 0.418663277694218 
2320	 0.418740192449795 
2321	 0.418800027545999 
2322	 0.418876587995752 
2323	 0.418961026959465 
2324	 0.41906627687256 
2325	 0.419198249115763 
2326	 0.419333963186839 
2327	 0.419480443453373 
2328	 0.419660777026814 
2329	 0.419805643084752 
2330	 0.419935229936337 
2331	 0.420100862823986 
2332	 0.42020613980828 
2333	 0.420344046847274 
2334	 0.420476590269337 
2335	 0.420558772003636 
2336	 0.420701665802376 
2337	 0.420834466133516 
2338	 0.42092703198821 
2339	 0.421060630948471 
2340	 0.421187752886005 
2341	 0.421283988713731 
2342	 0.421406120335753 
2343	 0.421476420962451 
2344	 0.421502974231689 
2345	 0.421519261710804 
2346	 0.421497278708749 
2347	 0.421472057920635 
2348	 0.421446416336383 
2349	 0.421399679571448 
2350	 0.421306398717908 
2351	 0.421270969020308 
2352	 0.421226690903834 
2353	 0.421187506874322 
2354	 0.421203921339416 
2355	 0.421208855268361 
2356	 0.421208438382434 
2357	 0.421215849980761 
2358	 0.421248484305194 
2359	 0.421219794375995 
2360	 0.421139543292234 
2361	 0.421092664464069 
2362	 0.421066088276754 
2363	 0.420999104779001 
2364	 0.420881822281635 
2365	 0.420835452608226 
2366	 0.420784562367468 
2367	 0.420741730426046 
2368	 0.420812986810516 
2369	 0.420791555223539 
2370	 0.420721445919567 
2371	 0.420610056741149 
2372	 0.420467479952784 
2373	 0.420319758644868 
2374	 0.420184814232868 
2375	 0.419997673540477 
2376	 0.419803005030745 
2377	 0.419635315201817 
2378	 0.419394643083995 
2379	 0.419221485628673 
2380	 0.419137846655382 
2381	 0.419020647092283 
2382	 0.418905975495139 
2383	 0.418792784889448 
2384	 0.418628800187647 
2385	 0.418439470372506 
2386	 0.418269409392978 
2387	 0.418089092409289 
2388	 0.417932846170157 
2389	 0.41778731562919 
2390	 0.417653808878488 
2391	 0.417522429644684 
2392	 0.417273594176672 
2393	 0.417012083890573 
2394	 0.416805220930516 
2395	 0.416628420766841 
2396	 0.416522931539735 
2397	 0.416405213275517 
2398	 0.416278075496077 
2399	 0.416132439276285 
2400	 0.415922368410728 
2401	 0.415751679998468 
2402	 0.415571090177587 
2403	 0.415355532378889 
2404	 0.415231476567185 
2405	 0.415129044628986 
2406	 0.414958773030359 
2407	 0.414807799131548 
2408	 0.414620686504845 
2409	 0.414338392805623 
2410	 0.414183639113435 
2411	 0.41402697986486 
2412	 0.413795327594499 
2413	 0.41362531156286 
2414	 0.413388221871582 
2415	 0.413197988842845 
2416	 0.412985842187827 
2417	 0.412780733974178 
2418	 0.412542915633728 
2419	 0.412297348527542 
2420	 0.412014008486602 
2421	 0.411677296862386 
2422	 0.411453487165473 
2423	 0.411240228658276 
2424	 0.411010717336238 
2425	 0.410863900556557 
2426	 0.410668794297375 
2427	 0.410428836739635 
2428	 0.410247372854554 
2429	 0.41012388974942 
2430	 0.409902095486113 
2431	 0.409633479239481 
2432	 0.409371934219417 
2433	 0.409014530679258 
2434	 0.408765378826211 
2435	 0.408581697159773 
2436	 0.40840979116588 
2437	 0.408316391534813 
2438	 0.408202180533127 
2439	 0.408088745605305 
2440	 0.407971437960015 
2441	 0.407874459593926 
2442	 0.40772710584506 
2443	 0.407548428600911 
2444	 0.407372428310495 
2445	 0.407116759518762 
2446	 0.406902486615522 
2447	 0.406757091857007 
2448	 0.406636661238642 
2449	 0.406530930994286 
2450	 0.406437107753488 
2451	 0.406396900389582 
2452	 0.406230650431897 
2453	 0.406020894878205 
2454	 0.405847950993825 
2455	 0.405584803568032 
2456	 0.405413735641436 
2457	 0.405280447850203 
2458	 0.405153686149066 
2459	 0.405097698511845 
2460	 0.404941178545558 
2461	 0.404807346493391 
2462	 0.404572697718634 
2463	 0.404184546228352 
2464	 0.40396234138297 
2465	 0.403730384890737 
2466	 0.403580341298296 
2467	 0.403598208460976 
2468	 0.403476476971111 
2469	 0.403315505519244 
2470	 0.403177736996603 
2471	 0.403041332293672 
2472	 0.402974729105604 
2473	 0.402644730274989 
2474	 0.402190395028645 
2475	 0.401955278935585 
2476	 0.401581699237229 
2477	 0.401348389407127 
2478	 0.401409441496185 
2479	 0.401305685023382 
2480	 0.401301748834683 
2481	 0.401362218649285 
2482	 0.401410863961868 
2483	 0.401397502988202 
2484	 0.401148915450387 
2485	 0.400846533053587 
2486	 0.400704673259608 
2487	 0.400676578724691 
2488	 0.400627244774712 
2489	 0.400696433923949 
2490	 0.400489021838043 
2491	 0.40006397697868 
2492	 0.399786976559417 
2493	 0.399556035203164 
2494	 0.399449095613096 
2495	 0.399377765345867 
2496	 0.399342874853868 
2497	 0.399229489520344 
2498	 0.399051210323806 
2499	 0.399039234102432 
2500	 0.399030805481799 
