Wavelength	LMW200010.asd
350	 0.055528916383935 
351	 6.04726126525321E-02 
352	 6.30469719355673E-02 
353	 5.85552975716715E-02 
354	 5.75034694238702E-02 
355	 5.96623546253045E-02 
356	 6.15520717450995E-02 
357	 6.04983752455408E-02 
358	 6.14929973383395E-02 
359	 5.83452594947294E-02 
360	 5.47751345803333E-02 
361	 5.94270268529346E-02 
362	 0.059215973023463 
363	 5.87156739477611E-02 
364	 6.06468544513531E-02 
365	 6.16209821946559E-02 
366	 5.89626953799133E-02 
367	 5.68973008539079E-02 
368	 5.93682641110205E-02 
369	 6.16133410135524E-02 
370	 6.09975384693892E-02 
371	 5.92641165523678E-02 
372	 6.07813268961033E-02 
373	 6.42908236257833E-02 
374	 6.68552885081484E-02 
375	 6.67505374012898E-02 
376	 6.44085979568278E-02 
377	 6.42691846481891E-02 
378	 6.49355963433937E-02 
379	 6.43442086047607E-02 
380	 6.65981259835914E-02 
381	 6.49745157368768E-02 
382	 6.21598104226683E-02 
383	 0.066964452559057 
384	 6.89982524876602E-02 
385	 6.79340636958019E-02 
386	 6.62509156844564E-02 
387	 6.88451248262712E-02 
388	 0.071176989434287 
389	 7.17925175345036E-02 
390	 0.070911371699812 
391	 7.12508395691592E-02 
392	 7.14154841852007E-02 
393	 7.16763786567054E-02 
394	 7.36730191927863E-02 
395	 7.52660287813869E-02 
396	 7.68154618049716E-02 
397	 7.84088076323145E-02 
398	 7.86072653069392E-02 
399	 0.078730753814746 
400	 7.97053807158616E-02 
401	 8.17213227232739E-02 
402	 8.20133974658085E-02 
403	 8.22260989910647E-02 
404	 0.082687781544889 
405	 8.22153435371183E-02 
406	 8.44836339116227E-02 
407	 8.65822572511325E-02 
408	 8.62124319954618E-02 
409	 8.57523903683468E-02 
410	 8.61232502190747E-02 
411	 8.69231678936607E-02 
412	 8.72738224857907E-02 
413	 8.82655719477021E-02 
414	 8.89320720325023E-02 
415	 8.89197011181857E-02 
416	 0.088827910590837 
417	 8.96018845692939E-02 
418	 0.090356595803916 
419	 9.03620791474218E-02 
420	 0.091166429880924 
421	 9.09513283530995E-02 
422	 9.03333076317333E-02 
423	 9.12256190952577E-02 
424	 9.13068341279323E-02 
425	 9.09138087484507E-02 
426	 9.05485344961263E-02 
427	 9.03688035594645E-02 
428	 8.99548169577746E-02 
429	 8.97190945852155E-02 
430	 8.99940817312736E-02 
431	 0.089305360807811 
432	 8.88873609290835E-02 
433	 8.90955101408516E-02 
434	 8.93230223111541E-02 
435	 8.93249172072717E-02 
436	 8.92824184714016E-02 
437	 8.93086972930195E-02 
438	 8.89886785931826E-02 
439	 8.92259622538005E-02 
440	 0.089799572780165 
441	 8.99944418933565E-02 
442	 9.01039401408312E-02 
443	 9.04883467475204E-02 
444	 9.11131107354366E-02 
445	 9.13460088121897E-02 
446	 9.17644539113958E-02 
447	 9.22844308403475E-02 
448	 9.26959949100809E-02 
449	 9.30905203093933E-02 
450	 0.093572441097481 
451	 9.40834012910141E-02 
452	 9.44355508139411E-02 
453	 9.46518964811947E-02 
454	 9.50453331230337E-02 
455	 9.56845844089794E-02 
456	 9.59361547461458E-02 
457	 9.61001605166796E-02 
458	 9.62770708843555E-02 
459	 9.64954833955733E-02 
460	 9.68982791693607E-02 
461	 9.71718034903681E-02 
462	 9.72273365997581E-02 
463	 9.73334775639771E-02 
464	 9.76358874653144E-02 
465	 0.098000250088391 
466	 9.82418571046072E-02 
467	 9.83577038478618E-02 
468	 9.84411649683232E-02 
469	 9.85232128350946E-02 
470	 9.85870389335811E-02 
471	 9.87431616831014E-02 
472	 9.89604954104832E-02 
473	 9.91425152378427E-02 
474	 9.90616794236829E-02 
475	 0.099221286141358 
476	 9.93938671330189E-02 
477	 9.91744626248232E-02 
478	 9.94227133375493E-02 
479	 9.96638992496202E-02 
480	 9.96893690601963E-02 
481	 9.98164828855011E-02 
482	 9.99254470786203E-02 
483	 0.100036453949766 
484	 0.100190706001148 
485	 0.10042582584649 
486	 0.100278307230656 
487	 0.100001520889252 
488	 0.100381679840687 
489	 0.100643715815014 
490	 0.100754288468034 
491	 0.100818721237724 
492	 0.100953046905489 
493	 0.100981853754879 
494	 0.101016501466367 
495	 0.101235885008528 
496	 0.101200942065324 
497	 0.101301849209153 
498	 0.10163184581076 
499	 0.101736402830341 
500	 0.101797318819836 
501	 0.101918289634861 
502	 0.102114963474106 
503	 0.102094571661825 
504	 0.102087941547104 
505	 0.102130155642593 
506	 0.102076593936044 
507	 0.102253531356873 
508	 0.102494957973185 
509	 0.102611982517626 
510	 0.102610554218283 
511	 0.102625833633728 
512	 0.102653850709004 
513	 0.102636226653076 
514	 0.102769416474073 
515	 0.102924680953329 
516	 0.103025456270739 
517	 0.10315027200237 
518	 0.10320486170731 
519	 0.103257223714587 
520	 0.103394147738598 
521	 0.103515949471989 
522	 0.103571473639085 
523	 0.103617073016661 
524	 0.103811061088967 
525	 0.103892861877362 
526	 0.103910966699997 
527	 0.103963481068507 
528	 0.104062701468645 
529	 0.104223518171705 
530	 0.104390934696777 
531	 0.104474046042025 
532	 0.104520018527213 
533	 0.104645789953196 
534	 0.104857096252183 
535	 0.104901658356752 
536	 0.105006734325149 
537	 0.10516042379838 
538	 0.105270022840027 
539	 0.105370755608116 
540	 0.105479946109647 
541	 0.1056196352873 
542	 0.105820674894479 
543	 0.106007024435625 
544	 0.106183616017382 
545	 0.106363938404602 
546	 0.106487315660971 
547	 0.106664848680395 
548	 0.106904356570559 
549	 0.107124916576428 
550	 0.107354811535086 
551	 0.107574797083152 
552	 0.107790196804886 
553	 0.108094164307039 
554	 0.108388405925745 
555	 0.108651755142103 
556	 0.108916321119987 
557	 0.109291328468159 
558	 0.10971585503325 
559	 0.110137098598468 
560	 0.110552906232767 
561	 0.110968791666165 
562	 0.11140352646147 
563	 0.111881488792347 
564	 0.112438447072192 
565	 0.112959787540993 
566	 0.113443107779093 
567	 0.114018993000513 
568	 0.114621519901249 
569	 0.115283011124168 
570	 0.116019598932621 
571	 0.11672451368023 
572	 0.11746163496206 
573	 0.118245319137085 
574	 0.119046614380901 
575	 0.119785355219167 
576	 0.120575270130334 
577	 0.121458281659908 
578	 0.122233364893751 
579	 0.123161020213371 
580	 0.124220170297615 
581	 0.125274317019493 
582	 0.126313361935179 
583	 0.127373406430363 
584	 0.128452025800242 
585	 0.129487973572401 
586	 0.130525949747065 
587	 0.131574717854106 
588	 0.132637830483818 
589	 0.133749226584035 
590	 0.134868257981174 
591	 0.135978789672964 
592	 0.137090994015177 
593	 0.138167830839234 
594	 0.139250358131163 
595	 0.140366881700584 
596	 0.141477677693674 
597	 0.142598570311889 
598	 0.143715645318528 
599	 0.144798438297752 
600	 0.145777721692496 
601	 0.146739253605587 
602	 0.147719318408903 
603	 0.148637947797947 
604	 0.149523873472654 
605	 0.150374906319644 
606	 0.151192872516459 
607	 0.15205087109929 
608	 0.152866730866592 
609	 0.153618886400731 
610	 0.154365972225412 
611	 0.155085889789224 
612	 0.155774526092526 
613	 0.156419816566574 
614	 0.156979678066733 
615	 0.157497284231158 
616	 0.158011227984705 
617	 0.158545596875693 
618	 0.159026722568552 
619	 0.159469653387509 
620	 0.159893906765223 
621	 0.160295327283964 
622	 0.160667847728371 
623	 0.161028944409466 
624	 0.161402838848952 
625	 0.16179277082184 
626	 0.162117341410253 
627	 0.162382435076993 
628	 0.162714841727062 
629	 0.163106490007506 
630	 0.163440638239933 
631	 0.163647673901622 
632	 0.163968288873483 
633	 0.164251339793427 
634	 0.164496238752107 
635	 0.164822504690423 
636	 0.165107899558609 
637	 0.165385350373078 
638	 0.165687898286615 
639	 0.16598258228958 
640	 0.166274001687558 
641	 0.166571917678204 
642	 0.166884193668226 
643	 0.167181744844889 
644	 0.167473325431358 
645	 0.167776186723712 
646	 0.16811449525164 
647	 0.168447893532508 
648	 0.168757580724479 
649	 0.169050085113299 
650	 0.169406683111098 
651	 0.169737812906372 
652	 0.170033706072253 
653	 0.17035887453845 
654	 0.170744253703936 
655	 0.171123555271047 
656	 0.17145862909129 
657	 0.171823128412471 
658	 0.172223167738176 
659	 0.172635910437631 
660	 0.173025445651762 
661	 0.1733959855327 
662	 0.173826823598456 
663	 0.174311432692549 
664	 0.17470954189185 
665	 0.175126546403368 
666	 0.175582989657477 
667	 0.176067769309676 
668	 0.176538558894999 
669	 0.177037579208037 
670	 0.177542717180586 
671	 0.177984894740362 
672	 0.178500539020194 
673	 0.179057914724336 
674	 0.17960487552596 
675	 0.180109069510613 
676	 0.180646203181604 
677	 0.181226121541722 
678	 0.181826325903836 
679	 0.182433712898823 
680	 0.183025452784427 
681	 0.183611212037082 
682	 0.184243408777308 
683	 0.184934143091977 
684	 0.185601441690564 
685	 0.186191477803631 
686	 0.186837920326507 
687	 0.187527677920225 
688	 0.188215533379457 
689	 0.188847506159091 
690	 0.189547265045576 
691	 0.190248755675325 
692	 0.190924146610382 
693	 0.191686309306767 
694	 0.192402520613273 
695	 0.193104487732273 
696	 0.193864666447861 
697	 0.194618879115228 
698	 0.195370538451002 
699	 0.196128385651724 
700	 0.196901285682741 
701	 0.197692552604721 
702	 0.198453953645549 
703	 0.199170050074415 
704	 0.19995110220384 
705	 0.200684772526151 
706	 0.201421015982924 
707	 0.202263594722323 
708	 0.203018108327504 
709	 0.203752265959151 
710	 0.204513404351282 
711	 0.205279255714159 
712	 0.206055082312003 
713	 0.206822998988658 
714	 0.207569682572271 
715	 0.208319811846373 
716	 0.209057026847606 
717	 0.209769400974501 
718	 0.210452151683345 
719	 0.211145719974048 
720	 0.211834530468798 
721	 0.212491475752223 
722	 0.213075101573372 
723	 0.213733336009658 
724	 0.214410553878981 
725	 0.21500152791935 
726	 0.215542021963103 
727	 0.216094935653105 
728	 0.216637147485388 
729	 0.217073623404872 
730	 0.217559753626664 
731	 0.218057192670831 
732	 0.218501667248672 
733	 0.218851212934899 
734	 0.219200457819423 
735	 0.219540574616209 
736	 0.219831573269146 
737	 0.220134685640007 
738	 0.220416287563091 
739	 0.220645083370512 
740	 0.220802653034662 
741	 0.220948095658884 
742	 0.221084046696885 
743	 0.221198041556909 
744	 0.221275942342927 
745	 0.221315276226118 
746	 0.2213306608265 
747	 0.221332956372376 
748	 0.221237115250802 
749	 0.221170214959952 
750	 0.221122720146546 
751	 0.22090478844662 
752	 0.22075749676138 
753	 0.22063270787592 
754	 0.220445345456298 
755	 0.220206688605772 
756	 0.219969542883731 
757	 0.219709738097507 
758	 0.219376605378132 
759	 0.219047899088897 
760	 0.218673416472592 
761	 0.218272780519053 
762	 0.217962438674047 
763	 0.217610557547745 
764	 0.21721852207987 
765	 0.216815652607878 
766	 0.216414217424083 
767	 0.215984854008258 
768	 0.215530765641648 
769	 0.215070910698182 
770	 0.214602314263951 
771	 0.214156768478296 
772	 0.213714608161511 
773	 0.213195487108559 
774	 0.212675943694586 
775	 0.212179846444736 
776	 0.211699194737795 
777	 0.211172487494063 
778	 0.21066229903854 
779	 0.210157386046567 
780	 0.209622565438569 
781	 0.209101096010724 
782	 0.208609799582115 
783	 0.208119359059366 
784	 0.20756312625929 
785	 0.207070745633244 
786	 0.206584721498274 
787	 0.206053927967624 
788	 0.205528588236072 
789	 0.205007088427266 
790	 0.204497133957948 
791	 0.204005270289871 
792	 0.203521003932746 
793	 0.203077208200207 
794	 0.202638412278265 
795	 0.202121922281362 
796	 0.201635300495268 
797	 0.201156226122424 
798	 0.200669488096256 
799	 0.200210045029855 
800	 0.199777417845969 
801	 0.199349753998274 
802	 0.198903844289247 
803	 0.198436749438266 
804	 0.198008689189499 
805	 0.19760288321793 
806	 0.19716532612335 
807	 0.196775088684028 
808	 0.196356651391746 
809	 0.195901964830592 
810	 0.195506982708967 
811	 0.195160149860564 
812	 0.194825123899086 
813	 0.19447120850766 
814	 0.194107336165922 
815	 0.193706268979283 
816	 0.193310396439306 
817	 0.192974783455387 
818	 0.19264889452571 
819	 0.192356065063245 
820	 0.192078793690826 
821	 0.19176487287516 
822	 0.191405199718169 
823	 0.191111114639807 
824	 0.190894551172413 
825	 0.190578997386622 
826	 0.190292196935725 
827	 0.190054179275811 
828	 0.18983486624761 
829	 0.189539320068292 
830	 0.189266123045241 
831	 0.189011631656353 
832	 0.188750011641198 
833	 0.18865896632098 
834	 0.188546086880474 
835	 0.18833637721337 
836	 0.18809626905361 
837	 0.187849906090347 
838	 0.187673400135507 
839	 0.187560604040574 
840	 0.187359289015036 
841	 0.187204511618447 
842	 0.187058369738787 
843	 0.18688595745874 
844	 0.18681704627458 
845	 0.186746202337508 
846	 0.186634266604863 
847	 0.186487632314174 
848	 0.186356255697206 
849	 0.186273384246409 
850	 0.186212633979545 
851	 0.186109291072965 
852	 0.186047053363565 
853	 0.185999655904442 
854	 0.185946064508398 
855	 0.185896157391649 
856	 0.18588076338046 
857	 0.185853137795448 
858	 0.185790264513097 
859	 0.185774742448419 
860	 0.185785935835827 
861	 0.185799575387513 
862	 0.185797576104839 
863	 0.18580198171899 
864	 0.185817753331604 
865	 0.185858584268568 
866	 0.185924680653681 
867	 0.185877847860948 
868	 0.185939988120114 
869	 0.186106483395568 
870	 0.18612988962036 
871	 0.186147642437291 
872	 0.186232879757079 
873	 0.186380809543977 
874	 0.186480748076091 
875	 0.186609038224091 
876	 0.186713765812381 
877	 0.186768893808674 
878	 0.186891658650773 
879	 0.187051281460393 
880	 0.187196969455112 
881	 0.18730790469596 
882	 0.187524477154234 
883	 0.187723818387228 
884	 0.187866588147819 
885	 0.187984779589719 
886	 0.188187268080409 
887	 0.188435050918748 
888	 0.188649836606423 
889	 0.188764288664539 
890	 0.189023436681315 
891	 0.18931401610924 
892	 0.18956746090495 
893	 0.189829766350667 
894	 0.190023561162882 
895	 0.190257984991233 
896	 0.190593935427396 
897	 0.190943461155618 
898	 0.191216644934208 
899	 0.191461871967485 
900	 0.191738641608797 
901	 0.192017763150151 
902	 0.192325133025934 
903	 0.192687481083702 
904	 0.193100232831697 
905	 0.193455175665374 
906	 0.193812144860854 
907	 0.194167347962456 
908	 0.19449910387338 
909	 0.19485718155335 
910	 0.195248177374105 
911	 0.195664170892116 
912	 0.196092019712855 
913	 0.19656084696157 
914	 0.196985960398268 
915	 0.19739552155966 
916	 0.197901285064339 
917	 0.198324904926897 
918	 0.198776848968092 
919	 0.19930408403831 
920	 0.199832184110533 
921	 0.200295756927839 
922	 0.200779690163787 
923	 0.201311899334546 
924	 0.201802389024024 
925	 0.202321649731881 
926	 0.202938456562281 
927	 0.203608944170234 
928	 0.204096132251377 
929	 0.204736286044105 
930	 0.205387051375158 
931	 0.205917383803077 
932	 0.206516006570853 
933	 0.207115511053042 
934	 0.207743340671596 
935	 0.208420402705939 
936	 0.209086973649765 
937	 0.20964938771294 
938	 0.21024297863851 
939	 0.210996884652146 
940	 0.211741144152479 
941	 0.212473099800999 
942	 0.2132089074578 
943	 0.213965232440007 
944	 0.214706416125076 
945	 0.215480878099081 
946	 0.216241124608377 
947	 0.216941302211788 
948	 0.217750265080656 
949	 0.218558943566145 
950	 0.219335537709679 
951	 0.220122324790163 
952	 0.221070660468253 
953	 0.221984206261913 
954	 0.222786878889672 
955	 0.223529905707004 
956	 0.224440364576961 
957	 0.225381517108687 
958	 0.22627475983623 
959	 0.227117373199467 
960	 0.227999719242875 
961	 0.22891685351338 
962	 0.229859996143935 
963	 0.230818131072129 
964	 0.231776159386086 
965	 0.232760152501374 
966	 0.233741160713468 
967	 0.234679356396205 
968	 0.235692992268733 
969	 0.23665433721703 
970	 0.237585130392493 
971	 0.238587508379594 
972	 0.239540720904534 
973	 0.240511126767899 
974	 0.24156056088003 
975	 0.242701408626124 
976	 0.243766794454052 
977	 0.244777621822734 
978	 0.245799994750222 
979	 0.246888526208743 
980	 0.247938264620978 
981	 0.248865192119388 
982	 0.249838687247331 
983	 0.25106086914525 
984	 0.252069974576645 
985	 0.253098142826178 
986	 0.254184256632137 
987	 0.255251576060849 
988	 0.256370575196483 
989	 0.257504912294491 
990	 0.258613721024663 
991	 0.25967378465167 
992	 0.260740889670874 
993	 0.261724802594178 
994	 0.26274249710225 
995	 0.263917264392431 
996	 0.265015415756408 
997	 0.266043503652981 
998	 0.267094710124555 
999	 0.268244564114802 
1000	 0.269382415593377 
1001	 0.271754232964951 
1002	 0.272739640835239 
1003	 0.273679526789489 
1004	 0.274671528895404 
1005	 0.275663448358826 
1006	 0.276662019257976 
1007	 0.277711238451045 
1008	 0.278729213669193 
1009	 0.279661342486297 
1010	 0.280532561785953 
1011	 0.281396104746847 
1012	 0.282293138339269 
1013	 0.283246048191247 
1014	 0.284209600229148 
1015	 0.285122100365667 
1016	 0.286002194810795 
1017	 0.286868826765002 
1018	 0.287676721070283 
1019	 0.28848025198525 
1020	 0.289357879097394 
1021	 0.290262644217128 
1022	 0.291158311854184 
1023	 0.291965029554138 
1024	 0.292723269254725 
1025	 0.293507582733848 
1026	 0.294230416720104 
1027	 0.294976818735036 
1028	 0.295834281398615 
1029	 0.296668561737583 
1030	 0.297412218613965 
1031	 0.298171728330376 
1032	 0.298954293291088 
1033	 0.299701187519847 
1034	 0.300403428088436 
1035	 0.301156106331837 
1036	 0.301857089317774 
1037	 0.302522446461466 
1038	 0.303183253180753 
1039	 0.303843033594507 
1040	 0.304572674882767 
1041	 0.305270469372086 
1042	 0.305935308837177 
1043	 0.306611580907752 
1044	 0.307262617966628 
1045	 0.307882016149541 
1046	 0.308517553631948 
1047	 0.309166741620754 
1048	 0.3098236650521 
1049	 0.310517024287378 
1050	 0.3111700307782 
1051	 0.311789289154295 
1052	 0.312416171149403 
1053	 0.313023581908722 
1054	 0.313641689243082 
1055	 0.314294913685737 
1056	 0.314924592855867 
1057	 0.315535877698067 
1058	 0.316119939495129 
1059	 0.31673851270243 
1060	 0.317369102051284 
1061	 0.317960166357561 
1062	 0.318569742401855 
1063	 0.319119397275477 
1064	 0.319679563020851 
1065	 0.320272995824286 
1066	 0.32082099044971 
1067	 0.321367157883117 
1068	 0.321895160921118 
1069	 0.322398011463939 
1070	 0.322925750643106 
1071	 0.323496989033349 
1072	 0.324036746756339 
1073	 0.324522613878548 
1074	 0.325065977197155 
1075	 0.325635557544681 
1076	 0.326204350967437 
1077	 0.326747680944482 
1078	 0.327269096878677 
1079	 0.327801716832833 
1080	 0.328298159635541 
1081	 0.328778359731982 
1082	 0.329336971774399 
1083	 0.329845266825314 
1084	 0.330281571006119 
1085	 0.330781384391688 
1086	 0.33130846126271 
1087	 0.331832625186034 
1088	 0.33237433758302 
1089	 0.332914196727142 
1090	 0.333436446442062 
1091	 0.333949236568798 
1092	 0.334449891775018 
1093	 0.334923140806821 
1094	 0.335411723143516 
1095	 0.33591663677824 
1096	 0.336398651703755 
1097	 0.336904597464706 
1098	 0.337425095741484 
1099	 0.337955018628717 
1100	 0.338483648884436 
1101	 0.339034100614867 
1102	 0.339582293077059 
1103	 0.340138435378338 
1104	 0.340676666559255 
1105	 0.341223580073726 
1106	 0.341757928736877 
1107	 0.342263690644222 
1108	 0.342810297397718 
1109	 0.343360038319711 
1110	 0.343889831877713 
1111	 0.344432847527823 
1112	 0.344976496447535 
1113	 0.345533254043282 
1114	 0.34611011080758 
1115	 0.346670318800612 
1116	 0.347225240311824 
1117	 0.347794944610356 
1118	 0.348372436426203 
1119	 0.348919566105314 
1120	 0.349490829096293 
1121	 0.350103991436332 
1122	 0.350682351923547 
1123	 0.351257661942712 
1124	 0.351827357493718 
1125	 0.352390217886828 
1126	 0.352958812177376 
1127	 0.353516646562402 
1128	 0.354085804098693 
1129	 0.354685367243308 
1130	 0.355242564727844 
1131	 0.355780811713087 
1132	 0.356321845637752 
1133	 0.356836119703468 
1134	 0.357362529952305 
1135	 0.357904142136334 
1136	 0.358430556570923 
1137	 0.358940857603437 
1138	 0.359444593268625 
1139	 0.359950314025567 
1140	 0.360437818385125 
1141	 0.360944346388059 
1142	 0.361470447133854 
1143	 0.361977424701098 
1144	 0.36249231943056 
1145	 0.362979931062099 
1146	 0.36343614982241 
1147	 0.363910006383717 
1148	 0.364381076042566 
1149	 0.364843247221262 
1150	 0.365304622850779 
1151	 0.365780995485243 
1152	 0.366229652261281 
1153	 0.366671417084667 
1154	 0.367113387924356 
1155	 0.367557394031007 
1156	 0.367987261770898 
1157	 0.368413722900975 
1158	 0.368829680621466 
1159	 0.369227135777832 
1160	 0.369636885080656 
1161	 0.370055396004264 
1162	 0.37045189377874 
1163	 0.37084767056251 
1164	 0.371236729898973 
1165	 0.371608029788173 
1166	 0.371970514684491 
1167	 0.372362255256011 
1168	 0.37274073079855 
1169	 0.373096840152142 
1170	 0.373440876604059 
1171	 0.373787337205233 
1172	 0.374120047633619 
1173	 0.374443505670878 
1174	 0.374763489222286 
1175	 0.375086238184185 
1176	 0.375393382620643 
1177	 0.375707878977126 
1178	 0.376042152446945 
1179	 0.376358560393271 
1180	 0.376668774546394 
1181	 0.376964382810557 
1182	 0.377247483990782 
1183	 0.377528481418634 
1184	 0.37780206748723 
1185	 0.378070105659429 
1186	 0.378318047315709 
1187	 0.378551248053493 
1188	 0.37879227420065 
1189	 0.379008857258913 
1190	 0.3792502503864 
1191	 0.379529384752357 
1192	 0.379764025602807 
1193	 0.379985444120284 
1194	 0.380201692928409 
1195	 0.380377415794369 
1196	 0.380581180208075 
1197	 0.380798363130289 
1198	 0.381014739383008 
1199	 0.381235969959723 
1200	 0.381475478166319 
1201	 0.381684468332445 
1202	 0.381882184967651 
1203	 0.38208311203177 
1204	 0.382267036345733 
1205	 0.382464913842868 
1206	 0.382673766002578 
1207	 0.382874884043879 
1208	 0.38308264131798 
1209	 0.383273609647015 
1210	 0.383455829404596 
1211	 0.383635244315091 
1212	 0.383803721832863 
1213	 0.383969570148429 
1214	 0.3841322736389 
1215	 0.384293447481116 
1216	 0.384451269119773 
1217	 0.384603161481336 
1218	 0.384754328695984 
1219	 0.384906597924778 
1220	 0.38505185767068 
1221	 0.38518911871565 
1222	 0.385330179712921 
1223	 0.385468537840511 
1224	 0.385609412887339 
1225	 0.385762383963543 
1226	 0.385895214652835 
1227	 0.386023204281237 
1228	 0.386140843923943 
1229	 0.386221773112358 
1230	 0.386334208961546 
1231	 0.386480787283507 
1232	 0.386593875077676 
1233	 0.386698752425891 
1234	 0.38680847981158 
1235	 0.386908366290981 
1236	 0.386964687261622 
1237	 0.387074646923437 
1238	 0.387229676745039 
1239	 0.387342583896438 
1240	 0.387456134038661 
1241	 0.387561167880604 
1242	 0.387644431946999 
1243	 0.387729717014274 
1244	 0.387802869286135 
1245	 0.387896942759429 
1246	 0.387998444220218 
1247	 0.38809478917626 
1248	 0.388193423854485 
1249	 0.388319724542043 
1250	 0.388421637698731 
1251	 0.388506228127445 
1252	 0.38859317220748 
1253	 0.388679834231926 
1254	 0.388761068435566 
1255	 0.388829401016965 
1256	 0.388907872525417 
1257	 0.388994486503101 
1258	 0.389069865561854 
1259	 0.389139209881908 
1260	 0.389213685840897 
1261	 0.389288162644912 
1262	 0.389356317000282 
1263	 0.389435219882153 
1264	 0.389495040520468 
1265	 0.389535484336865 
1266	 0.389578781417168 
1267	 0.389602652352146 
1268	 0.389635584873744 
1269	 0.389697578827852 
1270	 0.38977239771823 
1271	 0.389851476887091 
1272	 0.389960120830163 
1273	 0.39004937988041 
1274	 0.390130192303993 
1275	 0.390218004885497 
1276	 0.390313623242195 
1277	 0.390402001567669 
1278	 0.390493566487596 
1279	 0.390573989177182 
1280	 0.390635454022227 
1281	 0.390713215049294 
1282	 0.390799653664546 
1283	 0.39087412435292 
1284	 0.390955121593564 
1285	 0.391030644492857 
1286	 0.391078478149045 
1287	 0.39112860544234 
1288	 0.391178024781705 
1289	 0.391227853997754 
1290	 0.391263447812817 
1291	 0.391299574385984 
1292	 0.391313686816236 
1293	 0.391302087683289 
1294	 0.391303399201481 
1295	 0.391307400862574 
1296	 0.391290288851084 
1297	 0.39126244834538 
1298	 0.391239491880945 
1299	 0.391192188765909 
1300	 0.391162891289658 
1301	 0.391158036931579 
1302	 0.391136046125523 
1303	 0.391107153216788 
1304	 0.391082105332169 
1305	 0.391051071893229 
1306	 0.390991595976016 
1307	 0.390947807915673 
1308	 0.39090875661042 
1309	 0.390849359472017 
1310	 0.390773183378228 
1311	 0.3907272500514 
1312	 0.390670974005764 
1313	 0.39063509602237 
1314	 0.390632003307174 
1315	 0.390618776860414 
1316	 0.390591469132374 
1317	 0.390597642270606 
1318	 0.390637555028777 
1319	 0.39065549141548 
1320	 0.390685144738423 
1321	 0.390702946382511 
1322	 0.390703237081678 
1323	 0.390700746524943 
1324	 0.390715949727186 
1325	 0.390745150161461 
1326	 0.390794302320763 
1327	 0.390865933064236 
1328	 0.390924586269288 
1329	 0.390994541032061 
1330	 0.391044898512581 
1331	 0.391060759323819 
1332	 0.391124695008186 
1333	 0.391198952317409 
1334	 0.391284911711048 
1335	 0.391399374541854 
1336	 0.391514372947772 
1337	 0.391646835266309 
1338	 0.391756185150443 
1339	 0.391866165335602 
1340	 0.391971970820731 
1341	 0.39205431468537 
1342	 0.392148354096153 
1343	 0.392252563161955 
1344	 0.39235509017837 
1345	 0.392446990436817 
1346	 0.392546434410125 
1347	 0.392657061476729 
1348	 0.392782824227804 
1349	 0.392910846032813 
1350	 0.393026549293938 
1351	 0.393146628279556 
1352	 0.393264519530723 
1353	 0.393375928873166 
1354	 0.393488303971608 
1355	 0.39360031818123 
1356	 0.393703106628002 
1357	 0.393808760092393 
1358	 0.393916955406181 
1359	 0.394027032770068 
1360	 0.394140656999968 
1361	 0.39424647460953 
1362	 0.394347806885452 
1363	 0.394453034990053 
1364	 0.394552103405809 
1365	 0.394654389126806 
1366	 0.394764439015319 
1367	 0.39488090602521 
1368	 0.394963015164248 
1369	 0.395043194132812 
1370	 0.39511709149986 
1371	 0.395166532584242 
1372	 0.395233775274226 
1373	 0.395282835995307 
1374	 0.395322772601213 
1375	 0.395355729190091 
1376	 0.395375337715955 
1377	 0.395390295684734 
1378	 0.395379718195971 
1379	 0.395353223922572 
1380	 0.395309136547172 
1381	 0.395229250739397 
1382	 0.395164716978529 
1383	 0.395101692486022 
1384	 0.395018783914032 
1385	 0.394953856052271 
1386	 0.394842446368355 
1387	 0.394699543099585 
1388	 0.394536961082165 
1389	 0.394354419570066 
1390	 0.394128885961203 
1391	 0.393895064770997 
1392	 0.393654605899754 
1393	 0.393374557812557 
1394	 0.393086452403581 
1395	 0.39276841076545 
1396	 0.392424259479131 
1397	 0.392094473823876 
1398	 0.391757090395293 
1399	 0.391417650045552 
1400	 0.391086851247433 
1401	 0.390743307513033 
1402	 0.390385406423023 
1403	 0.390032490005185 
1404	 0.389658971508105 
1405	 0.389319941912484 
1406	 0.388991818539055 
1407	 0.388682376298707 
1408	 0.388396025351668 
1409	 0.38812345535544 
1410	 0.387841713516081 
1411	 0.387607069725503 
1412	 0.3873919367379 
1413	 0.387222647987144 
1414	 0.387109382104201 
1415	 0.38704728487095 
1416	 0.387028131020729 
1417	 0.387042609047662 
1418	 0.387059876762856 
1419	 0.387078627166056 
1420	 0.387124614671535 
1421	 0.387166221504759 
1422	 0.387177274550276 
1423	 0.387194068334734 
1424	 0.387187236397121 
1425	 0.387140521410272 
1426	 0.38710953766285 
1427	 0.387076890203797 
1428	 0.387045888412393 
1429	 0.387011493387572 
1430	 0.386978195230352 
1431	 0.386954208550199 
1432	 0.386919452773041 
1433	 0.386869374700025 
1434	 0.386834944504298 
1435	 0.386798087844066 
1436	 0.386771406390991 
1437	 0.386762404218657 
1438	 0.386746586837179 
1439	 0.386732772068578 
1440	 0.386718987737959 
1441	 0.386702771815367 
1442	 0.386681054588095 
1443	 0.386657835511089 
1444	 0.386631807788033 
1445	 0.38661149489407 
1446	 0.386598498540443 
1447	 0.386592067261761 
1448	 0.38658118878816 
1449	 0.38655939088434 
1450	 0.386534284634984 
1451	 0.386517250260668 
1452	 0.386496113046185 
1453	 0.386487382965327 
1454	 0.386492808108711 
1455	 0.386488114984484 
1456	 0.386488561807013 
1457	 0.386478233792245 
1458	 0.386451389805537 
1459	 0.386445511569711 
1460	 0.386444530489894 
1461	 0.386443097631807 
1462	 0.386452721355514 
1463	 0.386461466046336 
1464	 0.386460612411886 
1465	 0.386473009777211 
1466	 0.386497605309578 
1467	 0.386525541290923 
1468	 0.386551007753772 
1469	 0.386593984755188 
1470	 0.386647944801562 
1471	 0.38671217602828 
1472	 0.38678868315891 
1473	 0.386860973775476 
1474	 0.386925746916973 
1475	 0.387021332014997 
1476	 0.387118680407081 
1477	 0.387225042061565 
1478	 0.387370704200331 
1479	 0.387488735462821 
1480	 0.38760734334201 
1481	 0.387744933568572 
1482	 0.387851309612923 
1483	 0.387922833075537 
1484	 0.388036765095533 
1485	 0.388154116776514 
1486	 0.388283006120657 
1487	 0.388438337864688 
1488	 0.3885818235619 
1489	 0.388729905045434 
1490	 0.388861842276795 
1491	 0.388984064151427 
1492	 0.389124414782846 
1493	 0.389258575533532 
1494	 0.389396808105051 
1495	 0.389577104844035 
1496	 0.389703373125528 
1497	 0.38978731302465 
1498	 0.389887114647355 
1499	 0.389973462586413 
1500	 0.390052905476742 
1501	 0.390130277248622 
1502	 0.39021514803572 
1503	 0.390291573357701 
1504	 0.390364737674745 
1505	 0.390457031542907 
1506	 0.390560480133611 
1507	 0.390647675444902 
1508	 0.390737788139853 
1509	 0.390842937381892 
1510	 0.390943873994606 
1511	 0.391052650668971 
1512	 0.391160670202243 
1513	 0.39128158747929 
1514	 0.391413825373875 
1515	 0.391548717898077 
1516	 0.391675397841113 
1517	 0.391770566290417 
1518	 0.391830132675149 
1519	 0.391914345774919 
1520	 0.391984532516006 
1521	 0.392072505058353 
1522	 0.392184172933104 
1523	 0.392268718516181 
1524	 0.392343156271878 
1525	 0.392424276149453 
1526	 0.392495853554249 
1527	 0.392573401308476 
1528	 0.392662888916808 
1529	 0.392731487574857 
1530	 0.392790525082991 
1531	 0.392853265480236 
1532	 0.39289934293848 
1533	 0.392963145258428 
1534	 0.393044020679572 
1535	 0.393110881367296 
1536	 0.393174071641141 
1537	 0.393243190580316 
1538	 0.39330480291915 
1539	 0.393369434963787 
1540	 0.393443975811437 
1541	 0.393518212913873 
1542	 0.393596921408283 
1543	 0.393667562017302 
1544	 0.393748419944402 
1545	 0.393804537179056 
1546	 0.393839635363315 
1547	 0.393867628411288 
1548	 0.393893392012641 
1549	 0.39393031722056 
1550	 0.393976810002257 
1551	 0.39403102308599 
1552	 0.394096330521134 
1553	 0.394156096518551 
1554	 0.39422850089736 
1555	 0.394296474060203 
1556	 0.394348023796896 
1557	 0.394410638707437 
1558	 0.394480394136306 
1559	 0.394544687688213 
1560	 0.394608574988453 
1561	 0.394677038957033 
1562	 0.394740331541932 
1563	 0.394795515748293 
1564	 0.394858514630198 
1565	 0.394927634383605 
1566	 0.394990618784235 
1567	 0.395051656576992 
1568	 0.395114643584225 
1569	 0.395179802297785 
1570	 0.395231938929859 
1571	 0.395284431806192 
1572	 0.395325586421196 
1573	 0.3953521848174 
1574	 0.395380843972177 
1575	 0.395402421960354 
1576	 0.395426461122686 
1577	 0.395442929361034 
1578	 0.395471618836722 
1579	 0.395508558609879 
1580	 0.395543634653759 
1581	 0.395585996828398 
1582	 0.395623722663558 
1583	 0.395657163294755 
1584	 0.395694206283382 
1585	 0.395725617940138 
1586	 0.395769571465216 
1587	 0.395823193054154 
1588	 0.395875622891579 
1589	 0.395958148010585 
1590	 0.395998100197715 
1591	 0.396004483881248 
1592	 0.396025593184534 
1593	 0.39602084615775 
1594	 0.396034069886435 
1595	 0.396065525882531 
1596	 0.396098553392412 
1597	 0.396135785618618 
1598	 0.396173271332059 
1599	 0.396215584067064 
1600	 0.396262555284578 
1601	 0.396312876278058 
1602	 0.396361755287483 
1603	 0.396433596051399 
1604	 0.396474186120859 
1605	 0.396483272694879 
1606	 0.396506511096105 
1607	 0.396519727312696 
1608	 0.396534501023798 
1609	 0.396552595026304 
1610	 0.396574715610517 
1611	 0.396595307097094 
1612	 0.396612588684651 
1613	 0.396635499402056 
1614	 0.396652077436526 
1615	 0.396658878682136 
1616	 0.396669657819945 
1617	 0.396699561999956 
1618	 0.3967455193109 
1619	 0.396790097853482 
1620	 0.396841369294284 
1621	 0.396872252536545 
1622	 0.396893106989818 
1623	 0.396915056551468 
1624	 0.396919265826869 
1625	 0.396947463344835 
1626	 0.396989109666774 
1627	 0.397023329624573 
1628	 0.397070737108425 
1629	 0.397093981619872 
1630	 0.39710492986407 
1631	 0.397109168061865 
1632	 0.397095029637656 
1633	 0.397100307635611 
1634	 0.397099523166173 
1635	 0.397123889595061 
1636	 0.397169682363138 
1637	 0.397204542330213 
1638	 0.397255818883993 
1639	 0.397283333876538 
1640	 0.397290867084668 
1641	 0.397319036344675 
1642	 0.397341173781893 
1643	 0.397381607317419 
1644	 0.397443339889114 
1645	 0.397495029828197 
1646	 0.397553806725918 
1647	 0.397599736268621 
1648	 0.39763552319427 
1649	 0.397684514450278 
1650	 0.397735395027578 
1651	 0.397781146114263 
1652	 0.397844999871106 
1653	 0.397872770075619 
1654	 0.397875354392535 
1655	 0.397882826820102 
1656	 0.397874196547908 
1657	 0.397870303102594 
1658	 0.39785937053037 
1659	 0.397865806432224 
1660	 0.397874169241146 
1661	 0.397890958518952 
1662	 0.397933048535406 
1663	 0.397952016796003 
1664	 0.397957559853637 
1665	 0.39797536684263 
1666	 0.397991805562467 
1667	 0.398008821395597 
1668	 0.398052331019228 
1669	 0.398047469612812 
1670	 0.398007137728945 
1671	 0.397985790060822 
1672	 0.397932437497323 
1673	 0.397918303357804 
1674	 0.397930077516006 
1675	 0.397947521993998 
1676	 0.397980771149573 
1677	 0.398015529707361 
1678	 0.398065819609 
1679	 0.398109048878889 
1680	 0.398163844526104 
1681	 0.398192669808483 
1682	 0.398216269685542 
1683	 0.398220464696897 
1684	 0.398179851485614 
1685	 0.39818498891695 
1686	 0.39819538520155 
1687	 0.398219092853899 
1688	 0.398288471860776 
1689	 0.398315914949512 
1690	 0.398323241046359 
1691	 0.398340087237684 
1692	 0.398339204757012 
1693	 0.398355862195301 
1694	 0.398396159550226 
1695	 0.398410540809227 
1696	 0.398408969388179 
1697	 0.398427313258268 
1698	 0.398455424926688 
1699	 0.398456963443021 
1700	 0.398448830546084 
1701	 0.398457784149445 
1702	 0.398454503331844 
1703	 0.398450027670551 
1704	 0.398482665346557 
1705	 0.398472273741145 
1706	 0.398408445752588 
1707	 0.398385954331176 
1708	 0.398364652769021 
1709	 0.398358484318342 
1710	 0.398371714492053 
1711	 0.398386751079803 
1712	 0.398416076312496 
1713	 0.39843698330647 
1714	 0.398469348543477 
1715	 0.398478282247761 
1716	 0.398461665672896 
1717	 0.398472657573357 
1718	 0.398491171972235 
1719	 0.398501744397293 
1720	 0.398522325441234 
1721	 0.39853573573425 
1722	 0.398549473547022 
1723	 0.398528528886339 
1724	 0.398497338296627 
1725	 0.398465440365776 
1726	 0.398385405248243 
1727	 0.398352750914845 
1728	 0.39835308443209 
1729	 0.398335142499506 
1730	 0.39832970335229 
1731	 0.398307687492827 
1732	 0.39828761762491 
1733	 0.3982338429906 
1734	 0.398154338405967 
1735	 0.398073721376608 
1736	 0.397953409455247 
1737	 0.397887311240859 
1738	 0.397834489694041 
1739	 0.397805282731929 
1740	 0.397827834551599 
1741	 0.397791641024802 
1742	 0.397756090735305 
1743	 0.397689889682239 
1744	 0.397570759407418 
1745	 0.397494415822484 
1746	 0.397425864440517 
1747	 0.39736300481698 
1748	 0.397298296226443 
1749	 0.397224035950035 
1750	 0.397157958414647 
1751	 0.397136765451312 
1752	 0.397121243650437 
1753	 0.39708671782071 
1754	 0.397043059770228 
1755	 0.396989487415662 
1756	 0.396928909085505 
1757	 0.396895191923518 
1758	 0.39690768929754 
1759	 0.396899641123144 
1760	 0.396858701455192 
1761	 0.396815403661325 
1762	 0.396759838262509 
1763	 0.39666914185191 
1764	 0.396598901287262 
1765	 0.396575280586498 
1766	 0.396533101230131 
1767	 0.396515795380541 
1768	 0.396509563042675 
1769	 0.396485864075303 
1770	 0.396460566040427 
1771	 0.396419646666332 
1772	 0.396402963131108 
1773	 0.396362690629726 
1774	 0.396287903480208 
1775	 0.396238929752992 
1776	 0.3961903990376 
1777	 0.396164941335167 
1778	 0.396167938079504 
1779	 0.396166555450932 
1780	 0.396171007188388 
1781	 0.396160216466038 
1782	 0.39612578876403 
1783	 0.396094671647419 
1784	 0.39607301615855 
1785	 0.396051052467318 
1786	 0.396034437385292 
1787	 0.396024447470944 
1788	 0.396008427222559 
1789	 0.395999657840554 
1790	 0.395996222764232 
1791	 0.395973832271827 
1792	 0.395978783902326 
1793	 0.396009878895433 
1794	 0.396019070250511 
1795	 0.396062188721909 
1796	 0.396062143991923 
1797	 0.396011363468958 
1798	 0.395967489470532 
1799	 0.395897043879461 
1800	 0.395868044995406 
1801	 0.391225187386581 
1802	 0.391240852172869 
1803	 0.391237360606228 
1804	 0.391233168026107 
1805	 0.391236709606595 
1806	 0.391273580095981 
1807	 0.391328860489422 
1808	 0.391351260654084 
1809	 0.391373935008586 
1810	 0.391389950236951 
1811	 0.391395142270637 
1812	 0.391365632260286 
1813	 0.39134769832293 
1814	 0.391340278440003 
1815	 0.391345045719566 
1816	 0.391366313108085 
1817	 0.391398918580323 
1818	 0.39147738795721 
1819	 0.391513051274755 
1820	 0.3915452263413 
1821	 0.391558387757247 
1822	 0.391531680770231 
1823	 0.391507923324294 
1824	 0.391494352240205 
1825	 0.391460657575774 
1826	 0.391431959218124 
1827	 0.391404468641112 
1828	 0.391363737874308 
1829	 0.391294158095484 
1830	 0.391245684647558 
1831	 0.391208425882638 
1832	 0.391157729334067 
1833	 0.391106166962784 
1834	 0.391052422203128 
1835	 0.391003696378665 
1836	 0.390972065593476 
1837	 0.390916747104087 
1838	 0.390866052850856 
1839	 0.390829830313988 
1840	 0.390802825983797 
1841	 0.390754266298458 
1842	 0.390715751166393 
1843	 0.390691301324438 
1844	 0.390653680180663 
1845	 0.39060923329639 
1846	 0.390582195769806 
1847	 0.390540307000042 
1848	 0.390459421112923 
1849	 0.390407230165173 
1850	 0.390373085701583 
1851	 0.390349256729717 
1852	 0.39032889615184 
1853	 0.390355604013757 
1854	 0.390353376636186 
1855	 0.390326582287408 
1856	 0.390290255981864 
1857	 0.390184033313537 
1858	 0.390072250732477 
1859	 0.389961975537439 
1860	 0.389834498733364 
1861	 0.389687906683136 
1862	 0.38956193065952 
1863	 0.389415537131827 
1864	 0.389254751083573 
1865	 0.389112941056692 
1866	 0.388927475186346 
1867	 0.388722326340443 
1868	 0.388512731771431 
1869	 0.388250314129649 
1870	 0.387990257647624 
1871	 0.387701538193293 
1872	 0.387406792409626 
1873	 0.387058172023483 
1874	 0.386667358299932 
1875	 0.386251853798096 
1876	 0.385822342480475 
1877	 0.385333380465204 
1878	 0.38480262081107 
1879	 0.384236106978191 
1880	 0.383590045999113 
1881	 0.382850038134412 
1882	 0.382096306723615 
1883	 0.38131103458808 
1884	 0.38043106052825 
1885	 0.379527215972692 
1886	 0.378593404230884 
1887	 0.377558000766054 
1888	 0.37650240437509 
1889	 0.37540691151309 
1890	 0.374257596095911 
1891	 0.373096821538471 
1892	 0.371902631020227 
1893	 0.370693050279448 
1894	 0.36945537678083 
1895	 0.368209458880394 
1896	 0.366947132932361 
1897	 0.365661541531855 
1898	 0.364385946153743 
1899	 0.363151601727453 
1900	 0.361920822261429 
1901	 0.360762837718059 
1902	 0.359673568467922 
1903	 0.358646458136376 
1904	 0.357660912702671 
1905	 0.356740473848265 
1906	 0.355881669703237 
1907	 0.355041771384174 
1908	 0.354259739958519 
1909	 0.353529949513448 
1910	 0.352823774588279 
1911	 0.352151015232681 
1912	 0.351508977557195 
1913	 0.350916644930846 
1914	 0.35037210920026 
1915	 0.349845418315849 
1916	 0.349360674824982 
1917	 0.34889835650193 
1918	 0.348450972857384 
1919	 0.348070705882199 
1920	 0.347745723722537 
1921	 0.347431630286354 
1922	 0.347140541856247 
1923	 0.346858939516508 
1924	 0.346606257608985 
1925	 0.346355905440555 
1926	 0.346173294078388 
1927	 0.346042518223645 
1928	 0.345917372609411 
1929	 0.345842418547001 
1930	 0.34581134640299 
1931	 0.345780813704262 
1932	 0.345778564812744 
1933	 0.345780455165926 
1934	 0.345775298194576 
1935	 0.34579093151128 
1936	 0.345800814683787 
1937	 0.345847186169536 
1938	 0.345912952727118 
1939	 0.346006393142576 
1940	 0.346117982063945 
1941	 0.346269597488282 
1942	 0.346454991119494 
1943	 0.346657039874285 
1944	 0.346860104469306 
1945	 0.347084285752242 
1946	 0.34731619025372 
1947	 0.347559681146649 
1948	 0.347803564160562 
1949	 0.348066413377132 
1950	 0.348316374663087 
1951	 0.348547090405437 
1952	 0.348800461710652 
1953	 0.349077800262626 
1954	 0.349374069969855 
1955	 0.349693717082829 
1956	 0.349978163159602 
1957	 0.350256960078061 
1958	 0.350508107511482 
1959	 0.350780558111044 
1960	 0.351047903021827 
1961	 0.351339944654422 
1962	 0.35163513753747 
1963	 0.351951963334474 
1964	 0.352296760502028 
1965	 0.352633632916209 
1966	 0.352991319780236 
1967	 0.353358361140971 
1968	 0.353725477763159 
1969	 0.354096401455492 
1970	 0.354473406427525 
1971	 0.354863095669513 
1972	 0.355247663926639 
1973	 0.355651231915088 
1974	 0.356022019552645 
1975	 0.356372771051959 
1976	 0.356720127441061 
1977	 0.357066528322279 
1978	 0.357398576619993 
1979	 0.357767101320693 
1980	 0.358157834828394 
1981	 0.358525067990183 
1982	 0.358885697728392 
1983	 0.359260313355525 
1984	 0.359629128755948 
1985	 0.360000865519119 
1986	 0.360389905978426 
1987	 0.360773051408603 
1988	 0.36114950779579 
1989	 0.361524581562151 
1990	 0.361924824368117 
1991	 0.362302876319727 
1992	 0.36267915641073 
1993	 0.363057634083658 
1994	 0.363426872831548 
1995	 0.363772233961619 
1996	 0.364141824669335 
1997	 0.364519421513939 
1998	 0.364894628488852 
1999	 0.365281318152073 
2000	 0.365666907686009 
2001	 0.366056508244709 
2002	 0.366432733516414 
2003	 0.366820806246552 
2004	 0.367190832765927 
2005	 0.367574759427982 
2006	 0.367971048760342 
2007	 0.368345614707736 
2008	 0.368713032668951 
2009	 0.369081180953047 
2010	 0.369435912072669 
2011	 0.369788963440956 
2012	 0.370150149843683 
2013	 0.37050300394845 
2014	 0.370852162241184 
2015	 0.371178759082056 
2016	 0.371503690452558 
2017	 0.371845941914942 
2018	 0.3721914492606 
2019	 0.372549054046025 
2020	 0.37288585294203 
2021	 0.37321553159664 
2022	 0.373556601751455 
2023	 0.373896510746431 
2024	 0.374228557936022 
2025	 0.374581438996943 
2026	 0.374908877371653 
2027	 0.375220302101582 
2028	 0.375501830685077 
2029	 0.375796030626549 
2030	 0.376089682604042 
2031	 0.376365652746561 
2032	 0.376620858930733 
2033	 0.376901207709675 
2034	 0.37718072828416 
2035	 0.377463243372498 
2036	 0.377767311163665 
2037	 0.378058115798583 
2038	 0.378352972179972 
2039	 0.378621318014662 
2040	 0.378885539685474 
2041	 0.379121672891948 
2042	 0.379350491768825 
2043	 0.379589240588424 
2044	 0.379826712244681 
2045	 0.380081514593486 
2046	 0.380316385334286 
2047	 0.380534561470439 
2048	 0.380760343527295 
2049	 0.38099062091585 
2050	 0.381206125755762 
2051	 0.381418699476552 
2052	 0.381622968337706 
2053	 0.381800973287052 
2054	 0.381999045558741 
2055	 0.382209168058846 
2056	 0.382408898044086 
2057	 0.382612417082549 
2058	 0.382824873390478 
2059	 0.383025452560091 
2060	 0.383223257497903 
2061	 0.383412649281242 
2062	 0.383584775088709 
2063	 0.383778815305152 
2064	 0.383961078121744 
2065	 0.384169781313762 
2066	 0.384431561176819 
2067	 0.38465324668746 
2068	 0.384866792444178 
2069	 0.385073809181612 
2070	 0.385278370035145 
2071	 0.385461008716787 
2072	 0.385647896604255 
2073	 0.385844048126393 
2074	 0.386026944438274 
2075	 0.38618239882266 
2076	 0.386364798655417 
2077	 0.386564430580937 
2078	 0.386752760238858 
2079	 0.386941043266267 
2080	 0.387134177572187 
2081	 0.387323563820131 
2082	 0.387513816318675 
2083	 0.38770184212821 
2084	 0.387919649148375 
2085	 0.38809622925601 
2086	 0.388255443870593 
2087	 0.388422129234221 
2088	 0.388564861750952 
2089	 0.388732724472984 
2090	 0.388923721247153 
2091	 0.38909258709956 
2092	 0.389249096379678 
2093	 0.389425126116322 
2094	 0.389602496893694 
2095	 0.389780037289366 
2096	 0.389993108245715 
2097	 0.390169363016434 
2098	 0.390310127552475 
2099	 0.390459578839403 
2100	 0.390619604770076 
2101	 0.390773869123922 
2102	 0.390929494209985 
2103	 0.391094859333018 
2104	 0.391263793794235 
2105	 0.391410082666954 
2106	 0.391597527798054 
2107	 0.39182638486928 
2108	 0.392034902796924 
2109	 0.392248877009335 
2110	 0.392469894291319 
2111	 0.392682155490586 
2112	 0.392908055731575 
2113	 0.393165940108189 
2114	 0.393405590594505 
2115	 0.393627937496035 
2116	 0.39384397071851 
2117	 0.394050757699055 
2118	 0.394223885431089 
2119	 0.39443475351558 
2120	 0.394660946415449 
2121	 0.394881391255401 
2122	 0.395117520548423 
2123	 0.395343682108698 
2124	 0.395574476666555 
2125	 0.395781166959659 
2126	 0.395985883530435 
2127	 0.396170718725766 
2128	 0.396345562721744 
2129	 0.396486276744893 
2130	 0.396617075376701 
2131	 0.39670880717324 
2132	 0.396765187296846 
2133	 0.396769938472167 
2134	 0.396780667487463 
2135	 0.39674989157565 
2136	 0.396747417213035 
2137	 0.396754393957242 
2138	 0.396741480338552 
2139	 0.396737025095262 
2140	 0.396707080100425 
2141	 0.396649789472384 
2142	 0.396590122523683 
2143	 0.396525575817457 
2144	 0.396443261244575 
2145	 0.396354481645308 
2146	 0.396245418999534 
2147	 0.396117115418706 
2148	 0.395979280481526 
2149	 0.395805098180795 
2150	 0.395595777065319 
2151	 0.395392336888593 
2152	 0.395165026217028 
2153	 0.394935083718924 
2154	 0.394700624361993 
2155	 0.394465112242221 
2156	 0.394228849780657 
2157	 0.393966439528638 
2158	 0.393706256085864 
2159	 0.393416139880583 
2160	 0.393076072967196 
2161	 0.392752456493177 
2162	 0.392411380054478 
2163	 0.392086559030301 
2164	 0.391781514159881 
2165	 0.391460062832946 
2166	 0.391140691292339 
2167	 0.390828663056574 
2168	 0.39050951247788 
2169	 0.390182890224876 
2170	 0.389853950053729 
2171	 0.389533173690646 
2172	 0.389186736418181 
2173	 0.388812210169248 
2174	 0.3884577810645 
2175	 0.388102585636981 
2176	 0.387742466064722 
2177	 0.387397130341036 
2178	 0.387033645383787 
2179	 0.38663760959704 
2180	 0.386265748194474 
2181	 0.385897351599008 
2182	 0.385536031226619 
2183	 0.385204968563326 
2184	 0.384856982504795 
2185	 0.384483436251823 
2186	 0.384086535844705 
2187	 0.383712743993597 
2188	 0.383310670102531 
2189	 0.382952775510684 
2190	 0.38262837065984 
2191	 0.38230433879312 
2192	 0.381990099749711 
2193	 0.381687574817601 
2194	 0.381379670430599 
2195	 0.381117036876669 
2196	 0.380897721022156 
2197	 0.380667294718085 
2198	 0.380445187325377 
2199	 0.380260756346915 
2200	 0.380075834746552 
2201	 0.379922242506952 
2202	 0.379837887578721 
2203	 0.379737389754889 
2204	 0.379644339808056 
2205	 0.379547062994259 
2206	 0.379488249787104 
2207	 0.379441469498001 
2208	 0.379425006113609 
2209	 0.379437979926447 
2210	 0.379478565091089 
2211	 0.379541817303504 
2212	 0.379628909810144 
2213	 0.379783097131637 
2214	 0.379884085247608 
2215	 0.379972431929906 
2216	 0.380073614377854 
2217	 0.380174255446659 
2218	 0.380249940232669 
2219	 0.380324368602439 
2220	 0.38039488521866 
2221	 0.380416894384148 
2222	 0.38047787212752 
2223	 0.38056688527234 
2224	 0.380637871381692 
2225	 0.380674048864383 
2226	 0.380706114125086 
2227	 0.380684183297398 
2228	 0.380609849534887 
2229	 0.380548028503819 
2230	 0.380449434042372 
2231	 0.380373652952866 
2232	 0.380293690720228 
2233	 0.380229618899672 
2234	 0.380171364687552 
2235	 0.380123144761502 
2236	 0.380088693723585 
2237	 0.3800564840301 
2238	 0.380027495104496 
2239	 0.380011469950223 
2240	 0.380036813846155 
2241	 0.380014977303515 
2242	 0.379987648692576 
2243	 0.379934521976662 
2244	 0.379838246573976 
2245	 0.379732308588128 
2246	 0.379618365261368 
2247	 0.379518271681247 
2248	 0.379435073691862 
2249	 0.379364300504126 
2250	 0.379273829861902 
2251	 0.379187424967753 
2252	 0.379112147770434 
2253	 0.379034123318275 
2254	 0.378957725808792 
2255	 0.378891299740438 
2256	 0.378829773920944 
2257	 0.378730553334839 
2258	 0.378700835972978 
2259	 0.378729509069042 
2260	 0.378743192821357 
2261	 0.378785669324541 
2262	 0.37882857145505 
2263	 0.378858714523489 
2264	 0.37891860413857 
2265	 0.37900672911941 
2266	 0.379093282669762 
2267	 0.379200396974668 
2268	 0.379298867870541 
2269	 0.379412116475692 
2270	 0.379516515121044 
2271	 0.379553635706846 
2272	 0.379585552836405 
2273	 0.379599550447108 
2274	 0.379622177129746 
2275	 0.379676121151394 
2276	 0.379772683216 
2277	 0.379853462850011 
2278	 0.379946215973018 
2279	 0.380010817477698 
2280	 0.380065493048769 
2281	 0.380134583433446 
2282	 0.380197989232863 
2283	 0.380255988549906 
2284	 0.380339531621174 
2285	 0.380382809895334 
2286	 0.380366841310066 
2287	 0.380404454200537 
2288	 0.380438700863588 
2289	 0.38050189950112 
2290	 0.380626271190791 
2291	 0.380713268863989 
2292	 0.380804875573346 
2293	 0.380884421095925 
2294	 0.380925396754641 
2295	 0.380992780487761 
2296	 0.381059367501414 
2297	 0.381148135315845 
2298	 0.381257564676296 
2299	 0.381379979050177 
2300	 0.381535871484155 
2301	 0.381641943496512 
2302	 0.38170563156202 
2303	 0.381753518167868 
2304	 0.381768156540717 
2305	 0.381795767074072 
2306	 0.381854647400919 
2307	 0.381956660621896 
2308	 0.382026764625061 
2309	 0.382121722864238 
2310	 0.382153597897343 
2311	 0.382136354644237 
2312	 0.382135818905932 
2313	 0.382100714514558 
2314	 0.382089147010083 
2315	 0.382075290591666 
2316	 0.382104833120372 
2317	 0.382174385005998 
2318	 0.382210766937089 
2319	 0.382254103077748 
2320	 0.382305835989901 
2321	 0.382300925724685 
2322	 0.382381825942868 
2323	 0.382590352658302 
2324	 0.382693280452638 
2325	 0.38278933175195 
2326	 0.382858366354068 
2327	 0.382852914349095 
2328	 0.382833880342134 
2329	 0.382911006391263 
2330	 0.382979899014362 
2331	 0.38303916371579 
2332	 0.383131154151623 
2333	 0.383164352703131 
2334	 0.383172048645483 
2335	 0.383207640784826 
2336	 0.38323949546047 
2337	 0.383277636737121 
2338	 0.383294030142335 
2339	 0.383324071491057 
2340	 0.383323990571778 
2341	 0.383255689429935 
2342	 0.383196147143069 
2343	 0.383087029196664 
2344	 0.382968573998696 
2345	 0.382857794414647 
2346	 0.382740175613093 
2347	 0.382657501762345 
2348	 0.382587350023323 
2349	 0.382511908698469 
2350	 0.382475262708727 
2351	 0.382423766277875 
2352	 0.382360323991543 
2353	 0.382273541223514 
2354	 0.382186668121903 
2355	 0.382093480758953 
2356	 0.381965630670442 
2357	 0.381860836922129 
2358	 0.381764190381472 
2359	 0.381673654595535 
2360	 0.381598629855843 
2361	 0.381499752367232 
2362	 0.381433383787863 
2363	 0.381303142257298 
2364	 0.381073699490944 
2365	 0.380909626200454 
2366	 0.380734068681592 
2367	 0.380593957716524 
2368	 0.380548148990813 
2369	 0.380451274466813 
2370	 0.380356580704825 
2371	 0.380200884182194 
2372	 0.380033278893178 
2373	 0.379830326449443 
2374	 0.379663313521036 
2375	 0.379456957387807 
2376	 0.379234112379473 
2377	 0.379048028181039 
2378	 0.378837305918145 
2379	 0.378645633443041 
2380	 0.378390480680409 
2381	 0.37805784759727 
2382	 0.377747014240551 
2383	 0.377503371560714 
2384	 0.377322236824456 
2385	 0.377175386658404 
2386	 0.377043145853535 
2387	 0.376803985286171 
2388	 0.376576876808943 
2389	 0.376420580607062 
2390	 0.376165408078357 
2391	 0.375999262891152 
2392	 0.375825536521567 
2393	 0.375526295553556 
2394	 0.375349299361663 
2395	 0.375133331519311 
2396	 0.374874427370173 
2397	 0.374664956346252 
2398	 0.374325005617629 
2399	 0.373957290193399 
2400	 0.37367646638453 
2401	 0.373345431094195 
2402	 0.373005954355367 
2403	 0.372739510450475 
2404	 0.372391584371662 
2405	 0.37213345434924 
2406	 0.372024667059886 
2407	 0.371801233530665 
2408	 0.371618528006747 
2409	 0.371455569097148 
2410	 0.371172521181059 
2411	 0.370936383048376 
2412	 0.370703112324007 
2413	 0.370378700059882 
2414	 0.370065388172846 
2415	 0.369728643120183 
2416	 0.369359942301152 
2417	 0.368935404274562 
2418	 0.368597436463722 
2419	 0.368248758537527 
2420	 0.367893683796611 
2421	 0.367545506383633 
2422	 0.367262352400363 
2423	 0.367032698964459 
2424	 0.366784688598565 
2425	 0.366657984310851 
2426	 0.366343623322894 
2427	 0.365863418461833 
2428	 0.36548652797442 
2429	 0.365004732780539 
2430	 0.364691105701399 
2431	 0.364550551116608 
2432	 0.364307824455909 
2433	 0.364144907551277 
2434	 0.363910451355273 
2435	 0.363538372076276 
2436	 0.363248578591608 
2437	 0.363033692191571 
2438	 0.362740451735267 
2439	 0.362396789662385 
2440	 0.362111182166516 
2441	 0.361753643729799 
2442	 0.361493945508848 
2443	 0.361426991019248 
2444	 0.361203923157609 
2445	 0.360936608018901 
2446	 0.360720716356123 
2447	 0.360419081092333 
2448	 0.360113368794999 
2449	 0.359896545119515 
2450	 0.359545295030229 
2451	 0.35901634206907 
2452	 0.35868920422765 
2453	 0.35843364552276 
2454	 0.358158355416355 
2455	 0.358027442542865 
2456	 0.357738381126083 
2457	 0.357277035968132 
2458	 0.35694923946421 
2459	 0.356630001826053 
2460	 0.356350621705363 
2461	 0.356189910593958 
2462	 0.355954813233473 
2463	 0.355672663715428 
2464	 0.355439728640986 
2465	 0.355254747857717 
2466	 0.354983080569017 
2467	 0.354688818187338 
2468	 0.354388777740049 
2469	 0.354001367415584 
2470	 0.353775688546027 
2471	 0.353439788452285 
2472	 0.353142914650631 
2473	 0.352868119917746 
2474	 0.352678461301703 
2475	 0.352656965074368 
2476	 0.352543860863602 
2477	 0.352423777236805 
2478	 0.352112972349576 
2479	 0.351599272375148 
2480	 0.351282698161544 
2481	 0.350980321764935 
2482	 0.350764712518763 
2483	 0.350876315194437 
2484	 0.350842352552245 
2485	 0.350404567880366 
2486	 0.349974029319041 
2487	 0.349463171210003 
2488	 0.348954606840377 
2489	 0.348742139397846 
2490	 0.348663035210309 
2491	 0.348631310070101 
2492	 0.348460861221453 
2493	 0.348271345060558 
2494	 0.348055305769487 
2495	 0.347700479103453 
2496	 0.347429141480475 
2497	 0.347206979196062 
2498	 0.346987664158265 
2499	 0.346945838169618 
2500	 0.346994007050403 
