Wavelength	LMW200002.asd
350	 8.41897235401676E-02 
351	 0.081581048775743 
352	 7.56570748120723E-02 
353	 7.27937075198347E-02 
354	 7.83891927699058E-02 
355	 8.03269594977827E-02 
356	 0.077053669066914 
357	 7.17501061318472E-02 
358	 7.28515065063469E-02 
359	 7.41262617538519E-02 
360	 0.073502390052578 
361	 7.19524945126355E-02 
362	 6.95021441424132E-02 
363	 6.80847490574144E-02 
364	 6.86446577431968E-02 
365	 7.05376175155919E-02 
366	 7.23111104095292E-02 
367	 7.28661072162145E-02 
368	 7.20981913219559E-02 
369	 7.28686848931505E-02 
370	 7.41935585313217E-02 
371	 7.48122626260934E-02 
372	 7.37089745099156E-02 
373	 7.36590754547273E-02 
374	 7.53443953972934E-02 
375	 7.74782299211986E-02 
376	 0.076007528682547 
377	 7.38569461987054E-02 
378	 0.073670953043704 
379	 7.65051590130521E-02 
380	 7.78099436883559E-02 
381	 7.64858575448494E-02 
382	 7.48940841634926E-02 
383	 7.72716837268449E-02 
384	 0.078337752915691 
385	 7.81626573563156E-02 
386	 7.83662864545833E-02 
387	 8.23688190388747E-02 
388	 8.25973262110736E-02 
389	 8.11843833059298E-02 
390	 8.23557394723215E-02 
391	 8.41025290086905E-02 
392	 8.42892476989399E-02 
393	 0.08366467372126 
394	 8.51406325315446E-02 
395	 8.55208698768445E-02 
396	 8.59374958147443E-02 
397	 8.73008007149517E-02 
398	 8.87142823762283E-02 
399	 0.089038690691407 
400	 0.08907370307734 
401	 8.99486889371797E-02 
402	 8.98072420925259E-02 
403	 0.091401547388719 
404	 9.39428582483246E-02 
405	 9.31052832148915E-02 
406	 9.36703468455895E-02 
407	 9.52740619154719E-02 
408	 9.63615698936151E-02 
409	 9.47086452281177E-02 
410	 9.52724749677991E-02 
411	 9.70527844631275E-02 
412	 9.68562420189536E-02 
413	 9.79621243270542E-02 
414	 9.86556092515818E-02 
415	 9.84682000347048E-02 
416	 9.90487026441127E-02 
417	 9.91146437986331E-02 
418	 9.89266430997055E-02 
419	 9.90594769519516E-02 
420	 0.100010020970595 
421	 9.98939917414872E-02 
422	 9.93803878314461E-02 
423	 0.100469336473456 
424	 0.100428217231065 
425	 9.98230508770978E-02 
426	 9.93741941718045E-02 
427	 9.92973940358874E-02 
428	 9.90405861683091E-02 
429	 9.87120073612272E-02 
430	 9.85813283185361E-02 
431	 0.098586242663795 
432	 9.84547023496065E-02 
433	 9.82295078197982E-02 
434	 9.82391279608983E-02 
435	 9.80593145149545E-02 
436	 9.79192896418928E-02 
437	 9.80003542981757E-02 
438	 9.79996748003082E-02 
439	 9.83086446775804E-02 
440	 9.86318340442821E-02 
441	 9.85000482197541E-02 
442	 0.099048627617289 
443	 9.95799291467098E-02 
444	 9.97272566667302E-02 
445	 9.98635324108654E-02 
446	 0.100346871681452 
447	 0.100899837831244 
448	 0.101207196671622 
449	 0.101665472531444 
450	 0.102396001060346 
451	 0.103156655449582 
452	 0.103445103736931 
453	 0.103624906088796 
454	 0.103844196432333 
455	 0.104192811167632 
456	 0.104771525699209 
457	 0.105058544722276 
458	 0.105147996885568 
459	 0.1053946317455 
460	 0.105727630352619 
461	 0.105868252973849 
462	 0.105912310414345 
463	 0.106508661978474 
464	 0.106719130122492 
465	 0.106827175642472 
466	 0.107217322106591 
467	 0.107210850297222 
468	 0.107332886934199 
469	 0.107592199977745 
470	 0.107591168734117 
471	 0.107755342563465 
472	 0.107847458380318 
473	 0.107755074743747 
474	 0.10792479437582 
475	 0.10805817082641 
476	 0.108108563741187 
477	 0.108145917899866 
478	 0.108223752925456 
479	 0.108491346544529 
480	 0.108845184811141 
481	 0.10882636053656 
482	 0.109032835917937 
483	 0.109197594115119 
484	 0.109032668015824 
485	 0.10916851965047 
486	 0.109277006428807 
487	 0.109312033454146 
488	 0.109468220304256 
489	 0.10958895569416 
490	 0.109700964729236 
491	 0.109824777437456 
492	 0.109889485992694 
493	 0.109886821857196 
494	 0.109926701848467 
495	 0.110133571481532 
496	 0.110287193912902 
497	 0.11034914570477 
498	 0.110360715642021 
499	 0.110446780973607 
500	 0.110584926672149 
501	 0.110709078178582 
502	 0.110752249149058 
503	 0.110690986592887 
504	 0.110782003030627 
505	 0.110996621527889 
506	 0.111053509197324 
507	 0.111136030730654 
508	 0.111237944976981 
509	 0.111322576979131 
510	 0.111367583004628 
511	 0.111387903715001 
512	 0.1114147030186 
513	 0.11148659279541 
514	 0.111627482714559 
515	 0.111747081505376 
516	 0.111827594702873 
517	 0.112004819709406 
518	 0.112060217134368 
519	 0.11203141835821 
520	 0.112039550009705 
521	 0.112142365006803 
522	 0.112285278723257 
523	 0.112406187290084 
524	 0.112446813075571 
525	 0.112523849070855 
526	 0.112601627050072 
527	 0.112658429194006 
528	 0.112847760624309 
529	 0.11293688456083 
530	 0.112963812037931 
531	 0.11311929247852 
532	 0.113099540733475 
533	 0.113167613076082 
534	 0.113428719812847 
535	 0.1134940512278 
536	 0.113589710230965 
537	 0.113702345675247 
538	 0.113748887204783 
539	 0.113797173441166 
540	 0.113903626461704 
541	 0.114069635055178 
542	 0.114227883712146 
543	 0.114395651180027 
544	 0.114573632364625 
545	 0.114742550179283 
546	 0.114811352307608 
547	 0.114892943014476 
548	 0.115042020755165 
549	 0.115252783690039 
550	 0.115439194171746 
551	 0.115601836596281 
552	 0.115769464052681 
553	 0.115996468953106 
554	 0.116225406561486 
555	 0.116465032916837 
556	 0.116749448680414 
557	 0.117010706704604 
558	 0.117256348629236 
559	 0.11752976307329 
560	 0.117931468486772 
561	 0.118266882766779 
562	 0.118549393960768 
563	 0.118873936648678 
564	 0.119344342440934 
565	 0.11974897009828 
566	 0.120082671836463 
567	 0.120586793749298 
568	 0.12112793203873 
569	 0.121674748514423 
570	 0.122227145427546 
571	 0.122817744646607 
572	 0.123413374805058 
573	 0.123981334022905 
574	 0.124500635160064 
575	 0.125092300602692 
576	 0.125776373532038 
577	 0.12650744445652 
578	 0.12712462515078 
579	 0.127837298849891 
580	 0.128628487694146 
581	 0.12939483917099 
582	 0.130167958431566 
583	 0.130963618305577 
584	 0.131783491881754 
585	 0.132613997893643 
586	 0.133448213602822 
587	 0.134283937486243 
588	 0.135123720396149 
589	 0.135977598020512 
590	 0.136898997750618 
591	 0.137840771287458 
592	 0.138675768308586 
593	 0.139543983732793 
594	 0.140462070877631 
595	 0.141389107053984 
596	 0.142197458722362 
597	 0.143040121250485 
598	 0.143928874683889 
599	 0.144798713876443 
600	 0.145611384410622 
601	 0.146434070952112 
602	 0.147274676591097 
603	 0.148014679907211 
604	 0.14872149114833 
605	 0.149408225122839 
606	 0.150083533326417 
607	 0.150831789393546 
608	 0.151513780090284 
609	 0.152119859764432 
610	 0.152800185109218 
611	 0.153402731847289 
612	 0.153965918316383 
613	 0.154536365231438 
614	 0.155034569488905 
615	 0.1555134309814 
616	 0.155967548788053 
617	 0.156355387213775 
618	 0.156746888321115 
619	 0.157125364086614 
620	 0.157479557601938 
621	 0.157839076862082 
622	 0.158173240423434 
623	 0.15848895287369 
624	 0.158805723867914 
625	 0.159117762164966 
626	 0.15940342064299 
627	 0.159661248096298 
628	 0.159917135722719 
629	 0.160206127861142 
630	 0.160492905108011 
631	 0.160738049874276 
632	 0.160967480076667 
633	 0.161207138267745 
634	 0.161460285658425 
635	 0.161710495544307 
636	 0.161935638904858 
637	 0.162161439857963 
638	 0.162407239474696 
639	 0.162658566825746 
640	 0.16288456421442 
641	 0.163103467906704 
642	 0.163350674365079 
643	 0.163593890350604 
644	 0.163821334781679 
645	 0.164061544472136 
646	 0.164401490763113 
647	 0.164652418740454 
648	 0.16486359261366 
649	 0.165130122886249 
650	 0.165415552935631 
651	 0.165691138140653 
652	 0.165957039784528 
653	 0.166239152666633 
654	 0.166549976494609 
655	 0.166852547223644 
656	 0.167128174555927 
657	 0.167419759178866 
658	 0.167764773577062 
659	 0.168117154546044 
660	 0.168405248389957 
661	 0.168717370678671 
662	 0.169058960543756 
663	 0.169420335962417 
664	 0.169782395710626 
665	 0.170144538055443 
666	 0.170509923360798 
667	 0.170879912006215 
668	 0.171232552631146 
669	 0.171617264291726 
670	 0.172035072671998 
671	 0.172445135653443 
672	 0.172867107798366 
673	 0.173322038957905 
674	 0.173800223638572 
675	 0.17421944679556 
676	 0.174619719029237 
677	 0.175036365069141 
678	 0.175500239032807 
679	 0.176017078260913 
680	 0.176497806076288 
681	 0.176950555386765 
682	 0.177519717844345 
683	 0.178071902371276 
684	 0.178564149123207 
685	 0.179023991813398 
686	 0.17964633798966 
687	 0.180198439621998 
688	 0.180673829940018 
689	 0.181226576547774 
690	 0.181819884579548 
691	 0.182378485562894 
692	 0.182894327367122 
693	 0.18350816199994 
694	 0.184133528982827 
695	 0.184742235748223 
696	 0.185332703444257 
697	 0.185926945399302 
698	 0.186560091333591 
699	 0.187212872671568 
700	 0.187811403885717 
701	 0.188414314336915 
702	 0.189029213638675 
703	 0.189649609307128 
704	 0.190260562951411 
705	 0.190871533010872 
706	 0.191513543151351 
707	 0.192205802434094 
708	 0.192783931558258 
709	 0.193370285585325 
710	 0.194030909155214 
711	 0.194709461268922 
712	 0.195328779887805 
713	 0.195915391613349 
714	 0.196517918593714 
715	 0.197133354929409 
716	 0.197737155539761 
717	 0.198327514169301 
718	 0.198916693791051 
719	 0.199475899667982 
720	 0.200019826021359 
721	 0.200547995595991 
722	 0.201008925183162 
723	 0.201553711808828 
724	 0.202110845313061 
725	 0.202573939415599 
726	 0.203092663206534 
727	 0.203544476578215 
728	 0.203914356902802 
729	 0.204297661798497 
730	 0.204750556623435 
731	 0.205135110884663 
732	 0.205390159923586 
733	 0.205724057126826 
734	 0.206043576026737 
735	 0.206308134654638 
736	 0.206513928198595 
737	 0.206760274873921 
738	 0.206976675441106 
739	 0.207141653335869 
740	 0.207300058901654 
741	 0.207429041483425 
742	 0.207534394687804 
743	 0.207614522290825 
744	 0.207629079015748 
745	 0.207624049854137 
746	 0.207649535420692 
747	 0.207716178218819 
748	 0.20756004675111 
749	 0.207428651906045 
750	 0.207378463927326 
751	 0.207185115707394 
752	 0.207056746216381 
753	 0.206937022878526 
754	 0.206751297693536 
755	 0.206552811823029 
756	 0.206349437880608 
757	 0.206134053036774 
758	 0.205889719767131 
759	 0.205600209273854 
760	 0.20527620551316 
761	 0.204944676339306 
762	 0.20464652141877 
763	 0.204352932867057 
764	 0.204008941571734 
765	 0.203598020030524 
766	 0.203224269017311 
767	 0.202880304687753 
768	 0.202498075930728 
769	 0.2020165783681 
770	 0.201665758612661 
771	 0.201316707968464 
772	 0.20090339952712 
773	 0.200475335066041 
774	 0.200029938602964 
775	 0.199581618596382 
776	 0.199144690813265 
777	 0.198729200943436 
778	 0.198304360106996 
779	 0.197863199320597 
780	 0.197410594507549 
781	 0.196938638928735 
782	 0.196520437322043 
783	 0.196118988260932 
784	 0.195589584793151 
785	 0.195143122285514 
786	 0.194733861297164 
787	 0.194299786106837 
788	 0.193863613841931 
789	 0.193424181022412 
790	 0.192996751263833 
791	 0.192593654125475 
792	 0.192187309328966 
793	 0.191762979592358 
794	 0.191317480421698 
795	 0.190862638682067 
796	 0.190454479826985 
797	 0.190074004166141 
798	 0.189690501022063 
799	 0.189275061881285 
800	 0.188895180421271 
801	 0.188517833209898 
802	 0.188099300836819 
803	 0.187673970306435 
804	 0.187313330775164 
805	 0.18699661635858 
806	 0.186651218560601 
807	 0.186318787066656 
808	 0.185926009234661 
809	 0.185495070978271 
810	 0.185177765778083 
811	 0.184881730077902 
812	 0.184572473600944 
813	 0.184250323968792 
814	 0.183981896048262 
815	 0.183660814976972 
816	 0.183308993172392 
817	 0.182995023369398 
818	 0.182714333215028 
819	 0.18243096651477 
820	 0.182169515184978 
821	 0.181988677358017 
822	 0.181688721125362 
823	 0.18139816013144 
824	 0.181180581937556 
825	 0.180910624395907 
826	 0.180669710590946 
827	 0.180461384947861 
828	 0.180257066751061 
829	 0.179990290131534 
830	 0.179761896487243 
831	 0.179567607466985 
832	 0.179361989450803 
833	 0.179202944804733 
834	 0.179070326541518 
835	 0.178926603193188 
836	 0.17872951650048 
837	 0.178506739704249 
838	 0.178322211131851 
839	 0.178195828582252 
840	 0.178065633042436 
841	 0.177922989369989 
842	 0.177762318289138 
843	 0.177604087974342 
844	 0.177542846450673 
845	 0.177451993566301 
846	 0.17732781969418 
847	 0.177222523194742 
848	 0.17713422909314 
849	 0.17702664346786 
850	 0.176907773651905 
851	 0.176824141762348 
852	 0.176788245698347 
853	 0.176758910047704 
854	 0.176710158289677 
855	 0.17665161892213 
856	 0.176663228319077 
857	 0.17663012432029 
858	 0.176487624051974 
859	 0.176404427692179 
860	 0.17643955634659 
861	 0.176486258974911 
862	 0.176438006974336 
863	 0.176500908465063 
864	 0.176503785242824 
865	 0.176482083545505 
866	 0.176563774066917 
867	 0.176513691815545 
868	 0.176507874022336 
869	 0.176584202749577 
870	 0.176610495775638 
871	 0.176650963228712 
872	 0.176697212515083 
873	 0.176753949869708 
874	 0.176861856479322 
875	 0.176973355964578 
876	 0.177062465319054 
877	 0.177118601794092 
878	 0.177136767439255 
879	 0.177313711447921 
880	 0.177489564355844 
881	 0.177494428169323 
882	 0.177687861507379 
883	 0.17783173823666 
884	 0.177901107769348 
885	 0.177998362015875 
886	 0.17814569446226 
887	 0.178373181311154 
888	 0.178586868530997 
889	 0.178630209596114 
890	 0.178759281421915 
891	 0.178948595704155 
892	 0.17917864266695 
893	 0.179473871802405 
894	 0.179613061396969 
895	 0.179741975266942 
896	 0.179974590288172 
897	 0.180230654062319 
898	 0.180469098807835 
899	 0.180660146554783 
900	 0.180828442098869 
901	 0.181112187815149 
902	 0.181485645841455 
903	 0.181826029505898 
904	 0.182041273933154 
905	 0.182283310961129 
906	 0.182571580548803 
907	 0.182863783204482 
908	 0.183105503840922 
909	 0.183342619858474 
910	 0.183667692358769 
911	 0.184045646280696 
912	 0.184372079746887 
913	 0.184720195654753 
914	 0.185034642083626 
915	 0.185352664367617 
916	 0.185776764406641 
917	 0.186135561345657 
918	 0.186525865408835 
919	 0.186958778882259 
920	 0.187316119312051 
921	 0.187666374055703 
922	 0.188074658633834 
923	 0.188535247500031 
924	 0.188947849547328 
925	 0.189405603248688 
926	 0.189880977634827 
927	 0.190345344280931 
928	 0.190813588510623 
929	 0.191354191290172 
930	 0.191849858670868 
931	 0.192253719468263 
932	 0.19279019607578 
933	 0.193331960835029 
934	 0.1938336303435 
935	 0.194294593949967 
936	 0.194766523503519 
937	 0.195242384602298 
938	 0.195744491222582 
939	 0.196310898371462 
940	 0.197018694268188 
941	 0.197622852296297 
942	 0.198207407361877 
943	 0.198917950155065 
944	 0.199570112996016 
945	 0.200193107831636 
946	 0.200805844353036 
947	 0.201408500749969 
948	 0.201936353030058 
949	 0.202539237947219 
950	 0.203192428786478 
951	 0.203828922275244 
952	 0.204683330127753 
953	 0.205449646622021 
954	 0.206100916653112 
955	 0.206771836666577 
956	 0.207415140221572 
957	 0.208202511488297 
958	 0.209015876044415 
959	 0.209637338861991 
960	 0.210364860788608 
961	 0.211170668480926 
962	 0.211981258602606 
963	 0.212727924932086 
964	 0.213481809135379 
965	 0.214262980266993 
966	 0.215106760585493 
967	 0.216024257511581 
968	 0.216828827089203 
969	 0.217606965795385 
970	 0.218411311416459 
971	 0.219246359702263 
972	 0.220093590117003 
973	 0.220935975609234 
974	 0.221845355635668 
975	 0.222880289805129 
976	 0.223686107170512 
977	 0.224486500982563 
978	 0.225398188162083 
979	 0.226391587125551 
980	 0.227269115431424 
981	 0.227990682641199 
982	 0.228749201435052 
983	 0.229767346659721 
984	 0.230685967272339 
985	 0.231681965483631 
986	 0.232654795072702 
987	 0.233446500513966 
988	 0.234499199127942 
989	 0.235515324808684 
990	 0.236426671441314 
991	 0.23733162274226 
992	 0.238392356645342 
993	 0.239337264638645 
994	 0.240198229833103 
995	 0.241103919857265 
996	 0.241905603466503 
997	 0.242803400398301 
998	 0.243867577281104 
999	 0.245002818778681 
1000	 0.245793350750675 
1001	 0.248206786987563 
1002	 0.249124245047191 
1003	 0.250045525388985 
1004	 0.250967279872097 
1005	 0.251862642399736 
1006	 0.252769407111829 
1007	 0.253693892832243 
1008	 0.254623142728689 
1009	 0.255493129984622 
1010	 0.256325011500725 
1011	 0.257105462331338 
1012	 0.257942153042139 
1013	 0.258833610387248 
1014	 0.25969877223637 
1015	 0.260588372668334 
1016	 0.261472642558033 
1017	 0.26232940206065 
1018	 0.263165496823775 
1019	 0.263973475194721 
1020	 0.264689693325719 
1021	 0.265399508317356 
1022	 0.266114136143275 
1023	 0.266813893811066 
1024	 0.26765152430381 
1025	 0.268467913937875 
1026	 0.269210405738508 
1027	 0.26995152592333 
1028	 0.270616877775732 
1029	 0.271330009019643 
1030	 0.272046025417275 
1031	 0.272744790913991 
1032	 0.273432759209517 
1033	 0.274185821041561 
1034	 0.27491875854103 
1035	 0.275602379542443 
1036	 0.276307978434318 
1037	 0.276986612421396 
1038	 0.277583657859938 
1039	 0.278238122341077 
1040	 0.278957192595601 
1041	 0.279660977650124 
1042	 0.280332053050778 
1043	 0.280970779844819 
1044	 0.28162842634483 
1045	 0.282262181353971 
1046	 0.282888091145554 
1047	 0.283564038806216 
1048	 0.284269587104637 
1049	 0.284909966791935 
1050	 0.285546188360452 
1051	 0.286185130986876 
1052	 0.28680418137735 
1053	 0.287456982526872 
1054	 0.288071146853194 
1055	 0.288670613478967 
1056	 0.289349396889356 
1057	 0.289999910622 
1058	 0.290659545220397 
1059	 0.291287244042621 
1060	 0.291919214846309 
1061	 0.292484206728632 
1062	 0.293064141475718 
1063	 0.29366382448737 
1064	 0.29428001525165 
1065	 0.294919531637171 
1066	 0.295527079586224 
1067	 0.296097733808436 
1068	 0.296679200741263 
1069	 0.297262109533071 
1070	 0.29784742031988 
1071	 0.298427621931178 
1072	 0.299044256685286 
1073	 0.299688287986713 
1074	 0.300290173595712 
1075	 0.300898430514304 
1076	 0.301463398554393 
1077	 0.302023167641411 
1078	 0.302594508640476 
1079	 0.303177708601694 
1080	 0.30376130321476 
1081	 0.304304592332506 
1082	 0.304879995969264 
1083	 0.30542658238875 
1084	 0.305936529010603 
1085	 0.306491868444875 
1086	 0.307039361408156 
1087	 0.307587537971182 
1088	 0.308157669228041 
1089	 0.30873391665275 
1090	 0.309279341571313 
1091	 0.30987453178926 
1092	 0.310442695364721 
1093	 0.311038636471074 
1094	 0.311655093394675 
1095	 0.312252428229413 
1096	 0.312851960547245 
1097	 0.313414757327727 
1098	 0.313978507286026 
1099	 0.31450738208104 
1100	 0.315067831930043 
1101	 0.315626930597326 
1102	 0.316213028060398 
1103	 0.316828166994165 
1104	 0.317420928910292 
1105	 0.318019555577076 
1106	 0.318658099299016 
1107	 0.319271856464296 
1108	 0.319871038309499 
1109	 0.320473672679743 
1110	 0.32104588102769 
1111	 0.321653686395912 
1112	 0.32226881482649 
1113	 0.322891499965544 
1114	 0.32353961650563 
1115	 0.324184985486871 
1116	 0.324832118130714 
1117	 0.325468787555398 
1118	 0.326119716477406 
1119	 0.326749057295142 
1120	 0.327343448034732 
1121	 0.327943048729411 
1122	 0.328539957588637 
1123	 0.329134794875803 
1124	 0.329779133177207 
1125	 0.330471055860912 
1126	 0.331121613684927 
1127	 0.331792753272997 
1128	 0.33245049460439 
1129	 0.333076880280347 
1130	 0.333712065396047 
1131	 0.334368869325301 
1132	 0.334993829250585 
1133	 0.335593936612862 
1134	 0.336204354782876 
1135	 0.336812599736212 
1136	 0.337403253405919 
1137	 0.338009674046918 
1138	 0.338602223881061 
1139	 0.339203758485741 
1140	 0.339809443063578 
1141	 0.340408354783523 
1142	 0.341017886973449 
1143	 0.341602977634081 
1144	 0.342171448845122 
1145	 0.342739892495862 
1146	 0.34329347495567 
1147	 0.343847510026758 
1148	 0.344402220168142 
1149	 0.34495391837207 
1150	 0.345491827252036 
1151	 0.346050867026934 
1152	 0.346604306061345 
1153	 0.347127180664893 
1154	 0.347656929085891 
1155	 0.348180378416589 
1156	 0.348698736631026 
1157	 0.349223698907622 
1158	 0.349723512585714 
1159	 0.350198599438193 
1160	 0.350690006877035 
1161	 0.351169598486365 
1162	 0.35165876176453 
1163	 0.352168210680469 
1164	 0.352662651889547 
1165	 0.353152574939258 
1166	 0.353643406322178 
1167	 0.354111098069214 
1168	 0.354573984402159 
1169	 0.355032028983934 
1170	 0.355484440978235 
1171	 0.355917962877062 
1172	 0.356347818086219 
1173	 0.356760996582773 
1174	 0.357143528241531 
1175	 0.357540835372469 
1176	 0.357937747540874 
1177	 0.358332834858813 
1178	 0.358723817303936 
1179	 0.35912121639303 
1180	 0.359532156338375 
1181	 0.35992466265169 
1182	 0.360307135939186 
1183	 0.360702000655478 
1184	 0.361075180337108 
1185	 0.361424131162502 
1186	 0.36179159532978 
1187	 0.362168501528237 
1188	 0.362524711292676 
1189	 0.362882107973955 
1190	 0.363222731719481 
1191	 0.363534871588417 
1192	 0.363864547233946 
1193	 0.364217926174849 
1194	 0.364529139684123 
1195	 0.36482092410228 
1196	 0.365112102033385 
1197	 0.365363770513503 
1198	 0.365632562925309 
1199	 0.365907903012776 
1200	 0.366197293939768 
1201	 0.366480458234783 
1202	 0.366768921778757 
1203	 0.367043484819549 
1204	 0.367321016877291 
1205	 0.367582349579792 
1206	 0.367825699964822 
1207	 0.368073365775688 
1208	 0.368316411790436 
1209	 0.368556497043701 
1210	 0.368794209832616 
1211	 0.369029440464824 
1212	 0.369267008691338 
1213	 0.369491787709982 
1214	 0.369701658190512 
1215	 0.369919627797439 
1216	 0.3701366216565 
1217	 0.370346960014893 
1218	 0.370559372563843 
1219	 0.37078369844379 
1220	 0.370988957925747 
1221	 0.371182315017448 
1222	 0.371376036860957 
1223	 0.371569554023876 
1224	 0.371749141245165 
1225	 0.371921312722401 
1226	 0.37208728453787 
1227	 0.372233017945623 
1228	 0.372390738607626 
1229	 0.372551970884697 
1230	 0.372711037114529 
1231	 0.372879731384239 
1232	 0.373036722093182 
1233	 0.373187534626311 
1234	 0.373330888685557 
1235	 0.373473987393544 
1236	 0.373605901255776 
1237	 0.373750782480807 
1238	 0.373900133974103 
1239	 0.374049119784066 
1240	 0.37421601766261 
1241	 0.374354730626284 
1242	 0.374471389459949 
1243	 0.374603527589163 
1244	 0.37473062195368 
1245	 0.374855543290475 
1246	 0.374996741488419 
1247	 0.375122569551004 
1248	 0.375238394552665 
1249	 0.375336003373176 
1250	 0.375446883183103 
1251	 0.375574923780962 
1252	 0.375684531505513 
1253	 0.375794077591876 
1254	 0.375901868351009 
1255	 0.375994987144383 
1256	 0.376099445740386 
1257	 0.376217785628068 
1258	 0.376321870395094 
1259	 0.376422568691624 
1260	 0.376519938544356 
1261	 0.376610538269482 
1262	 0.376698706327175 
1263	 0.37678045667133 
1264	 0.376864541344117 
1265	 0.376946656816566 
1266	 0.377029887495155 
1267	 0.377110720696293 
1268	 0.377200324316326 
1269	 0.377286776063354 
1270	 0.377377172112493 
1271	 0.37745362780102 
1272	 0.377523028548575 
1273	 0.37759780417501 
1274	 0.377660247974773 
1275	 0.377737535434283 
1276	 0.377833147483072 
1277	 0.377914983127867 
1278	 0.377983635784746 
1279	 0.378070138905019 
1280	 0.378162969067272 
1281	 0.378252218724917 
1282	 0.378351998504002 
1283	 0.378452972170906 
1284	 0.378556919026926 
1285	 0.37865223486908 
1286	 0.378735396436209 
1287	 0.378825345099422 
1288	 0.378901784404866 
1289	 0.378951944974182 
1290	 0.379030141957679 
1291	 0.379129138238146 
1292	 0.379195057137837 
1293	 0.379259238052279 
1294	 0.3793091196914 
1295	 0.379323220729178 
1296	 0.379363320935204 
1297	 0.379412717548321 
1298	 0.379459493869111 
1299	 0.379542388949727 
1300	 0.379567727527723 
1301	 0.379544623982868 
1302	 0.37954072952032 
1303	 0.379517822231501 
1304	 0.379481967251238 
1305	 0.379474838636022 
1306	 0.379495398062122 
1307	 0.379489917887749 
1308	 0.379476119967806 
1309	 0.379451806951784 
1310	 0.379410125804246 
1311	 0.37938937814628 
1312	 0.379375814662457 
1313	 0.379344002460359 
1314	 0.379312823087825 
1315	 0.379285274849189 
1316	 0.379220960512454 
1317	 0.379203167987607 
1318	 0.379228453502369 
1319	 0.379235191898653 
1320	 0.379262459525056 
1321	 0.379272207968142 
1322	 0.379270267321584 
1323	 0.379255931738398 
1324	 0.379264178172478 
1325	 0.379263445052878 
1326	 0.379283974553372 
1327	 0.379335195248625 
1328	 0.379377456819288 
1329	 0.379412541424855 
1330	 0.379431734724386 
1331	 0.379416421875672 
1332	 0.37945477678635 
1333	 0.379497848350269 
1334	 0.379564299563562 
1335	 0.37967298504631 
1336	 0.379773756325619 
1337	 0.379886173001295 
1338	 0.379983109324528 
1339	 0.380094262989442 
1340	 0.38018277158967 
1341	 0.380234756254251 
1342	 0.380312852878614 
1343	 0.380397342341159 
1344	 0.380478122049223 
1345	 0.380578417244417 
1346	 0.380673982855905 
1347	 0.38077734311256 
1348	 0.38090421496029 
1349	 0.38100794478607 
1350	 0.381105088631189 
1351	 0.381199021114133 
1352	 0.381269823538662 
1353	 0.381362118258805 
1354	 0.381462549541491 
1355	 0.381569328362571 
1356	 0.381687106869278 
1357	 0.381793715768324 
1358	 0.381912489765808 
1359	 0.382009874425987 
1360	 0.382094771542646 
1361	 0.382179449863531 
1362	 0.382244045426232 
1363	 0.382318190004864 
1364	 0.382401394742526 
1365	 0.382472236407466 
1366	 0.382538499599041 
1367	 0.382606507627075 
1368	 0.382672110002615 
1369	 0.382714119489433 
1370	 0.382755813186254 
1371	 0.382816934438162 
1372	 0.38285696149937 
1373	 0.382882412182269 
1374	 0.382874139238922 
1375	 0.38284155341287 
1376	 0.382784315149744 
1377	 0.382686903701162 
1378	 0.382596782140527 
1379	 0.38248952984077 
1380	 0.382385204353495 
1381	 0.382294369176385 
1382	 0.382164931504419 
1383	 0.382030081415053 
1384	 0.381854425372068 
1385	 0.381652325499476 
1386	 0.38141548821851 
1387	 0.381136330429939 
1388	 0.380845199932422 
1389	 0.380533114206282 
1390	 0.380188862662901 
1391	 0.379829810761062 
1392	 0.379449507823654 
1393	 0.379026203090847 
1394	 0.378577130723486 
1395	 0.378091749446913 
1396	 0.377611986934199 
1397	 0.377107175516117 
1398	 0.376569178000659 
1399	 0.376049324522451 
1400	 0.375512499301648 
1401	 0.374999453410048 
1402	 0.374502753254408 
1403	 0.374004075243695 
1404	 0.373498905101544 
1405	 0.373027851845212 
1406	 0.372562280359805 
1407	 0.372125565293933 
1408	 0.371715672701032 
1409	 0.371329960784951 
1410	 0.370945421629321 
1411	 0.370617614886568 
1412	 0.370320264933684 
1413	 0.370073120897583 
1414	 0.369888925044412 
1415	 0.369753758613945 
1416	 0.369663747680275 
1417	 0.36961115457981 
1418	 0.369587021507509 
1419	 0.369562991592015 
1420	 0.369557903952591 
1421	 0.369566316712567 
1422	 0.369543271039976 
1423	 0.369519937899005 
1424	 0.369482944124631 
1425	 0.369428899219879 
1426	 0.369374907475066 
1427	 0.369302102736058 
1428	 0.369255831484993 
1429	 0.369226400162871 
1430	 0.369173583615345 
1431	 0.369119961820212 
1432	 0.369075905600865 
1433	 0.369009352823614 
1434	 0.368970098948635 
1435	 0.368964484267702 
1436	 0.36893930964728 
1437	 0.368910354923233 
1438	 0.368886623667604 
1439	 0.368862322424272 
1440	 0.368838229718803 
1441	 0.368814111332795 
1442	 0.368792865067648 
1443	 0.368761212653579 
1444	 0.368742153337566 
1445	 0.368756487457577 
1446	 0.368760643878205 
1447	 0.368767364432753 
1448	 0.36877706365626 
1449	 0.368757711153579 
1450	 0.368733436939344 
1451	 0.368719814155556 
1452	 0.368701269662573 
1453	 0.368703358268469 
1454	 0.368724824754524 
1455	 0.368729333845059 
1456	 0.368736993508741 
1457	 0.368747807590844 
1458	 0.368745494254874 
1459	 0.368756868238223 
1460	 0.368779557999035 
1461	 0.368806834885061 
1462	 0.368836572104574 
1463	 0.368877455616628 
1464	 0.368927264851361 
1465	 0.36898138320945 
1466	 0.369032000674728 
1467	 0.369108761671897 
1468	 0.369211849469013 
1469	 0.369310899723481 
1470	 0.369423306398859 
1471	 0.369535364926744 
1472	 0.369645185680283 
1473	 0.369768195752639 
1474	 0.369924914155276 
1475	 0.370094222104297 
1476	 0.37026551101866 
1477	 0.370450981791243 
1478	 0.370646353643997 
1479	 0.370835137548826 
1480	 0.371029549210753 
1481	 0.371228735293066 
1482	 0.371402014366921 
1483	 0.371543244760529 
1484	 0.371723691214941 
1485	 0.371902550059994 
1486	 0.372095613487306 
1487	 0.37232772198379 
1488	 0.372522277389609 
1489	 0.372697208761513 
1490	 0.372883480447276 
1491	 0.373058374325848 
1492	 0.373250614389992 
1493	 0.373461592443095 
1494	 0.373658057992168 
1495	 0.373866645501222 
1496	 0.374047621457296 
1497	 0.374210067456889 
1498	 0.374370923018405 
1499	 0.374514468243526 
1500	 0.374655215248314 
1501	 0.374780662889132 
1502	 0.374923556589407 
1503	 0.375067955183373 
1504	 0.375219130994931 
1505	 0.37538398270761 
1506	 0.375533821025329 
1507	 0.375668529250709 
1508	 0.375791947084787 
1509	 0.375911182373688 
1510	 0.376043532541442 
1511	 0.376174137669673 
1512	 0.376317888901857 
1513	 0.376493011674727 
1514	 0.376652420644324 
1515	 0.376808622837829 
1516	 0.376969246520307 
1517	 0.377094677757466 
1518	 0.377184411935965 
1519	 0.377291637081507 
1520	 0.377380036965186 
1521	 0.377490604069429 
1522	 0.377612886037394 
1523	 0.377731169346384 
1524	 0.37786124694247 
1525	 0.377980327604368 
1526	 0.378083247795774 
1527	 0.378211536603048 
1528	 0.378349763876158 
1529	 0.37848288410734 
1530	 0.378643768098361 
1531	 0.378769782820929 
1532	 0.378868917294305 
1533	 0.378978802687291 
1534	 0.379082810714624 
1535	 0.37918123713745 
1536	 0.379273221054268 
1537	 0.379375107311328 
1538	 0.379473756173884 
1539	 0.379571408178234 
1540	 0.379681563530928 
1541	 0.37978501267837 
1542	 0.379891653803297 
1543	 0.379977529046734 
1544	 0.380060176645828 
1545	 0.380123726395257 
1546	 0.380151164539855 
1547	 0.380184574106757 
1548	 0.380243987591118 
1549	 0.38031324985078 
1550	 0.380405484567539 
1551	 0.380500631003026 
1552	 0.380598154641076 
1553	 0.380703173400548 
1554	 0.380798440826344 
1555	 0.38090197726219 
1556	 0.381008207517642 
1557	 0.381090164338347 
1558	 0.381169186478929 
1559	 0.381253017397535 
1560	 0.381314491116065 
1561	 0.381345375387261 
1562	 0.381398876270363 
1563	 0.381441821555044 
1564	 0.38152041955262 
1565	 0.381622246030835 
1566	 0.381723184154703 
1567	 0.381846487643845 
1568	 0.381951135484398 
1569	 0.382060376345487 
1570	 0.382142172224365 
1571	 0.38221339762888 
1572	 0.382278567179807 
1573	 0.38231840026962 
1574	 0.382363623988213 
1575	 0.382399296242076 
1576	 0.382452157541155 
1577	 0.38251453139691 
1578	 0.382564954302234 
1579	 0.382622510276454 
1580	 0.382676331441454 
1581	 0.382715741300924 
1582	 0.382759118135009 
1583	 0.382808938500194 
1584	 0.382859052360019 
1585	 0.382906581592903 
1586	 0.382949090306097 
1587	 0.382988186070765 
1588	 0.383037541369351 
1589	 0.38308687144895 
1590	 0.383136716699509 
1591	 0.383192170790494 
1592	 0.383254092699912 
1593	 0.383329247911939 
1594	 0.383380523809334 
1595	 0.383423385015976 
1596	 0.383473906527744 
1597	 0.38350104183195 
1598	 0.383544404497502 
1599	 0.383620793245764 
1600	 0.383672725976104 
1601	 0.383697444955446 
1602	 0.383746100134469 
1603	 0.383805021262055 
1604	 0.38385757354161 
1605	 0.38393144305812 
1606	 0.383986004005269 
1607	 0.384021044531576 
1608	 0.384054292085975 
1609	 0.384075640433652 
1610	 0.384114240608795 
1611	 0.384139657478869 
1612	 0.384141844840515 
1613	 0.384175049601456 
1614	 0.384200822755329 
1615	 0.384227437721157 
1616	 0.384276966323586 
1617	 0.384305576442135 
1618	 0.384334263141706 
1619	 0.384350754008676 
1620	 0.384368422140357 
1621	 0.384390459946321 
1622	 0.384406845678388 
1623	 0.384419590418103 
1624	 0.384436093045413 
1625	 0.384460031027698 
1626	 0.384466778247681 
1627	 0.384517955104666 
1628	 0.384606982882043 
1629	 0.384665760354777 
1630	 0.384741176911838 
1631	 0.384781762775421 
1632	 0.384791489102034 
1633	 0.384821042970227 
1634	 0.384842757260848 
1635	 0.384876822111715 
1636	 0.38492317125244 
1637	 0.384958526392142 
1638	 0.384987585877861 
1639	 0.385028058864836 
1640	 0.385076800270671 
1641	 0.385110756041368 
1642	 0.385148591266227 
1643	 0.385176873765563 
1644	 0.385182417028714 
1645	 0.385209657020822 
1646	 0.385255824857411 
1647	 0.385272821566325 
1648	 0.385269175755288 
1649	 0.385301102250533 
1650	 0.385331897079841 
1651	 0.385370407166046 
1652	 0.385454064601351 
1653	 0.385488746048588 
1654	 0.385493999103894 
1655	 0.385505778955366 
1656	 0.385498366829638 
1657	 0.385511263568587 
1658	 0.385526399895045 
1659	 0.385549788026752 
1660	 0.385593351947739 
1661	 0.385618064544973 
1662	 0.385633735463806 
1663	 0.385660054131577 
1664	 0.385681415225211 
1665	 0.385710780654745 
1666	 0.38575897955933 
1667	 0.385787733615844 
1668	 0.385821969526239 
1669	 0.38582271983481 
1670	 0.385785649501632 
1671	 0.385780659285386 
1672	 0.38576100471025 
1673	 0.385764030381931 
1674	 0.385804171524584 
1675	 0.38582167046395 
1676	 0.385816823770239 
1677	 0.385849298702265 
1678	 0.385903800699467 
1679	 0.385946449324647 
1680	 0.386030854606619 
1681	 0.386051064861912 
1682	 0.38601537691383 
1683	 0.386015860237327 
1684	 0.385996816561051 
1685	 0.385999215390117 
1686	 0.386031689786967 
1687	 0.386051151069176 
1688	 0.386068544447568 
1689	 0.386081466005662 
1690	 0.386090300364851 
1691	 0.3861116451501 
1692	 0.386137975273735 
1693	 0.386153138862388 
1694	 0.386173151394704 
1695	 0.3861923117332 
1696	 0.386195856333258 
1697	 0.386211408917638 
1698	 0.386238736057965 
1699	 0.386263774953023 
1700	 0.386288704012907 
1701	 0.386313457737351 
1702	 0.386351328645341 
1703	 0.386366411472247 
1704	 0.386380438113864 
1705	 0.386364888083145 
1706	 0.386299907192228 
1707	 0.386290232111181 
1708	 0.386292777788884 
1709	 0.386284371211137 
1710	 0.386310454532779 
1711	 0.386307210593571 
1712	 0.386259900455332 
1713	 0.386252348299876 
1714	 0.386276523478173 
1715	 0.386269332785419 
1716	 0.386253328440262 
1717	 0.386246202427467 
1718	 0.386218346387001 
1719	 0.386218820772017 
1720	 0.386250555003039 
1721	 0.386259119975272 
1722	 0.386267504069988 
1723	 0.386268698543572 
1724	 0.386256742997108 
1725	 0.386253367219422 
1726	 0.386251644979181 
1727	 0.386251472679835 
1728	 0.386274025626889 
1729	 0.386245687212924 
1730	 0.386201920183133 
1731	 0.386128659767467 
1732	 0.385998306894763 
1733	 0.385899846010354 
1734	 0.38579053638498 
1735	 0.385710280208896 
1736	 0.385658489972489 
1737	 0.385584885409225 
1738	 0.38550786803551 
1739	 0.385446702418204 
1740	 0.385381117673989 
1741	 0.385322129963969 
1742	 0.385291101686875 
1743	 0.385229438808183 
1744	 0.38514266507448 
1745	 0.385070907260612 
1746	 0.384993803442714 
1747	 0.384954830483057 
1748	 0.38493095722158 
1749	 0.384916815029473 
1750	 0.384862245881838 
1751	 0.384789764522094 
1752	 0.384711189056813 
1753	 0.384623293890651 
1754	 0.384542103298264 
1755	 0.384481306011115 
1756	 0.384421102096155 
1757	 0.384351494358466 
1758	 0.384306061258734 
1759	 0.384260498696077 
1760	 0.384197421666082 
1761	 0.384149503872315 
1762	 0.38409007651639 
1763	 0.384003002204304 
1764	 0.383938164615643 
1765	 0.383890394337713 
1766	 0.383833397609571 
1767	 0.383802020573212 
1768	 0.383784862433009 
1769	 0.383779329950664 
1770	 0.383780341651858 
1771	 0.38374015498916 
1772	 0.383654312010961 
1773	 0.383534386936564 
1774	 0.383433968831433 
1775	 0.38336430236 
1776	 0.383304092546997 
1777	 0.383248639139654 
1778	 0.383200661206472 
1779	 0.383201537854922 
1780	 0.383218799192793 
1781	 0.383234645390403 
1782	 0.383230934660836 
1783	 0.383142218335003 
1784	 0.383104678640811 
1785	 0.383077079706723 
1786	 0.383059412585012 
1787	 0.383077954586301 
1788	 0.383077579715751 
1789	 0.383074235937811 
1790	 0.383079000867044 
1791	 0.383084342875764 
1792	 0.383072319649131 
1793	 0.383058237978933 
1794	 0.383033253169238 
1795	 0.38299914478961 
1796	 0.382962921153215 
1797	 0.382908103541271 
1798	 0.382874286619199 
1799	 0.382827426597921 
1800	 0.38281587879397 
1801	 0.378047919883302 
1802	 0.378069543844578 
1803	 0.378099435473553 
1804	 0.378144723071572 
1805	 0.378137826824776 
1806	 0.378135218845367 
1807	 0.378162211984896 
1808	 0.37815586335223 
1809	 0.378129211341994 
1810	 0.378120426823474 
1811	 0.378116921240519 
1812	 0.378068079060231 
1813	 0.378070075008295 
1814	 0.378092560141788 
1815	 0.378072198954739 
1816	 0.378040725789036 
1817	 0.378026800805837 
1818	 0.3779928773864 
1819	 0.377988822317674 
1820	 0.378005411638352 
1821	 0.37804570780699 
1822	 0.378056520865446 
1823	 0.378021922345095 
1824	 0.377982635756186 
1825	 0.377936980843721 
1826	 0.377894221466302 
1827	 0.377873874541332 
1828	 0.377847485647315 
1829	 0.377826845830151 
1830	 0.37778683549653 
1831	 0.377741017835694 
1832	 0.377697696308049 
1833	 0.377619897304953 
1834	 0.377580249223275 
1835	 0.377578487235615 
1836	 0.377537115395367 
1837	 0.377495626720004 
1838	 0.377432840538272 
1839	 0.377369129717126 
1840	 0.377288954824989 
1841	 0.377197778891706 
1842	 0.377106723710364 
1843	 0.377049849297308 
1844	 0.376937798346815 
1845	 0.376818646503238 
1846	 0.376715198107118 
1847	 0.376594716708569 
1848	 0.376494742654335 
1849	 0.376415982033104 
1850	 0.376330475912797 
1851	 0.376258809830692 
1852	 0.376160588717295 
1853	 0.376067166115573 
1854	 0.375968566653345 
1855	 0.375850641749606 
1856	 0.375729512822637 
1857	 0.375566442614019 
1858	 0.375371733817203 
1859	 0.375155558826272 
1860	 0.374932245943532 
1861	 0.37468893145419 
1862	 0.374444115713919 
1863	 0.374184384625298 
1864	 0.373935697014842 
1865	 0.373645490885773 
1866	 0.37327656938986 
1867	 0.372887705759852 
1868	 0.372468750679181 
1869	 0.372031475743536 
1870	 0.371572887547499 
1871	 0.371057197184148 
1872	 0.370512734160004 
1873	 0.369910394040563 
1874	 0.369238547628535 
1875	 0.368539231223014 
1876	 0.367791211109913 
1877	 0.366965552140559 
1878	 0.366065771959202 
1879	 0.365079862237882 
1880	 0.364021416370199 
1881	 0.362882063252303 
1882	 0.361676799559342 
1883	 0.360402061428891 
1884	 0.359039441377546 
1885	 0.357611121039037 
1886	 0.35610400726633 
1887	 0.354503138505056 
1888	 0.35282706476419 
1889	 0.351091501175537 
1890	 0.349316373869874 
1891	 0.347525921860558 
1892	 0.345674751654572 
1893	 0.343846175379263 
1894	 0.342004659298943 
1895	 0.340157725926049 
1896	 0.338306343242424 
1897	 0.336490345797556 
1898	 0.334704765812589 
1899	 0.332979093852174 
1900	 0.331325110751948 
1901	 0.329749015522774 
1902	 0.32825766895773 
1903	 0.326865942845156 
1904	 0.325526873021181 
1905	 0.324251003547866 
1906	 0.323067008582246 
1907	 0.321957301224662 
1908	 0.320895815362605 
1909	 0.319942454544442 
1910	 0.319059177294139 
1911	 0.318251423350482 
1912	 0.317518468064102 
1913	 0.316812964972705 
1914	 0.316163548005001 
1915	 0.315549277407211 
1916	 0.314972927308473 
1917	 0.314426346120315 
1918	 0.313943608804334 
1919	 0.313509003592765 
1920	 0.31313037022805 
1921	 0.312813408213636 
1922	 0.312532014382321 
1923	 0.312303053383149 
1924	 0.312099445974735 
1925	 0.311935249460353 
1926	 0.311794648520446 
1927	 0.311691562692242 
1928	 0.311601786445549 
1929	 0.311529511933212 
1930	 0.311495836683151 
1931	 0.311491773752853 
1932	 0.311515584291516 
1933	 0.31157748535001 
1934	 0.311668812850482 
1935	 0.311781856691294 
1936	 0.311914017176512 
1937	 0.312078474659549 
1938	 0.312283582669815 
1939	 0.312493515720615 
1940	 0.312713364832503 
1941	 0.31297048778506 
1942	 0.313248371872126 
1943	 0.313555824487625 
1944	 0.313905130043458 
1945	 0.314258098991754 
1946	 0.314610564671148 
1947	 0.314960766520878 
1948	 0.315332607782901 
1949	 0.315727266820259 
1950	 0.316111626760294 
1951	 0.316503263667634 
1952	 0.316896659084733 
1953	 0.317301211307437 
1954	 0.317698815912302 
1955	 0.318106261027302 
1956	 0.318536038844101 
1957	 0.31896967846024 
1958	 0.319397685470561 
1959	 0.319844167421831 
1960	 0.320307211344044 
1961	 0.320785712205045 
1962	 0.321301819692762 
1963	 0.321788613984426 
1964	 0.322274928890123 
1965	 0.322757946565676 
1966	 0.323247264201463 
1967	 0.323686576090266 
1968	 0.324169069308519 
1969	 0.324683766973784 
1970	 0.325180093873854 
1971	 0.325685286448788 
1972	 0.326180847189701 
1973	 0.326660106660108 
1974	 0.32715080647803 
1975	 0.327639897800646 
1976	 0.328130421410829 
1977	 0.328644144272592 
1978	 0.329162842087389 
1979	 0.329658094304044 
1980	 0.33015494926845 
1981	 0.330653131506663 
1982	 0.33113354033215 
1983	 0.331633176198854 
1984	 0.332149381936491 
1985	 0.332661851711778 
1986	 0.333169381072361 
1987	 0.333688729827697 
1988	 0.334223002563489 
1989	 0.334754367905746 
1990	 0.335264067453633 
1991	 0.335799847654632 
1992	 0.336322716139708 
1993	 0.336838979450441 
1994	 0.337347079433645 
1995	 0.337858818526437 
1996	 0.33835539030297 
1997	 0.338824059033474 
1998	 0.339315614144318 
1999	 0.339824369291686 
2000	 0.340314730867545 
2001	 0.340804761804363 
2002	 0.341287339392896 
2003	 0.341772668023911 
2004	 0.342245231054288 
2005	 0.342705296677438 
2006	 0.343161820252665 
2007	 0.343618878361564 
2008	 0.34405124010195 
2009	 0.344495595712238 
2010	 0.344959600748377 
2011	 0.345408218046118 
2012	 0.345835985916093 
2013	 0.346282359355124 
2014	 0.346739691052594 
2015	 0.347192966596927 
2016	 0.347638248581602 
2017	 0.348090992286757 
2018	 0.348509082749811 
2019	 0.348889335418573 
2020	 0.349287807714088 
2021	 0.349665373495725 
2022	 0.350067613228257 
2023	 0.350504255987735 
2024	 0.350910894324986 
2025	 0.351315184918203 
2026	 0.351708500057234 
2027	 0.352083943642729 
2028	 0.352443422225227 
2029	 0.352819799959439 
2030	 0.353198085323493 
2031	 0.353575621084155 
2032	 0.353960781256756 
2033	 0.354339906691807 
2034	 0.354704871889836 
2035	 0.355095381143373 
2036	 0.355509254498972 
2037	 0.355895413042095 
2038	 0.356311683517065 
2039	 0.356676187605718 
2040	 0.356995315414195 
2041	 0.357304430849273 
2042	 0.35760496565406 
2043	 0.357904297809074 
2044	 0.358218734319239 
2045	 0.358549228643265 
2046	 0.358870250410098 
2047	 0.359209161970912 
2048	 0.359511028275018 
2049	 0.359780927266856 
2050	 0.360073235470283 
2051	 0.360363848130456 
2052	 0.360642207362239 
2053	 0.360942548635954 
2054	 0.361216088319192 
2055	 0.361452104996397 
2056	 0.361686074876454 
2057	 0.361934869984081 
2058	 0.362176789877453 
2059	 0.362435321747557 
2060	 0.362705918173321 
2061	 0.362982192322678 
2062	 0.363270124189957 
2063	 0.363556298857659 
2064	 0.363861492624353 
2065	 0.364146604091063 
2066	 0.364431065832612 
2067	 0.364698566864562 
2068	 0.364964412228799 
2069	 0.365194952964269 
2070	 0.365425784832804 
2071	 0.365639035199149 
2072	 0.365857850632134 
2073	 0.366064732381054 
2074	 0.366281511164603 
2075	 0.366486709056046 
2076	 0.366720708599993 
2077	 0.366969228708287 
2078	 0.367222112433462 
2079	 0.367516966584014 
2080	 0.367773940834189 
2081	 0.368017642647954 
2082	 0.368254711404226 
2083	 0.368463244549968 
2084	 0.368682083829622 
2085	 0.368902096963215 
2086	 0.369130939129909 
2087	 0.369333700321404 
2088	 0.369516555308201 
2089	 0.369720345646082 
2090	 0.369905190550127 
2091	 0.370120810496138 
2092	 0.370376762107457 
2093	 0.370611286719312 
2094	 0.370845503868187 
2095	 0.371079425452002 
2096	 0.371318926167633 
2097	 0.37154218855645 
2098	 0.371760183134733 
2099	 0.371971023574127 
2100	 0.372174644781931 
2101	 0.372361364716637 
2102	 0.372551307748459 
2103	 0.372723834491328 
2104	 0.372933932223754 
2105	 0.37314983724881 
2106	 0.373380334301619 
2107	 0.373650535126773 
2108	 0.37390147351482 
2109	 0.374145943100161 
2110	 0.374399563911562 
2111	 0.374673652376977 
2112	 0.374920590576524 
2113	 0.37516449917401 
2114	 0.375388069806775 
2115	 0.375616148407824 
2116	 0.375819647739805 
2117	 0.37604936635237 
2118	 0.376298625104524 
2119	 0.376528526707639 
2120	 0.37674898204247 
2121	 0.376985880699289 
2122	 0.377234970601811 
2123	 0.377458822885411 
2124	 0.377695538270424 
2125	 0.377902295228401 
2126	 0.378065706284831 
2127	 0.378243751819928 
2128	 0.378423807072958 
2129	 0.378590952793552 
2130	 0.378757373639814 
2131	 0.378914247813365 
2132	 0.379046728692604 
2133	 0.379169236887704 
2134	 0.379255631389364 
2135	 0.379315015533549 
2136	 0.379357434630121 
2137	 0.379360289745054 
2138	 0.379371490813335 
2139	 0.379374148506331 
2140	 0.379364387084512 
2141	 0.379355243193835 
2142	 0.37932214843506 
2143	 0.379270278369087 
2144	 0.379203391028727 
2145	 0.37911375920382 
2146	 0.37901623554191 
2147	 0.378911867888307 
2148	 0.378784947205637 
2149	 0.378645840523437 
2150	 0.378490802955414 
2151	 0.378329477939269 
2152	 0.37815309292914 
2153	 0.377968930794374 
2154	 0.377781893909554 
2155	 0.377577759812997 
2156	 0.377363861191941 
2157	 0.377126596139039 
2158	 0.37687723656967 
2159	 0.376601537238105 
2160	 0.376286626513018 
2161	 0.375977929446066 
2162	 0.375635609375218 
2163	 0.375322095615539 
2164	 0.375020303839546 
2165	 0.374727109293892 
2166	 0.374427476345362 
2167	 0.374147421844003 
2168	 0.37383371873813 
2169	 0.373487000412995 
2170	 0.373177440617641 
2171	 0.372876835294991 
2172	 0.372566561664003 
2173	 0.372284895772218 
2174	 0.371966262458649 
2175	 0.371614475279423 
2176	 0.371270738312896 
2177	 0.370923613497061 
2178	 0.370564559907246 
2179	 0.37019261210951 
2180	 0.369824233123587 
2181	 0.369451288020864 
2182	 0.369072192131939 
2183	 0.368694943852186 
2184	 0.368309087073882 
2185	 0.367917170684984 
2186	 0.367496284885178 
2187	 0.367123112856384 
2188	 0.366760418806404 
2189	 0.366414245383141 
2190	 0.366095800298763 
2191	 0.365780961484782 
2192	 0.365473758138854 
2193	 0.365178425318565 
2194	 0.364893597131634 
2195	 0.364629076355087 
2196	 0.364364926385713 
2197	 0.36413698745938 
2198	 0.363938400537524 
2199	 0.363762550730593 
2200	 0.363614526038061 
2201	 0.363486866706469 
2202	 0.363392758804152 
2203	 0.363309653955286 
2204	 0.363224047790816 
2205	 0.363156551445957 
2206	 0.363081502726375 
2207	 0.362969536498202 
2208	 0.362950905923102 
2209	 0.362974098974829 
2210	 0.363014453112508 
2211	 0.363130971726867 
2212	 0.363212001425806 
2213	 0.363282322640342 
2214	 0.363372997054303 
2215	 0.363482570106254 
2216	 0.363584683421261 
2217	 0.363717250858747 
2218	 0.363802490793146 
2219	 0.363860315370889 
2220	 0.363913363467299 
2221	 0.363915945217811 
2222	 0.363958312791049 
2223	 0.364007454612225 
2224	 0.364041599542695 
2225	 0.364054539206754 
2226	 0.364064085449003 
2227	 0.364042721427503 
2228	 0.363994024248754 
2229	 0.363931506630552 
2230	 0.363842840603922 
2231	 0.363759301012431 
2232	 0.36365714801538 
2233	 0.3635605968665 
2234	 0.363475021058917 
2235	 0.363364225390624 
2236	 0.363229969141701 
2237	 0.363107300365655 
2238	 0.362958485273599 
2239	 0.36284587682368 
2240	 0.362733695396146 
2241	 0.362665540024244 
2242	 0.362679313344827 
2243	 0.36263218908004 
2244	 0.36261034448623 
2245	 0.362536391049826 
2246	 0.362389590986241 
2247	 0.362242725710528 
2248	 0.362128822485042 
2249	 0.362021083994766 
2250	 0.3619100027475 
2251	 0.361812487960684 
2252	 0.361719812574059 
2253	 0.361628863478647 
2254	 0.361528535425116 
2255	 0.361443378477298 
2256	 0.36134216868874 
2257	 0.36117626133246 
2258	 0.361104486215097 
2259	 0.361082313425448 
2260	 0.361062148915867 
2261	 0.361106493203446 
2262	 0.361124063270414 
2263	 0.361115042394399 
2264	 0.361136735188048 
2265	 0.361157455398473 
2266	 0.361221571641235 
2267	 0.361359661909974 
2268	 0.361447164759344 
2269	 0.361550545428659 
2270	 0.361620628415239 
2271	 0.36165427289157 
2272	 0.361698538483965 
2273	 0.361750243997577 
2274	 0.36178146887859 
2275	 0.361828018160269 
2276	 0.361862055358421 
2277	 0.361916213747035 
2278	 0.361990799563832 
2279	 0.362065400380886 
2280	 0.362145990936145 
2281	 0.36221872651764 
2282	 0.362296246090718 
2283	 0.362372798948748 
2284	 0.36245294699153 
2285	 0.362515545862131 
2286	 0.362556896950875 
2287	 0.36262815025393 
2288	 0.362702224993608 
2289	 0.362771266963718 
2290	 0.362874592670125 
2291	 0.362952582262241 
2292	 0.362991225665493 
2293	 0.363058667864318 
2294	 0.363151016289325 
2295	 0.363216298620978 
2296	 0.363277156977231 
2297	 0.36333284877209 
2298	 0.363384139042867 
2299	 0.36340930513428 
2300	 0.363431611527102 
2301	 0.36346021524316 
2302	 0.363456267666022 
2303	 0.363474815727537 
2304	 0.363518485666314 
2305	 0.363554448145573 
2306	 0.363606379721046 
2307	 0.363674906596715 
2308	 0.363742672810543 
2309	 0.363840524018802 
2310	 0.363878962233591 
2311	 0.363897912597919 
2312	 0.363900820601083 
2313	 0.363849752248134 
2314	 0.363828191841758 
2315	 0.363796519487006 
2316	 0.363798658376069 
2317	 0.363825387392767 
2318	 0.363843939992185 
2319	 0.363905156570298 
2320	 0.363926149047938 
2321	 0.363904159164195 
2322	 0.363899761669826 
2323	 0.363885883384364 
2324	 0.363876229657751 
2325	 0.363883882907839 
2326	 0.363883981175489 
2327	 0.363889184618124 
2328	 0.36386402568989 
2329	 0.363850106503271 
2330	 0.363854857049283 
2331	 0.363817310069952 
2332	 0.363823145598042 
2333	 0.363834871551572 
2334	 0.363846791550002 
2335	 0.363865870384655 
2336	 0.363861086588233 
2337	 0.363885566033027 
2338	 0.363840367358237 
2339	 0.363804674896647 
2340	 0.363806214814951 
2341	 0.363738093200189 
2342	 0.363633738645601 
2343	 0.363485704780808 
2344	 0.363318348073661 
2345	 0.363195447458917 
2346	 0.363080715188636 
2347	 0.362960734341278 
2348	 0.362884134879723 
2349	 0.36276608972675 
2350	 0.362621200328945 
2351	 0.362480494198364 
2352	 0.362322991829158 
2353	 0.362178707275949 
2354	 0.362005763384547 
2355	 0.361866435863159 
2356	 0.361780320288082 
2357	 0.361653340988311 
2358	 0.361520074774194 
2359	 0.361399701508226 
2360	 0.361293645756351 
2361	 0.361139028694326 
2362	 0.360979360948636 
2363	 0.360776609370103 
2364	 0.360454746786831 
2365	 0.360223113060232 
2366	 0.360048213491864 
2367	 0.359854822947027 
2368	 0.359708974828959 
2369	 0.359535937369463 
2370	 0.359358510205924 
2371	 0.359113849312364 
2372	 0.358828056906084 
2373	 0.358521150386986 
2374	 0.358271883242242 
2375	 0.357986922342261 
2376	 0.357747333982505 
2377	 0.357552586347878 
2378	 0.357269592007395 
2379	 0.356940628807763 
2380	 0.356552006485126 
2381	 0.356171763264538 
2382	 0.355825699319292 
2383	 0.355507651709379 
2384	 0.355257149989451 
2385	 0.354988298099728 
2386	 0.354651192852865 
2387	 0.354268923762481 
2388	 0.353926503554427 
2389	 0.353660486434776 
2390	 0.353402541365112 
2391	 0.353175394845774 
2392	 0.352982110789652 
2393	 0.352717891540008 
2394	 0.352414038596614 
2395	 0.352131054192019 
2396	 0.351795234923525 
2397	 0.351407473770027 
2398	 0.35100685651463 
2399	 0.35061190323291 
2400	 0.350281039152723 
2401	 0.349983393289652 
2402	 0.349669595680235 
2403	 0.349376904078146 
2404	 0.349036942110269 
2405	 0.348653630293748 
2406	 0.348302966940843 
2407	 0.347966743375227 
2408	 0.347621228824578 
2409	 0.347225402316988 
2410	 0.346846427449535 
2411	 0.346496506277866 
2412	 0.346175059963826 
2413	 0.345866306588302 
2414	 0.34551833475076 
2415	 0.345145809811188 
2416	 0.344767059875748 
2417	 0.344306582224212 
2418	 0.343944287178602 
2419	 0.343641767241171 
2420	 0.34332384743287 
2421	 0.343073993950244 
2422	 0.342753907204057 
2423	 0.342382779432264 
2424	 0.342011561580153 
2425	 0.341608606356046 
2426	 0.341138409782741 
2427	 0.340634014790072 
2428	 0.340198228663395 
2429	 0.339688459497549 
2430	 0.339295220378488 
2431	 0.339032485820411 
2432	 0.338731286298936 
2433	 0.338484273638347 
2434	 0.338226387328919 
2435	 0.337988900742171 
2436	 0.337642338528464 
2437	 0.337229770317551 
2438	 0.336826990587729 
2439	 0.336335614505405 
2440	 0.335920342693813 
2441	 0.335556189341635 
2442	 0.335167069877613 
2443	 0.334777420173145 
2444	 0.334458767730717 
2445	 0.334175433998639 
2446	 0.333886806249751 
2447	 0.333694070083887 
2448	 0.333236146373676 
2449	 0.332688340552806 
2450	 0.332150172802976 
2451	 0.331397728806279 
2452	 0.33089244486425 
2453	 0.330460677759273 
2454	 0.329975935463606 
2455	 0.329540566990332 
2456	 0.329233292810019 
2457	 0.32907496228836 
2458	 0.328798272370974 
2459	 0.328554542189652 
2460	 0.328166161123349 
2461	 0.327547888398812 
2462	 0.327196188420258 
2463	 0.326961806520135 
2464	 0.326712023086783 
2465	 0.326610277930479 
2466	 0.326251052928142 
2467	 0.325742700408769 
2468	 0.325342820811552 
2469	 0.32492677345066 
2470	 0.324514601865855 
2471	 0.3241497530781 
2472	 0.323920586684072 
2473	 0.323498795352028 
2474	 0.323337675252885 
2475	 0.323208820366152 
2476	 0.322889142569739 
2477	 0.322660389558217 
2478	 0.322264905183805 
2479	 0.321882046052411 
2480	 0.321577300912424 
2481	 0.321240211569667 
2482	 0.321045596843208 
2483	 0.320795945663665 
2484	 0.320464420253986 
2485	 0.320086747510157 
2486	 0.319613341464988 
2487	 0.319285909244595 
2488	 0.318931497713108 
2489	 0.318501831101608 
2490	 0.318258082869258 
2491	 0.318052591508649 
2492	 0.31778986887812 
2493	 0.317473789966548 
2494	 0.317074871339136 
2495	 0.3166576384292 
2496	 0.316352774470944 
2497	 0.316212792499972 
2498	 0.316071228641325 
2499	 0.315799905380428 
2500	 0.315410196550042 
