Wavelength	LMW200012.asd
350	 6.90273852746522E-02 
351	 0.070730605214768 
352	 6.63171073340426E-02 
353	 5.91162435698707E-02 
354	 5.76565029517099E-02 
355	 5.93521486532192E-02 
356	 6.03428019420521E-02 
357	 0.059002952769972 
358	 6.42450958513636E-02 
359	 6.39280171129191E-02 
360	 5.88682907298057E-02 
361	 5.80179857480536E-02 
362	 5.86539275798264E-02 
363	 5.95662180481147E-02 
364	 5.96862087060564E-02 
365	 0.057672242643171 
366	 5.79954915124894E-02 
367	 5.89353932511749E-02 
368	 5.89238233321431E-02 
369	 0.065097644811212 
370	 6.50433095811448E-02 
371	 6.05955672144257E-02 
372	 6.27212700958024E-02 
373	 6.50430187109247E-02 
374	 6.45383219205301E-02 
375	 6.22482165033115E-02 
376	 0.065561860286994 
377	 6.56950735836288E-02 
378	 6.40580378250456E-02 
379	 6.44710307880406E-02 
380	 0.06723909181604 
381	 0.06730229846715 
382	 6.62712527359616E-02 
383	 7.00157505922614E-02 
384	 0.069610741857321 
385	 6.79983644595386E-02 
386	 6.80179330514763E-02 
387	 6.89633177889647E-02 
388	 7.09532025831576E-02 
389	 7.20787204295215E-02 
390	 7.10280002353453E-02 
391	 7.19430423559484E-02 
392	 7.35818857354643E-02 
393	 7.50221900951577E-02 
394	 7.59282748995347E-02 
395	 7.72940672018462E-02 
396	 7.83457324340711E-02 
397	 7.87666551514457E-02 
398	 7.99110010671741E-02 
399	 8.07184595498987E-02 
400	 8.16431047715568E-02 
401	 8.31427330741831E-02 
402	 8.24396107646795E-02 
403	 8.22451117730378E-02 
404	 8.36062593302568E-02 
405	 8.55225188666647E-02 
406	 8.65684053458474E-02 
407	 8.74147471311913E-02 
408	 0.088372512791909 
409	 0.087506516053591 
410	 8.68536964848102E-02 
411	 8.72098471818652E-02 
412	 8.85510533769721E-02 
413	 8.99786106246101E-02 
414	 9.09265164924896E-02 
415	 9.12537675316957E-02 
416	 0.091256730668143 
417	 9.11494634381595E-02 
418	 9.12728617531858E-02 
419	 0.091792444154771 
420	 9.23651915123464E-02 
421	 9.25663631680732E-02 
422	 9.25071258907544E-02 
423	 9.26074735816296E-02 
424	 9.26463207032281E-02 
425	 9.23589710211223E-02 
426	 9.19378509809067E-02 
427	 9.24746077304125E-02 
428	 9.24947552493616E-02 
429	 9.21277197571284E-02 
430	 9.19275758711413E-02 
431	 9.17319626103146E-02 
432	 9.15144184825891E-02 
433	 9.13035542717162E-02 
434	 0.091171677305774 
435	 9.10467107015363E-02 
436	 9.10722810714316E-02 
437	 9.12290703603682E-02 
438	 9.09046212394996E-02 
439	 9.10102629454645E-02 
440	 9.15072579211088E-02 
441	 9.18857471631482E-02 
442	 9.20384752134997E-02 
443	 9.25554639286607E-02 
444	 9.33899532659498E-02 
445	 9.34410643519048E-02 
446	 9.35901642456942E-02 
447	 9.40590942454868E-02 
448	 9.47550616837504E-02 
449	 9.51237402874904E-02 
450	 9.55505650384689E-02 
451	 9.60945341787389E-02 
452	 9.65154428334534E-02 
453	 9.67941045705404E-02 
454	 9.70249152321143E-02 
455	 9.73049112660618E-02 
456	 9.76723440234388E-02 
457	 9.81805458650327E-02 
458	 9.86482987771035E-02 
459	 9.88402690241242E-02 
460	 9.90273573330484E-02 
461	 9.90673372166066E-02 
462	 9.90311914957892E-02 
463	 9.93329838252062E-02 
464	 9.96797942026819E-02 
465	 0.100003697062285 
466	 0.10027980743001 
467	 0.100407071526355 
468	 0.100500533974107 
469	 0.100555906623746 
470	 0.100493509476903 
471	 0.100713241949954 
472	 0.100945518442875 
473	 0.101003372364019 
474	 0.101175591355271 
475	 0.101250739943192 
476	 0.101315509147234 
477	 0.101530948803229 
478	 0.101615529034744 
479	 0.10158919719409 
480	 0.101573502359051 
481	 0.101790799709617 
482	 0.101924395056074 
483	 0.102127622798791 
484	 0.102498293166913 
485	 0.102355549331883 
486	 0.102310839884033 
487	 0.10248123364578 
488	 0.102556542946618 
489	 0.102679865135714 
490	 0.102863284602622 
491	 0.103046736802237 
492	 0.103027805909696 
493	 0.103077199022677 
494	 0.103154105574732 
495	 0.103120396647592 
496	 0.103312967072634 
497	 0.103477718046048 
498	 0.103569598274622 
499	 0.103952174107973 
500	 0.103999843570336 
501	 0.10391311516315 
502	 0.104030509982699 
503	 0.104126531472908 
504	 0.104243665609561 
505	 0.104352780384626 
506	 0.104363157622471 
507	 0.104442120807292 
508	 0.104588785525265 
509	 0.104743472379263 
510	 0.104798389099101 
511	 0.104723937129115 
512	 0.10468327830483 
513	 0.104890213750925 
514	 0.104994631667268 
515	 0.10510625881981 
516	 0.105273330283104 
517	 0.105348174674487 
518	 0.105401184357769 
519	 0.105473402724061 
520	 0.105589508213702 
521	 0.105739418280057 
522	 0.105847754532121 
523	 0.105903418051648 
524	 0.105964452743099 
525	 0.105967507712637 
526	 0.106003722648771 
527	 0.106139871109282 
528	 0.10627429716356 
529	 0.106339881721645 
530	 0.106402603770037 
531	 0.10659508583585 
532	 0.106714247293441 
533	 0.106830964646804 
534	 0.106984854832149 
535	 0.10705653816874 
536	 0.107195696022797 
537	 0.107361342430664 
538	 0.107459761315258 
539	 0.107593432703829 
540	 0.107739240200598 
541	 0.107878134095612 
542	 0.108008528776522 
543	 0.108178139593689 
544	 0.108366162075899 
545	 0.10854240555196 
546	 0.108725321248161 
547	 0.108900970284852 
548	 0.109102282675309 
549	 0.109391755067627 
550	 0.109592372743014 
551	 0.109752322134293 
552	 0.109955374902966 
553	 0.110271002437966 
554	 0.11055673067515 
555	 0.110834620520845 
556	 0.111201148625709 
557	 0.11156591353336 
558	 0.111962514499902 
559	 0.112392422992539 
560	 0.112776704465608 
561	 0.113149888419 
562	 0.113573789723211 
563	 0.114087419550154 
564	 0.114550152904404 
565	 0.11502289385304 
566	 0.115550296876851 
567	 0.116145442636084 
568	 0.116826369472448 
569	 0.117503123596163 
570	 0.118126043690707 
571	 0.118868593948735 
572	 0.119640241175236 
573	 0.120408664762782 
574	 0.12117970161509 
575	 0.121885068535415 
576	 0.122673645834962 
577	 0.123599431680456 
578	 0.124432033957372 
579	 0.125331305418363 
580	 0.126322877758453 
581	 0.127375258919802 
582	 0.128476983941165 
583	 0.12953010604874 
584	 0.130526376772711 
585	 0.131598124753153 
586	 0.132616549080366 
587	 0.13364480902638 
588	 0.134759058270093 
589	 0.135850914852735 
590	 0.13692253318376 
591	 0.138003668289341 
592	 0.139142150522136 
593	 0.14022358530171 
594	 0.141310791873287 
595	 0.14244920919902 
596	 0.143544879550622 
597	 0.144678837510698 
598	 0.145822385124257 
599	 0.146898065478098 
600	 0.14792575574154 
601	 0.148944746643341 
602	 0.149948018105182 
603	 0.150841021267202 
604	 0.151733941462973 
605	 0.152609667744119 
606	 0.153427665483612 
607	 0.154281232605671 
608	 0.155094852420472 
609	 0.155857160678635 
610	 0.156640869788013 
611	 0.157396942165355 
612	 0.158094832370037 
613	 0.158730248417477 
614	 0.159386303167751 
615	 0.15996223100316 
616	 0.160467255417105 
617	 0.160983137765053 
618	 0.161490034683903 
619	 0.161943541384265 
620	 0.162344171511536 
621	 0.162800280948726 
622	 0.163216292171897 
623	 0.163571443369247 
624	 0.163894465583105 
625	 0.164331008399506 
626	 0.164701034491807 
627	 0.164965967316384 
628	 0.165305538031212 
629	 0.165701285818861 
630	 0.166058688238261 
631	 0.166314342344256 
632	 0.166622827613364 
633	 0.166907299050639 
634	 0.167187603949367 
635	 0.167553284840609 
636	 0.167827659329743 
637	 0.168091913665331 
638	 0.168409470128369 
639	 0.16868046152464 
640	 0.169005077981942 
641	 0.169344698831995 
642	 0.169616602433854 
643	 0.169937550416419 
644	 0.170252448046426 
645	 0.170537919546204 
646	 0.170838500894615 
647	 0.171163203258558 
648	 0.171495933713407 
649	 0.171818250157713 
650	 0.172138364640732 
651	 0.172483547892519 
652	 0.172850562260266 
653	 0.173210975241051 
654	 0.173589864698469 
655	 0.173943364370782 
656	 0.174264167426678 
657	 0.174663310478399 
658	 0.175087822454824 
659	 0.175507784986742 
660	 0.175903728080122 
661	 0.176271444165287 
662	 0.176659710270887 
663	 0.177099479369651 
664	 0.177590977846219 
665	 0.178037033033004 
666	 0.178486061770501 
667	 0.178991170372374 
668	 0.179418996219095 
669	 0.179919386972142 
670	 0.180474671893912 
671	 0.180930301431665 
672	 0.181394314032658 
673	 0.181927587208272 
674	 0.182526279418322 
675	 0.18305276870013 
676	 0.183613938813134 
677	 0.184198340544351 
678	 0.184758913619021 
679	 0.185380850639747 
680	 0.185970241872053 
681	 0.186536932848504 
682	 0.187245265632121 
683	 0.187904098923338 
684	 0.188504947084757 
685	 0.189104758745993 
686	 0.189806080364509 
687	 0.190520085443825 
688	 0.191211916432277 
689	 0.191891828103526 
690	 0.192592810266516 
691	 0.193269611411119 
692	 0.193926380823881 
693	 0.194698259373735 
694	 0.19541528194278 
695	 0.196121860029184 
696	 0.196906343763671 
697	 0.197630470913908 
698	 0.198363458783959 
699	 0.199140244706604 
700	 0.19994365302946 
701	 0.200702238224619 
702	 0.201436866058897 
703	 0.202185631463285 
704	 0.202981405477005 
705	 0.203701505539856 
706	 0.204415022964957 
707	 0.20526045866939 
708	 0.206049517092178 
709	 0.20680706495408 
710	 0.207567637071759 
711	 0.208346201783181 
712	 0.209156896366807 
713	 0.209932110746381 
714	 0.210628139538438 
715	 0.211376598441203 
716	 0.212109872305612 
717	 0.212815527376864 
718	 0.213519676962875 
719	 0.214174918442924 
720	 0.214845115560068 
721	 0.215548022026007 
722	 0.216181668118797 
723	 0.21682288524894 
724	 0.2174603254236 
725	 0.218058785305342 
726	 0.218617709795937 
727	 0.219158878846896 
728	 0.21968156137166 
729	 0.220164269796444 
730	 0.220649950947365 
731	 0.221121553409902 
732	 0.221553280611394 
733	 0.221924084172264 
734	 0.222281631017434 
735	 0.22261186913421 
736	 0.222892788380903 
737	 0.223226774400928 
738	 0.22351204878422 
739	 0.223710518790589 
740	 0.223870717497027 
741	 0.224022063063594 
742	 0.22416152447265 
743	 0.224276148722737 
744	 0.224353470613645 
745	 0.224388471268205 
746	 0.22439849736742 
747	 0.224398499947094 
748	 0.224298497522188 
749	 0.224218222688449 
750	 0.224165142790477 
751	 0.22399351157775 
752	 0.2238387475503 
753	 0.223692062919698 
754	 0.22351384778812 
755	 0.223272437348721 
756	 0.22303714064655 
757	 0.222784153774037 
758	 0.222457200783699 
759	 0.222150093461425 
760	 0.221781629554089 
761	 0.221363265634056 
762	 0.221036767528202 
763	 0.220662564486792 
764	 0.220274760745709 
765	 0.219908883362865 
766	 0.219481517162836 
767	 0.219024250754569 
768	 0.21855133763541 
769	 0.218075011340203 
770	 0.217654680071789 
771	 0.217222445772416 
772	 0.216747868243716 
773	 0.216259756742992 
774	 0.215765639424569 
775	 0.215251647889768 
776	 0.214721513394576 
777	 0.214248769987655 
778	 0.21372451325121 
779	 0.213175306998276 
780	 0.212675490841986 
781	 0.212166044883755 
782	 0.211666608836055 
783	 0.211162041155829 
784	 0.210602517160372 
785	 0.21009691506817 
786	 0.209607270883923 
787	 0.209087132289401 
788	 0.208532746174464 
789	 0.208023813324136 
790	 0.207544826185988 
791	 0.207051542370609 
792	 0.20657108070896 
793	 0.206104103627964 
794	 0.205620429169578 
795	 0.205079212878545 
796	 0.204631909631647 
797	 0.204183747273232 
798	 0.203681633049628 
799	 0.20322027775513 
800	 0.202782528630155 
801	 0.202348287651525 
802	 0.201895538523822 
803	 0.201399145756283 
804	 0.200974154607595 
805	 0.200592249749094 
806	 0.20014953346279 
807	 0.199747034754125 
808	 0.199331143138778 
809	 0.198883319146301 
810	 0.1984495016549 
811	 0.198090751933036 
812	 0.197780440859286 
813	 0.197460524684872 
814	 0.197049533030539 
815	 0.196663390711423 
816	 0.19630426846585 
817	 0.19593914772422 
818	 0.195625320457723 
819	 0.195324557437132 
820	 0.195007856951084 
821	 0.194666199875266 
822	 0.194364294734202 
823	 0.194089805979696 
824	 0.193812053857827 
825	 0.193492619022582 
826	 0.193197365434965 
827	 0.192966041376689 
828	 0.192782920901936 
829	 0.192490773888566 
830	 0.192181145553009 
831	 0.191906298905315 
832	 0.191695049217061 
833	 0.191568758332157 
834	 0.191439354996902 
835	 0.191258070742637 
836	 0.19102682546202 
837	 0.190762034034237 
838	 0.190547910520971 
839	 0.19040570257749 
840	 0.190234379729252 
841	 0.1901365476153 
842	 0.190019012873298 
843	 0.189809160664692 
844	 0.189660495602658 
845	 0.189584269333626 
846	 0.189497405914189 
847	 0.189315841786504 
848	 0.189225188433303 
849	 0.189161988702639 
850	 0.189084689990615 
851	 0.188990313473305 
852	 0.188930066861481 
853	 0.188898636066899 
854	 0.188864614780547 
855	 0.188775754470902 
856	 0.188748939969321 
857	 0.18872567693502 
858	 0.188654451528555 
859	 0.188604471586149 
860	 0.18862423840331 
861	 0.188675721589564 
862	 0.188696763498727 
863	 0.188690740758762 
864	 0.18866181816837 
865	 0.188648712613788 
866	 0.188697236580591 
867	 0.18875143920721 
868	 0.188842016030925 
869	 0.188943321725672 
870	 0.188975208986574 
871	 0.189002089364555 
872	 0.189075470030756 
873	 0.189201123342057 
874	 0.189317428870685 
875	 0.189452299038115 
876	 0.189570020479301 
877	 0.189650552370214 
878	 0.189744002081465 
879	 0.189917163225614 
880	 0.190051696768927 
881	 0.190064364931508 
882	 0.19028906200287 
883	 0.190608656993433 
884	 0.190827789629005 
885	 0.190809898780705 
886	 0.19097214670928 
887	 0.191221471583633 
888	 0.191448939099549 
889	 0.191592274274134 
890	 0.191835298452592 
891	 0.19211596615144 
892	 0.192391694172791 
893	 0.19268157905307 
894	 0.1928559238882 
895	 0.193083199107036 
896	 0.193447318077171 
897	 0.193778455924934 
898	 0.194051655079526 
899	 0.194295794202388 
900	 0.194549569532609 
901	 0.194814295675774 
902	 0.195150189581614 
903	 0.195545571170634 
904	 0.195951366520876 
905	 0.196299960422598 
906	 0.196634881900921 
907	 0.196970948272729 
908	 0.19730929404489 
909	 0.197657728824906 
910	 0.198026091853738 
911	 0.198449785041063 
912	 0.198950020657442 
913	 0.199363291196994 
914	 0.199750423732807 
915	 0.20018535386849 
916	 0.200709210219324 
917	 0.201129895279636 
918	 0.201578309531754 
919	 0.202094878448548 
920	 0.202573663805422 
921	 0.203120729976259 
922	 0.203622595496094 
923	 0.204063065013804 
924	 0.204610511617478 
925	 0.205171706417586 
926	 0.205775737660791 
927	 0.206419427143066 
928	 0.206999464320709 
929	 0.207669381617044 
930	 0.208273105742004 
931	 0.208728853865799 
932	 0.209304015239104 
933	 0.209894289763062 
934	 0.210509494775192 
935	 0.211171559701536 
936	 0.211853300671822 
937	 0.212527917221766 
938	 0.213190238128878 
939	 0.213848736060476 
940	 0.214515508555122 
941	 0.215267789336426 
942	 0.216056461054965 
943	 0.216808240015551 
944	 0.21758251898765 
945	 0.218269356706351 
946	 0.218987291600703 
947	 0.219866375172299 
948	 0.220616690754019 
949	 0.221354783147905 
950	 0.222083826669326 
951	 0.222802124548938 
952	 0.223796430523594 
953	 0.224771712932076 
954	 0.22561411825291 
955	 0.226373497461072 
956	 0.227223898752068 
957	 0.228116952241184 
958	 0.229045545495008 
959	 0.230003614622109 
960	 0.230800864735665 
961	 0.231637210170553 
962	 0.232608127744275 
963	 0.233661377084845 
964	 0.234476808620808 
965	 0.235376115323188 
966	 0.236401537299089 
967	 0.23739515099242 
968	 0.238427689255606 
969	 0.239379039362606 
970	 0.240272974907402 
971	 0.24122511358595 
972	 0.242230606752775 
973	 0.243250722260484 
974	 0.244304450595434 
975	 0.245428695229735 
976	 0.246522414437316 
977	 0.247531003321733 
978	 0.248560079812776 
979	 0.249732994371181 
980	 0.250701508404198 
981	 0.251606593820599 
982	 0.252549268590219 
983	 0.253577655012771 
984	 0.254726402481062 
985	 0.255870301536613 
986	 0.256939666546473 
987	 0.257945442620161 
988	 0.259048447553626 
989	 0.260233058041814 
990	 0.261411258960649 
991	 0.26247765323807 
992	 0.263420747015923 
993	 0.264266432520806 
994	 0.265274005595485 
995	 0.266595606938835 
996	 0.267606758313129 
997	 0.268587148513829 
998	 0.26959005528275 
999	 0.270624472089062 
1000	 0.271896013615493 
1001	 0.274420907057995 
1002	 0.275380743257046 
1003	 0.276398665969106 
1004	 0.277404189380682 
1005	 0.278430001324714 
1006	 0.279433820825555 
1007	 0.280424847419043 
1008	 0.281440501516123 
1009	 0.282378971074255 
1010	 0.28329229131148 
1011	 0.28422135814102 
1012	 0.285076739202771 
1013	 0.285980573126334 
1014	 0.286888745858049 
1015	 0.287775387820698 
1016	 0.288697805787672 
1017	 0.289598493431396 
1018	 0.290477099983265 
1019	 0.291384707859756 
1020	 0.292284945766947 
1021	 0.293130890747747 
1022	 0.293982571634452 
1023	 0.294781666802559 
1024	 0.29556868974385 
1025	 0.296379628225942 
1026	 0.297102345934445 
1027	 0.297846037082799 
1028	 0.298626801031297 
1029	 0.299351096201948 
1030	 0.300128697931309 
1031	 0.300907681042485 
1032	 0.301715157655627 
1033	 0.302488897509048 
1034	 0.303272948966109 
1035	 0.304046504906718 
1036	 0.304813383843495 
1037	 0.305499836485117 
1038	 0.30616514251712 
1039	 0.306840555642585 
1040	 0.307473101012189 
1041	 0.308181744845025 
1042	 0.308894745788332 
1043	 0.309568666399581 
1044	 0.310248364090862 
1045	 0.310930357729381 
1046	 0.311577438606588 
1047	 0.312264584230958 
1048	 0.312945823277242 
1049	 0.313555462768045 
1050	 0.314202290027328 
1051	 0.314858686600711 
1052	 0.315489448995698 
1053	 0.316179261662319 
1054	 0.316855343193463 
1055	 0.317437662817177 
1056	 0.318030270753026 
1057	 0.318631388693322 
1058	 0.319209476940785 
1059	 0.319807432806375 
1060	 0.320441807810481 
1061	 0.321027978239957 
1062	 0.321609810459148 
1063	 0.322190349482679 
1064	 0.322747422884755 
1065	 0.323324952803939 
1066	 0.323873370580412 
1067	 0.324379890556247 
1068	 0.324922884016838 
1069	 0.325470779068658 
1070	 0.326012301301874 
1071	 0.326580292294365 
1072	 0.327139462541117 
1073	 0.32765291867786 
1074	 0.328196307295817 
1075	 0.32877302814754 
1076	 0.329307045265734 
1077	 0.32982325492414 
1078	 0.330405775363811 
1079	 0.330985704798219 
1080	 0.331492394366765 
1081	 0.331968662683434 
1082	 0.332454710017822 
1083	 0.332944254363746 
1084	 0.333388405015701 
1085	 0.333902709448305 
1086	 0.334485678574021 
1087	 0.334999809097014 
1088	 0.335504709396986 
1089	 0.335988105740743 
1090	 0.33647401775049 
1091	 0.336951839586032 
1092	 0.337441081385036 
1093	 0.337980862357726 
1094	 0.338477497842124 
1095	 0.338972310552585 
1096	 0.339522479159857 
1097	 0.340026274977339 
1098	 0.340544744280815 
1099	 0.341090957996057 
1100	 0.341617297954927 
1101	 0.342102261248765 
1102	 0.342632557294691 
1103	 0.343187620935588 
1104	 0.343726165357085 
1105	 0.34429549764784 
1106	 0.344889431699817 
1107	 0.345434237796392 
1108	 0.345986063908844 
1109	 0.34652989833626 
1110	 0.347057508877373 
1111	 0.347604042464793 
1112	 0.3481571784276 
1113	 0.348724298707233 
1114	 0.349308248926463 
1115	 0.349882898388316 
1116	 0.350464608069224 
1117	 0.351048334855837 
1118	 0.351617171794644 
1119	 0.352204268110776 
1120	 0.352824244709382 
1121	 0.353439022378187 
1122	 0.354069629074628 
1123	 0.354676935120322 
1124	 0.35526372296295 
1125	 0.35582912136899 
1126	 0.35641451876485 
1127	 0.356979606751201 
1128	 0.357565222790511 
1129	 0.358177992945477 
1130	 0.358762966072927 
1131	 0.359354187026842 
1132	 0.359924628922542 
1133	 0.360486396310625 
1134	 0.361023330297668 
1135	 0.361542187902812 
1136	 0.362023275912701 
1137	 0.362519194638057 
1138	 0.363039702431092 
1139	 0.363564911140034 
1140	 0.364112875285481 
1141	 0.364649695021065 
1142	 0.36520581449071 
1143	 0.365720338026051 
1144	 0.366197873003197 
1145	 0.366712532642549 
1146	 0.367223414512358 
1147	 0.367728177172014 
1148	 0.368278298082902 
1149	 0.368786293440736 
1150	 0.369266730055175 
1151	 0.369727800487127 
1152	 0.370173628603666 
1153	 0.370605398062741 
1154	 0.371054562163311 
1155	 0.371508261180697 
1156	 0.371939318603523 
1157	 0.372374553882088 
1158	 0.372797843473534 
1159	 0.373186731457179 
1160	 0.373600037347779 
1161	 0.374033903093179 
1162	 0.374450941384673 
1163	 0.37486922477643 
1164	 0.375276190052943 
1165	 0.375682173980387 
1166	 0.376065241510976 
1167	 0.376453058199322 
1168	 0.376828587138194 
1169	 0.377187711113041 
1170	 0.377534717645801 
1171	 0.377877594841282 
1172	 0.378193691070039 
1173	 0.378536352928056 
1174	 0.378897347382031 
1175	 0.379232887328709 
1176	 0.379569000758588 
1177	 0.379897675265956 
1178	 0.380201489526676 
1179	 0.380517550447635 
1180	 0.380861744631033 
1181	 0.381170313102802 
1182	 0.381462292343274 
1183	 0.38174979130164 
1184	 0.382015664700835 
1185	 0.382245230712417 
1186	 0.382505928183119 
1187	 0.382768821405623 
1188	 0.383028127581478 
1189	 0.383305083196294 
1190	 0.383554723168916 
1191	 0.383783668063983 
1192	 0.38402065756542 
1193	 0.38424286438468 
1194	 0.384478461107165 
1195	 0.384737821430684 
1196	 0.384971636770069 
1197	 0.385200708552297 
1198	 0.385420647544446 
1199	 0.385629286490565 
1200	 0.385806769189761 
1201	 0.386024317528582 
1202	 0.386260694935688 
1203	 0.386473987972174 
1204	 0.386698824962199 
1205	 0.386904961800191 
1206	 0.387091683844392 
1207	 0.387274657877186 
1208	 0.387450813913651 
1209	 0.387628528916089 
1210	 0.387788187623028 
1211	 0.387961678941187 
1212	 0.388153750851242 
1213	 0.388331648883083 
1214	 0.388515140960252 
1215	 0.388682115987817 
1216	 0.388838093136827 
1217	 0.388972749620472 
1218	 0.389131754977631 
1219	 0.389291319285318 
1220	 0.389448237457912 
1221	 0.389623079510142 
1222	 0.389776504372761 
1223	 0.389915650663072 
1224	 0.390052124539785 
1225	 0.390183242146463 
1226	 0.390311110907555 
1227	 0.39042400052686 
1228	 0.390547737428192 
1229	 0.39068132242784 
1230	 0.390804139111296 
1231	 0.390930372399559 
1232	 0.39104788517911 
1233	 0.391158049451137 
1234	 0.391250566351355 
1235	 0.391362888340255 
1236	 0.391475474494568 
1237	 0.391594881297349 
1238	 0.391736002512386 
1239	 0.391850982139047 
1240	 0.391955706079038 
1241	 0.392061837291839 
1242	 0.392160282054351 
1243	 0.392254423157477 
1244	 0.392345234139807 
1245	 0.392437492935268 
1246	 0.39252720744258 
1247	 0.392608638807567 
1248	 0.392678698448544 
1249	 0.392762929944098 
1250	 0.392851661075456 
1251	 0.392935616855431 
1252	 0.393037500705302 
1253	 0.39316755637241 
1254	 0.393274275251232 
1255	 0.393386427962492 
1256	 0.393475267306173 
1257	 0.393553285146588 
1258	 0.393617492127929 
1259	 0.393646093904488 
1260	 0.393703918083329 
1261	 0.393767803557434 
1262	 0.393829168761737 
1263	 0.393908559806988 
1264	 0.393974583969697 
1265	 0.39402732144299 
1266	 0.39408153879338 
1267	 0.394127257252671 
1268	 0.394186324817255 
1269	 0.394240215452662 
1270	 0.394283108559109 
1271	 0.394352806631018 
1272	 0.394436275896213 
1273	 0.394516963690101 
1274	 0.394612464007278 
1275	 0.394704630617597 
1276	 0.394792637669997 
1277	 0.394887668550059 
1278	 0.394998028180595 
1279	 0.395092594896927 
1280	 0.395180103538257 
1281	 0.395269739481322 
1282	 0.395357873788688 
1283	 0.395438341761726 
1284	 0.395530326171031 
1285	 0.395596615872832 
1286	 0.395634219461313 
1287	 0.395669112026537 
1288	 0.395705652252845 
1289	 0.395728902182552 
1290	 0.395754143606699 
1291	 0.395794210223673 
1292	 0.395804774767425 
1293	 0.395786454061077 
1294	 0.395786193511128 
1295	 0.395792719808029 
1296	 0.395775247427134 
1297	 0.395759469256123 
1298	 0.395726739801277 
1299	 0.395649673820424 
1300	 0.395601583836039 
1301	 0.395561597573667 
1302	 0.395522017004378 
1303	 0.395502294798195 
1304	 0.395470028623084 
1305	 0.395409757649255 
1306	 0.395350020205484 
1307	 0.395270816093237 
1308	 0.395191763117293 
1309	 0.395122154589118 
1310	 0.395061037489336 
1311	 0.394991642876567 
1312	 0.394913762515402 
1313	 0.394858978843589 
1314	 0.394802733615164 
1315	 0.394767343224524 
1316	 0.394749863900367 
1317	 0.394745489491892 
1318	 0.394765623854524 
1319	 0.394775484120156 
1320	 0.394800667983511 
1321	 0.39481558893588 
1322	 0.394818109135493 
1323	 0.39482221498379 
1324	 0.394831618620847 
1325	 0.394856013930463 
1326	 0.39489263132774 
1327	 0.394932602009268 
1328	 0.394993213087043 
1329	 0.395051207865558 
1330	 0.395104466039651 
1331	 0.395142672740202 
1332	 0.39522800835914 
1333	 0.395334017734719 
1334	 0.3954318599859 
1335	 0.395562132235391 
1336	 0.395670527906496 
1337	 0.39574176159736 
1338	 0.395853658968169 
1339	 0.395995502292288 
1340	 0.396124696948515 
1341	 0.396278378415654 
1342	 0.396404994481572 
1343	 0.396515921784232 
1344	 0.396613865254829 
1345	 0.396717583190542 
1346	 0.396824732853383 
1347	 0.3969626545684 
1348	 0.397125786388239 
1349	 0.397278959810466 
1350	 0.397421498704188 
1351	 0.397552798214091 
1352	 0.397662249014907 
1353	 0.397788470666027 
1354	 0.397912090352302 
1355	 0.398041245983012 
1356	 0.398191681795401 
1357	 0.398307768296216 
1358	 0.398399273943715 
1359	 0.398515931612501 
1360	 0.398623496911008 
1361	 0.398737537625246 
1362	 0.398883708414263 
1363	 0.399001632665863 
1364	 0.39909543450658 
1365	 0.399197538111871 
1366	 0.399291791895428 
1367	 0.399394686016108 
1368	 0.399504744708424 
1369	 0.399602601374309 
1370	 0.399683219898942 
1371	 0.399749293565282 
1372	 0.399795540378364 
1373	 0.399853811583731 
1374	 0.399901889283138 
1375	 0.399955153127732 
1376	 0.399983703823615 
1377	 0.400001665121148 
1378	 0.399996426064893 
1379	 0.399970359139988 
1380	 0.399940971202224 
1381	 0.399898012529425 
1382	 0.399846137837536 
1383	 0.399793566417271 
1384	 0.399710407340211 
1385	 0.399614454080653 
1386	 0.3994961942362 
1387	 0.399358335605853 
1388	 0.399196130221841 
1389	 0.399019650726251 
1390	 0.398800572225132 
1391	 0.398573167686439 
1392	 0.398320508461048 
1393	 0.398034842802195 
1394	 0.39775203773978 
1395	 0.397433766433051 
1396	 0.397094459953097 
1397	 0.396745231418435 
1398	 0.396369106699623 
1399	 0.39601371886546 
1400	 0.395651627555804 
1401	 0.395294936277472 
1402	 0.394951384969447 
1403	 0.39459802162743 
1404	 0.394228253791723 
1405	 0.393885186730416 
1406	 0.393545367124396 
1407	 0.393227808245434 
1408	 0.392915580321704 
1409	 0.392632693591374 
1410	 0.392368875229215 
1411	 0.392133448161224 
1412	 0.391905643459921 
1413	 0.391738950525213 
1414	 0.391630481088533 
1415	 0.391536523970368 
1416	 0.391495429186204 
1417	 0.391490872437492 
1418	 0.391493179949744 
1419	 0.391517983817195 
1420	 0.39156563829775 
1421	 0.391618727394471 
1422	 0.391638435549657 
1423	 0.391644357028362 
1424	 0.391636358810543 
1425	 0.391602671269588 
1426	 0.391566413088459 
1427	 0.391510533562138 
1428	 0.391473380074214 
1429	 0.391430855205162 
1430	 0.391401306906904 
1431	 0.391390919583887 
1432	 0.391373202996081 
1433	 0.391358440177932 
1434	 0.391333152130677 
1435	 0.391298395167174 
1436	 0.391277106053874 
1437	 0.391255060929611 
1438	 0.391233076126413 
1439	 0.391218255016295 
1440	 0.391209034078425 
1441	 0.39118097244424 
1442	 0.391176123811044 
1443	 0.391175172805982 
1444	 0.391154977278319 
1445	 0.391131765298328 
1446	 0.391103007572764 
1447	 0.391091495994324 
1448	 0.391078068598496 
1449	 0.391059280719904 
1450	 0.391050385019537 
1451	 0.39103685020148 
1452	 0.391008676353513 
1453	 0.390998272456971 
1454	 0.39100335673745 
1455	 0.390995641588184 
1456	 0.390987290616843 
1457	 0.390977111866193 
1458	 0.390961260053256 
1459	 0.390949737298144 
1460	 0.390934107968313 
1461	 0.390928110058276 
1462	 0.390922114516076 
1463	 0.390929514027103 
1464	 0.390945694887317 
1465	 0.39097160329124 
1466	 0.391013250116594 
1467	 0.391055337779621 
1468	 0.39110546243342 
1469	 0.39115555980927 
1470	 0.391205733271757 
1471	 0.391259585977144 
1472	 0.39132162260111 
1473	 0.391394197703559 
1474	 0.391462285284549 
1475	 0.391547559693098 
1476	 0.391660215526812 
1477	 0.391760063047427 
1478	 0.391879130127319 
1479	 0.391999972990107 
1480	 0.392102102350537 
1481	 0.392228139155172 
1482	 0.392342849250757 
1483	 0.392451018375148 
1484	 0.392580225724804 
1485	 0.392716848923641 
1486	 0.392848506931803 
1487	 0.392993635152296 
1488	 0.393140904227534 
1489	 0.39328449578806 
1490	 0.393423969574072 
1491	 0.393576411775795 
1492	 0.393714136010603 
1493	 0.393831376556553 
1494	 0.393961227265141 
1495	 0.394110847753477 
1496	 0.394231611487415 
1497	 0.394341421924514 
1498	 0.394445426281544 
1499	 0.394517771486125 
1500	 0.394604838227688 
1501	 0.394700663420411 
1502	 0.394790311368917 
1503	 0.394873144794217 
1504	 0.394972798072743 
1505	 0.39507437165842 
1506	 0.395150707137351 
1507	 0.395231749699187 
1508	 0.395324198973536 
1509	 0.395404820948473 
1510	 0.395500332067751 
1511	 0.39561090317929 
1512	 0.395710411074636 
1513	 0.395818565014709 
1514	 0.395946003488412 
1515	 0.396090675434907 
1516	 0.396236221147263 
1517	 0.396350577676758 
1518	 0.396459192125684 
1519	 0.396543491749895 
1520	 0.39658384277541 
1521	 0.396660819046022 
1522	 0.39674299855171 
1523	 0.396827704398997 
1524	 0.396935862664812 
1525	 0.397009757648176 
1526	 0.39705701381779 
1527	 0.397127160255172 
1528	 0.397194588945799 
1529	 0.39725754279689 
1530	 0.397335389773071 
1531	 0.397403694150576 
1532	 0.397451085699007 
1533	 0.397512400795074 
1534	 0.397584422559501 
1535	 0.39765334909289 
1536	 0.397725127632645 
1537	 0.397793968299188 
1538	 0.397852374898839 
1539	 0.397924747969483 
1540	 0.398009327054835 
1541	 0.398084516938171 
1542	 0.3981743017018 
1543	 0.398249153402193 
1544	 0.398319997173797 
1545	 0.398365329010362 
1546	 0.398388019956961 
1547	 0.398404217561125 
1548	 0.398418874253855 
1549	 0.39845312152079 
1550	 0.398517658334221 
1551	 0.398584694268996 
1552	 0.398655294559628 
1553	 0.398713103106217 
1554	 0.398762691676681 
1555	 0.398830157816886 
1556	 0.398901654674963 
1557	 0.398967227324822 
1558	 0.39903280081219 
1559	 0.399110207765929 
1560	 0.399169952407492 
1561	 0.399213317988814 
1562	 0.399267609821306 
1563	 0.39931938085158 
1564	 0.399376354651645 
1565	 0.399433866465529 
1566	 0.399508229794381 
1567	 0.399594106964386 
1568	 0.399667928517165 
1569	 0.399762730682292 
1570	 0.399820000172829 
1571	 0.399855617689869 
1572	 0.399888185899508 
1573	 0.399898462666502 
1574	 0.39991493362286 
1575	 0.399921836720655 
1576	 0.399938889459103 
1577	 0.399955775599748 
1578	 0.399981940519869 
1579	 0.400023732126387 
1580	 0.400052644322258 
1581	 0.400077117372577 
1582	 0.400106857168375 
1583	 0.400123322269446 
1584	 0.400163397649546 
1585	 0.400217801615517 
1586	 0.400275818301606 
1587	 0.400368088317563 
1588	 0.400422113516664 
1589	 0.400464669041225 
1590	 0.40049872703432 
1591	 0.400501219379533 
1592	 0.400513186791675 
1593	 0.400511546652362 
1594	 0.400535481524062 
1595	 0.400574309132069 
1596	 0.400613604453681 
1597	 0.400680059235117 
1598	 0.400731556306395 
1599	 0.400773446114832 
1600	 0.400811172046042 
1601	 0.400833386368918 
1602	 0.400870773701899 
1603	 0.400919109591178 
1604	 0.400958683542647 
1605	 0.401006081481084 
1606	 0.401049388305874 
1607	 0.401088139061963 
1608	 0.401114823015949 
1609	 0.401147677745254 
1610	 0.401161614370301 
1611	 0.401143946760234 
1612	 0.401139055836299 
1613	 0.401146608676936 
1614	 0.401142024512317 
1615	 0.401177904033872 
1616	 0.401219482867449 
1617	 0.401253864132184 
1618	 0.401318330194311 
1619	 0.401344334428855 
1620	 0.401364126226468 
1621	 0.401388671744739 
1622	 0.401402399899531 
1623	 0.401419432830146 
1624	 0.401440545555223 
1625	 0.40146440550598 
1626	 0.401486651163753 
1627	 0.401501981519541 
1628	 0.401520505903657 
1629	 0.401544293109646 
1630	 0.401562906438356 
1631	 0.401576780445366 
1632	 0.401598109771936 
1633	 0.401615944556324 
1634	 0.401617315806706 
1635	 0.401633424541449 
1636	 0.401663557446644 
1637	 0.401688531025898 
1638	 0.401703844920974 
1639	 0.401741864085104 
1640	 0.401800388412923 
1641	 0.401839021166719 
1642	 0.401884670372154 
1643	 0.401915302844727 
1644	 0.401918444188768 
1645	 0.40195393398687 
1646	 0.401990198132602 
1647	 0.402053810944059 
1648	 0.402158140803349 
1649	 0.402222189319541 
1650	 0.402295576704712 
1651	 0.402337997419145 
1652	 0.402337513784449 
1653	 0.402364164684764 
1654	 0.402396377586051 
1655	 0.402414631083826 
1656	 0.402439675213517 
1657	 0.402442919104375 
1658	 0.402416623325777 
1659	 0.402411398603844 
1660	 0.40240038810934 
1661	 0.402405074159954 
1662	 0.402426644834834 
1663	 0.402441132255936 
1664	 0.402465246225332 
1665	 0.402475058010108 
1666	 0.402478196296306 
1667	 0.402479436691087 
1668	 0.40246795363282 
1669	 0.402468462559548 
1670	 0.402481471166236 
1671	 0.402474099233781 
1672	 0.402454235929246 
1673	 0.402449383922002 
1674	 0.402426988933984 
1675	 0.402435647322895 
1676	 0.402467115952775 
1677	 0.402507908806001 
1678	 0.402582037139224 
1679	 0.402619792533126 
1680	 0.402664118840529 
1681	 0.402680736209309 
1682	 0.402646034896305 
1683	 0.402652735220012 
1684	 0.402663681070553 
1685	 0.402685637228806 
1686	 0.402727629127999 
1687	 0.402770521687928 
1688	 0.402828034506942 
1689	 0.402867259909636 
1690	 0.40291673837108 
1691	 0.402937717722464 
1692	 0.402928427397945 
1693	 0.402927074655459 
1694	 0.402904054203047 
1695	 0.402907579836623 
1696	 0.402925190686168 
1697	 0.402939191215461 
1698	 0.402964099874491 
1699	 0.402988648044175 
1700	 0.403021746426841 
1701	 0.403030136669975 
1702	 0.403035958781353 
1703	 0.403029011205699 
1704	 0.40299078814118 
1705	 0.402970940078395 
1706	 0.402952812866015 
1707	 0.402942708880866 
1708	 0.402941136262578 
1709	 0.402928481523171 
1710	 0.402910894741242 
1711	 0.402907837401306 
1712	 0.402905767808308 
1713	 0.402908284309252 
1714	 0.402924222059336 
1715	 0.402939169382098 
1716	 0.402946133349968 
1717	 0.402966902526703 
1718	 0.403010994058253 
1719	 0.403030640472742 
1720	 0.40304666239181 
1721	 0.403052342312219 
1722	 0.403053510489297 
1723	 0.403033823874682 
1724	 0.402986903699136 
1725	 0.402966163962931 
1726	 0.402938148401628 
1727	 0.40291206477065 
1728	 0.40290978016009 
1729	 0.402884952205491 
1730	 0.402846719706932 
1731	 0.402800438619471 
1732	 0.402757808660234 
1733	 0.402692222426115 
1734	 0.402595640488951 
1735	 0.402511878203115 
1736	 0.402411284161024 
1737	 0.402337920254196 
1738	 0.40227474931969 
1739	 0.402228661065123 
1740	 0.402210404257404 
1741	 0.402174269503932 
1742	 0.402152474116433 
1743	 0.402093528281141 
1744	 0.402006029459475 
1745	 0.401931757391568 
1746	 0.401836510373013 
1747	 0.401796787313052 
1748	 0.401753940043334 
1749	 0.40171501871589 
1750	 0.401677839268958 
1751	 0.401625154648476 
1752	 0.401588919606401 
1753	 0.401563464255524 
1754	 0.401519832649992 
1755	 0.401501846929862 
1756	 0.401492839429365 
1757	 0.401472742254982 
1758	 0.401476863249775 
1759	 0.401442988037627 
1760	 0.401370524420905 
1761	 0.40130361747098 
1762	 0.401216751273887 
1763	 0.401137389579056 
1764	 0.401087154893422 
1765	 0.401040504197874 
1766	 0.400997753200759 
1767	 0.400967525126091 
1768	 0.400948088981781 
1769	 0.400954957472557 
1770	 0.400963704539446 
1771	 0.400953594341666 
1772	 0.400930041334428 
1773	 0.400868915774153 
1774	 0.400807645686608 
1775	 0.400744156625769 
1776	 0.400676233260658 
1777	 0.400654961918725 
1778	 0.400653576091137 
1779	 0.400676787315177 
1780	 0.400690761499467 
1781	 0.400668639039857 
1782	 0.400643581222612 
1783	 0.4006082576158 
1784	 0.400587921858944 
1785	 0.400570321366187 
1786	 0.400556069419482 
1787	 0.400541113235813 
1788	 0.400542524686524 
1789	 0.400578556754628 
1790	 0.400583490786489 
1791	 0.400585398782405 
1792	 0.400576541040638 
1793	 0.400524481595072 
1794	 0.400515486036587 
1795	 0.400542859334689 
1796	 0.400527679870136 
1797	 0.400514707318536 
1798	 0.400486766621443 
1799	 0.400407032475172 
1800	 0.400370201027917 
1801	 0.395666315176055 
1802	 0.395666649711961 
1803	 0.395664403180816 
1804	 0.395690907288279 
1805	 0.395722198007393 
1806	 0.395724034091938 
1807	 0.395746023981241 
1808	 0.395778686860021 
1809	 0.395825762542035 
1810	 0.395846305348626 
1811	 0.39587118698922 
1812	 0.395893238789921 
1813	 0.395897063719398 
1814	 0.395888624984431 
1815	 0.395872548619495 
1816	 0.3959055194059 
1817	 0.395923877604027 
1818	 0.39592506150571 
1819	 0.395939938675945 
1820	 0.395994681160032 
1821	 0.395986598059164 
1822	 0.395944107430694 
1823	 0.395957101035446 
1824	 0.395929417818121 
1825	 0.39586895059712 
1826	 0.395819943879493 
1827	 0.395764308114242 
1828	 0.395725762868177 
1829	 0.395695743636619 
1830	 0.395663254977318 
1831	 0.395652917704422 
1832	 0.39562548240808 
1833	 0.395552246340725 
1834	 0.395482732481994 
1835	 0.395401530143516 
1836	 0.39533171118991 
1837	 0.3952814562624 
1838	 0.395226051472498 
1839	 0.395196788842476 
1840	 0.395204386575054 
1841	 0.395176318937888 
1842	 0.395129152931251 
1843	 0.395128774711596 
1844	 0.395090611796271 
1845	 0.395015086859357 
1846	 0.394950449798079 
1847	 0.394876655802062 
1848	 0.394779064264594 
1849	 0.394708051487073 
1850	 0.394676525052027 
1851	 0.394690110574811 
1852	 0.394690838844899 
1853	 0.394692718722517 
1854	 0.394690515222046 
1855	 0.394644039036084 
1856	 0.394608999902476 
1857	 0.394577985859426 
1858	 0.394502484428187 
1859	 0.394398712436615 
1860	 0.394282951641871 
1861	 0.394137836954793 
1862	 0.393944973514917 
1863	 0.393751631215126 
1864	 0.393602926652797 
1865	 0.393428654513437 
1866	 0.393220151321659 
1867	 0.393014433940676 
1868	 0.392764096828116 
1869	 0.392473082785834 
1870	 0.392186666744529 
1871	 0.391886563355257 
1872	 0.39158827180042 
1873	 0.391274316813625 
1874	 0.390911855167212 
1875	 0.390506991424629 
1876	 0.390071786499166 
1877	 0.38957248350997 
1878	 0.389016359140422 
1879	 0.388424944146645 
1880	 0.387764106866867 
1881	 0.387016695516436 
1882	 0.386251176353047 
1883	 0.385454803722453 
1884	 0.384569815638246 
1885	 0.383660474053164 
1886	 0.382731685904069 
1887	 0.381706053395443 
1888	 0.380657458488506 
1889	 0.379552854681518 
1890	 0.378383242565867 
1891	 0.377195380169428 
1892	 0.375935850537712 
1893	 0.374698250419659 
1894	 0.373450486399029 
1895	 0.372191237608833 
1896	 0.370907095290614 
1897	 0.369632319991455 
1898	 0.368335278727692 
1899	 0.367062654189046 
1900	 0.365818811316639 
1901	 0.364638803002063 
1902	 0.363521240925333 
1903	 0.362456080941838 
1904	 0.361440859279363 
1905	 0.360477733210211 
1906	 0.359602953832014 
1907	 0.35877080640773 
1908	 0.357992528990259 
1909	 0.357271621358274 
1910	 0.35654645402629 
1911	 0.355852565421223 
1912	 0.355219711159462 
1913	 0.354619698876513 
1914	 0.354060855869847 
1915	 0.353547117661272 
1916	 0.353079169748082 
1917	 0.352632690335623 
1918	 0.352240623939285 
1919	 0.35188763839495 
1920	 0.351556700073214 
1921	 0.351241154014556 
1922	 0.350952610675193 
1923	 0.35069083318341 
1924	 0.350458449731712 
1925	 0.350247370354066 
1926	 0.350087903183599 
1927	 0.349971564732561 
1928	 0.349870953126725 
1929	 0.349830723572198 
1930	 0.349787781782778 
1931	 0.349721304495038 
1932	 0.34969219224935 
1933	 0.349647557065483 
1934	 0.34962444665221 
1935	 0.349643932718199 
1936	 0.349700190037522 
1937	 0.349771624146628 
1938	 0.349875988215494 
1939	 0.349996293068833 
1940	 0.350130045744018 
1941	 0.350297838619243 
1942	 0.3504960257396 
1943	 0.350710147663242 
1944	 0.350933298694002 
1945	 0.351150798379204 
1946	 0.351381600798524 
1947	 0.351616172381448 
1948	 0.351855684652248 
1949	 0.352106859260765 
1950	 0.352365363270082 
1951	 0.352618891462881 
1952	 0.352890284931141 
1953	 0.353187578568559 
1954	 0.353483240638835 
1955	 0.353779717549109 
1956	 0.354052096217566 
1957	 0.354334660909389 
1958	 0.354602657740341 
1959	 0.354887357940866 
1960	 0.355186741595092 
1961	 0.355486986318634 
1962	 0.355778200795289 
1963	 0.356100779801545 
1964	 0.356439983138829 
1965	 0.356775424934631 
1966	 0.357167294454073 
1967	 0.357539019253614 
1968	 0.357921838398449 
1969	 0.358317686841248 
1970	 0.35871398740344 
1971	 0.359122010899246 
1972	 0.359516197991086 
1973	 0.359916055426044 
1974	 0.36030230755342 
1975	 0.360673986375217 
1976	 0.361038501734022 
1977	 0.361423937332771 
1978	 0.361781005341113 
1979	 0.362114161978877 
1980	 0.362477868867157 
1981	 0.362832280625494 
1982	 0.363161078301342 
1983	 0.363524721583572 
1984	 0.363914636596503 
1985	 0.364297117048754 
1986	 0.364690325673914 
1987	 0.365087719604233 
1988	 0.36550133606217 
1989	 0.365895838963196 
1990	 0.3662846736472 
1991	 0.366657279791433 
1992	 0.367028085211747 
1993	 0.367378607549585 
1994	 0.367742888330438 
1995	 0.368105397074559 
1996	 0.368475740084697 
1997	 0.368845518905111 
1998	 0.369223208019769 
1999	 0.369619343899108 
2000	 0.370008078650845 
2001	 0.370403695931783 
2002	 0.370777133393467 
2003	 0.371179635455519 
2004	 0.371577135797289 
2005	 0.371964936079836 
2006	 0.372371905305801 
2007	 0.372747652211789 
2008	 0.373080153499627 
2009	 0.373438896068782 
2010	 0.37380739729309 
2011	 0.374159998720395 
2012	 0.374516428211566 
2013	 0.374867775487612 
2014	 0.375209114587729 
2015	 0.375533141764032 
2016	 0.375860939689612 
2017	 0.376217027222782 
2018	 0.376565178271951 
2019	 0.376917787898712 
2020	 0.377263036039909 
2021	 0.377614179884705 
2022	 0.377953733682918 
2023	 0.378286869353752 
2024	 0.378618549936288 
2025	 0.378943473163124 
2026	 0.379267336704139 
2027	 0.379599802202427 
2028	 0.379907625343709 
2029	 0.380210342548085 
2030	 0.380504812779148 
2031	 0.380798815910597 
2032	 0.381085057088463 
2033	 0.381363884460185 
2034	 0.381632241661759 
2035	 0.381911807358972 
2036	 0.382188042284565 
2037	 0.382460967242936 
2038	 0.382751551644765 
2039	 0.383022888775892 
2040	 0.383280911427598 
2041	 0.383524900822276 
2042	 0.38377361822648 
2043	 0.384030558144371 
2044	 0.384272232483725 
2045	 0.384507707431057 
2046	 0.384746181747124 
2047	 0.384985170180025 
2048	 0.385205733916478 
2049	 0.385425020139324 
2050	 0.385631804672487 
2051	 0.385804213135618 
2052	 0.385995549991695 
2053	 0.386185442031127 
2054	 0.386386823938842 
2055	 0.386594569731946 
2056	 0.386822467492452 
2057	 0.387026283066256 
2058	 0.387232134534328 
2059	 0.387426129280193 
2060	 0.387598464394539 
2061	 0.38778535464459 
2062	 0.387961909302563 
2063	 0.388166664267742 
2064	 0.388398889736644 
2065	 0.38861041346973 
2066	 0.388837316167204 
2067	 0.389049924983743 
2068	 0.389245901915327 
2069	 0.389428726541955 
2070	 0.389626727222968 
2071	 0.389831011843424 
2072	 0.390031945123372 
2073	 0.390243713012033 
2074	 0.390428585403562 
2075	 0.390587686429945 
2076	 0.390776253151265 
2077	 0.390955112930716 
2078	 0.391152601057565 
2079	 0.39139671356903 
2080	 0.391604962644294 
2081	 0.391807072120249 
2082	 0.391993439417156 
2083	 0.392154701020445 
2084	 0.392315560571901 
2085	 0.392482352454352 
2086	 0.39265043906829 
2087	 0.392796705855886 
2088	 0.392924291691259 
2089	 0.393083235863592 
2090	 0.393230214342814 
2091	 0.393401208835907 
2092	 0.393615582080954 
2093	 0.393809827246591 
2094	 0.394004211990128 
2095	 0.394188686320229 
2096	 0.394376818600416 
2097	 0.394553270715736 
2098	 0.394720666599171 
2099	 0.394872887389191 
2100	 0.395023497875774 
2101	 0.395162292362307 
2102	 0.395309164773969 
2103	 0.395443713597963 
2104	 0.395603897884781 
2105	 0.395767224345803 
2106	 0.395955838053988 
2107	 0.396161529507992 
2108	 0.396383208994344 
2109	 0.396653182645453 
2110	 0.396887303198547 
2111	 0.397119440499538 
2112	 0.397345615273385 
2113	 0.397551193202833 
2114	 0.397753041913628 
2115	 0.397965555709276 
2116	 0.3981953679074 
2117	 0.398392823378573 
2118	 0.398567365485479 
2119	 0.398769937049652 
2120	 0.398959649655384 
2121	 0.399175574737667 
2122	 0.399434957618556 
2123	 0.399660655788822 
2124	 0.399890612225971 
2125	 0.400096205307393 
2126	 0.400295917568892 
2127	 0.400466142728917 
2128	 0.400618225691516 
2129	 0.400742091128093 
2130	 0.400830707098313 
2131	 0.400903422661212 
2132	 0.400965825390588 
2133	 0.401004170586647 
2134	 0.401038439026888 
2135	 0.40106663407219 
2136	 0.401075333680289 
2137	 0.40106996377538 
2138	 0.401049592877246 
2139	 0.401001023755784 
2140	 0.400962586481636 
2141	 0.400934376043519 
2142	 0.400868487452135 
2143	 0.400786631623967 
2144	 0.400698698503151 
2145	 0.400571929971162 
2146	 0.400450204676177 
2147	 0.400336434921462 
2148	 0.400224269136685 
2149	 0.400064870254157 
2150	 0.399879878203181 
2151	 0.399686419202034 
2152	 0.399461073564045 
2153	 0.39923054049932 
2154	 0.398987037753092 
2155	 0.398744410116727 
2156	 0.398499766829645 
2157	 0.39822731342846 
2158	 0.397951324439483 
2159	 0.397649755071345 
2160	 0.39729370910945 
2161	 0.396962893627991 
2162	 0.396629181998935 
2163	 0.396302662930825 
2164	 0.395971118850728 
2165	 0.395670045705915 
2166	 0.395358102615191 
2167	 0.395050917636656 
2168	 0.394735949494661 
2169	 0.39442550751933 
2170	 0.394101705334206 
2171	 0.393776911425388 
2172	 0.393429340644567 
2173	 0.393067763593783 
2174	 0.392698446821271 
2175	 0.392302338057775 
2176	 0.391918091944407 
2177	 0.391529801324981 
2178	 0.391146015025651 
2179	 0.390763866237054 
2180	 0.390382244813994 
2181	 0.389992480503523 
2182	 0.389620336733837 
2183	 0.389264046096704 
2184	 0.388906313746714 
2185	 0.388535734071298 
2186	 0.38816049380341 
2187	 0.387804848762604 
2188	 0.387436703700931 
2189	 0.387095371894492 
2190	 0.386788221149397 
2191	 0.386470917575744 
2192	 0.386148766989953 
2193	 0.385841167972886 
2194	 0.385536219302755 
2195	 0.385254334844418 
2196	 0.384981526457628 
2197	 0.384733187454969 
2198	 0.384514373730263 
2199	 0.38430360656424 
2200	 0.384098898510556 
2201	 0.383920220908701 
2202	 0.383753797957527 
2203	 0.383606776365025 
2204	 0.383518662791993 
2205	 0.383484540360983 
2206	 0.383448743794251 
2207	 0.383457368681321 
2208	 0.3834586985656 
2209	 0.383446624827019 
2210	 0.383488329160809 
2211	 0.383569844943075 
2212	 0.383652328722124 
2213	 0.383783745324499 
2214	 0.383879741449144 
2215	 0.383964286069644 
2216	 0.384054657212299 
2217	 0.384140498451356 
2218	 0.384221104474069 
2219	 0.384298479477945 
2220	 0.38438291776748 
2221	 0.384452000426463 
2222	 0.38455170038282 
2223	 0.384634531920948 
2224	 0.384713023647905 
2225	 0.384772630756814 
2226	 0.384828585593429 
2227	 0.384818535148956 
2228	 0.384784820441977 
2229	 0.384716015605136 
2230	 0.384552969437301 
2231	 0.384470653207978 
2232	 0.384401497059444 
2233	 0.3843321439077 
2234	 0.384297596686871 
2235	 0.384242417875482 
2236	 0.38416769051593 
2237	 0.384108993120632 
2238	 0.384048608960701 
2239	 0.384001139057135 
2240	 0.383976704385558 
2241	 0.38393925546622 
2242	 0.383915226425561 
2243	 0.383871881709853 
2244	 0.383836848206944 
2245	 0.383740440491029 
2246	 0.383654837775403 
2247	 0.383572058764447 
2248	 0.383484829463689 
2249	 0.383386132939582 
2250	 0.383312511711584 
2251	 0.383256165795313 
2252	 0.383174153824067 
2253	 0.383096087018108 
2254	 0.383010608059614 
2255	 0.382878143493852 
2256	 0.382809840168565 
2257	 0.382775388531059 
2258	 0.382742341371548 
2259	 0.382748125970266 
2260	 0.382734538260073 
2261	 0.382684237559283 
2262	 0.38270228158585 
2263	 0.382762089713327 
2264	 0.382815155933359 
2265	 0.382907415575339 
2266	 0.382999609966188 
2267	 0.383098475665818 
2268	 0.383180647802709 
2269	 0.383267883966941 
2270	 0.383361750634484 
2271	 0.383437770885776 
2272	 0.383499328481776 
2273	 0.383556582547862 
2274	 0.383622750293054 
2275	 0.383667299977184 
2276	 0.383665918234149 
2277	 0.383726492838916 
2278	 0.383822949762961 
2279	 0.383880713321273 
2280	 0.38394744366682 
2281	 0.384009503467668 
2282	 0.384035788315826 
2283	 0.384093440290217 
2284	 0.384190907046751 
2285	 0.384260003809634 
2286	 0.384309566584914 
2287	 0.384372025239715 
2288	 0.38442715648328 
2289	 0.384492465439947 
2290	 0.384576242406902 
2291	 0.384653281955981 
2292	 0.384739143365551 
2293	 0.384810191285089 
2294	 0.384860782277499 
2295	 0.384930816877645 
2296	 0.384992404853316 
2297	 0.385073926775916 
2298	 0.385181831485455 
2299	 0.385281227531158 
2300	 0.385402646206204 
2301	 0.385486269989934 
2302	 0.385570684523936 
2303	 0.385653767997319 
2304	 0.385706635560981 
2305	 0.385801426573536 
2306	 0.385873884848221 
2307	 0.385943936484012 
2308	 0.386000087537258 
2309	 0.386058164552696 
2310	 0.386085380605719 
2311	 0.386093131207886 
2312	 0.386092523601919 
2313	 0.386047582320469 
2314	 0.386033011843311 
2315	 0.386020988364501 
2316	 0.386026259946542 
2317	 0.386037989596618 
2318	 0.38609069477975 
2319	 0.386178270788281 
2320	 0.386257161167951 
2321	 0.386362803576725 
2322	 0.386455768962664 
2323	 0.386567675037106 
2324	 0.386626756252649 
2325	 0.38666352825165 
2326	 0.386697453347157 
2327	 0.386688313176846 
2328	 0.386674941773328 
2329	 0.386684802879908 
2330	 0.386744752566454 
2331	 0.38684302369849 
2332	 0.386892994748065 
2333	 0.386981805172632 
2334	 0.387053724243462 
2335	 0.387007849065661 
2336	 0.387062762744523 
2337	 0.387138617209235 
2338	 0.387130688496954 
2339	 0.387178911301692 
2340	 0.387183618667923 
2341	 0.387131067125445 
2342	 0.387091823751171 
2343	 0.387031972708135 
2344	 0.386957130332823 
2345	 0.386860694630612 
2346	 0.386697787712981 
2347	 0.386608786681883 
2348	 0.386546990726525 
2349	 0.386485820591637 
2350	 0.386497742577806 
2351	 0.386430001785915 
2352	 0.386325874788166 
2353	 0.386178237725566 
2354	 0.38591770223972 
2355	 0.385775509510839 
2356	 0.385662514581316 
2357	 0.385569599421637 
2358	 0.385574861031856 
2359	 0.385526555193898 
2360	 0.385481869990142 
2361	 0.385375444326449 
2362	 0.38523655007947 
2363	 0.385083454713436 
2364	 0.384812711289595 
2365	 0.384639165915206 
2366	 0.384539960554609 
2367	 0.384403591204069 
2368	 0.384291556573931 
2369	 0.38419401063168 
2370	 0.384115522334305 
2371	 0.383958888040059 
2372	 0.3837947530975 
2373	 0.383640868080046 
2374	 0.383470073239579 
2375	 0.38327064175362 
2376	 0.383126784106274 
2377	 0.382947727739971 
2378	 0.382704215220609 
2379	 0.382467577238521 
2380	 0.382204653601324 
2381	 0.381968216241051 
2382	 0.381724472295221 
2383	 0.381489400928566 
2384	 0.381309373620344 
2385	 0.381083039197852 
2386	 0.380820987542957 
2387	 0.380570183114001 
2388	 0.380308482056805 
2389	 0.380083228176495 
2390	 0.379910051758936 
2391	 0.379752499200277 
2392	 0.379607262267786 
2393	 0.379412121977939 
2394	 0.379169695256553 
2395	 0.378913396213571 
2396	 0.378642031852684 
2397	 0.378412296448234 
2398	 0.378197955344692 
2399	 0.377876988691313 
2400	 0.377501663076265 
2401	 0.377172236474319 
2402	 0.376781708089596 
2403	 0.376493563244246 
2404	 0.376335206610393 
2405	 0.376039854307534 
2406	 0.375763997805395 
2407	 0.375505799741213 
2408	 0.37514778799767 
2409	 0.374811200152257 
2410	 0.374523191537381 
2411	 0.374251200619975 
2412	 0.37394392139609 
2413	 0.373605578195949 
2414	 0.373258559244045 
2415	 0.372888146389621 
2416	 0.372572989685148 
2417	 0.37232864325847 
2418	 0.372072275935476 
2419	 0.371839823978797 
2420	 0.371572075275053 
2421	 0.371283381415711 
2422	 0.370966942353098 
2423	 0.370661873463111 
2424	 0.37032982240309 
2425	 0.369916106979689 
2426	 0.369632684737914 
2427	 0.36940666610965 
2428	 0.369088625653168 
2429	 0.368796979593651 
2430	 0.368522561862136 
2431	 0.368186428778108 
2432	 0.367888041339597 
2433	 0.367682046141432 
2434	 0.36746416028326 
2435	 0.367215103281263 
2436	 0.366919935737513 
2437	 0.366662506877293 
2438	 0.366284586841925 
2439	 0.365739542285061 
2440	 0.365376639436973 
2441	 0.365006996691443 
2442	 0.364747956414925 
2443	 0.364708229142164 
2444	 0.364517859640174 
2445	 0.364298954601006 
2446	 0.364124500153596 
2447	 0.363883390968562 
2448	 0.363613526865166 
2449	 0.363433306137187 
2450	 0.36314734318622 
2451	 0.362727269604947 
2452	 0.362399806841351 
2453	 0.36212779819201 
2454	 0.361765604172464 
2455	 0.361324631698197 
2456	 0.360947339678341 
2457	 0.360527688805583 
2458	 0.360205820850705 
2459	 0.360027422796215 
2460	 0.359746156591344 
2461	 0.359419241335368 
2462	 0.359173307655332 
2463	 0.358923049928227 
2464	 0.358673831769922 
2465	 0.358565725826664 
2466	 0.358206494433278 
2467	 0.357601680038171 
2468	 0.35724020473991 
2469	 0.356920258880976 
2470	 0.356843281132625 
2471	 0.356688181953997 
2472	 0.356599003339808 
2473	 0.356257365487822 
2474	 0.355828714547281 
2475	 0.355673952651059 
2476	 0.355500876602695 
2477	 0.355396082145818 
2478	 0.355360881666016 
2479	 0.354994980306194 
2480	 0.354574395785455 
2481	 0.354242488463103 
2482	 0.353843232478185 
2483	 0.353704465011254 
2484	 0.353702013823223 
2485	 0.353571541125554 
2486	 0.353259235973997 
2487	 0.352994249113961 
2488	 0.352726074215612 
2489	 0.352356620729232 
2490	 0.35229889038295 
2491	 0.352043118383039 
2492	 0.351646583812307 
2493	 0.351469614864662 
2494	 0.351237743129386 
2495	 0.351099496162411 
2496	 0.351063060917236 
2497	 0.350930637290843 
2498	 0.350750504487427 
2499	 0.35061929071553 
2500	 0.35034361857404 
