Wavelength	LMW200009.asd
350	 7.26478562226303E-02 
351	 7.17846114620026E-02 
352	 7.14359748329465E-02 
353	 7.24496270659102E-02 
354	 7.80956577996718E-02 
355	 0.079074713321062 
356	 7.60165927567213E-02 
357	 7.22631129106605E-02 
358	 0.069554172598385 
359	 6.99790701159545E-02 
360	 7.25420612825057E-02 
361	 0.073935954267542 
362	 6.77727954297938E-02 
363	 6.60894169561992E-02 
364	 7.19778131824309E-02 
365	 0.071592507363786 
366	 7.03280181797053E-02 
367	 7.11425683592196E-02 
368	 7.47750561127823E-02 
369	 7.63443369211972E-02 
370	 7.27678108976814E-02 
371	 0.069450876651459 
372	 7.56855152502826E-02 
373	 7.63678816902394E-02 
374	 7.64667238207499E-02 
375	 7.85415364409203E-02 
376	 7.62215420626365E-02 
377	 7.49697652424818E-02 
378	 7.49451561207098E-02 
379	 7.50958477729611E-02 
380	 7.65282363915407E-02 
381	 7.72947014700298E-02 
382	 7.76438822209285E-02 
383	 7.93220281717613E-02 
384	 8.03172670895982E-02 
385	 7.95015409299377E-02 
386	 7.78536743400626E-02 
387	 8.00839872784026E-02 
388	 8.23117628267011E-02 
389	 8.29751211744563E-02 
390	 8.19034417964287E-02 
391	 8.11307792689452E-02 
392	 8.20833475985003E-02 
393	 8.42137222965216E-02 
394	 8.54503528475458E-02 
395	 8.64353348243301E-02 
396	 8.75546951315792E-02 
397	 8.85559836371407E-02 
398	 8.76370565546067E-02 
399	 8.83199524038943E-02 
400	 9.01450167892714E-02 
401	 9.12242649029461E-02 
402	 9.07822285922988E-02 
403	 9.13498446206819E-02 
404	 9.28765233688291E-02 
405	 9.26689178861665E-02 
406	 9.35579993976515E-02 
407	 9.50086129091352E-02 
408	 9.59041433620126E-02 
409	 9.52723023245252E-02 
410	 9.49263944483516E-02 
411	 9.53993283304039E-02 
412	 9.65124408242745E-02 
413	 9.81897183224782E-02 
414	 9.90006759475073E-02 
415	 0.09874167305859 
416	 9.88234350244209E-02 
417	 9.90969715220473E-02 
418	 9.97568131568684E-02 
419	 0.100637303196024 
420	 0.100230160683184 
421	 9.96239567659727E-02 
422	 9.98198980543388E-02 
423	 0.101379307708299 
424	 0.10129312209444 
425	 0.100409428981722 
426	 9.97949923777162E-02 
427	 9.99908658564288E-02 
428	 9.98338058275165E-02 
429	 9.95020086443179E-02 
430	 9.94351611573271E-02 
431	 9.89988311456832E-02 
432	 9.86107403767424E-02 
433	 9.85188577234487E-02 
434	 9.87410653883572E-02 
435	 9.88932097430534E-02 
436	 9.88901673626329E-02 
437	 9.87078937766437E-02 
438	 0.09817541136726 
439	 9.82689120074417E-02 
440	 9.88592606301542E-02 
441	 9.92597803728769E-02 
442	 0.099288085822881 
443	 9.95667931542774E-02 
444	 0.100251735891808 
445	 0.100695317897015 
446	 0.101060923079283 
447	 0.101536188949399 
448	 0.102143019752281 
449	 0.102087659203548 
450	 0.102305664362233 
451	 0.102972642632654 
452	 0.10357394227963 
453	 0.10403490118989 
454	 0.104392122588267 
455	 0.104698545611268 
456	 0.104955840762113 
457	 0.10522153079445 
458	 0.105481510734977 
459	 0.105688706716296 
460	 0.105826903523358 
461	 0.106048188091371 
462	 0.106313105444206 
463	 0.106289754796 
464	 0.10656930167184 
465	 0.106972614907441 
466	 0.107187460480815 
467	 0.107286164659048 
468	 0.107518963574792 
469	 0.107726729387802 
470	 0.107485376121685 
471	 0.10770735246957 
472	 0.108008299467663 
473	 0.107993003350084 
474	 0.107689197011873 
475	 0.107906792793448 
476	 0.108363189839272 
477	 0.108394102324112 
478	 0.108590547148976 
479	 0.108612746507155 
480	 0.108469062686976 
481	 0.108751427393777 
482	 0.108892735253484 
483	 0.108950683019615 
484	 0.10908852862533 
485	 0.109158517287319 
486	 0.109262959112238 
487	 0.109360043037648 
488	 0.109310371152707 
489	 0.109522568219107 
490	 0.109680155087438 
491	 0.109602125242519 
492	 0.109763964401393 
493	 0.109823566725991 
494	 0.109835348439993 
495	 0.110000480742894 
496	 0.110141891244205 
497	 0.110277155353379 
498	 0.110416277857676 
499	 0.110529637710968 
500	 0.110652197381155 
501	 0.110766931331334 
502	 0.110833805792052 
503	 0.110771359710652 
504	 0.11076548979203 
505	 0.110830067695725 
506	 0.11082628767448 
507	 0.111004851995105 
508	 0.111213866925817 
509	 0.111301669338177 
510	 0.11131935832248 
511	 0.111367945834062 
512	 0.111427485937818 
513	 0.11143183248962 
514	 0.111548153934723 
515	 0.111720071889882 
516	 0.111862792824541 
517	 0.111879939111736 
518	 0.111954934812161 
519	 0.112007121412021 
520	 0.111944752294581 
521	 0.112101701960151 
522	 0.11221673186347 
523	 0.112238719752842 
524	 0.112365696653017 
525	 0.112435481066819 
526	 0.112506284025371 
527	 0.112629546743981 
528	 0.112680035497804 
529	 0.112724216673189 
530	 0.112788396227332 
531	 0.112869947907486 
532	 0.112953613258524 
533	 0.113093369728529 
534	 0.113265884895722 
535	 0.113246240422906 
536	 0.113339118898276 
537	 0.113505175212495 
538	 0.113590720003014 
539	 0.113679043842463 
540	 0.1137499495378 
541	 0.11381504548934 
542	 0.113935750875418 
543	 0.114118888532527 
544	 0.114313184199368 
545	 0.114465191269871 
546	 0.114590904645021 
547	 0.11467709699947 
548	 0.114764696832835 
549	 0.114933594924721 
550	 0.115095131438709 
551	 0.115276967977488 
552	 0.115505040085474 
553	 0.115748671112098 
554	 0.11599621699629 
555	 0.116223542281968 
556	 0.116414217868271 
557	 0.116671371379297 
558	 0.116935139388807 
559	 0.117183437462118 
560	 0.117498098429059 
561	 0.117774370953697 
562	 0.118073981852627 
563	 0.118479651765574 
564	 0.11886305631342 
565	 0.119216577547604 
566	 0.119567950183286 
567	 0.119975515969539 
568	 0.120458672680628 
569	 0.121007519210837 
570	 0.121580283863995 
571	 0.122057708450184 
572	 0.122598997139986 
573	 0.123207046014064 
574	 0.123773182657948 
575	 0.124314177245932 
576	 0.124913114883015 
577	 0.125590295043744 
578	 0.126201161072067 
579	 0.12685473852445 
580	 0.127572969289903 
581	 0.128332246725051 
582	 0.129056391668767 
583	 0.12980139936564 
584	 0.130601983617018 
585	 0.131451531604583 
586	 0.132242667166175 
587	 0.133003962636721 
588	 0.133800042867341 
589	 0.134654895925031 
590	 0.135503580374362 
591	 0.136327547909043 
592	 0.137156523927143 
593	 0.138011176260218 
594	 0.138878517066487 
595	 0.139738220033963 
596	 0.140574557270287 
597	 0.141423609137693 
598	 0.14226368921146 
599	 0.143054688138419 
600	 0.143868347926833 
601	 0.144677466961876 
602	 0.145450292874618 
603	 0.146171256983719 
604	 0.146843248520215 
605	 0.147502289948655 
606	 0.148185615268966 
607	 0.14886384643978 
608	 0.149524060738108 
609	 0.150157885942569 
610	 0.150762853626293 
611	 0.151364658790023 
612	 0.151935295258602 
613	 0.152453626966182 
614	 0.152978994662335 
615	 0.153454013217108 
616	 0.153875607613488 
617	 0.154277530484699 
618	 0.1546609605229 
619	 0.15501451950164 
620	 0.155347400390758 
621	 0.155723904886493 
622	 0.156039913657955 
623	 0.15633735412931 
624	 0.156695075587757 
625	 0.157009381649229 
626	 0.1572780389934 
627	 0.15752066357971 
628	 0.157772808047322 
629	 0.158090831159591 
630	 0.158395346233204 
631	 0.158612038332287 
632	 0.158844505444444 
633	 0.159055404168957 
634	 0.159268135864299 
635	 0.15954935413303 
636	 0.15979678376412 
637	 0.160043844264055 
638	 0.160301468576961 
639	 0.160456336606353 
640	 0.16064400289956 
641	 0.160878251327558 
642	 0.161119422644366 
643	 0.161401516948731 
644	 0.161652938401798 
645	 0.16186141542463 
646	 0.162112420722991 
647	 0.162370952161572 
648	 0.162631669016802 
649	 0.162895935932345 
650	 0.163162705088606 
651	 0.163430466918984 
652	 0.16369835599125 
653	 0.163967385799232 
654	 0.164263332434506 
655	 0.164532926793567 
656	 0.16476135267887 
657	 0.165059445181765 
658	 0.165413786702659 
659	 0.165767596212592 
660	 0.166052916930325 
661	 0.166320640305643 
662	 0.166626728057361 
663	 0.166977915571697 
664	 0.167309360917241 
665	 0.16768104227838 
666	 0.168065474305131 
667	 0.168422075003299 
668	 0.168751148609161 
669	 0.169147590619402 
670	 0.169580676661125 
671	 0.16992401397592 
672	 0.17033455235182 
673	 0.170782815817888 
674	 0.171218561721424 
675	 0.171616955073673 
676	 0.172043761762573 
677	 0.172492520524092 
678	 0.172931953950645 
679	 0.173406540805185 
680	 0.173872472963324 
681	 0.174325257111133 
682	 0.174822185979637 
683	 0.175268386482074 
684	 0.175741442302147 
685	 0.176307671237172 
686	 0.17683175220193 
687	 0.177329102806373 
688	 0.177827513015352 
689	 0.178360720215624 
690	 0.178925112252145 
691	 0.17948058146669 
692	 0.180016103134511 
693	 0.180594993046623 
694	 0.181121013377929 
695	 0.181645395499476 
696	 0.182251867967171 
697	 0.182880964416783 
698	 0.183494290761921 
699	 0.184079302260912 
700	 0.184650091701697 
701	 0.18525088147153 
702	 0.185863785698707 
703	 0.186463501293798 
704	 0.187046827881318 
705	 0.187617387139125 
706	 0.188208652101467 
707	 0.188851336161943 
708	 0.189425046855645 
709	 0.190008751183722 
710	 0.190643595455877 
711	 0.191288922691856 
712	 0.191858413839719 
713	 0.192402933469082 
714	 0.192985604811354 
715	 0.193540183890486 
716	 0.194132266657981 
717	 0.194747833688776 
718	 0.195314179927294 
719	 0.195823285214115 
720	 0.196321544940358 
721	 0.196828569058328 
722	 0.197288021697835 
723	 0.197835563104113 
724	 0.198385958527584 
725	 0.198816918529648 
726	 0.199234180970037 
727	 0.199645863260663 
728	 0.200054977274193 
729	 0.200461446351695 
730	 0.200861759737442 
731	 0.201207521445509 
732	 0.201489937093546 
733	 0.201816452697089 
734	 0.202080781449631 
735	 0.202308544713745 
736	 0.202564651766785 
737	 0.202792949670366 
738	 0.203023143885558 
739	 0.203223912430568 
740	 0.203299002275523 
741	 0.203441039746341 
742	 0.203575603525065 
743	 0.203622146279434 
744	 0.203645727469089 
745	 0.203635792997351 
746	 0.203632860458898 
747	 0.203668674551373 
748	 0.203543109914102 
749	 0.203461647563682 
750	 0.203443293562901 
751	 0.203245793679231 
752	 0.203118136920255 
753	 0.20300382254024 
754	 0.202824882638709 
755	 0.202656278824214 
756	 0.202464984757531 
757	 0.202231407763284 
758	 0.201952043365838 
759	 0.201680844181172 
760	 0.201398185669587 
761	 0.201091921652996 
762	 0.200768353072375 
763	 0.200456819129109 
764	 0.200128932272625 
765	 0.199773671493298 
766	 0.199478075768098 
767	 0.199136455924915 
768	 0.198738778255209 
769	 0.198329835973307 
770	 0.197949867735314 
771	 0.197592671713201 
772	 0.197228960869157 
773	 0.196811405186922 
774	 0.196414307795944 
775	 0.195998740400984 
776	 0.195546684713698 
777	 0.195171969378828 
778	 0.194778412671087 
779	 0.194345265094599 
780	 0.193895437521203 
781	 0.193484993066702 
782	 0.193072896011538 
783	 0.19262847417415 
784	 0.192147624312324 
785	 0.191747821651577 
786	 0.191379576359547 
787	 0.1909799139262 
788	 0.190530498977473 
789	 0.190117030795141 
790	 0.189723679559308 
791	 0.189305897132997 
792	 0.188898950904672 
793	 0.188498510566977 
794	 0.188100991681611 
795	 0.187706833514032 
796	 0.187331593725383 
797	 0.186947009716669 
798	 0.186535442501939 
799	 0.186105829487835 
800	 0.185764495182513 
801	 0.185451158258375 
802	 0.185072203588561 
803	 0.184618250520548 
804	 0.184249635041463 
805	 0.183957581375824 
806	 0.183630429345778 
807	 0.183310020435218 
808	 0.182957019652396 
809	 0.182579633175631 
810	 0.182252267219485 
811	 0.181939678150699 
812	 0.181641193199648 
813	 0.181360672985799 
814	 0.181104080183284 
815	 0.180798571096436 
816	 0.180452138376328 
817	 0.180117027344419 
818	 0.179859679790486 
819	 0.179628005082021 
820	 0.179383429762288 
821	 0.179111548419418 
822	 0.178848342670326 
823	 0.178632004073391 
824	 0.178438959230657 
825	 0.178147301232317 
826	 0.17793982034023 
827	 0.177755899684606 
828	 0.177511217326842 
829	 0.17726499225047 
830	 0.177072332939933 
831	 0.176876697983542 
832	 0.176609422918055 
833	 0.17649706149012 
834	 0.176382544550956 
835	 0.176205017665766 
836	 0.176022895203359 
837	 0.175849260606753 
838	 0.175695852876032 
839	 0.175555424590156 
840	 0.175392217394953 
841	 0.17525704746447 
842	 0.175138887544699 
843	 0.175019614542074 
844	 0.174917127639869 
845	 0.174825046794483 
846	 0.174721752232881 
847	 0.174594500992581 
848	 0.174517445624938 
849	 0.174438832793217 
850	 0.174339138763911 
851	 0.174238687867615 
852	 0.174195502808341 
853	 0.174169939678746 
854	 0.174128127764577 
855	 0.174068340958606 
856	 0.174055884582947 
857	 0.174017057469099 
858	 0.17391169514412 
859	 0.173863488089675 
860	 0.173878336100882 
861	 0.173904871920508 
862	 0.173895372342273 
863	 0.173938605861878 
864	 0.173924490051148 
865	 0.173893811114752 
866	 0.173953053426396 
867	 0.173936068263781 
868	 0.173971919987011 
869	 0.174056070724087 
870	 0.174038149095514 
871	 0.174050729048712 
872	 0.174095393412533 
873	 0.174162372464261 
874	 0.174258063058057 
875	 0.174391360428162 
876	 0.174465210865871 
877	 0.17444716541523 
878	 0.174529435060093 
879	 0.174680801641726 
880	 0.174818407322889 
881	 0.174884356439883 
882	 0.17501942625816 
883	 0.175150381020297 
884	 0.17524508291471 
885	 0.175312496620867 
886	 0.175423234905 
887	 0.175622227006747 
888	 0.175840584373669 
889	 0.17594425473459 
890	 0.176115195058442 
891	 0.176282121859038 
892	 0.176437390957037 
893	 0.176679772156078 
894	 0.176790003900282 
895	 0.176946979849068 
896	 0.177236467216874 
897	 0.177438966542583 
898	 0.177705259208793 
899	 0.177949706544215 
900	 0.178115901293596 
901	 0.178381840392636 
902	 0.178655727518069 
903	 0.178926442681463 
904	 0.179200570142431 
905	 0.179453591026375 
906	 0.179688115994318 
907	 0.179928192918683 
908	 0.180202487272419 
909	 0.180510579212078 
910	 0.180806073769453 
911	 0.181079261619398 
912	 0.181360793309075 
913	 0.181762701223867 
914	 0.18209661060748 
915	 0.182384668752658 
916	 0.182825580487998 
917	 0.183210381356256 
918	 0.183569054354248 
919	 0.183919632049965 
920	 0.184235685778332 
921	 0.184591791571253 
922	 0.184968609631753 
923	 0.18536178113083 
924	 0.185809821610691 
925	 0.186224215573566 
926	 0.186671010571748 
927	 0.187151865158467 
928	 0.187493347901633 
929	 0.18800371919394 
930	 0.188528095287074 
931	 0.188935440733208 
932	 0.18943446891237 
933	 0.189952986122598 
934	 0.190463568865699 
935	 0.19093912980311 
936	 0.191309123732331 
937	 0.191795055976236 
938	 0.192334271666084 
939	 0.192831793427184 
940	 0.193453929922951 
941	 0.194059183325093 
942	 0.194653836874629 
943	 0.195283947741071 
944	 0.19589787879326 
945	 0.19648529769315 
946	 0.197037647242633 
947	 0.197563523416654 
948	 0.198132899625285 
949	 0.198700229872015 
950	 0.199315908302581 
951	 0.200045653420294 
952	 0.20078249286784 
953	 0.201500347124082 
954	 0.202136371323781 
955	 0.202664255461041 
956	 0.203322262830276 
957	 0.204060950326719 
958	 0.204769248323214 
959	 0.205369534107081 
960	 0.206096272485632 
961	 0.206907301594555 
962	 0.207722553869165 
963	 0.208470602049839 
964	 0.209220234843957 
965	 0.20991397597846 
966	 0.21063099069658 
967	 0.211492208438704 
968	 0.212275176362535 
969	 0.213018082872207 
970	 0.213765332132713 
971	 0.214547060481883 
972	 0.215379243258197 
973	 0.216165645515645 
974	 0.216986096113507 
975	 0.217981701466611 
976	 0.218920141021975 
977	 0.219704695549404 
978	 0.220407578178994 
979	 0.221188213913376 
980	 0.22205326216036 
981	 0.222875107569224 
982	 0.223662643896218 
983	 0.224502295823426 
984	 0.22533806039027 
985	 0.226352460005734 
986	 0.227376206621416 
987	 0.228143931583286 
988	 0.228985277029829 
989	 0.229932418133755 
990	 0.230843308879388 
991	 0.231602228060756 
992	 0.232618207727179 
993	 0.23344525513413 
994	 0.2342942035784 
995	 0.235452168175058 
996	 0.236199810242926 
997	 0.237008382559896 
998	 0.237940264101373 
999	 0.238873583833278 
1000	 0.239713986466644 
1001	 0.241961990721729 
1002	 0.242775143131693 
1003	 0.243616881558035 
1004	 0.244479696988606 
1005	 0.245408573213622 
1006	 0.246273530121266 
1007	 0.247133832827063 
1008	 0.247981887175236 
1009	 0.248722747100526 
1010	 0.249489331537893 
1011	 0.250343055081593 
1012	 0.251165561000017 
1013	 0.252003321440649 
1014	 0.252822213336669 
1015	 0.253589723794273 
1016	 0.254386092183161 
1017	 0.255154893489503 
1018	 0.255908883375778 
1019	 0.256666318884471 
1020	 0.257446534108426 
1021	 0.258176943567128 
1022	 0.258926264090158 
1023	 0.25968442016762 
1024	 0.260436718475512 
1025	 0.261169101070251 
1026	 0.261837497429483 
1027	 0.262494958075017 
1028	 0.26316460695916 
1029	 0.263873258194498 
1030	 0.264593301642441 
1031	 0.265278404377626 
1032	 0.26598711764424 
1033	 0.266647811795893 
1034	 0.267266887782231 
1035	 0.267927862731254 
1036	 0.268606822363992 
1037	 0.269282548630404 
1038	 0.269935777330667 
1039	 0.270534361055277 
1040	 0.271143995544591 
1041	 0.271808819181742 
1042	 0.272466681153427 
1043	 0.273080208911859 
1044	 0.273706048938461 
1045	 0.274342889635245 
1046	 0.274956347664621 
1047	 0.27549870603458 
1048	 0.276072453263706 
1049	 0.276707671213769 
1050	 0.277347229409857 
1051	 0.278002857019391 
1052	 0.278655462929188 
1053	 0.279270141710508 
1054	 0.279839750070443 
1055	 0.280438545454479 
1056	 0.281084710873672 
1057	 0.281679929056408 
1058	 0.282240947886485 
1059	 0.282816674492709 
1060	 0.283373709487922 
1061	 0.283914507215927 
1062	 0.284514103235197 
1063	 0.285116841884454 
1064	 0.285701353685603 
1065	 0.286312515660109 
1066	 0.286904968318336 
1067	 0.287460423953125 
1068	 0.288012862710624 
1069	 0.288580996580665 
1070	 0.28914313324056 
1071	 0.289689907506387 
1072	 0.290273018427755 
1073	 0.29087228670663 
1074	 0.291452264958113 
1075	 0.292042570928298 
1076	 0.292629680056383 
1077	 0.293199338941922 
1078	 0.293756368196159 
1079	 0.294280789432162 
1080	 0.294776564540325 
1081	 0.295226808839484 
1082	 0.295691345633662 
1083	 0.296198920761048 
1084	 0.29671311271868 
1085	 0.297266134110406 
1086	 0.297900996670409 
1087	 0.298468152196974 
1088	 0.299035318103843 
1089	 0.299569636263994 
1090	 0.300044454772009 
1091	 0.300533377933754 
1092	 0.301058900066249 
1093	 0.301640763133198 
1094	 0.302279994035022 
1095	 0.302826660169006 
1096	 0.303349362000922 
1097	 0.30390112962064 
1098	 0.304457958135395 
1099	 0.305033214640928 
1100	 0.305596945235901 
1101	 0.306145629972247 
1102	 0.30671503736599 
1103	 0.307293523003871 
1104	 0.307862248515513 
1105	 0.308428586006972 
1106	 0.309016737691936 
1107	 0.309582178677855 
1108	 0.31014879657077 
1109	 0.310700629189161 
1110	 0.311270881947012 
1111	 0.311855517231204 
1112	 0.312423473336436 
1113	 0.313016114139074 
1114	 0.313663798773661 
1115	 0.314273706515968 
1116	 0.314874178143149 
1117	 0.315475779570075 
1118	 0.316073680509698 
1119	 0.316651521172209 
1120	 0.317265946833012 
1121	 0.317842461298455 
1122	 0.318425279528348 
1123	 0.319035758022705 
1124	 0.319636157087544 
1125	 0.320231591498668 
1126	 0.320848398680498 
1127	 0.321481741409966 
1128	 0.322088545484541 
1129	 0.322696714144889 
1130	 0.323293429298977 
1131	 0.323885861418769 
1132	 0.324461746467736 
1133	 0.325017387641044 
1134	 0.325580981356961 
1135	 0.326143057449765 
1136	 0.326674437900293 
1137	 0.327213694509666 
1138	 0.327793209695343 
1139	 0.328367390051032 
1140	 0.328951572270786 
1141	 0.329514117986616 
1142	 0.330091989173418 
1143	 0.330635470034255 
1144	 0.331137931726712 
1145	 0.331663077711139 
1146	 0.332184118141472 
1147	 0.332708950314407 
1148	 0.333238169506241 
1149	 0.333766916144608 
1150	 0.334301654032224 
1151	 0.33483466085814 
1152	 0.335342010537572 
1153	 0.335853880406344 
1154	 0.336349396681989 
1155	 0.336814712926425 
1156	 0.337308948836008 
1157	 0.337823189558674 
1158	 0.338303403222893 
1159	 0.33878467576559 
1160	 0.339251446715702 
1161	 0.339677106621335 
1162	 0.340134860308304 
1163	 0.340612486892238 
1164	 0.341074626562637 
1165	 0.341550302839727 
1166	 0.342001443614522 
1167	 0.342445786276841 
1168	 0.342897709991068 
1169	 0.343328381908486 
1170	 0.34375210829647 
1171	 0.344169169218546 
1172	 0.344565306818124 
1173	 0.344974434329757 
1174	 0.345399739787309 
1175	 0.345795874675199 
1176	 0.346182619817379 
1177	 0.346561401074659 
1178	 0.346908658789337 
1179	 0.347275633383283 
1180	 0.347664475151687 
1181	 0.348028051353582 
1182	 0.348380317639448 
1183	 0.348737236068521 
1184	 0.349083706105299 
1185	 0.349406071255394 
1186	 0.349751162356316 
1187	 0.350110969821797 
1188	 0.350455408087909 
1189	 0.350810541223378 
1190	 0.351134912189389 
1191	 0.351438621434007 
1192	 0.351743560616439 
1193	 0.352033668690395 
1194	 0.352321181185243 
1195	 0.352605875362887 
1196	 0.352887063073263 
1197	 0.353162180706398 
1198	 0.353429961220061 
1199	 0.35369333148153 
1200	 0.35395178341866 
1201	 0.354218479415145 
1202	 0.354482576905644 
1203	 0.354744795870572 
1204	 0.35501711782249 
1205	 0.355276859492579 
1206	 0.355523970776792 
1207	 0.355775064323056 
1208	 0.356029610240356 
1209	 0.356276051233174 
1210	 0.356522180169684 
1211	 0.356757895420535 
1212	 0.356992235985104 
1213	 0.357210833262404 
1214	 0.357413386468282 
1215	 0.357613585407234 
1216	 0.357806473720098 
1217	 0.357980559384385 
1218	 0.358176322507867 
1219	 0.358384053774627 
1220	 0.358572578181097 
1221	 0.358759872189442 
1222	 0.358947422435154 
1223	 0.359131364012469 
1224	 0.359300048996857 
1225	 0.359455466576396 
1226	 0.359628760889915 
1227	 0.359810244207693 
1228	 0.359965962038785 
1229	 0.360116058832447 
1230	 0.360275839935932 
1231	 0.360419879121754 
1232	 0.36055898573327 
1233	 0.360700545273553 
1234	 0.36086345384071 
1235	 0.361008685211358 
1236	 0.361122163554466 
1237	 0.361275270451526 
1238	 0.361466425229478 
1239	 0.361616555692735 
1240	 0.361769196687919 
1241	 0.361901469036458 
1242	 0.361991458338438 
1243	 0.362108158584818 
1244	 0.362236577620171 
1245	 0.362353726841671 
1246	 0.362465946437152 
1247	 0.362586795814806 
1248	 0.362703088027541 
1249	 0.362824710220116 
1250	 0.362951386290092 
1251	 0.363082322358688 
1252	 0.363195450953023 
1253	 0.363296606633591 
1254	 0.363393077214415 
1255	 0.363479505277002 
1256	 0.363567772542667 
1257	 0.363641205130276 
1258	 0.363735419731587 
1259	 0.363841972414769 
1260	 0.363942109131111 
1261	 0.36406168196922 
1262	 0.364156259380199 
1263	 0.364231918230079 
1264	 0.364309718150714 
1265	 0.364370341975694 
1266	 0.364442169900203 
1267	 0.364520007255171 
1268	 0.364597473201612 
1269	 0.364675501325258 
1270	 0.364754493663067 
1271	 0.364840671534464 
1272	 0.364938928979183 
1273	 0.36501258351715 
1274	 0.365075944279313 
1275	 0.365152426244011 
1276	 0.365217521638305 
1277	 0.365287019949911 
1278	 0.365365031315642 
1279	 0.365449758761596 
1280	 0.365532244310142 
1281	 0.365617237009549 
1282	 0.365727398208274 
1283	 0.365819281525945 
1284	 0.365900178580305 
1285	 0.36597252828115 
1286	 0.366037981490278 
1287	 0.366103832283865 
1288	 0.366174939022495 
1289	 0.366249622666656 
1290	 0.366309223896114 
1291	 0.36636754523014 
1292	 0.366421907436738 
1293	 0.366463694161642 
1294	 0.366502020263478 
1295	 0.366537816159718 
1296	 0.366575962057898 
1297	 0.366605864155949 
1298	 0.36664131230651 
1299	 0.366702309804014 
1300	 0.36672662519668 
1301	 0.366719090460907 
1302	 0.366723795320549 
1303	 0.366709421877559 
1304	 0.366712983520617 
1305	 0.366720720267535 
1306	 0.366710857466648 
1307	 0.366685512277976 
1308	 0.36664575912979 
1309	 0.366626971336501 
1310	 0.366620241620567 
1311	 0.366597306691266 
1312	 0.366570964789502 
1313	 0.366553895654304 
1314	 0.366526894110818 
1315	 0.366510057518368 
1316	 0.366508739639118 
1317	 0.36650749250726 
1318	 0.36650362134886 
1319	 0.366502165515994 
1320	 0.366513419807654 
1321	 0.366517461955608 
1322	 0.366511771740398 
1323	 0.366512252713899 
1324	 0.366529145737822 
1325	 0.366547868596819 
1326	 0.36657947099356 
1327	 0.366614413311121 
1328	 0.366625151592424 
1329	 0.366642268386453 
1330	 0.366663358713265 
1331	 0.366671295289066 
1332	 0.366706353302135 
1333	 0.36676454662164 
1334	 0.366809852109473 
1335	 0.36686087645198 
1336	 0.366914132851045 
1337	 0.366958341693083 
1338	 0.36701515854804 
1339	 0.367086054867653 
1340	 0.367152711366866 
1341	 0.367221168868809 
1342	 0.367294236766724 
1343	 0.367378278901269 
1344	 0.367447160215222 
1345	 0.367507163869882 
1346	 0.367563947534765 
1347	 0.36761356180429 
1348	 0.367666435812769 
1349	 0.367731493578265 
1350	 0.367785602217119 
1351	 0.367833136632674 
1352	 0.367862547241729 
1353	 0.367919231227224 
1354	 0.367980543296256 
1355	 0.368047666130393 
1356	 0.368145044200738 
1357	 0.368211594780345 
1358	 0.368260652896203 
1359	 0.3683166842389 
1360	 0.368355516580508 
1361	 0.368410576373799 
1362	 0.368487333925336 
1363	 0.368544924135265 
1364	 0.368607747035035 
1365	 0.368656117958764 
1366	 0.368684743512612 
1367	 0.368710034507289 
1368	 0.36875619245305 
1369	 0.368782436498493 
1370	 0.368800757729393 
1371	 0.368805806201486 
1372	 0.36874580627503 
1373	 0.368678796785865 
1374	 0.368609890972653 
1375	 0.368529251207226 
1376	 0.368415557772912 
1377	 0.3682863910787 
1378	 0.368156491282901 
1379	 0.368001027580258 
1380	 0.367837681915013 
1381	 0.36769120020329 
1382	 0.367502056739197 
1383	 0.36727955999236 
1384	 0.367037284591384 
1385	 0.366793885443909 
1386	 0.366502463168894 
1387	 0.366180688851838 
1388	 0.365819597771848 
1389	 0.365428645817041 
1390	 0.364984250137392 
1391	 0.364502224715991 
1392	 0.363987788278714 
1393	 0.363448654826566 
1394	 0.362891514193616 
1395	 0.362307242814259 
1396	 0.361721232053328 
1397	 0.361116367878246 
1398	 0.360487749691998 
1399	 0.35985454939675 
1400	 0.359194436700098 
1401	 0.35857097552627 
1402	 0.35794425193323 
1403	 0.357342948577514 
1404	 0.356769390888379 
1405	 0.356200941183526 
1406	 0.355631550742202 
1407	 0.355093554828595 
1408	 0.35456115693518 
1409	 0.354075974576272 
1410	 0.353622303143151 
1411	 0.353202332025929 
1412	 0.352807648936564 
1413	 0.352459376750404 
1414	 0.352182204574212 
1415	 0.351942408665348 
1416	 0.351780687710432 
1417	 0.351680893765155 
1418	 0.351586383906335 
1419	 0.351498188181149 
1420	 0.351420845102476 
1421	 0.351350710793049 
1422	 0.351273610353648 
1423	 0.351190290644201 
1424	 0.351093857073794 
1425	 0.350974302346078 
1426	 0.350873847828893 
1427	 0.350767870763194 
1428	 0.350680900436832 
1429	 0.350616344204669 
1430	 0.350541239787221 
1431	 0.350459156507234 
1432	 0.350390022743392 
1433	 0.350324004862503 
1434	 0.350262129940423 
1435	 0.35021012476119 
1436	 0.350169619582475 
1437	 0.350137300155023 
1438	 0.350103622333911 
1439	 0.350081814547945 
1440	 0.350056318991789 
1441	 0.350017387079533 
1442	 0.349979579234802 
1443	 0.34995349670771 
1444	 0.349944057112156 
1445	 0.349956499499512 
1446	 0.349969704805791 
1447	 0.350001720804206 
1448	 0.350026901537491 
1449	 0.350024213286018 
1450	 0.350031892616435 
1451	 0.350028799806492 
1452	 0.34999289192128 
1453	 0.350000784176598 
1454	 0.350028404898604 
1455	 0.350055035695138 
1456	 0.350108420561206 
1457	 0.350145069579426 
1458	 0.3501629779614 
1459	 0.350205791682166 
1460	 0.35025742192941 
1461	 0.350312751320059 
1462	 0.350381946277121 
1463	 0.350453890225924 
1464	 0.350522771218918 
1465	 0.350602912862618 
1466	 0.350689336680434 
1467	 0.350792728521092 
1468	 0.350904869547759 
1469	 0.351035845751749 
1470	 0.351186599992564 
1471	 0.351345357946013 
1472	 0.35151878783878 
1473	 0.351697756464922 
1474	 0.351871867398424 
1475	 0.352069631826845 
1476	 0.352285691351169 
1477	 0.352486890911532 
1478	 0.352711965577326 
1479	 0.352942070286942 
1480	 0.353166952027337 
1481	 0.353402308804765 
1482	 0.353625610015704 
1483	 0.353838642280059 
1484	 0.354074636804672 
1485	 0.354310594366857 
1486	 0.354556514145682 
1487	 0.354828104321065 
1488	 0.355080339161079 
1489	 0.355334648022954 
1490	 0.355570313073121 
1491	 0.355790133910106 
1492	 0.356018900574837 
1493	 0.356243099818695 
1494	 0.35645878629086 
1495	 0.356684462392526 
1496	 0.356889751775635 
1497	 0.35706143403444 
1498	 0.357252838881558 
1499	 0.357449997049745 
1500	 0.357641459730301 
1501	 0.357831926224309 
1502	 0.358030405355558 
1503	 0.35823472356683 
1504	 0.358428708414812 
1505	 0.358620461486122 
1506	 0.358815706950436 
1507	 0.358995240560069 
1508	 0.359163603023699 
1509	 0.359324677305559 
1510	 0.359491228951597 
1511	 0.359659752968889 
1512	 0.359827658530942 
1513	 0.360025397296975 
1514	 0.360234418151918 
1515	 0.360436100538602 
1516	 0.360630054446393 
1517	 0.360803657069522 
1518	 0.360958717529239 
1519	 0.361104741777434 
1520	 0.361235011231279 
1521	 0.361368797292153 
1522	 0.361484832774399 
1523	 0.361621788191893 
1524	 0.361761056805317 
1525	 0.361913045175581 
1526	 0.362086335926537 
1527	 0.36224717353964 
1528	 0.36241757288635 
1529	 0.362564932525608 
1530	 0.362697749408921 
1531	 0.362830787095922 
1532	 0.362950546403466 
1533	 0.363074644876034 
1534	 0.363192588787817 
1535	 0.363319639934472 
1536	 0.3634574577197 
1537	 0.36358275857961 
1538	 0.36370733855078 
1539	 0.363831525872979 
1540	 0.363942756841253 
1541	 0.364060649654842 
1542	 0.364199950863197 
1543	 0.364312376027815 
1544	 0.364407258987854 
1545	 0.36450119432509 
1546	 0.364572943554947 
1547	 0.364653447364989 
1548	 0.364749920892762 
1549	 0.364859077825666 
1550	 0.364973355316385 
1551	 0.36508871517669 
1552	 0.365200338208121 
1553	 0.365305057635348 
1554	 0.365417525932563 
1555	 0.365520085461266 
1556	 0.365613926678416 
1557	 0.365713418886073 
1558	 0.365790054430531 
1559	 0.365849764842864 
1560	 0.365915745349698 
1561	 0.365960575423439 
1562	 0.366039974682442 
1563	 0.366132482084179 
1564	 0.366237245475511 
1565	 0.366363853935607 
1566	 0.366485784340056 
1567	 0.366625274798374 
1568	 0.366738284908587 
1569	 0.366849282922757 
1570	 0.366938610658519 
1571	 0.367010675645623 
1572	 0.367073207209571 
1573	 0.367110592071505 
1574	 0.367164430871076 
1575	 0.367210060746704 
1576	 0.367261775307121 
1577	 0.367329394207373 
1578	 0.367383878539958 
1579	 0.367433251102146 
1580	 0.367480094936078 
1581	 0.367514958706877 
1582	 0.367564325081776 
1583	 0.367609519520352 
1584	 0.367672333031328 
1585	 0.367746625898176 
1586	 0.367830022381718 
1587	 0.367952856043735 
1588	 0.368031123021396 
1589	 0.368098858801517 
1590	 0.368157897219462 
1591	 0.368171985510357 
1592	 0.368211383768165 
1593	 0.368259774598879 
1594	 0.368311405846071 
1595	 0.368366077086736 
1596	 0.368430729430253 
1597	 0.36851470780578 
1598	 0.368583399859888 
1599	 0.36866067964042 
1600	 0.368720385293798 
1601	 0.368758484927826 
1602	 0.368798852978051 
1603	 0.368826267369519 
1604	 0.3688619976825 
1605	 0.368902473388879 
1606	 0.368938919233517 
1607	 0.368983112223925 
1608	 0.369014323224462 
1609	 0.369040781975634 
1610	 0.369074271083139 
1611	 0.369100869317099 
1612	 0.369138684896979 
1613	 0.36916611013511 
1614	 0.369191003987034 
1615	 0.369229552100775 
1616	 0.369262995609893 
1617	 0.369309552193304 
1618	 0.36937654583775 
1619	 0.369443584517699 
1620	 0.3695057150392 
1621	 0.369559389083218 
1622	 0.369615733880704 
1623	 0.369645943150068 
1624	 0.36965543432651 
1625	 0.369678971354462 
1626	 0.369689075685872 
1627	 0.369714904106176 
1628	 0.369752242608192 
1629	 0.369785202264697 
1630	 0.369823648083893 
1631	 0.369850301830658 
1632	 0.369872735789054 
1633	 0.369899961689606 
1634	 0.369914970414977 
1635	 0.369951149427248 
1636	 0.370006284640434 
1637	 0.370045005371336 
1638	 0.370084035447766 
1639	 0.370122737708905 
1640	 0.370152923051594 
1641	 0.370193956104783 
1642	 0.370246024825544 
1643	 0.370286269507676 
1644	 0.37032086546605 
1645	 0.370361028655693 
1646	 0.370401689303623 
1647	 0.37043752515913 
1648	 0.370478795156363 
1649	 0.370510366223502 
1650	 0.370530921365238 
1651	 0.370553933220238 
1652	 0.370571812662432 
1653	 0.370597184381475 
1654	 0.370621777163392 
1655	 0.370652654605711 
1656	 0.370695763383149 
1657	 0.370727071673867 
1658	 0.370763493624143 
1659	 0.370778788036813 
1660	 0.370769462688994 
1661	 0.370784259295513 
1662	 0.370796512609666 
1663	 0.370814197394435 
1664	 0.370855102450028 
1665	 0.370875229641231 
1666	 0.37088388699923 
1667	 0.370891033254803 
1668	 0.370898981621905 
1669	 0.370891481060861 
1670	 0.370864410192038 
1671	 0.370853287891559 
1672	 0.370839625223835 
1673	 0.37082714560825 
1674	 0.3708211639463 
1675	 0.370818395574621 
1676	 0.370801431310251 
1677	 0.370815711355841 
1678	 0.370853217377271 
1679	 0.370889288125195 
1680	 0.370951630453742 
1681	 0.370988012128445 
1682	 0.3710269824406 
1683	 0.371039111793746 
1684	 0.371018183395912 
1685	 0.371017029932034 
1686	 0.370998280763807 
1687	 0.371004592016862 
1688	 0.371037968517254 
1689	 0.371054882907373 
1690	 0.371076841883823 
1691	 0.37108974108785 
1692	 0.371094915022849 
1693	 0.3710977770067 
1694	 0.371097943146464 
1695	 0.371092403407866 
1696	 0.371071446636571 
1697	 0.371070413049827 
1698	 0.371066031233468 
1699	 0.371083851222503 
1700	 0.371131746783491 
1701	 0.371160153119662 
1702	 0.371197667810636 
1703	 0.371219640989804 
1704	 0.371230012326919 
1705	 0.37123457722866 
1706	 0.371237641087578 
1707	 0.371223135690958 
1708	 0.371184803624672 
1709	 0.371159443303881 
1710	 0.371124704832848 
1711	 0.371100591764081 
1712	 0.371091620470971 
1713	 0.371069353668129 
1714	 0.371041005004498 
1715	 0.371023290539712 
1716	 0.370987010074071 
1717	 0.370998469427242 
1718	 0.371055463624515 
1719	 0.371066620989787 
1720	 0.371094970188522 
1721	 0.371088247798755 
1722	 0.371035585402787 
1723	 0.371003357080643 
1724	 0.370965612641888 
1725	 0.370940136598056 
1726	 0.370917310224101 
1727	 0.37089023109572 
1728	 0.370883277100234 
1729	 0.370844313025892 
1730	 0.370796110455922 
1731	 0.370723162284503 
1732	 0.37062068572568 
1733	 0.37051812494064 
1734	 0.370382891034177 
1735	 0.370286337410244 
1736	 0.370205194079009 
1737	 0.370122512574709 
1738	 0.370046505296633 
1739	 0.36998979470236 
1740	 0.369952208720132 
1741	 0.369884560454183 
1742	 0.369828887777795 
1743	 0.369756940561544 
1744	 0.369648597227681 
1745	 0.369554635888256 
1746	 0.369457873015934 
1747	 0.369424915926665 
1748	 0.369383520807278 
1749	 0.369351773065243 
1750	 0.369310713990098 
1751	 0.369228370224364 
1752	 0.369133273684946 
1753	 0.369050319673205 
1754	 0.368965146452577 
1755	 0.36888362824448 
1756	 0.368833697003607 
1757	 0.368769222422173 
1758	 0.368710686120127 
1759	 0.36866303651301 
1760	 0.368550173905453 
1761	 0.368454385182808 
1762	 0.368394015340245 
1763	 0.368278333479223 
1764	 0.368185054734494 
1765	 0.36815580424098 
1766	 0.36811152549314 
1767	 0.368063011605411 
1768	 0.368038259364147 
1769	 0.368002838453372 
1770	 0.367940668279777 
1771	 0.367895119447389 
1772	 0.367846689973885 
1773	 0.367748829908571 
1774	 0.367656267693481 
1775	 0.367578705813374 
1776	 0.367500024109531 
1777	 0.367437167213215 
1778	 0.367387229152148 
1779	 0.367370290959685 
1780	 0.367366228904679 
1781	 0.367361616768267 
1782	 0.367347532692682 
1783	 0.367296193212393 
1784	 0.367259832138506 
1785	 0.367234471947357 
1786	 0.367198812987966 
1787	 0.367146798383998 
1788	 0.367112702799015 
1789	 0.367067319717577 
1790	 0.367051850424152 
1791	 0.367082978541358 
1792	 0.367081154702231 
1793	 0.367078739885709 
1794	 0.367068161604381 
1795	 0.367041297269569 
1796	 0.367010371798369 
1797	 0.366964071584731 
1798	 0.366956739848845 
1799	 0.366948148132942 
1800	 0.366964155579045 
1801	 0.362396319387513 
1802	 0.362391805356566 
1803	 0.362429721853985 
1804	 0.362471352281661 
1805	 0.362502053098869 
1806	 0.362527564707789 
1807	 0.362555808179399 
1808	 0.36256341535488 
1809	 0.36255176613007 
1810	 0.362550358021309 
1811	 0.362550684747713 
1812	 0.362520243883393 
1813	 0.362514710724406 
1814	 0.362505509011768 
1815	 0.362498045766773 
1816	 0.362512990667605 
1817	 0.36251801189582 
1818	 0.362531675714364 
1819	 0.362540353097169 
1820	 0.362550710329565 
1821	 0.362544233215251 
1822	 0.362534700915666 
1823	 0.362515947946662 
1824	 0.362486601220696 
1825	 0.362435418535811 
1826	 0.362378681788736 
1827	 0.36233388553703 
1828	 0.362287120725354 
1829	 0.362244292588726 
1830	 0.362192018486537 
1831	 0.362148649526582 
1832	 0.362074437637727 
1833	 0.361989020924754 
1834	 0.361896185723046 
1835	 0.361820667293746 
1836	 0.361752887794974 
1837	 0.361669786694006 
1838	 0.361609421979434 
1839	 0.361533917356461 
1840	 0.361453326572611 
1841	 0.361339450065349 
1842	 0.361264200211765 
1843	 0.361195340675255 
1844	 0.361078618692645 
1845	 0.360979413107757 
1846	 0.360861399899714 
1847	 0.360691925461771 
1848	 0.36052178136871 
1849	 0.360370802723454 
1850	 0.360244183255326 
1851	 0.360135501699118 
1852	 0.360035253641431 
1853	 0.359939050391058 
1854	 0.35980691295845 
1855	 0.35964661057292 
1856	 0.359470573867998 
1857	 0.359229035809864 
1858	 0.358988496443388 
1859	 0.358741818880716 
1860	 0.358446764969775 
1861	 0.358100131226465 
1862	 0.357765046227368 
1863	 0.357404711607236 
1864	 0.356979950712662 
1865	 0.356544413575119 
1866	 0.356082481730233 
1867	 0.355558015890044 
1868	 0.355004946010448 
1869	 0.354411005741769 
1870	 0.353743160151869 
1871	 0.353021312244116 
1872	 0.352244622737909 
1873	 0.351440041823956 
1874	 0.350582685091583 
1875	 0.349670252368441 
1876	 0.348706084291441 
1877	 0.347618123635117 
1878	 0.346404283808671 
1879	 0.345107813352557 
1880	 0.343708840036684 
1881	 0.342183056953042 
1882	 0.340609389534088 
1883	 0.338976010446645 
1884	 0.337192178121967 
1885	 0.335334338961592 
1886	 0.33343608500691 
1887	 0.331376354476804 
1888	 0.329259151676081 
1889	 0.327091978858524 
1890	 0.324822961963756 
1891	 0.322573805382081 
1892	 0.320267355004179 
1893	 0.317984920962201 
1894	 0.315682863385474 
1895	 0.31342789823408 
1896	 0.311151403426025 
1897	 0.308926692054868 
1898	 0.306739616614286 
1899	 0.304598711221002 
1900	 0.302564950295147 
1901	 0.300628599068217 
1902	 0.298794135810714 
1903	 0.29708556647373 
1904	 0.295448087824321 
1905	 0.293878600979682 
1906	 0.29244113427461 
1907	 0.291122646694184 
1908	 0.289899996820878 
1909	 0.28880634765778 
1910	 0.287771293128725 
1911	 0.286769955492316 
1912	 0.285831364721516 
1913	 0.284968623309159 
1914	 0.28416879548455 
1915	 0.283434178201599 
1916	 0.282777810842202 
1917	 0.282182811123505 
1918	 0.281617473769713 
1919	 0.281087418959692 
1920	 0.280651283811488 
1921	 0.280275746212132 
1922	 0.279943874217894 
1923	 0.279694858983443 
1924	 0.279457644058338 
1925	 0.279238324526681 
1926	 0.279068454990998 
1927	 0.278945240013295 
1928	 0.278840306074325 
1929	 0.278802889779999 
1930	 0.278831921302707 
1931	 0.278890991523478 
1932	 0.278985720673393 
1933	 0.279083417194679 
1934	 0.279205640914231 
1935	 0.279369974545864 
1936	 0.279563046261261 
1937	 0.279795904304112 
1938	 0.280074248040089 
1939	 0.280372313434643 
1940	 0.280701374470253 
1941	 0.281062123575205 
1942	 0.281428579086841 
1943	 0.281839745520016 
1944	 0.282273306213246 
1945	 0.282719671653984 
1946	 0.283189220192688 
1947	 0.283703995260941 
1948	 0.284194032593598 
1949	 0.284686036616238 
1950	 0.285190751645753 
1951	 0.285694112477396 
1952	 0.286207202739755 
1953	 0.286746049197017 
1954	 0.287276496629489 
1955	 0.2878063210996 
1956	 0.288349801749939 
1957	 0.288899287305583 
1958	 0.289458157319507 
1959	 0.290015530162313 
1960	 0.290574211225822 
1961	 0.291144924908269 
1962	 0.291711800904439 
1963	 0.292301536498666 
1964	 0.292901994079729 
1965	 0.293534721130756 
1966	 0.294180721020934 
1967	 0.294809339628224 
1968	 0.295438134027982 
1969	 0.296066303019119 
1970	 0.296693771467722 
1971	 0.297331871484397 
1972	 0.297944751789771 
1973	 0.298540179090595 
1974	 0.299147303152423 
1975	 0.299732432771279 
1976	 0.300332572969154 
1977	 0.300971051683721 
1978	 0.301598473419178 
1979	 0.302221105072276 
1980	 0.302846817512686 
1981	 0.303468050016793 
1982	 0.304075120947158 
1983	 0.304702995694951 
1984	 0.305342519157192 
1985	 0.305973027398153 
1986	 0.306613649251515 
1987	 0.307244424841031 
1988	 0.307856991239672 
1989	 0.308492809766434 
1990	 0.309134173758735 
1991	 0.309751220412541 
1992	 0.310371172888235 
1993	 0.310999588471231 
1994	 0.311605727300185 
1995	 0.312189605615514 
1996	 0.312786177874505 
1997	 0.313377293362936 
1998	 0.313969619446456 
1999	 0.314568458985348 
2000	 0.315160445252889 
2001	 0.31575330842017 
2002	 0.316330520204777 
2003	 0.316916764882563 
2004	 0.317505113780826 
2005	 0.318070871326711 
2006	 0.318630837644268 
2007	 0.319180875759365 
2008	 0.319690705748855 
2009	 0.320237693669405 
2010	 0.320807639154307 
2011	 0.321357960489026 
2012	 0.321920104309357 
2013	 0.322471690759884 
2014	 0.323014755918161 
2015	 0.323537205428208 
2016	 0.324061355846223 
2017	 0.324586212310079 
2018	 0.325113886113676 
2019	 0.32564642850071 
2020	 0.32615531650513 
2021	 0.326671026812859 
2022	 0.327159593127769 
2023	 0.327607658876327 
2024	 0.328075170214026 
2025	 0.328533910903478 
2026	 0.328995491306411 
2027	 0.329472149018935 
2028	 0.329933433057389 
2029	 0.330379054685988 
2030	 0.330819878285732 
2031	 0.331251602990788 
2032	 0.331658202133283 
2033	 0.332077461811924 
2034	 0.332487837485671 
2035	 0.332918036230531 
2036	 0.333368871961744 
2037	 0.33379858956759 
2038	 0.334243342280816 
2039	 0.33466126599514 
2040	 0.335051949718977 
2041	 0.335443192748823 
2042	 0.335808083297764 
2043	 0.336172107727618 
2044	 0.336536403013829 
2045	 0.336885363452474 
2046	 0.33724772211694 
2047	 0.337628229444187 
2048	 0.337984696163485 
2049	 0.338335950642142 
2050	 0.338676137218405 
2051	 0.338989324861497 
2052	 0.339320619729884 
2053	 0.339653118960185 
2054	 0.339987603066463 
2055	 0.340341471947453 
2056	 0.340680836908383 
2057	 0.341001206736998 
2058	 0.341308792247266 
2059	 0.341611889454719 
2060	 0.341886900281965 
2061	 0.342185279457979 
2062	 0.342490890093614 
2063	 0.342796946523733 
2064	 0.343111969403853 
2065	 0.343422884122021 
2066	 0.343725206561777 
2067	 0.344039371829265 
2068	 0.34437111227506 
2069	 0.344686842051471 
2070	 0.3449929879075 
2071	 0.345304551551436 
2072	 0.345595842648411 
2073	 0.345864558297902 
2074	 0.346134900616941 
2075	 0.346392718773256 
2076	 0.346662102315896 
2077	 0.346923980135055 
2078	 0.347196683651329 
2079	 0.347496720080072 
2080	 0.347767533245848 
2081	 0.348027168675436 
2082	 0.348283197659885 
2083	 0.34851803880621 
2084	 0.348754916347756 
2085	 0.349006157297386 
2086	 0.349271491662013 
2087	 0.349517608854265 
2088	 0.349757956749264 
2089	 0.350011231596139 
2090	 0.350262989054382 
2091	 0.350507727670725 
2092	 0.350763959151455 
2093	 0.351012943196834 
2094	 0.351240716534178 
2095	 0.351482282794264 
2096	 0.35173863864617 
2097	 0.351986459874223 
2098	 0.352232474353145 
2099	 0.35247590705439 
2100	 0.352718651128359 
2101	 0.35296763865303 
2102	 0.353195605294591 
2103	 0.353399271203125 
2104	 0.353636494840039 
2105	 0.35386428683429 
2106	 0.354116793784491 
2107	 0.35441168894725 
2108	 0.354686881143409 
2109	 0.35496320137306 
2110	 0.355238685360601 
2111	 0.355519342979482 
2112	 0.355786552337465 
2113	 0.356051497027356 
2114	 0.356309058610587 
2115	 0.356548152276625 
2116	 0.356765837619781 
2117	 0.356997839500753 
2118	 0.357213080652911 
2119	 0.357454315578481 
2120	 0.357711369243614 
2121	 0.357968277042161 
2122	 0.358240306680367 
2123	 0.358501885273476 
2124	 0.358770287534143 
2125	 0.359022979658342 
2126	 0.359269572228463 
2127	 0.359508061315155 
2128	 0.359750040593667 
2129	 0.359961082683753 
2130	 0.360157088011275 
2131	 0.360336506242067 
2132	 0.360485729383514 
2133	 0.36060726549768 
2134	 0.360702460515731 
2135	 0.360763432626317 
2136	 0.360822487253548 
2137	 0.360857688290886 
2138	 0.360881667423624 
2139	 0.360906672923587 
2140	 0.360898783820286 
2141	 0.360851267199757 
2142	 0.360808054953382 
2143	 0.360739433523808 
2144	 0.360682465725515 
2145	 0.360641652448739 
2146	 0.360575727466923 
2147	 0.360521222980861 
2148	 0.360421931775175 
2149	 0.360308184449577 
2150	 0.3601635917604 
2151	 0.360017712237669 
2152	 0.359855524014429 
2153	 0.359680095790739 
2154	 0.35948398388309 
2155	 0.359296188524616 
2156	 0.359097570099728 
2157	 0.358898120851872 
2158	 0.358719369068375 
2159	 0.358502837236534 
2160	 0.358263602539149 
2161	 0.358014451620991 
2162	 0.357728925146973 
2163	 0.357457964543817 
2164	 0.357183562445451 
2165	 0.356911824271449 
2166	 0.356638709318972 
2167	 0.356378386283565 
2168	 0.356086630272236 
2169	 0.355771997601123 
2170	 0.35547985353285 
2171	 0.355177363354106 
2172	 0.354885569840034 
2173	 0.354628063168233 
2174	 0.354328275456075 
2175	 0.354007787447612 
2176	 0.353686596252291 
2177	 0.353345685183277 
2178	 0.35300530163481 
2179	 0.352648101355317 
2180	 0.352309538150067 
2181	 0.351980102116427 
2182	 0.351646839140403 
2183	 0.351331997145001 
2184	 0.351015705847488 
2185	 0.350655917052698 
2186	 0.350246096896529 
2187	 0.349897761513689 
2188	 0.349531624309476 
2189	 0.349216040698565 
2190	 0.34897679396412 
2191	 0.348684471825537 
2192	 0.348377897288745 
2193	 0.34808603988323 
2194	 0.34775476932636 
2195	 0.34749479480201 
2196	 0.347277469847342 
2197	 0.347072619752443 
2198	 0.346908002684623 
2199	 0.346761372427085 
2200	 0.346637843188044 
2201	 0.346522776709273 
2202	 0.346448025001584 
2203	 0.346353374841805 
2204	 0.346276614814205 
2205	 0.34620460253428 
2206	 0.346136890075263 
2207	 0.346074130849823 
2208	 0.346027344462702 
2209	 0.345963635721756 
2210	 0.34596909233842 
2211	 0.346014804852316 
2212	 0.346080236167867 
2213	 0.346216827908966 
2214	 0.346312774604191 
2215	 0.346419362190437 
2216	 0.346504160045629 
2217	 0.346567993599583 
2218	 0.346632058467155 
2219	 0.346694980169915 
2220	 0.346741778858035 
2221	 0.346762215393991 
2222	 0.346804565230118 
2223	 0.346844598840591 
2224	 0.346881915510481 
2225	 0.346897211163769 
2226	 0.346921316300051 
2227	 0.346904513012239 
2228	 0.346853851620881 
2229	 0.346793286609403 
2230	 0.346716629936531 
2231	 0.346626163003652 
2232	 0.346490632356395 
2233	 0.34639795054909 
2234	 0.346322551513195 
2235	 0.346227298072536 
2236	 0.346129553451947 
2237	 0.346047827201715 
2238	 0.345952138058298 
2239	 0.345874833918204 
2240	 0.34584240297918 
2241	 0.345784630888612 
2242	 0.345715275351507 
2243	 0.34564212478105 
2244	 0.345559211527115 
2245	 0.345479465456826 
2246	 0.34539924473408 
2247	 0.345305917086516 
2248	 0.345211063145429 
2249	 0.34511186355116 
2250	 0.345011160908895 
2251	 0.344913848418637 
2252	 0.344786642547278 
2253	 0.344628019830519 
2254	 0.344524663883118 
2255	 0.344405304477156 
2256	 0.344331585214773 
2257	 0.344323987227399 
2258	 0.34429377465598 
2259	 0.344269372823385 
2260	 0.344248900470946 
2261	 0.344234645283341 
2262	 0.344227676814148 
2263	 0.344209685819583 
2264	 0.344220052429496 
2265	 0.344261685545171 
2266	 0.344298677811096 
2267	 0.344366306532395 
2268	 0.344412399491722 
2269	 0.344460964612915 
2270	 0.344481009471791 
2271	 0.344485816400135 
2272	 0.344453319815419 
2273	 0.34442687739655 
2274	 0.344450449060588 
2275	 0.344469427297034 
2276	 0.344511306397113 
2277	 0.344547493022936 
2278	 0.344584358698214 
2279	 0.344624241853909 
2280	 0.344682439781407 
2281	 0.344724765882638 
2282	 0.344769147309781 
2283	 0.344792686491823 
2284	 0.34478181067655 
2285	 0.344809363024614 
2286	 0.344855690194045 
2287	 0.344877798394814 
2288	 0.344889332839493 
2289	 0.344928939700818 
2290	 0.344970596699146 
2291	 0.34501225197071 
2292	 0.345102750280468 
2293	 0.345154035310878 
2294	 0.345166447720089 
2295	 0.345178329416311 
2296	 0.345148021914172 
2297	 0.345183558260226 
2298	 0.34522648258194 
2299	 0.34523664789179 
2300	 0.345310372075671 
2301	 0.345332948088716 
2302	 0.345323131991035 
2303	 0.345385637823653 
2304	 0.345376418531179 
2305	 0.345377970943322 
2306	 0.345394030828083 
2307	 0.345398955482443 
2308	 0.345415091677932 
2309	 0.345485756040172 
2310	 0.345482358627868 
2311	 0.345447796790126 
2312	 0.345420518711781 
2313	 0.345359845049019 
2314	 0.345278234099372 
2315	 0.345172360049294 
2316	 0.345099590301315 
2317	 0.344981992305361 
2318	 0.344946358797398 
2319	 0.345015686401774 
2320	 0.345013680325841 
2321	 0.345025680665922 
2322	 0.345006770504642 
2323	 0.344946545534412 
2324	 0.344881021492714 
2325	 0.344805920814775 
2326	 0.34471722431552 
2327	 0.344602599823571 
2328	 0.34446600601536 
2329	 0.344395111390869 
2330	 0.344330622420949 
2331	 0.344324212135846 
2332	 0.344359174049178 
2333	 0.344371470438379 
2334	 0.344362337563232 
2335	 0.344315635098459 
2336	 0.344286214050916 
2337	 0.344241486747445 
2338	 0.344208934631915 
2339	 0.344221798100819 
2340	 0.344149483209472 
2341	 0.344041026484296 
2342	 0.343932376453308 
2343	 0.343742975211973 
2344	 0.34360076537876 
2345	 0.343468143324253 
2346	 0.343365290375322 
2347	 0.343187158243357 
2348	 0.342979804759488 
2349	 0.342827792927274 
2350	 0.342678366469704 
2351	 0.34249953392955 
2352	 0.34234986740574 
2353	 0.34216535614636 
2354	 0.3419061655937 
2355	 0.341682182090485 
2356	 0.341495203370673 
2357	 0.34128942023602 
2358	 0.341052995376094 
2359	 0.340838526338768 
2360	 0.340652495055858 
2361	 0.340440587969172 
2362	 0.340227885628597 
2363	 0.339995097158911 
2364	 0.339714970910397 
2365	 0.339482354970681 
2366	 0.339279578378397 
2367	 0.339034183626222 
2368	 0.338791396407418 
2369	 0.33857876742708 
2370	 0.338366226527007 
2371	 0.338099174082165 
2372	 0.337895818993219 
2373	 0.337663509095884 
2374	 0.337404568432051 
2375	 0.337128501112365 
2376	 0.336828948321217 
2377	 0.336537257759006 
2378	 0.336174568801645 
2379	 0.335787327835698 
2380	 0.335383038906049 
2381	 0.334896048626331 
2382	 0.334409519712628 
2383	 0.334043145233875 
2384	 0.3337740567363 
2385	 0.33354817628643 
2386	 0.333322585873262 
2387	 0.333011173736642 
2388	 0.332623784185412 
2389	 0.332209971843413 
2390	 0.331860291883407 
2391	 0.331559268328596 
2392	 0.33121112094753 
2393	 0.330873338976126 
2394	 0.330589987144972 
2395	 0.330218627805081 
2396	 0.329853355289751 
2397	 0.329538930389255 
2398	 0.32911386513367 
2399	 0.328762078799135 
2400	 0.328445048457356 
2401	 0.328041135773468 
2402	 0.327709634622847 
2403	 0.327318715557474 
2404	 0.32686150938988 
2405	 0.326540925512714 
2406	 0.326208357537763 
2407	 0.325783545353482 
2408	 0.325382389136276 
2409	 0.324995666192172 
2410	 0.324546452801575 
2411	 0.324168019806809 
2412	 0.323891380432041 
2413	 0.323473048849375 
2414	 0.322996039218147 
2415	 0.322589337472652 
2416	 0.322135856147454 
2417	 0.321569434416882 
2418	 0.321123684211141 
2419	 0.320751684365942 
2420	 0.320318918003555 
2421	 0.319921603338851 
2422	 0.319557742405834 
2423	 0.319218824815903 
2424	 0.318802044928762 
2425	 0.318355702189254 
2426	 0.317851480080233 
2427	 0.317240224820161 
2428	 0.316733551674631 
2429	 0.31622152093911 
2430	 0.315877479983058 
2431	 0.315699769080578 
2432	 0.315333495690351 
2433	 0.315032525779606 
2434	 0.314612083208118 
2435	 0.313997334335579 
2436	 0.313471345757944 
2437	 0.312887928182309 
2438	 0.312391696129885 
2439	 0.311942885227437 
2440	 0.311496036489918 
2441	 0.311184199358197 
2442	 0.310864997223316 
2443	 0.31052929322076 
2444	 0.310108300034411 
2445	 0.309660559073414 
2446	 0.309240317100744 
2447	 0.308736087558386 
2448	 0.308269258444722 
2449	 0.307908826664185 
2450	 0.307447230933519 
2451	 0.306846182682047 
2452	 0.306400118849711 
2453	 0.306050529546055 
2454	 0.305616284634853 
2455	 0.305216846321691 
2456	 0.304780424951183 
2457	 0.304280127302835 
2458	 0.303861801295135 
2459	 0.303434026891727 
2460	 0.303080475884344 
2461	 0.302843571265179 
2462	 0.302443612549704 
2463	 0.301980016977425 
2464	 0.301564961220902 
2465	 0.301122248107894 
2466	 0.300710331207542 
2467	 0.300336923417692 
2468	 0.299954873690367 
2469	 0.299535220909377 
2470	 0.299038179254439 
2471	 0.298637910868181 
2472	 0.298142155317573 
2473	 0.297643488371607 
2474	 0.297367578047298 
2475	 0.297163774410548 
2476	 0.296832979097379 
2477	 0.296527993702302 
2478	 0.295962794802799 
2479	 0.295288428506864 
2480	 0.294822481470397 
2481	 0.294285035157952 
2482	 0.293944352021372 
2483	 0.29383864151766 
2484	 0.293577393534563 
2485	 0.293126519888337 
2486	 0.292483725721738 
2487	 0.291850164280891 
2488	 0.291380468850694 
2489	 0.291080333722745 
2490	 0.290942822749471 
2491	 0.290662852273815 
2492	 0.29036163272041 
2493	 0.290119466078765 
2494	 0.28981843594798 
2495	 0.289688882154619 
2496	 0.289341101572674 
2497	 0.288908786021397 
2498	 0.288735615110142 
2499	 0.288377270310593 
2500	 0.288060505387784 
