Wavelength	LMW200007.asd
350	 7.26253088282997E-02 
351	 7.11541049948479E-02 
352	 6.99899088966154E-02 
353	 7.12655904370952E-02 
354	 7.25635808383152E-02 
355	 7.49345795912693E-02 
356	 7.61733976812666E-02 
357	 7.49348182045391E-02 
358	 7.68544296241353E-02 
359	 7.52777506544018E-02 
360	 0.071545555816553 
361	 7.17708885428368E-02 
362	 7.21233466122084E-02 
363	 7.33320956462885E-02 
364	 7.42946756404693E-02 
365	 6.98386129068713E-02 
366	 6.80900434903008E-02 
367	 0.070067020127623 
368	 7.33508798234555E-02 
369	 7.05954041016653E-02 
370	 7.15221530781425E-02 
371	 7.56524667836586E-02 
372	 7.56465793546529E-02 
373	 7.38398031079248E-02 
374	 0.07409567346351 
375	 7.65596675221769E-02 
376	 7.47405632178989E-02 
377	 7.24187001654099E-02 
378	 7.23683901484406E-02 
379	 7.54404566839378E-02 
380	 7.62226039129198E-02 
381	 7.47720148285722E-02 
382	 0.074248008711829 
383	 7.89910339259173E-02 
384	 7.96510866340188E-02 
385	 7.84730305003848E-02 
386	 7.84142623234451E-02 
387	 8.05691691148978E-02 
388	 8.17741472528853E-02 
389	 0.081876094252727 
390	 8.16112207483556E-02 
391	 8.01279549200815E-02 
392	 8.15662516022487E-02 
393	 8.49047713626567E-02 
394	 8.49864446832379E-02 
395	 8.52628466821163E-02 
396	 8.64869896234388E-02 
397	 8.81578751421369E-02 
398	 8.81034791918244E-02 
399	 0.087510742698163 
400	 8.79327949137127E-02 
401	 9.02715531921867E-02 
402	 9.12716218266653E-02 
403	 9.17199132227315E-02 
404	 9.18818160294145E-02 
405	 9.12855230823272E-02 
406	 9.26627007796366E-02 
407	 9.40237253332536E-02 
408	 9.38775039586668E-02 
409	 9.44097609219359E-02 
410	 9.49362119409341E-02 
411	 9.55239617796983E-02 
412	 9.64260183636529E-02 
413	 9.67896254811233E-02 
414	 9.66777295001356E-02 
415	 9.65744837642044E-02 
416	 9.73666821190464E-02 
417	 9.79881741152977E-02 
418	 9.83653508756572E-02 
419	 9.86676325917859E-02 
420	 9.91001476819032E-02 
421	 9.84066912928061E-02 
422	 9.76917267820419E-02 
423	 9.91466080908468E-02 
424	 9.92935257916166E-02 
425	 9.86969171469602E-02 
426	 9.82998849427541E-02 
427	 9.88251263528033E-02 
428	 9.84912105044982E-02 
429	 0.097748980810339 
430	 9.75573206114056E-02 
431	 9.74586701692286E-02 
432	 9.71944448245921E-02 
433	 9.69132302387244E-02 
434	 9.71029674843254E-02 
435	 9.70777568264635E-02 
436	 9.68324203567165E-02 
437	 9.66156724947134E-02 
438	 9.69990109595584E-02 
439	 9.72362264980017E-02 
440	 9.73558620116868E-02 
441	 9.77341618587608E-02 
442	 9.81502209159431E-02 
443	 9.84421333223379E-02 
444	 0.098624320447716 
445	 9.89473952974794E-02 
446	 9.94439606373675E-02 
447	 9.99237476367523E-02 
448	 0.100216620761013 
449	 0.100542913077333 
450	 0.10089161735493 
451	 0.101317633072849 
452	 0.101908555205766 
453	 0.102227097883544 
454	 0.10245197941892 
455	 0.102826010232803 
456	 0.103541171845121 
457	 0.103768163233949 
458	 0.103738804244946 
459	 0.104095270943784 
460	 0.104493197647874 
461	 0.104674621840279 
462	 0.104632234474722 
463	 0.104684788160222 
464	 0.104859216166061 
465	 0.10515459851452 
466	 0.105482571871664 
467	 0.105486786645362 
468	 0.105620777661855 
469	 0.105913538491018 
470	 0.106043322516454 
471	 0.10606620054096 
472	 0.10609194397195 
473	 0.106158669357089 
474	 0.106071068627638 
475	 0.106277362875156 
476	 0.106549278652493 
477	 0.106465960977252 
478	 0.106576346809789 
479	 0.106838365863945 
480	 0.1070904155864 
481	 0.107083361994025 
482	 0.107057362009758 
483	 0.107089292752189 
484	 0.107206178592764 
485	 0.107464774937896 
486	 0.107534395687143 
487	 0.1074101724087 
488	 0.107373256230795 
489	 0.107663124260835 
490	 0.10795440535774 
491	 0.10799514877269 
492	 0.107949284446558 
493	 0.107931952051325 
494	 0.107984186118086 
495	 0.108103147111578 
496	 0.108336111539625 
497	 0.108434816234101 
498	 0.108408056190464 
499	 0.108688055673024 
500	 0.108771140041579 
501	 0.108752615869016 
502	 0.108829488601458 
503	 0.108799547467129 
504	 0.108874527002851 
505	 0.109040785923962 
506	 0.109082407883126 
507	 0.10922352327673 
508	 0.109379064973524 
509	 0.109441923392467 
510	 0.109394231029145 
511	 0.109354557392169 
512	 0.10941986428136 
513	 0.109632374520009 
514	 0.109693847458878 
515	 0.109779585095056 
516	 0.109953300703672 
517	 0.109994756205371 
518	 0.110023068204135 
519	 0.110060550633385 
520	 0.110111938334518 
521	 0.110261900352512 
522	 0.110301235187388 
523	 0.11026353720494 
524	 0.110441488955651 
525	 0.110443345103072 
526	 0.110439290555881 
527	 0.110606567971093 
528	 0.110756849503328 
529	 0.110771646711057 
530	 0.110772369648118 
531	 0.110995590077015 
532	 0.110999533363705 
533	 0.111059777134178 
534	 0.111306465192292 
535	 0.111351537986973 
536	 0.111410521770627 
537	 0.111502408919644 
538	 0.11157985051327 
539	 0.111655896203553 
540	 0.111748402075774 
541	 0.111863370472202 
542	 0.111991886420142 
543	 0.112081500809756 
544	 0.112216605568895 
545	 0.11245515203449 
546	 0.112604658115584 
547	 0.112689686993577 
548	 0.112782120653296 
549	 0.112976943884839 
550	 0.113104312962102 
551	 0.113231883776585 
552	 0.113428383083063 
553	 0.113653220488908 
554	 0.113874738373773 
555	 0.114097307475982 
556	 0.114339206036615 
557	 0.114533484249479 
558	 0.11479661127879 
559	 0.115164517451962 
560	 0.115506016619567 
561	 0.115791110757683 
562	 0.116057376113557 
563	 0.116369532209864 
564	 0.116767715913085 
565	 0.117137200347848 
566	 0.1174509873242 
567	 0.117791119824518 
568	 0.118297422982093 
569	 0.118842002564913 
570	 0.11930965646718 
571	 0.119868630617255 
572	 0.120458008500169 
573	 0.12103158953876 
574	 0.12155879806348 
575	 0.122072321578373 
576	 0.122632030653895 
577	 0.123258318362249 
578	 0.123876247715865 
579	 0.124551922849908 
580	 0.125291353476546 
581	 0.126068995515185 
582	 0.126836606302033 
583	 0.1275898127583 
584	 0.128340699680125 
585	 0.129121537096203 
586	 0.129870821754539 
587	 0.13061633562934 
588	 0.131403729159677 
589	 0.132237233081081 
590	 0.133081761401993 
591	 0.133920494444808 
592	 0.134756710654361 
593	 0.135572709172318 
594	 0.13639420907495 
595	 0.137238533935594 
596	 0.138084849908257 
597	 0.138933319574184 
598	 0.139749244526793 
599	 0.140497926206804 
600	 0.141290315051157 
601	 0.142079154077502 
602	 0.142822312201508 
603	 0.143522545919692 
604	 0.144200804949493 
605	 0.144876765041231 
606	 0.145559964619671 
607	 0.146214120959879 
608	 0.146835850062234 
609	 0.147438207272238 
610	 0.148050549241133 
611	 0.148631935999801 
612	 0.149167736334117 
613	 0.149660547075728 
614	 0.150149128633021 
615	 0.150644949058409 
616	 0.151104806296204 
617	 0.151461222699445 
618	 0.151878910323825 
619	 0.152242596244174 
620	 0.152501908977439 
621	 0.152833958626206 
622	 0.153171636994564 
623	 0.153467344406012 
624	 0.153706332846284 
625	 0.154071360846612 
626	 0.15438698145691 
627	 0.154602126183288 
628	 0.154865266579204 
629	 0.155182458532632 
630	 0.155462799366808 
631	 0.155638923950379 
632	 0.155850668078987 
633	 0.156062406233434 
634	 0.156298680303928 
635	 0.156621865037554 
636	 0.156849649269443 
637	 0.157027788335316 
638	 0.157227286426869 
639	 0.157480515531338 
640	 0.157711119019457 
641	 0.15791354897651 
642	 0.158119439517625 
643	 0.158364094043717 
644	 0.158587018939814 
645	 0.158786937901843 
646	 0.159062139470067 
647	 0.159318639750198 
648	 0.159552988917601 
649	 0.159791620588146 
650	 0.16006999095603 
651	 0.160324469296828 
652	 0.160558530359632 
653	 0.160834088033133 
654	 0.161137426246626 
655	 0.161399242431813 
656	 0.161606930659391 
657	 0.16190828971922 
658	 0.16226543160197 
659	 0.162630718586331 
660	 0.162950689149131 
661	 0.163208138177384 
662	 0.163505615810439 
663	 0.163862131450917 
664	 0.164159150801433 
665	 0.164489619487957 
666	 0.164856744904697 
667	 0.165231346653484 
668	 0.165552045167341 
669	 0.165938707004548 
670	 0.166364792708997 
671	 0.166689955105508 
672	 0.167080975183744 
673	 0.167510062872576 
674	 0.167934518394731 
675	 0.168362957556103 
676	 0.168766696833147 
677	 0.169152982632088 
678	 0.169554864471425 
679	 0.170053525372597 
680	 0.170538813829612 
681	 0.170987101128302 
682	 0.171510012040555 
683	 0.171987056769456 
684	 0.172423036785553 
685	 0.172870893502665 
686	 0.173433601028126 
687	 0.173968854548511 
688	 0.174461051041223 
689	 0.174985288680421 
690	 0.175511355538648 
691	 0.176020889078212 
692	 0.176528473258484 
693	 0.177119785384549 
694	 0.177665644107729 
695	 0.1781960719008 
696	 0.178779700532323 
697	 0.179340220058082 
698	 0.179932875924008 
699	 0.180558571277753 
700	 0.181154273418962 
701	 0.181721807404219 
702	 0.182280500297653 
703	 0.182851338904388 
704	 0.18344828068209 
705	 0.184028680159111 
706	 0.184618573563581 
707	 0.185259801738051 
708	 0.185805980858701 
709	 0.186373876421648 
710	 0.187007463587551 
711	 0.187607987332563 
712	 0.188186198270634 
713	 0.188755769561874 
714	 0.189328716048955 
715	 0.189893112130404 
716	 0.190460760120425 
717	 0.191026799250851 
718	 0.191572968589204 
719	 0.192088887686508 
720	 0.192578276291186 
721	 0.193053522123113 
722	 0.193533612309177 
723	 0.194076396984792 
724	 0.194606379814638 
725	 0.195036979918513 
726	 0.195483460561829 
727	 0.19587869819998 
728	 0.196233883169224 
729	 0.196634908849443 
730	 0.197060481048799 
731	 0.197419342077269 
732	 0.197681744762331 
733	 0.197993651356922 
734	 0.198280717322347 
735	 0.198529013252957 
736	 0.198752636416665 
737	 0.198988986825322 
738	 0.199194527304764 
739	 0.199343846988683 
740	 0.199440943592712 
741	 0.199584069530152 
742	 0.199706694777097 
743	 0.199749266444432 
744	 0.199771276656435 
745	 0.199769132838017 
746	 0.199778659700478 
747	 0.199823451387675 
748	 0.199717610300756 
749	 0.199636523667505 
750	 0.199603500007778 
751	 0.199424645676974 
752	 0.199259931186519 
753	 0.199133901220549 
754	 0.199016780963905 
755	 0.198813632920959 
756	 0.198629552457963 
757	 0.198435143485509 
758	 0.198151773050146 
759	 0.197887370420182 
760	 0.197609158927136 
761	 0.197297920282611 
762	 0.196967953206683 
763	 0.196688216522684 
764	 0.196394733608588 
765	 0.196037703221571 
766	 0.195703261620574 
767	 0.195384746783585 
768	 0.195036117171041 
769	 0.194612136079017 
770	 0.19422667422648 
771	 0.193885762115185 
772	 0.193543268716101 
773	 0.193108792585898 
774	 0.192691377136119 
775	 0.192284934153758 
776	 0.19187462118121 
777	 0.19150080997326 
778	 0.191100667705362 
779	 0.190678637438523 
780	 0.190265692021396 
781	 0.189837603474027 
782	 0.1894400552409 
783	 0.189044241045537 
784	 0.188550678733986 
785	 0.188171951201244 
786	 0.187826404754756 
787	 0.187417898385851 
788	 0.186948794327428 
789	 0.186526410690934 
790	 0.18614886095149 
791	 0.185769301285053 
792	 0.185369894046614 
793	 0.184960308401287 
794	 0.184556272880614 
795	 0.184176040958185 
796	 0.183816302906829 
797	 0.183436048103351 
798	 0.183019506893354 
799	 0.182602027182811 
800	 0.182262732848388 
801	 0.181953219859728 
802	 0.181594296853711 
803	 0.181153180898898 
804	 0.180802479258181 
805	 0.180519061623273 
806	 0.180168096744617 
807	 0.179841711775264 
808	 0.179491863367081 
809	 0.179125926091434 
810	 0.17883538874935 
811	 0.178545144740505 
812	 0.178250206369975 
813	 0.177964539206594 
814	 0.177717905729416 
815	 0.177413570042057 
816	 0.17705693941618 
817	 0.176710167091751 
818	 0.176461940335542 
819	 0.176245665450583 
820	 0.176008914798905 
821	 0.175729238583103 
822	 0.175469999563773 
823	 0.175253172663371 
824	 0.175051802095373 
825	 0.174772271301995 
826	 0.174573136441099 
827	 0.174400846594253 
828	 0.174176321966425 
829	 0.173929933156293 
830	 0.173744639305445 
831	 0.173564220159329 
832	 0.173307445598238 
833	 0.17320353175031 
834	 0.173088016930152 
835	 0.172898064237736 
836	 0.172698624879232 
837	 0.172548042819259 
838	 0.172396747105326 
839	 0.172223025754778 
840	 0.172085356826124 
841	 0.171966940175788 
842	 0.171829424686398 
843	 0.171669182699311 
844	 0.1716133281211 
845	 0.17154839055465 
846	 0.171448274515393 
847	 0.171334060347333 
848	 0.171225285142588 
849	 0.171134144888081 
850	 0.171053100952198 
851	 0.170963375039484 
852	 0.170907140444949 
853	 0.170886116917014 
854	 0.170864866748819 
855	 0.170768742946954 
856	 0.170783020304124 
857	 0.170752765393222 
858	 0.170583507525321 
859	 0.170531031306242 
860	 0.170596665445076 
861	 0.170671321924486 
862	 0.170648453172301 
863	 0.170654674904998 
864	 0.170640889359465 
865	 0.170630305530149 
866	 0.170676818967602 
867	 0.170708118081527 
868	 0.17071994639931 
869	 0.170735831786009 
870	 0.170792151616856 
871	 0.170790615773787 
872	 0.170813755125665 
873	 0.170910879460113 
874	 0.171029512743079 
875	 0.171137870975479 
876	 0.171190895145626 
877	 0.171190714502082 
878	 0.171248428139527 
879	 0.171411669826662 
880	 0.171576436243937 
881	 0.171637670617285 
882	 0.171735466837433 
883	 0.171860793229733 
884	 0.171983609204274 
885	 0.172077177307517 
886	 0.172203123284079 
887	 0.172379198249886 
888	 0.172562053481551 
889	 0.172675620249156 
890	 0.172810765914442 
891	 0.172982089019845 
892	 0.173194067733063 
893	 0.173443881123202 
894	 0.173571129529688 
895	 0.173722636483226 
896	 0.173978183230865 
897	 0.174186405365503 
898	 0.174432665807796 
899	 0.174636807499575 
900	 0.174763173463836 
901	 0.174993048157901 
902	 0.175291549553551 
903	 0.175603947812239 
904	 0.175876404543133 
905	 0.176104135348014 
906	 0.176344494846055 
907	 0.176616449932756 
908	 0.176915532229011 
909	 0.177247818035842 
910	 0.177505457205932 
911	 0.177732318026314 
912	 0.178055489877729 
913	 0.178416157559141 
914	 0.178714829020232 
915	 0.178998825397545 
916	 0.179419500104279 
917	 0.179795752028289 
918	 0.180130487659872 
919	 0.180475179269825 
920	 0.180890902776058 
921	 0.181209970305344 
922	 0.181528928906203 
923	 0.181924829360082 
924	 0.182373148606651 
925	 0.182778663082237 
926	 0.183215061657485 
927	 0.183686538894272 
928	 0.184004735259903 
929	 0.184513738290339 
930	 0.185039483267661 
931	 0.185433038428259 
932	 0.18592374757686 
933	 0.186400357665743 
934	 0.186866979207261 
935	 0.187348477321616 
936	 0.187834716302684 
937	 0.188304073672455 
938	 0.188789662842993 
939	 0.189331507060042 
940	 0.189934811859699 
941	 0.190470868486521 
942	 0.191031067137876 
943	 0.191708350255742 
944	 0.192227841562416 
945	 0.192793672061184 
946	 0.193401470303336 
947	 0.193962806107908 
948	 0.194501817621877 
949	 0.195063753397837 
950	 0.195681822534128 
951	 0.196365308634153 
952	 0.197068866478696 
953	 0.197751829841479 
954	 0.198352660951043 
955	 0.198864646770196 
956	 0.199593865378968 
957	 0.20029196542845 
958	 0.20091613180719 
959	 0.201578544637928 
960	 0.202344584413047 
961	 0.20316775545727 
962	 0.203957565177029 
963	 0.204643713766515 
964	 0.205394706895714 
965	 0.206110761882502 
966	 0.206816440275903 
967	 0.207606098436681 
968	 0.208386634740274 
969	 0.209102443283184 
970	 0.209817104776599 
971	 0.210633108187258 
972	 0.211399054708519 
973	 0.212211739077272 
974	 0.213115345824421 
975	 0.214078496679438 
976	 0.214965444464449 
977	 0.215709592921708 
978	 0.21644287603747 
979	 0.217345124015354 
980	 0.218153167271576 
981	 0.218837363327912 
982	 0.219528808540562 
983	 0.220392445343405 
984	 0.221267907550242 
985	 0.222178595690795 
986	 0.223087652556703 
987	 0.22395448060933 
988	 0.224921470286337 
989	 0.225804749233981 
990	 0.226615447602202 
991	 0.227462084832536 
992	 0.228353538816414 
993	 0.229151364404986 
994	 0.229993355120528 
995	 0.231007582869153 
996	 0.231741261417619 
997	 0.232688680955901 
998	 0.233733540710003 
999	 0.234615256804902 
1000	 0.235533408856486 
1001	 0.23780099473316 
1002	 0.23861018158279 
1003	 0.239393610206187 
1004	 0.240213996656791 
1005	 0.241143101306539 
1006	 0.242004368014116 
1007	 0.242822483991964 
1008	 0.243646910451984 
1009	 0.244476757195627 
1010	 0.245188031309397 
1011	 0.245926963077758 
1012	 0.246720897385346 
1013	 0.247474605859208 
1014	 0.248284093979972 
1015	 0.249131159096826 
1016	 0.24989297547586 
1017	 0.250664637739677 
1018	 0.251436375015862 
1019	 0.252244083807769 
1020	 0.253012205490271 
1021	 0.253748544705431 
1022	 0.254507773984316 
1023	 0.255192193846441 
1024	 0.255811590596151 
1025	 0.256542405224221 
1026	 0.257292477517109 
1027	 0.257986593372781 
1028	 0.2586899924725 
1029	 0.259374597844542 
1030	 0.260026769528562 
1031	 0.260687709801825 
1032	 0.261373752323454 
1033	 0.262047625595559 
1034	 0.262674526068783 
1035	 0.263278812884815 
1036	 0.263876209637772 
1037	 0.26450908822333 
1038	 0.265133134847961 
1039	 0.265797284781809 
1040	 0.266472203399442 
1041	 0.267074860432349 
1042	 0.267684139729656 
1043	 0.268280876577156 
1044	 0.268874375778043 
1045	 0.269445151744129 
1046	 0.270059003889724 
1047	 0.270656510992584 
1048	 0.271221948334356 
1049	 0.271809323847722 
1050	 0.272404156838462 
1051	 0.273012219861131 
1052	 0.273658554083276 
1053	 0.274282596922094 
1054	 0.274848207527976 
1055	 0.275403562539236 
1056	 0.275973151237932 
1057	 0.276544584773517 
1058	 0.277117939881179 
1059	 0.277689273015779 
1060	 0.278268316854327 
1061	 0.278835331086714 
1062	 0.27939707649312 
1063	 0.279974408672834 
1064	 0.280558595088258 
1065	 0.28115088553775 
1066	 0.281746481212156 
1067	 0.282347995163334 
1068	 0.282946821918969 
1069	 0.283475303024836 
1070	 0.28403856252658 
1071	 0.284604013734925 
1072	 0.285159113283738 
1073	 0.285722051877367 
1074	 0.286294389642872 
1075	 0.286867179250706 
1076	 0.287366774065411 
1077	 0.287943768583058 
1078	 0.288514077132579 
1079	 0.289058738549315 
1080	 0.289614100817396 
1081	 0.290118281172076 
1082	 0.290613036160556 
1083	 0.29113755776286 
1084	 0.291662778658347 
1085	 0.292190637452195 
1086	 0.292737120735215 
1087	 0.293280850878553 
1088	 0.293815074530023 
1089	 0.294351961433863 
1090	 0.294910354936231 
1091	 0.295488994705876 
1092	 0.296020687819949 
1093	 0.2965638682468 
1094	 0.29712956525822 
1095	 0.297624637024138 
1096	 0.29813864188034 
1097	 0.298689106338917 
1098	 0.299225306132834 
1099	 0.299748593726537 
1100	 0.30030039806828 
1101	 0.30087123122508 
1102	 0.301426406589487 
1103	 0.301985225852974 
1104	 0.302544090052574 
1105	 0.303112089910216 
1106	 0.303679409424356 
1107	 0.304244811553699 
1108	 0.304837065362971 
1109	 0.305386783718721 
1110	 0.305937079143194 
1111	 0.306506574804644 
1112	 0.307075466179696 
1113	 0.307648395623363 
1114	 0.308248950111818 
1115	 0.308828854648384 
1116	 0.309402154753937 
1117	 0.309981166518858 
1118	 0.310567370097266 
1119	 0.311122127966877 
1120	 0.311707210883272 
1121	 0.312266168863552 
1122	 0.312812357877528 
1123	 0.313388422514306 
1124	 0.313964230458644 
1125	 0.314540056302278 
1126	 0.315127947884485 
1127	 0.315735892891974 
1128	 0.316326443110064 
1129	 0.316920361622853 
1130	 0.317493787543294 
1131	 0.31805695340767 
1132	 0.318617111220482 
1133	 0.319160802119448 
1134	 0.319711608028752 
1135	 0.320274001256401 
1136	 0.320803796074405 
1137	 0.321345888785544 
1138	 0.321875716069394 
1139	 0.322420289154173 
1140	 0.322974323098848 
1141	 0.323513937713053 
1142	 0.324066452092792 
1143	 0.324594878930782 
1144	 0.325095797625616 
1145	 0.325606956831648 
1146	 0.32611874489476 
1147	 0.326614314153982 
1148	 0.327095621804901 
1149	 0.327590537482122 
1150	 0.328072230604402 
1151	 0.328571486524416 
1152	 0.32908597309592 
1153	 0.329602472582612 
1154	 0.330109189301143 
1155	 0.330624246147553 
1156	 0.331106574727546 
1157	 0.331577165691228 
1158	 0.332033721770016 
1159	 0.332461843037499 
1160	 0.33289784419966 
1161	 0.333318301247885 
1162	 0.333758568517513 
1163	 0.334208972607374 
1164	 0.334653740586254 
1165	 0.33511264401147 
1166	 0.335560644398996 
1167	 0.336008973851519 
1168	 0.336452040930326 
1169	 0.336871268557629 
1170	 0.337286293070938 
1171	 0.3376818386415 
1172	 0.338043728429447 
1173	 0.338423222401666 
1174	 0.33879495671897 
1175	 0.33917995444832 
1176	 0.339586280426324 
1177	 0.339963954921732 
1178	 0.340331510553893 
1179	 0.340702424519317 
1180	 0.341060528975027 
1181	 0.341414950820494 
1182	 0.3417675650187 
1183	 0.342138595023029 
1184	 0.342478283144439 
1185	 0.342795852167068 
1186	 0.343126932311177 
1187	 0.343453507499084 
1188	 0.343777149405932 
1189	 0.344102229293136 
1190	 0.344423488109329 
1191	 0.344745979620214 
1192	 0.345054834795817 
1193	 0.345368180831979 
1194	 0.34565913737272 
1195	 0.345919559862331 
1196	 0.346192378092605 
1197	 0.346463592432354 
1198	 0.346727126336916 
1199	 0.346987716621021 
1200	 0.347247274179946 
1201	 0.347512122958495 
1202	 0.347776756890112 
1203	 0.348030404436597 
1204	 0.348283287535947 
1205	 0.348540719562434 
1206	 0.348792146683671 
1207	 0.349037960869562 
1208	 0.349305939068919 
1209	 0.349539605238279 
1210	 0.349735702718877 
1211	 0.349948093307715 
1212	 0.350147874500683 
1213	 0.350358187536598 
1214	 0.350602340151481 
1215	 0.35080964898407 
1216	 0.351001756775499 
1217	 0.351175203356825 
1218	 0.351366917233038 
1219	 0.351544149879769 
1220	 0.351725736839545 
1221	 0.351926117916013 
1222	 0.352111927935229 
1223	 0.35228742173624 
1224	 0.3524528041096 
1225	 0.352616188611622 
1226	 0.352775939691148 
1227	 0.352913803830117 
1228	 0.353062041742203 
1229	 0.353224533152858 
1230	 0.353375631100962 
1231	 0.3535120148646 
1232	 0.353659366444189 
1233	 0.353809347477991 
1234	 0.353963350526459 
1235	 0.354104203891373 
1236	 0.354241139901537 
1237	 0.354389457804789 
1238	 0.354537914145623 
1239	 0.354677142413697 
1240	 0.354830819829089 
1241	 0.354965498391863 
1242	 0.355076334055822 
1243	 0.355193573169948 
1244	 0.355309356127042 
1245	 0.355425267318758 
1246	 0.355534917354843 
1247	 0.355647829057369 
1248	 0.355761961661421 
1249	 0.355884530547953 
1250	 0.355990021739523 
1251	 0.356092550874113 
1252	 0.356194037543357 
1253	 0.356288602571922 
1254	 0.356382171699929 
1255	 0.356478824473866 
1256	 0.356565796990292 
1257	 0.356633862966477 
1258	 0.356725459033382 
1259	 0.356826364961333 
1260	 0.356923135570491 
1261	 0.357047373416812 
1262	 0.357136110050803 
1263	 0.357197065391997 
1264	 0.357267215950405 
1265	 0.357318552087355 
1266	 0.357380621865328 
1267	 0.357463289202618 
1268	 0.357521957817637 
1269	 0.357590396430553 
1270	 0.357658431593634 
1271	 0.357731453529354 
1272	 0.357809209140093 
1273	 0.35788345866713 
1274	 0.357955528182727 
1275	 0.358031905852617 
1276	 0.358104957241681 
1277	 0.358186564198635 
1278	 0.358284997967788 
1279	 0.35836894942668 
1280	 0.358443623309066 
1281	 0.358524868135092 
1282	 0.358591928533692 
1283	 0.358679598007208 
1284	 0.358794392425386 
1285	 0.358901192601794 
1286	 0.358977930376123 
1287	 0.359043186457349 
1288	 0.359100020081219 
1289	 0.359116529120978 
1290	 0.359167166742995 
1291	 0.359233086302066 
1292	 0.35929533382893 
1293	 0.359362847966832 
1294	 0.359419026819162 
1295	 0.359474891646294 
1296	 0.359527956887723 
1297	 0.359569367519751 
1298	 0.359619762562456 
1299	 0.359691214260485 
1300	 0.359730146721707 
1301	 0.359748470720571 
1302	 0.359771757269813 
1303	 0.359781398487669 
1304	 0.359785185188614 
1305	 0.359794568021463 
1306	 0.359812588069422 
1307	 0.359830716962451 
1308	 0.359837577019007 
1309	 0.359838407216121 
1310	 0.359836249143187 
1311	 0.359833318912893 
1312	 0.359820711944172 
1313	 0.359810614733542 
1314	 0.359806080399034 
1315	 0.359793261454817 
1316	 0.359753202698914 
1317	 0.359755222724418 
1318	 0.359779349818092 
1319	 0.359800026499941 
1320	 0.359854081936496 
1321	 0.359881348362994 
1322	 0.359887630023592 
1323	 0.359898852169013 
1324	 0.359919860444805 
1325	 0.35995607485479 
1326	 0.359987708154003 
1327	 0.360020944692668 
1328	 0.360053042793687 
1329	 0.360061650498599 
1330	 0.360078296130964 
1331	 0.36008879522181 
1332	 0.360118367067317 
1333	 0.360150744868159 
1334	 0.36019115056124 
1335	 0.360244519334917 
1336	 0.360302156215208 
1337	 0.360369677242928 
1338	 0.360425109239461 
1339	 0.360491475659312 
1340	 0.360545917909952 
1341	 0.360577975675471 
1342	 0.3606216378468 
1343	 0.360671056419209 
1344	 0.360712820024843 
1345	 0.36076160612458 
1346	 0.360823319348746 
1347	 0.36088121698334 
1348	 0.360931266041448 
1349	 0.360974374584237 
1350	 0.36100142752562 
1351	 0.361032562475443 
1352	 0.361054632373396 
1353	 0.361093229717082 
1354	 0.361137674603328 
1355	 0.361178653429635 
1356	 0.361227338132152 
1357	 0.361269882847511 
1358	 0.361304908536569 
1359	 0.361347486682566 
1360	 0.361394974615356 
1361	 0.361439199197919 
1362	 0.361478406373674 
1363	 0.361528113382916 
1364	 0.361596780171488 
1365	 0.361640271442414 
1366	 0.36167642458183 
1367	 0.361714006210111 
1368	 0.361726880880715 
1369	 0.361725607174438 
1370	 0.361746703013325 
1371	 0.361743342635726 
1372	 0.36170275516405 
1373	 0.361681329128353 
1374	 0.36162778487506 
1375	 0.361549109945083 
1376	 0.361451554663911 
1377	 0.361340816223176 
1378	 0.361206574061962 
1379	 0.361040970676969 
1380	 0.360876771153894 
1381	 0.360698030855228 
1382	 0.360515098197664 
1383	 0.360341770643949 
1384	 0.360122660475482 
1385	 0.359896079296908 
1386	 0.359629692466338 
1387	 0.35932219690352 
1388	 0.358991418266565 
1389	 0.358634477647272 
1390	 0.358254680990199 
1391	 0.357841184744371 
1392	 0.357385700134128 
1393	 0.356893273399616 
1394	 0.356373636288778 
1395	 0.355821963140343 
1396	 0.355254163303632 
1397	 0.354690023531286 
1398	 0.354114805638559 
1399	 0.353541285885503 
1400	 0.352962284475297 
1401	 0.352391877476006 
1402	 0.351813540629387 
1403	 0.351252791277677 
1404	 0.350691293382559 
1405	 0.350160136145863 
1406	 0.34963219811255 
1407	 0.349150033034239 
1408	 0.348702441782984 
1409	 0.348277082222938 
1410	 0.34787514603881 
1411	 0.347511313468243 
1412	 0.347163489156808 
1413	 0.346865613924638 
1414	 0.346630521640547 
1415	 0.346439875323076 
1416	 0.346292772002878 
1417	 0.346182756839574 
1418	 0.346102731700554 
1419	 0.346034324756827 
1420	 0.345971934806346 
1421	 0.345912548416228 
1422	 0.34585316212915 
1423	 0.345799261935694 
1424	 0.345736603662265 
1425	 0.345687739264957 
1426	 0.345609322856459 
1427	 0.345494887368561 
1428	 0.345418360257153 
1429	 0.345344481892827 
1430	 0.345280328376418 
1431	 0.345240892448094 
1432	 0.345187859285735 
1433	 0.345120472658084 
1434	 0.34507553682374 
1435	 0.345048340501909 
1436	 0.345015731041423 
1437	 0.344987881739535 
1438	 0.344963060909035 
1439	 0.344940913513389 
1440	 0.344916014235375 
1441	 0.344872959947833 
1442	 0.344849422811949 
1443	 0.344824771128861 
1444	 0.344786664661998 
1445	 0.34479976024876 
1446	 0.344825830636311 
1447	 0.344841023732279 
1448	 0.344867378552192 
1449	 0.344876918838633 
1450	 0.344871779974445 
1451	 0.344872314478505 
1452	 0.344868932105194 
1453	 0.344870977699208 
1454	 0.344866127007412 
1455	 0.344883859645335 
1456	 0.344912570926775 
1457	 0.344941975171039 
1458	 0.344986477261366 
1459	 0.345028355335613 
1460	 0.345067959314151 
1461	 0.345113175072443 
1462	 0.34516625772113 
1463	 0.345221121022573 
1464	 0.345265087515692 
1465	 0.345335433419231 
1466	 0.34541467588074 
1467	 0.345511595238852 
1468	 0.34563806463516 
1469	 0.345761701026154 
1470	 0.345889734853413 
1471	 0.346033273001575 
1472	 0.346174723899472 
1473	 0.346334100551276 
1474	 0.346512030497478 
1475	 0.346696365079093 
1476	 0.346910333508206 
1477	 0.347105141006401 
1478	 0.347309764905447 
1479	 0.34752297191094 
1480	 0.347701691895973 
1481	 0.347901951980923 
1482	 0.348102229254171 
1483	 0.348293134148854 
1484	 0.348504621753706 
1485	 0.34873590133892 
1486	 0.348958743691497 
1487	 0.349191609729931 
1488	 0.349414804213278 
1489	 0.349636510026196 
1490	 0.349852003791335 
1491	 0.350061467083795 
1492	 0.350269738413872 
1493	 0.350470473570666 
1494	 0.350671854288385 
1495	 0.350878239762177 
1496	 0.351072543046722 
1497	 0.351264514518285 
1498	 0.351449717143943 
1499	 0.351616232651111 
1500	 0.351792966781506 
1501	 0.351971163849859 
1502	 0.352147226508357 
1503	 0.352326632525867 
1504	 0.352507585484213 
1505	 0.352676202968726 
1506	 0.352835831700578 
1507	 0.35298787801796 
1508	 0.353143644065824 
1509	 0.353286329709894 
1510	 0.353436123251068 
1511	 0.353599022086074 
1512	 0.353753206072014 
1513	 0.353940855066806 
1514	 0.354127710789385 
1515	 0.354315314071462 
1516	 0.354509074584029 
1517	 0.354665696736903 
1518	 0.354799210423095 
1519	 0.354936951231829 
1520	 0.35505271143971 
1521	 0.355173884879576 
1522	 0.355291188827295 
1523	 0.355417225183436 
1524	 0.355539658290749 
1525	 0.355667471778377 
1526	 0.355810086620092 
1527	 0.355945072963665 
1528	 0.356070714358193 
1529	 0.356203994204643 
1530	 0.356345270787652 
1531	 0.35648256520988 
1532	 0.356624864475174 
1533	 0.356754693411385 
1534	 0.356883313973028 
1535	 0.356996912346668 
1536	 0.35708580550734 
1537	 0.357194447276846 
1538	 0.357299035448001 
1539	 0.357412830267688 
1540	 0.357551781228533 
1541	 0.357670454779122 
1542	 0.35779887784259 
1543	 0.357895930926279 
1544	 0.357954196167355 
1545	 0.358029089668065 
1546	 0.358095938527395 
1547	 0.358150097087135 
1548	 0.358228720774041 
1549	 0.358322529011965 
1550	 0.358418031903452 
1551	 0.358521091567526 
1552	 0.358631096159731 
1553	 0.358737966406737 
1554	 0.358862122331971 
1555	 0.358987077524746 
1556	 0.359088247446852 
1557	 0.359198316854331 
1558	 0.359288908521164 
1559	 0.359335829278546 
1560	 0.359389789650854 
1561	 0.359428657264701 
1562	 0.359492396514075 
1563	 0.359548780013249 
1564	 0.359627040785829 
1565	 0.359730207443437 
1566	 0.359833097096606 
1567	 0.359945875133094 
1568	 0.360047392389808 
1569	 0.360163220698939 
1570	 0.360250099623679 
1571	 0.360319605990786 
1572	 0.360386741121151 
1573	 0.360444266930428 
1574	 0.360489874566049 
1575	 0.360510061840052 
1576	 0.360557088704441 
1577	 0.360615558642421 
1578	 0.360655803480742 
1579	 0.360704563899983 
1580	 0.360742114303476 
1581	 0.360740362075293 
1582	 0.360782392840701 
1583	 0.360849523771 
1584	 0.360914457957395 
1585	 0.360994623118476 
1586	 0.3610738865289 
1587	 0.361159029250971 
1588	 0.361239026207555 
1589	 0.361339181064783 
1590	 0.36140666451134 
1591	 0.361449093449276 
1592	 0.361492821884756 
1593	 0.361504841884722 
1594	 0.361542784623698 
1595	 0.361587158332228 
1596	 0.361646857616726 
1597	 0.361735447223128 
1598	 0.361806921665369 
1599	 0.361900746851141 
1600	 0.36195671004165 
1601	 0.361972569390292 
1602	 0.362002126625074 
1603	 0.362011841125017 
1604	 0.362031288833832 
1605	 0.362057717513978 
1606	 0.362094426917279 
1607	 0.362151500836145 
1608	 0.362184331998573 
1609	 0.362209669425655 
1610	 0.362235247998449 
1611	 0.362244563227441 
1612	 0.362263048086898 
1613	 0.362282621056808 
1614	 0.362320121949687 
1615	 0.362363919161564 
1616	 0.362400549363601 
1617	 0.362476653780675 
1618	 0.36254016310577 
1619	 0.362567742907677 
1620	 0.362611194779247 
1621	 0.362653344561259 
1622	 0.362687199013805 
1623	 0.362715384151381 
1624	 0.362753820402902 
1625	 0.362776520529882 
1626	 0.36277133345511 
1627	 0.362797184191899 
1628	 0.362837707640234 
1629	 0.362870411733816 
1630	 0.362912169104525 
1631	 0.362941414175926 
1632	 0.3629610069071 
1633	 0.362987887499283 
1634	 0.36300915788585 
1635	 0.363046227855138 
1636	 0.363094914088766 
1637	 0.363137831780092 
1638	 0.363186345816467 
1639	 0.363232506396276 
1640	 0.363282759803598 
1641	 0.363314645346366 
1642	 0.36333290936618 
1643	 0.363369454846452 
1644	 0.363398559711963 
1645	 0.363436420616529 
1646	 0.363500181210508 
1647	 0.363539832311217 
1648	 0.363570275021767 
1649	 0.363589940107546 
1650	 0.363591699068507 
1651	 0.363612076286891 
1652	 0.363625964148329 
1653	 0.363651525063475 
1654	 0.363710649200129 
1655	 0.363725175537847 
1656	 0.3637079530574 
1657	 0.363719713964157 
1658	 0.363713948008103 
1659	 0.363739330264085 
1660	 0.363816216085435 
1661	 0.363841584457412 
1662	 0.363848251238292 
1663	 0.363862750330474 
1664	 0.363856018517006 
1665	 0.363861848681057 
1666	 0.363885157322219 
1667	 0.363893077365678 
1668	 0.363897240061814 
1669	 0.363886682859632 
1670	 0.36386306327396 
1671	 0.363844868518738 
1672	 0.363807771921347 
1673	 0.363792866319048 
1674	 0.36378415340297 
1675	 0.36379419084948 
1676	 0.363814294725419 
1677	 0.363851430947686 
1678	 0.363929955401295 
1679	 0.36396953154087 
1680	 0.364013786867147 
1681	 0.364029014106179 
1682	 0.363997163695959 
1683	 0.363999549394645 
1684	 0.364003969037475 
1685	 0.364011468846289 
1686	 0.364034263223414 
1687	 0.364051146260493 
1688	 0.364064182921956 
1689	 0.364076865749348 
1690	 0.36409439658419 
1691	 0.364107118328034 
1692	 0.364115286164449 
1693	 0.3641203963988 
1694	 0.364122832886309 
1695	 0.36412626280022 
1696	 0.364130911482251 
1697	 0.364122669576659 
1698	 0.364096107219164 
1699	 0.364102279008197 
1700	 0.364111314214488 
1701	 0.3641311316781 
1702	 0.364195534475185 
1703	 0.364213664307575 
1704	 0.364204413229914 
1705	 0.364208602883319 
1706	 0.364206023801679 
1707	 0.364199518639806 
1708	 0.364201257261856 
1709	 0.364184891680151 
1710	 0.364139328184575 
1711	 0.364123609839045 
1712	 0.364118051962753 
1713	 0.364107915111915 
1714	 0.364114497380634 
1715	 0.364106137795926 
1716	 0.364077434799783 
1717	 0.3640684541381 
1718	 0.364066877950779 
1719	 0.364065074352388 
1720	 0.364083377134605 
1721	 0.364070208631553 
1722	 0.36403679755135 
1723	 0.364017139392988 
1724	 0.363981322009557 
1725	 0.363964716816059 
1726	 0.363969490324398 
1727	 0.363962454284742 
1728	 0.363964851176231 
1729	 0.363934605873496 
1730	 0.363906337627488 
1731	 0.363829560550413 
1732	 0.363699775457745 
1733	 0.363599367711897 
1734	 0.363477682198767 
1735	 0.363368578703142 
1736	 0.363277596591279 
1737	 0.363179415500629 
1738	 0.363050691727033 
1739	 0.362993317717867 
1740	 0.362975774953765 
1741	 0.362943633280312 
1742	 0.362966192023562 
1743	 0.362917807922914 
1744	 0.362827815930638 
1745	 0.362746866024875 
1746	 0.362628041228347 
1747	 0.362581929838297 
1748	 0.362551710746895 
1749	 0.362519580645801 
1750	 0.362467084102792 
1751	 0.362371381891861 
1752	 0.36225643511082 
1753	 0.362144248572291 
1754	 0.362048684089583 
1755	 0.361961079701634 
1756	 0.361875567605408 
1757	 0.361845236544612 
1758	 0.361826191338029 
1759	 0.361774017360923 
1760	 0.361713348194094 
1761	 0.361610303906513 
1762	 0.361479388920481 
1763	 0.361373691786266 
1764	 0.361319619106323 
1765	 0.361302610841619 
1766	 0.36128849928546 
1767	 0.361270352543935 
1768	 0.361233238183878 
1769	 0.361166551335651 
1770	 0.361105461240378 
1771	 0.36105512445326 
1772	 0.360981920177917 
1773	 0.360897599037907 
1774	 0.360817291405897 
1775	 0.360727002633116 
1776	 0.360647752244687 
1777	 0.36062586078654 
1778	 0.360592840357826 
1779	 0.360547691936783 
1780	 0.360557083408158 
1781	 0.360552349174179 
1782	 0.360531253913466 
1783	 0.360536323530398 
1784	 0.360514530770738 
1785	 0.360450851775052 
1786	 0.360401705535211 
1787	 0.360345444574464 
1788	 0.360304769341343 
1789	 0.360275912106573 
1790	 0.360259325523683 
1791	 0.360264142336654 
1792	 0.360255122998334 
1793	 0.360238301157249 
1794	 0.360217666227535 
1795	 0.360199558233429 
1796	 0.360177451334939 
1797	 0.360151261811006 
1798	 0.360135133600363 
1799	 0.360091793423566 
1800	 0.360109729012354 
1801	 0.355631229518577 
1802	 0.355689227356355 
1803	 0.355747485343308 
1804	 0.355786574648317 
1805	 0.355790546386928 
1806	 0.355802248147166 
1807	 0.355803403561381 
1808	 0.355793952549792 
1809	 0.355789209546917 
1810	 0.355786719229291 
1811	 0.355770238278196 
1812	 0.355742523022981 
1813	 0.355743403585944 
1814	 0.355746031099778 
1815	 0.355727858392143 
1816	 0.355706298466695 
1817	 0.35569683103977 
1818	 0.355684030508742 
1819	 0.355690684161864 
1820	 0.355720086120383 
1821	 0.355728538625249 
1822	 0.355749937603491 
1823	 0.355750302509945 
1824	 0.355707706878682 
1825	 0.35569918051932 
1826	 0.355675336935556 
1827	 0.355612345266672 
1828	 0.355546045170946 
1829	 0.355454413751541 
1830	 0.355379974054571 
1831	 0.355296739516599 
1832	 0.355224972666107 
1833	 0.355160303564086 
1834	 0.355105259559766 
1835	 0.35505537269498 
1836	 0.355012952621601 
1837	 0.354963458022314 
1838	 0.354887959690146 
1839	 0.354817557864616 
1840	 0.354733949329161 
1841	 0.354646210202597 
1842	 0.35455973856063 
1843	 0.354494854109442 
1844	 0.354405853670289 
1845	 0.354291481973283 
1846	 0.354169473646078 
1847	 0.354032340058609 
1848	 0.353919918848415 
1849	 0.35381785852409 
1850	 0.353706665788718 
1851	 0.353605447944419 
1852	 0.353510196418065 
1853	 0.353379853025419 
1854	 0.353226065002367 
1855	 0.353079601633955 
1856	 0.35292175141179 
1857	 0.352729391114952 
1858	 0.352512504727927 
1859	 0.352288579208858 
1860	 0.352028432341245 
1861	 0.351733728498319 
1862	 0.351414599074657 
1863	 0.351088166636824 
1864	 0.350722270390333 
1865	 0.350322815661427 
1866	 0.349891880644051 
1867	 0.349432350347404 
1868	 0.348935443446813 
1869	 0.34839356928877 
1870	 0.347815486820072 
1871	 0.347186705014337 
1872	 0.34651647000334 
1873	 0.345794545823511 
1874	 0.345012852160382 
1875	 0.344189573299318 
1876	 0.343302389081883 
1877	 0.342308176058145 
1878	 0.341227007939541 
1879	 0.340065809629144 
1880	 0.338798099488202 
1881	 0.337412694381609 
1882	 0.335965308471393 
1883	 0.334443455512219 
1884	 0.332785583893229 
1885	 0.331081554586423 
1886	 0.329314333442496 
1887	 0.327440945069734 
1888	 0.325532700087875 
1889	 0.323532622741875 
1890	 0.321484692521326 
1891	 0.319436982082615 
1892	 0.317327291395621 
1893	 0.315233136166397 
1894	 0.313136873370345 
1895	 0.311033183993169 
1896	 0.308900614481942 
1897	 0.306813029752719 
1898	 0.30476392477594 
1899	 0.302811893615877 
1900	 0.300933276072025 
1901	 0.299140990778455 
1902	 0.297454585436692 
1903	 0.295868359534044 
1904	 0.294357934225128 
1905	 0.292935315040268 
1906	 0.291636738768877 
1907	 0.29039255481666 
1908	 0.289228797119069 
1909	 0.288165513992662 
1910	 0.287168758352508 
1911	 0.286238571431919 
1912	 0.28538873585507 
1913	 0.284594812049824 
1914	 0.283857490001337 
1915	 0.283179413497251 
1916	 0.282569275543784 
1917	 0.282016465359625 
1918	 0.281517186691855 
1919	 0.281067752597354 
1920	 0.280652759547904 
1921	 0.28027593443968 
1922	 0.279945922904671 
1923	 0.279665575355945 
1924	 0.279424185302928 
1925	 0.279233758460821 
1926	 0.279087409620351 
1927	 0.278986269382643 
1928	 0.278911480673914 
1929	 0.278879781388327 
1930	 0.278890100722752 
1931	 0.278927134865718 
1932	 0.278998548125956 
1933	 0.279103300890952 
1934	 0.279231842441657 
1935	 0.279385296580753 
1936	 0.279552893841994 
1937	 0.279757644887335 
1938	 0.279987531782068 
1939	 0.280257778500624 
1940	 0.280560726382126 
1941	 0.280900672457245 
1942	 0.281272085868974 
1943	 0.281680278637522 
1944	 0.282093419507601 
1945	 0.282502213317891 
1946	 0.282916549079329 
1947	 0.283327361928511 
1948	 0.283755533878751 
1949	 0.284184374953699 
1950	 0.284638594297676 
1951	 0.285115036095212 
1952	 0.285603015778032 
1953	 0.286090090012904 
1954	 0.286592749476832 
1955	 0.287068818774335 
1956	 0.287538028235945 
1957	 0.28804454344778 
1958	 0.288565000367821 
1959	 0.289092960232529 
1960	 0.289663737197701 
1961	 0.290209160344068 
1962	 0.290735503080107 
1963	 0.291284864874331 
1964	 0.291832249739755 
1965	 0.292401088907363 
1966	 0.292992296910076 
1967	 0.293577523537794 
1968	 0.29415395788142 
1969	 0.294735681262824 
1970	 0.295290873848112 
1971	 0.295816821936411 
1972	 0.296372744053452 
1973	 0.296922209244573 
1974	 0.297484647461573 
1975	 0.298071758754768 
1976	 0.298650996875465 
1977	 0.299225091301784 
1978	 0.299812651460765 
1979	 0.300393758001717 
1980	 0.300976515489916 
1981	 0.301551557871961 
1982	 0.302115300799653 
1983	 0.302685407244919 
1984	 0.303251295744726 
1985	 0.303823608142981 
1986	 0.304398144653412 
1987	 0.304977891541006 
1988	 0.305562914793129 
1989	 0.306155574666303 
1990	 0.306741338852763 
1991	 0.30732014303421 
1992	 0.307903920249499 
1993	 0.308494207249496 
1994	 0.309063494760177 
1995	 0.309633306129322 
1996	 0.310183854764058 
1997	 0.310698688504764 
1998	 0.311237135321431 
1999	 0.311774613020634 
2000	 0.3123202823768 
2001	 0.312891404762402 
2002	 0.313435073018345 
2003	 0.313979915671544 
2004	 0.314523628861559 
2005	 0.315048038336655 
2006	 0.315555459816384 
2007	 0.316068257485858 
2008	 0.316562426565898 
2009	 0.317070745757542 
2010	 0.317585217167264 
2011	 0.318096699875788 
2012	 0.318611778351367 
2013	 0.319128353443831 
2014	 0.319651408873865 
2015	 0.320169021418808 
2016	 0.320663453203679 
2017	 0.321149150867037 
2018	 0.321642173132664 
2019	 0.32213140734436 
2020	 0.322599494085967 
2021	 0.323076463089353 
2022	 0.323530221183355 
2023	 0.323940097242531 
2024	 0.324367262806703 
2025	 0.324797831178427 
2026	 0.325221839819384 
2027	 0.325644389422342 
2028	 0.326058322539479 
2029	 0.326472858096459 
2030	 0.326887398042565 
2031	 0.327294283790822 
2032	 0.327686747195556 
2033	 0.328104063581984 
2034	 0.328538867561887 
2035	 0.328948110893382 
2036	 0.329370408673168 
2037	 0.329767902189084 
2038	 0.330141849701993 
2039	 0.330505099945604 
2040	 0.330858335131183 
2041	 0.331194992491434 
2042	 0.331527992587195 
2043	 0.331853064327399 
2044	 0.332195110722439 
2045	 0.332552161889477 
2046	 0.332900929893823 
2047	 0.333258878846182 
2048	 0.3336013327337 
2049	 0.333929521906125 
2050	 0.334267136410831 
2051	 0.334611303991824 
2052	 0.334937066607657 
2053	 0.335268160690958 
2054	 0.335583055737983 
2055	 0.335876628864702 
2056	 0.336154588893702 
2057	 0.336446592826861 
2058	 0.336738546377344 
2059	 0.337024259787333 
2060	 0.337313226657244 
2061	 0.337594804765087 
2062	 0.33785786703638 
2063	 0.338142966615055 
2064	 0.338443354594091 
2065	 0.338732595643682 
2066	 0.339038264190951 
2067	 0.339320303843351 
2068	 0.339600391857452 
2069	 0.33983911819846 
2070	 0.340092415769425 
2071	 0.340330034107333 
2072	 0.340588801457047 
2073	 0.340852792669332 
2074	 0.341116812894687 
2075	 0.341395138798134 
2076	 0.341659216710098 
2077	 0.341920661601522 
2078	 0.342174426905843 
2079	 0.342412596523848 
2080	 0.342663925828862 
2081	 0.342913012474618 
2082	 0.343164016593236 
2083	 0.343430404809543 
2084	 0.343687858270401 
2085	 0.343938905300454 
2086	 0.344184457897473 
2087	 0.344431562774077 
2088	 0.34467995393865 
2089	 0.344911843247198 
2090	 0.345134327403116 
2091	 0.345357867388415 
2092	 0.345565756151309 
2093	 0.345783719354924 
2094	 0.346014446214637 
2095	 0.346230454004087 
2096	 0.346434142526688 
2097	 0.346645742957084 
2098	 0.346848273250759 
2099	 0.347064346071849 
2100	 0.347277193703166 
2101	 0.347493227219115 
2102	 0.347715710655701 
2103	 0.347933741985011 
2104	 0.34817110432333 
2105	 0.348432694488803 
2106	 0.348676523822915 
2107	 0.34891002854363 
2108	 0.34916743426439 
2109	 0.349435747866793 
2110	 0.349697462983006 
2111	 0.349978777083593 
2112	 0.350252294592416 
2113	 0.350529045277924 
2114	 0.350779515582519 
2115	 0.351020361972041 
2116	 0.351262424676534 
2117	 0.351480096428884 
2118	 0.351644099128606 
2119	 0.351876052595394 
2120	 0.352128268560519 
2121	 0.352381271008158 
2122	 0.352688413746088 
2123	 0.352940218512592 
2124	 0.353166264338222 
2125	 0.353390490160774 
2126	 0.353587790315406 
2127	 0.353793083632218 
2128	 0.354016134292421 
2129	 0.354205398642479 
2130	 0.354390013498834 
2131	 0.354546527720534 
2132	 0.354675285962321 
2133	 0.354777661789044 
2134	 0.354849653467389 
2135	 0.354877829199524 
2136	 0.354921670313054 
2137	 0.354959556546514 
2138	 0.354957589656523 
2139	 0.354930251766738 
2140	 0.354911489403354 
2141	 0.354850412668552 
2142	 0.354810056505606 
2143	 0.354806042861991 
2144	 0.354775048000932 
2145	 0.354727849616656 
2146	 0.354672932807543 
2147	 0.354626298828975 
2148	 0.354550658070526 
2149	 0.354433020122842 
2150	 0.354285066273687 
2151	 0.354122775523233 
2152	 0.353910218181671 
2153	 0.353713012693221 
2154	 0.353502434099933 
2155	 0.353309026701028 
2156	 0.353117983957843 
2157	 0.352921844758602 
2158	 0.352758081837996 
2159	 0.352544361633888 
2160	 0.352291861382957 
2161	 0.352045350912135 
2162	 0.351766463561242 
2163	 0.351503075165801 
2164	 0.351250087414779 
2165	 0.350996350571168 
2166	 0.350733577112629 
2167	 0.350467588951051 
2168	 0.350201768141988 
2169	 0.34993356298384 
2170	 0.349656208538718 
2171	 0.34937921455533 
2172	 0.349090042866215 
2173	 0.348789093532352 
2174	 0.348483269880242 
2175	 0.348172765951689 
2176	 0.347853696849968 
2177	 0.34752385265278 
2178	 0.347188583608447 
2179	 0.346844066383156 
2180	 0.346497398669896 
2181	 0.346124006717388 
2182	 0.345780584963653 
2183	 0.345457096242993 
2184	 0.345129896285246 
2185	 0.344798290622033 
2186	 0.344478353428193 
2187	 0.344156287529518 
2188	 0.343809600063506 
2189	 0.343502281690535 
2190	 0.34322705241788 
2191	 0.342940283270491 
2192	 0.342670407077998 
2193	 0.342384227792834 
2194	 0.342063570027694 
2195	 0.341796400447041 
2196	 0.341529969785942 
2197	 0.341305557112391 
2198	 0.341118904423271 
2199	 0.340970646160058 
2200	 0.340882736506997 
2201	 0.340781047241912 
2202	 0.340721721265804 
2203	 0.340647949430611 
2204	 0.340561368783356 
2205	 0.340444633922355 
2206	 0.340367938022791 
2207	 0.340285315335367 
2208	 0.340252760498266 
2209	 0.340239441678273 
2210	 0.340274372504837 
2211	 0.340383660346458 
2212	 0.340449848113676 
2213	 0.34054261440128 
2214	 0.34061431997306 
2215	 0.340641714818828 
2216	 0.340708495756123 
2217	 0.340813412421878 
2218	 0.340885787113118 
2219	 0.340966815014024 
2220	 0.341026550035074 
2221	 0.341038437959803 
2222	 0.341081024355483 
2223	 0.341142714776629 
2224	 0.341183464083249 
2225	 0.341192067964926 
2226	 0.341203098039948 
2227	 0.341159493405556 
2228	 0.341049803045039 
2229	 0.3409750160859 
2230	 0.340887446117722 
2231	 0.340802052427604 
2232	 0.340712348435683 
2233	 0.34063836062533 
2234	 0.34058027051603 
2235	 0.340492107858116 
2236	 0.340389801536753 
2237	 0.340309961567828 
2238	 0.340211526526437 
2239	 0.340129672903293 
2240	 0.340081472374704 
2241	 0.340028126948981 
2242	 0.339983339050123 
2243	 0.339917329486495 
2244	 0.339845970906199 
2245	 0.339775415240851 
2246	 0.339699762798607 
2247	 0.339614565106237 
2248	 0.3395274644399 
2249	 0.339458825436724 
2250	 0.339358092116391 
2251	 0.339211696509962 
2252	 0.339121678175988 
2253	 0.339049349440528 
2254	 0.338969458607276 
2255	 0.338923315050836 
2256	 0.338848533798796 
2257	 0.338731758930412 
2258	 0.338672972646293 
2259	 0.338645176194986 
2260	 0.338594609198594 
2261	 0.338552017259748 
2262	 0.338524483784431 
2263	 0.338473583306604 
2264	 0.33846277983579 
2265	 0.338481457408085 
2266	 0.338531226812543 
2267	 0.338650201287127 
2268	 0.338716650453913 
2269	 0.338787620085036 
2270	 0.338842769640617 
2271	 0.338891222613279 
2272	 0.338903736431426 
2273	 0.338958724986335 
2274	 0.339048216687029 
2275	 0.339094456109742 
2276	 0.339128976477773 
2277	 0.339146768206005 
2278	 0.339128930640137 
2279	 0.339138801432415 
2280	 0.339138289349266 
2281	 0.339165329159549 
2282	 0.339226340602466 
2283	 0.339266985435326 
2284	 0.339308741341609 
2285	 0.339345806249096 
2286	 0.339375886490019 
2287	 0.33941231354323 
2288	 0.339451193563238 
2289	 0.339487393790663 
2290	 0.339512469987511 
2291	 0.339553055343721 
2292	 0.339610740809186 
2293	 0.339662057802077 
2294	 0.339717507357348 
2295	 0.3397709295503 
2296	 0.339815689060582 
2297	 0.339872498787501 
2298	 0.339921640868757 
2299	 0.339947967509613 
2300	 0.33995780565812 
2301	 0.339935473377776 
2302	 0.339905262105036 
2303	 0.339939435321759 
2304	 0.339992527251911 
2305	 0.340036473719055 
2306	 0.340069938161913 
2307	 0.340112661000963 
2308	 0.340129649029821 
2309	 0.34012862097239 
2310	 0.340121407854509 
2311	 0.340112810271558 
2312	 0.340069070939718 
2313	 0.339989934811153 
2314	 0.339922587941114 
2315	 0.339804758120901 
2316	 0.339768318970939 
2317	 0.339784189490411 
2318	 0.339779041822388 
2319	 0.339817068026294 
2320	 0.33982757608782 
2321	 0.33980564343902 
2322	 0.339799924208642 
2323	 0.339834919672294 
2324	 0.339819020274647 
2325	 0.339776686459397 
2326	 0.339726894342025 
2327	 0.339650177078223 
2328	 0.339527689147559 
2329	 0.339483351951349 
2330	 0.339479424531191 
2331	 0.339481118943488 
2332	 0.339483648639707 
2333	 0.339430807132498 
2334	 0.339374249783651 
2335	 0.339337962506166 
2336	 0.339323825245576 
2337	 0.339335872958492 
2338	 0.339351443678745 
2339	 0.33928670755488 
2340	 0.339174166770469 
2341	 0.339139303104319 
2342	 0.339033687358049 
2343	 0.338913907741203 
2344	 0.338862437387701 
2345	 0.338750927562341 
2346	 0.338563849139011 
2347	 0.338441519238393 
2348	 0.338349723995256 
2349	 0.338229504380144 
2350	 0.338126382343874 
2351	 0.33796740141336 
2352	 0.337765429584786 
2353	 0.337576571036032 
2354	 0.337352101620611 
2355	 0.337147176864952 
2356	 0.336964622251914 
2357	 0.336764444416673 
2358	 0.336560914868751 
2359	 0.336354044898182 
2360	 0.336130575634 
2361	 0.335915052633526 
2362	 0.335694605574323 
2363	 0.335468540481622 
2364	 0.335250630843282 
2365	 0.335040761845042 
2366	 0.334874057879964 
2367	 0.334631670821877 
2368	 0.334290992373 
2369	 0.334039380980973 
2370	 0.333809273514821 
2371	 0.333528686543913 
2372	 0.333308702013535 
2373	 0.333111876745482 
2374	 0.33283856190619 
2375	 0.332540182136616 
2376	 0.332291183139956 
2377	 0.332032904256902 
2378	 0.331717330153831 
2379	 0.331396090263739 
2380	 0.331050526275746 
2381	 0.330666303525168 
2382	 0.330320230453236 
2383	 0.330025961518962 
2384	 0.329726733215207 
2385	 0.329519503639822 
2386	 0.329254012144503 
2387	 0.328924824685438 
2388	 0.328659643953528 
2389	 0.328350426847393 
2390	 0.328095586357972 
2391	 0.327908037397382 
2392	 0.327599464748005 
2393	 0.327219324657536 
2394	 0.326902293190547 
2395	 0.326538628926968 
2396	 0.326138323786088 
2397	 0.325795230002862 
2398	 0.325459683905668 
2399	 0.325029396622368 
2400	 0.324680759922333 
2401	 0.32443649724826 
2402	 0.324023672964161 
2403	 0.323660860161125 
2404	 0.32336940391943 
2405	 0.32306011407203 
2406	 0.322761256696902 
2407	 0.322428436243362 
2408	 0.322112806665902 
2409	 0.321674932317986 
2410	 0.321147668006846 
2411	 0.320745359926405 
2412	 0.320384721930973 
2413	 0.319973981540804 
2414	 0.319713487075557 
2415	 0.319376253859427 
2416	 0.318962782417992 
2417	 0.31845450631659 
2418	 0.318017004270262 
2419	 0.317501886954594 
2420	 0.31710239120352 
2421	 0.316775940140083 
2422	 0.316382838526161 
2423	 0.316029612014061 
2424	 0.315696624723907 
2425	 0.31537171550545 
2426	 0.314916583042328 
2427	 0.314417308639599 
2428	 0.313994279610314 
2429	 0.313449399203166 
2430	 0.313095632298309 
2431	 0.312944641693444 
2432	 0.312649890221713 
2433	 0.312333238716801 
2434	 0.312016695436389 
2435	 0.311766524501827 
2436	 0.31138294444675 
2437	 0.310899905995447 
2438	 0.310392869879011 
2439	 0.309681778444544 
2440	 0.309152469810338 
2441	 0.308739882053153 
2442	 0.308370518134241 
2443	 0.308105573253157 
2444	 0.307834896779044 
2445	 0.307627138196376 
2446	 0.307300239529626 
2447	 0.306943245709683 
2448	 0.306560635950717 
2449	 0.306110105068051 
2450	 0.305681876231617 
2451	 0.305215290646548 
2452	 0.304732559645789 
2453	 0.304179585188086 
2454	 0.303732656699779 
2455	 0.303446737404608 
2456	 0.303074003520015 
2457	 0.302685774840421 
2458	 0.302234697028658 
2459	 0.301631123472393 
2460	 0.301116671228142 
2461	 0.300658415712844 
2462	 0.300319180597414 
2463	 0.300065665991012 
2464	 0.299781686884946 
2465	 0.29962518109358 
2466	 0.29924279855779 
2467	 0.298639990581431 
2468	 0.298257521200712 
2469	 0.297929816724359 
2470	 0.297643942045393 
2471	 0.297272121395264 
2472	 0.296913650395227 
2473	 0.296561432752579 
2474	 0.296126692994964 
2475	 0.295832575770844 
2476	 0.295394178686561 
2477	 0.294823695708047 
2478	 0.29443609946078 
2479	 0.294086857350844 
2480	 0.293817842547328 
2481	 0.293626690671161 
2482	 0.293386017465188 
2483	 0.293046347177559 
2484	 0.292627846381581 
2485	 0.29211729971376 
2486	 0.291517842876721 
2487	 0.29112099006558 
2488	 0.290852757334291 
2489	 0.290521370948414 
2490	 0.290362391657613 
2491	 0.290028247194665 
2492	 0.289504727294558 
2493	 0.289139096555535 
2494	 0.288648963976424 
2495	 0.288323538305746 
2496	 0.288127454100331 
2497	 0.287815122559312 
2498	 0.287669806489891 
2499	 0.287441402133053 
2500	 0.287173282887295 
