Wavelength	LMW200001.asd
350	 7.38163107670597E-02 
351	 7.00033952141067E-02 
352	 6.11714801973514E-02 
353	 5.85950905866574E-02 
354	 7.20079579252229E-02 
355	 7.46629275111272E-02 
356	 7.07812750733306E-02 
357	 6.99464690845566E-02 
358	 6.83491356209211E-02 
359	 6.72562861882197E-02 
360	 0.066927495787766 
361	 6.69981383562986E-02 
362	 6.84403215396763E-02 
363	 6.94444490271848E-02 
364	 6.85323714682052E-02 
365	 6.48234146620285E-02 
366	 0.06401927599195 
367	 6.67959062999536E-02 
368	 7.10482275068285E-02 
369	 0.071045878677697 
370	 6.80006617959421E-02 
371	 0.065663089059923 
372	 6.83846746612427E-02 
373	 6.84064394775576E-02 
374	 6.97488847046678E-02 
375	 0.072898217516532 
376	 6.93852338458674E-02 
377	 0.068323568181593 
378	 6.97614765901281E-02 
379	 7.10546770551416E-02 
380	 0.07105079339109 
381	 6.95304747365879E-02 
382	 6.94429221915055E-02 
383	 7.49727852179939E-02 
384	 7.56675740381776E-02 
385	 7.42901633064645E-02 
386	 7.40597995688593E-02 
387	 7.52603353021323E-02 
388	 7.63024715860582E-02 
389	 7.67128380576532E-02 
390	 7.64723309174423E-02 
391	 7.51860595175848E-02 
392	 7.66397243308629E-02 
393	 0.07982803482363 
394	 0.079962951072826 
395	 8.11301540537673E-02 
396	 8.26691943215832E-02 
397	 8.37513540173386E-02 
398	 8.50296077939911E-02 
399	 8.50002970965819E-02 
400	 8.54874364470317E-02 
401	 8.83019074370377E-02 
402	 8.80913333541086E-02 
403	 8.75631401034082E-02 
404	 8.82152298337175E-02 
405	 8.97348333618863E-02 
406	 9.05248730897088E-02 
407	 9.13279035595043E-02 
408	 9.24169698470478E-02 
409	 9.13996859794818E-02 
410	 0.091201746750142 
411	 9.20354835327088E-02 
412	 0.09291976064386 
413	 9.47126765999497E-02 
414	 9.54722584131361E-02 
415	 9.50179023200878E-02 
416	 9.56279088877262E-02 
417	 9.59402605980606E-02 
418	 9.62162321441414E-02 
419	 9.67716371305997E-02 
420	 0.096872286287466 
421	 9.64334764500064E-02 
422	 9.61411478687071E-02 
423	 9.69405998687329E-02 
424	 9.70886418814031E-02 
425	 9.68399988235991E-02 
426	 9.65031156623814E-02 
427	 9.59284887393366E-02 
428	 9.55579626342016E-02 
429	 9.53663484710573E-02 
430	 9.51869519910576E-02 
431	 9.50396001689201E-02 
432	 9.48715027078879E-02 
433	 9.47421602825769E-02 
434	 9.48042308709373E-02 
435	 9.47336284234365E-02 
436	 9.46403983259035E-02 
437	 9.46534727377523E-02 
438	 9.47165598400319E-02 
439	 9.48185246609235E-02 
440	 9.50267208494885E-02 
441	 0.09542275666363 
442	 9.58661012024532E-02 
443	 9.63979187499287E-02 
444	 9.68748800535565E-02 
445	 9.68248519876913E-02 
446	 9.70288291228649E-02 
447	 9.75478949886548E-02 
448	 9.81875145077738E-02 
449	 9.87235533123951E-02 
450	 9.90084071067806E-02 
451	 9.92854235866745E-02 
452	 0.100048508594934 
453	 0.100199623870843 
454	 0.100390660160342 
455	 0.101058359296444 
456	 0.101355847843726 
457	 0.101658727862389 
458	 0.101887889532415 
459	 0.101886421093261 
460	 0.102454674329298 
461	 0.102807940318284 
462	 0.102749382553236 
463	 0.103090257733961 
464	 0.10347632189341 
465	 0.103645158285598 
466	 0.103543413908132 
467	 0.103865057492949 
468	 0.104118870503671 
469	 0.104180245166339 
470	 0.104251096704599 
471	 0.104447673049142 
472	 0.104551615925106 
473	 0.104487886149442 
474	 0.104661502546729 
475	 0.104803893970708 
476	 0.104895478944253 
477	 0.105021100361298 
478	 0.10521274398254 
479	 0.105343672699871 
480	 0.10538454111845 
481	 0.105455029969221 
482	 0.105536148056044 
483	 0.105752764176479 
484	 0.106133352375553 
485	 0.106222466289764 
486	 0.106096444449462 
487	 0.105927183532404 
488	 0.105941257089935 
489	 0.106092220123181 
490	 0.106380593775427 
491	 0.106687934381799 
492	 0.106561021250595 
493	 0.106578631537932 
494	 0.106755923040589 
495	 0.106872093900989 
496	 0.107154845673774 
497	 0.107255597114114 
498	 0.107126860907503 
499	 0.107233544634641 
500	 0.107364857937714 
501	 0.107450358303992 
502	 0.107498236198109 
503	 0.107719865126263 
504	 0.107804350500751 
505	 0.107789846886686 
506	 0.108021201920521 
507	 0.108069726418534 
508	 0.10807140558076 
509	 0.108172750492472 
510	 0.108255741274814 
511	 0.108295085699095 
512	 0.10831158955013 
513	 0.108359988803943 
514	 0.108548187029085 
515	 0.108605485914386 
516	 0.108512384542726 
517	 0.108759840851472 
518	 0.108825514327614 
519	 0.108778113871215 
520	 0.108851232146403 
521	 0.109065330407199 
522	 0.109185310488935 
523	 0.109191900196794 
524	 0.10930121299554 
525	 0.109381651719467 
526	 0.109456558202673 
527	 0.109547404124801 
528	 0.109553686433112 
529	 0.109626094407078 
530	 0.109753022127179 
531	 0.109822952817758 
532	 0.109902675763815 
533	 0.110036770585375 
534	 0.110212016787543 
535	 0.110300725918047 
536	 0.11038728034558 
537	 0.110476556641305 
538	 0.110560357970748 
539	 0.110762677790138 
540	 0.110870621399079 
541	 0.110875231617232 
542	 0.111068747204519 
543	 0.111231702854452 
544	 0.111346587008359 
545	 0.111455509289789 
546	 0.111608963391474 
547	 0.111778817965516 
548	 0.111957831916474 
549	 0.112155942786053 
550	 0.112313330611425 
551	 0.112454001853887 
552	 0.112627654776871 
553	 0.112922533429305 
554	 0.113151027968323 
555	 0.113331306117644 
556	 0.113584591353578 
557	 0.113882130454144 
558	 0.114166726657503 
559	 0.114446498001397 
560	 0.114863649345672 
561	 0.115144493687599 
562	 0.115401402882716 
563	 0.11582499658695 
564	 0.116234766268683 
565	 0.116627406145621 
566	 0.117036509855258 
567	 0.117524853227672 
568	 0.118097170866621 
569	 0.118670192319653 
570	 0.119183471888612 
571	 0.119728928095016 
572	 0.120269516376018 
573	 0.120833161632053 
574	 0.121481697419515 
575	 0.122100949216242 
576	 0.122739506369949 
577	 0.123435009630204 
578	 0.124146389627585 
579	 0.124872472108348 
580	 0.125628172918631 
581	 0.12643023305403 
582	 0.127243802067325 
583	 0.128059429748166 
584	 0.128869565591148 
585	 0.129665914477779 
586	 0.130546935594364 
587	 0.131445099988252 
588	 0.13228439997754 
589	 0.133194019297803 
590	 0.134094612185545 
591	 0.134978660750099 
592	 0.135908148359057 
593	 0.136820724262572 
594	 0.137723846233783 
595	 0.138623903844409 
596	 0.13949171529979 
597	 0.14034415600569 
598	 0.141190919178435 
599	 0.142036749432692 
600	 0.142838408217376 
601	 0.143669602536174 
602	 0.144520936225064 
603	 0.145207610871167 
604	 0.145912800528454 
605	 0.14663453303998 
606	 0.147321617885896 
607	 0.148031638288261 
608	 0.148717987877515 
609	 0.14936843524263 
610	 0.150017240881006 
611	 0.150657482104301 
612	 0.151226410458199 
613	 0.151699178723551 
614	 0.152230473908278 
615	 0.152731699984256 
616	 0.153161135034666 
617	 0.153520001329702 
618	 0.153915690896326 
619	 0.154316307420007 
620	 0.15468362170842 
621	 0.155008482230985 
622	 0.155336618671679 
623	 0.155674289169349 
624	 0.156005108077441 
625	 0.15628833690522 
626	 0.156548118400634 
627	 0.156806444725018 
628	 0.15707460968623 
629	 0.157361328729741 
630	 0.157638544408619 
631	 0.157876293521729 
632	 0.158072703483856 
633	 0.158292784933699 
634	 0.158550950205162 
635	 0.158814936823146 
636	 0.159017862610866 
637	 0.159235181872676 
638	 0.159502776747076 
639	 0.159688606339464 
640	 0.159926196889041 
641	 0.16019076246229 
642	 0.160403569817246 
643	 0.160683992027285 
644	 0.160946393775896 
645	 0.161166674418364 
646	 0.161437570330986 
647	 0.161680032286516 
648	 0.161905263951964 
649	 0.162153273985203 
650	 0.162473202407191 
651	 0.162763702440503 
652	 0.163008697283978 
653	 0.163271945790883 
654	 0.163599094916772 
655	 0.163896320025297 
656	 0.164124649866639 
657	 0.164444603930022 
658	 0.164804041255102 
659	 0.165138641182923 
660	 0.165401476044266 
661	 0.165761461590536 
662	 0.16612077884611 
663	 0.166435969373236 
664	 0.166778788873082 
665	 0.167134988412489 
666	 0.167529192289353 
667	 0.167959382086745 
668	 0.168270504145397 
669	 0.168620369675398 
670	 0.169051422734289 
671	 0.169497482036587 
672	 0.169909233374123 
673	 0.170326463342905 
674	 0.170779053989252 
675	 0.171236398674807 
676	 0.171674481361233 
677	 0.172097672042449 
678	 0.172530607227696 
679	 0.173024053566214 
680	 0.17352429845564 
681	 0.174015235201101 
682	 0.174543224911493 
683	 0.175069084176469 
684	 0.175556502274465 
685	 0.176017027585576 
686	 0.176632778840078 
687	 0.177210106760901 
688	 0.177715578647779 
689	 0.178235951301593 
690	 0.178780101180549 
691	 0.179329290056742 
692	 0.17989489129457 
693	 0.180573102839284 
694	 0.181179016740903 
695	 0.181737918803629 
696	 0.18233684257209 
697	 0.182917023077703 
698	 0.183544917424474 
699	 0.184212227013514 
700	 0.184828090053647 
701	 0.185438322790926 
702	 0.186056528510144 
703	 0.186686660630977 
704	 0.187328959985406 
705	 0.187927292479047 
706	 0.188532415659777 
707	 0.189226874615904 
708	 0.189856338816114 
709	 0.190477786119195 
710	 0.191127675340425 
711	 0.191782268542147 
712	 0.192396773120384 
713	 0.192972656926019 
714	 0.193540699747391 
715	 0.194180203399032 
716	 0.194789808710374 
717	 0.195362942358941 
718	 0.195959118500165 
719	 0.196524803280962 
720	 0.197057341345133 
721	 0.197569435524674 
722	 0.198085256796029 
723	 0.19863270180082 
724	 0.199171985614837 
725	 0.19965528934772 
726	 0.200130936043727 
727	 0.200553502578072 
728	 0.200933306605638 
729	 0.20133347777585 
730	 0.201774454929961 
731	 0.20215684049759 
732	 0.202437130881516 
733	 0.20275282512298 
734	 0.20308535630702 
735	 0.203380011051006 
736	 0.203590188277897 
737	 0.203841986398437 
738	 0.204064576258126 
739	 0.20422654297894 
740	 0.20435557096644 
741	 0.204452305914957 
742	 0.204551351462239 
743	 0.204655135485802 
744	 0.204662049984856 
745	 0.204638768181893 
746	 0.204638092820392 
747	 0.204674173292459 
748	 0.204547107236756 
749	 0.204421383464409 
750	 0.204348760986632 
751	 0.204207072220642 
752	 0.204050795168394 
753	 0.203898891590825 
754	 0.20374366505889 
755	 0.20351747059273 
756	 0.20330179209481 
757	 0.203087059992096 
758	 0.20281886303379 
759	 0.202488002262711 
760	 0.202163888163087 
761	 0.201860425863926 
762	 0.201513697004408 
763	 0.201221990155328 
764	 0.200892751308918 
765	 0.200465289152448 
766	 0.200101823202788 
767	 0.199742471132733 
768	 0.199342796040533 
769	 0.198889153503834 
770	 0.198534376249087 
771	 0.198165635878379 
772	 0.197735610569819 
773	 0.197304630909982 
774	 0.196879942853097 
775	 0.196428709497108 
776	 0.195946384826639 
777	 0.195536814403637 
778	 0.19510668421545 
779	 0.194660169700181 
780	 0.194231339864665 
781	 0.193733664612246 
782	 0.193287247504325 
783	 0.192877396845509 
784	 0.192344408325488 
785	 0.191881166176439 
786	 0.191483043952944 
787	 0.191092683516959 
788	 0.190618678621908 
789	 0.190170636301489 
790	 0.189754265974082 
791	 0.189338962400007 
792	 0.188934961708485 
793	 0.188509973950734 
794	 0.18805132755511 
795	 0.187573243253375 
796	 0.187160479621117 
797	 0.186788770769887 
798	 0.186409166197165 
799	 0.185961663674722 
800	 0.185553460859201 
801	 0.185170063925437 
802	 0.184769323327544 
803	 0.184355138001389 
804	 0.183997433378024 
805	 0.183671327426182 
806	 0.183304033017723 
807	 0.18298010359197 
808	 0.18258284468589 
809	 0.182124791854914 
810	 0.181803057865974 
811	 0.181489329688334 
812	 0.181187953618164 
813	 0.180906132468735 
814	 0.180582238979943 
815	 0.180250910891448 
816	 0.179914883630323 
817	 0.179578002940405 
818	 0.179314671511793 
819	 0.179062773460567 
820	 0.178794443937815 
821	 0.178519932200047 
822	 0.17824716708175 
823	 0.177976943036254 
824	 0.177714708897167 
825	 0.177475962834846 
826	 0.177242608935479 
827	 0.17702526071617 
828	 0.176820028718178 
829	 0.176544244882684 
830	 0.176331490322815 
831	 0.176145547404421 
832	 0.175895455262572 
833	 0.17571434751634 
834	 0.175590159821011 
835	 0.175452249098528 
836	 0.175204012976677 
837	 0.175008081823265 
838	 0.174853927777226 
839	 0.174712845230956 
840	 0.174578286934186 
841	 0.174413411754429 
842	 0.174237794240758 
843	 0.174092242887752 
844	 0.174035964982776 
845	 0.173925454185253 
846	 0.173772734150155 
847	 0.173661702345372 
848	 0.173610208806863 
849	 0.173522903224402 
850	 0.173401970265952 
851	 0.173333260225818 
852	 0.173284383380557 
853	 0.173251310029932 
854	 0.173211236388676 
855	 0.173113835400023 
856	 0.173090506406548 
857	 0.173050131689364 
858	 0.172928142974262 
859	 0.172855421688479 
860	 0.172876424245332 
861	 0.172935296500684 
862	 0.172951809047527 
863	 0.172944949978226 
864	 0.172897474973429 
865	 0.172871412011624 
866	 0.172945287647436 
867	 0.172957867396208 
868	 0.17299052370393 
869	 0.173049331006766 
870	 0.173050687774185 
871	 0.173071207327639 
872	 0.173102474677687 
873	 0.173152359959996 
874	 0.173274939310793 
875	 0.173361435123759 
876	 0.173425648451292 
877	 0.17350534126891 
878	 0.173612308896965 
879	 0.173730334203167 
880	 0.173842690117863 
881	 0.173943090908341 
882	 0.174068208222736 
883	 0.174177358286803 
884	 0.174279643947244 
885	 0.174407010519911 
886	 0.174532585400177 
887	 0.174726044247517 
888	 0.174931777538734 
889	 0.175011752189692 
890	 0.175140428812301 
891	 0.175332377320727 
892	 0.175573225259784 
893	 0.175833628880279 
894	 0.175946854192541 
895	 0.176083820207826 
896	 0.176345741673423 
897	 0.176586206403285 
898	 0.176800416818264 
899	 0.17701584082873 
900	 0.177264579833814 
901	 0.177558835079326 
902	 0.177843761029453 
903	 0.178118886029598 
904	 0.178403196288465 
905	 0.178711692658576 
906	 0.178974339497086 
907	 0.179215589151122 
908	 0.179494423417942 
909	 0.179783918726162 
910	 0.180055251994385 
911	 0.180350902981294 
912	 0.180729620021862 
913	 0.181028493638547 
914	 0.181365676717139 
915	 0.18176504830638 
916	 0.182148004728753 
917	 0.182503006575006 
918	 0.182888450190664 
919	 0.18329899561147 
920	 0.183652163240546 
921	 0.184027687880391 
922	 0.184437065705745 
923	 0.184869145748742 
924	 0.185299581755071 
925	 0.185741927149744 
926	 0.186239070275727 
927	 0.18676612106033 
928	 0.187170054257317 
929	 0.187634099602961 
930	 0.188129551947009 
931	 0.188608173997169 
932	 0.189111473673862 
933	 0.189634194934763 
934	 0.190135994239535 
935	 0.190610954271806 
936	 0.191181290534119 
937	 0.191712325250434 
938	 0.192197397272325 
939	 0.192694549824552 
940	 0.193312907326162 
941	 0.19394218940565 
942	 0.194568626495638 
943	 0.195210627877998 
944	 0.195837432901254 
945	 0.196498275194674 
946	 0.197149600929849 
947	 0.197737443541719 
948	 0.19837134726429 
949	 0.198951917081091 
950	 0.199531172397164 
951	 0.200218423657121 
952	 0.200975861563158 
953	 0.201753172594293 
954	 0.202468348576462 
955	 0.203071182987479 
956	 0.203724259263219 
957	 0.20448706455657 
958	 0.20525761404848 
959	 0.20590438199178 
960	 0.206678343833207 
961	 0.207530064787514 
962	 0.208365698734658 
963	 0.209109904790905 
964	 0.209891973847496 
965	 0.21066841093934 
966	 0.21147582266624 
967	 0.212370409386561 
968	 0.2131462695756 
969	 0.213946234814589 
970	 0.214783456579659 
971	 0.215579267445988 
972	 0.216384731555798 
973	 0.217317438401213 
974	 0.218316647206509 
975	 0.219216328477151 
976	 0.220005719674949 
977	 0.220848043447389 
978	 0.221782120251348 
979	 0.222728200917782 
980	 0.223543200579499 
981	 0.224271872234954 
982	 0.225084229458474 
983	 0.226126383256131 
984	 0.2270848586133 
985	 0.22806501515412 
986	 0.229057083290805 
987	 0.229983642901117 
988	 0.23083375848929 
989	 0.231815529134211 
990	 0.232866539282871 
991	 0.233800967530848 
992	 0.234603454288488 
993	 0.235555993623317 
994	 0.236640369777355 
995	 0.237663756413132 
996	 0.238411445433691 
997	 0.239255424611432 
998	 0.240217909581984 
999	 0.241187485723325 
1000	 0.242179752942515 
1001	 0.247061899074998 
1002	 0.247905955706343 
1003	 0.248817048179743 
1004	 0.249743463885237 
1005	 0.25075469155405 
1006	 0.251687990911514 
1007	 0.252605592387316 
1008	 0.253490305382138 
1009	 0.254375594952571 
1010	 0.255267864142813 
1011	 0.256177515178143 
1012	 0.25707634719981 
1013	 0.257948282846561 
1014	 0.258836358725946 
1015	 0.259622699079028 
1016	 0.260359666401395 
1017	 0.261182052721089 
1018	 0.262033316154084 
1019	 0.262837841987033 
1020	 0.263677325849482 
1021	 0.264551938412276 
1022	 0.265335143723982 
1023	 0.266110508956162 
1024	 0.266904106515074 
1025	 0.267669319887308 
1026	 0.268373564180124 
1027	 0.269019585624664 
1028	 0.269708956322881 
1029	 0.270414621254049 
1030	 0.271150712746983 
1031	 0.271889123917506 
1032	 0.272674335997067 
1033	 0.27336601299326 
1034	 0.274064731048729 
1035	 0.27476622915824 
1036	 0.275425787580709 
1037	 0.276098266817346 
1038	 0.276765561191722 
1039	 0.27745283202554 
1040	 0.278107807494694 
1041	 0.278726556066008 
1042	 0.279396169249744 
1043	 0.280073394096124 
1044	 0.280719190747154 
1045	 0.281355384421231 
1046	 0.282035078092366 
1047	 0.282685719139181 
1048	 0.283323526666454 
1049	 0.284018164359723 
1050	 0.284682099820835 
1051	 0.285322711852709 
1052	 0.285918992553296 
1053	 0.2865232967747 
1054	 0.287188801187624 
1055	 0.287843780398705 
1056	 0.288510753731386 
1057	 0.289150987445613 
1058	 0.28974752350523 
1059	 0.290372734130558 
1060	 0.291018793305721 
1061	 0.291624063029794 
1062	 0.292183922277021 
1063	 0.292760656285518 
1064	 0.293360331246933 
1065	 0.293978970160661 
1066	 0.294638235922812 
1067	 0.295295120896299 
1068	 0.295866428834692 
1069	 0.296412079971763 
1070	 0.297009420598822 
1071	 0.297621410528911 
1072	 0.298245072788734 
1073	 0.298934792378929 
1074	 0.299547085941794 
1075	 0.300120117546529 
1076	 0.300686187500619 
1077	 0.301241785074387 
1078	 0.301803780136208 
1079	 0.302409577464959 
1080	 0.302956744497759 
1081	 0.303451072594933 
1082	 0.303997324064338 
1083	 0.304531331122682 
1084	 0.305034730186891 
1085	 0.305577228933167 
1086	 0.306116330104392 
1087	 0.306695076080946 
1088	 0.307303230630457 
1089	 0.307938911352519 
1090	 0.3085173453129 
1091	 0.309088531905942 
1092	 0.309606903859089 
1093	 0.310111454226424 
1094	 0.310686862996812 
1095	 0.311268662791083 
1096	 0.311841044962617 
1097	 0.312431524776081 
1098	 0.313003278724088 
1099	 0.313557625144318 
1100	 0.314121601434261 
1101	 0.31465718308305 
1102	 0.315245741185047 
1103	 0.315855898596265 
1104	 0.316502031340224 
1105	 0.317132597306509 
1106	 0.317759269783916 
1107	 0.318356597154248 
1108	 0.318930392587914 
1109	 0.319501932003055 
1110	 0.320069749258781 
1111	 0.320694705640524 
1112	 0.321359237318047 
1113	 0.321991215761701 
1114	 0.322666380846636 
1115	 0.323311763164018 
1116	 0.323905775452321 
1117	 0.32452743669221 
1118	 0.325163431998243 
1119	 0.325797002924405 
1120	 0.326451015489786 
1121	 0.327097699638834 
1122	 0.327736708776692 
1123	 0.328383507093627 
1124	 0.329029173902403 
1125	 0.329663351283906 
1126	 0.330309451635838 
1127	 0.330970338714121 
1128	 0.331613054066426 
1129	 0.332240168710666 
1130	 0.332879410876915 
1131	 0.333534284733084 
1132	 0.334169895319896 
1133	 0.334811314834389 
1134	 0.335429753476552 
1135	 0.336018255221307 
1136	 0.3366000486278 
1137	 0.337211103201044 
1138	 0.337800280573881 
1139	 0.338412071418833 
1140	 0.33905504519452 
1141	 0.3396612914545 
1142	 0.340271817396116 
1143	 0.340850161806258 
1144	 0.341387049727892 
1145	 0.341948342035112 
1146	 0.342503818661688 
1147	 0.343054881658572 
1148	 0.343620123166029 
1149	 0.344171780538089 
1150	 0.344710013865295 
1151	 0.345240220868024 
1152	 0.345783915533804 
1153	 0.346313536367203 
1154	 0.346840665671539 
1155	 0.347367977677514 
1156	 0.347885792122789 
1157	 0.34840645641312 
1158	 0.348895084436825 
1159	 0.349354735187657 
1160	 0.34983330962408 
1161	 0.350294677738996 
1162	 0.350770719717215 
1163	 0.35126588098913 
1164	 0.351752395942689 
1165	 0.352241502851983 
1166	 0.352721642580041 
1167	 0.35319034322372 
1168	 0.353686810175016 
1169	 0.354150793078338 
1170	 0.354605222053354 
1171	 0.35504318158725 
1172	 0.355473571202018 
1173	 0.35588006879721 
1174	 0.356250124236704 
1175	 0.356647105836989 
1176	 0.357045148269245 
1177	 0.357433538426627 
1178	 0.357833741077432 
1179	 0.358223152453043 
1180	 0.358599873485954 
1181	 0.358968196488627 
1182	 0.359327227209581 
1183	 0.359688550202707 
1184	 0.360060298774642 
1185	 0.360432950256634 
1186	 0.360793028567406 
1187	 0.361176349669249 
1188	 0.361515424961739 
1189	 0.361808551697126 
1190	 0.362129744967837 
1191	 0.362450010147058 
1192	 0.362764475339629 
1193	 0.363091960568924 
1194	 0.363402253781703 
1195	 0.363683847932603 
1196	 0.36398491536536 
1197	 0.364306290564291 
1198	 0.364602314585545 
1199	 0.364890658496975 
1200	 0.365180061667311 
1201	 0.365463133488105 
1202	 0.365726106819795 
1203	 0.365995882578478 
1204	 0.366274417433653 
1205	 0.366541712650248 
1206	 0.36680363909205 
1207	 0.367053379415278 
1208	 0.367303075174287 
1209	 0.367536967829527 
1210	 0.367741629227489 
1211	 0.367961888923622 
1212	 0.368188191197654 
1213	 0.368403958139587 
1214	 0.368625868836218 
1215	 0.368835026215594 
1216	 0.369034431748045 
1217	 0.369213381924108 
1218	 0.369411787526003 
1219	 0.369615378486491 
1220	 0.369807514508337 
1221	 0.370007552362138 
1222	 0.370190772345592 
1223	 0.370350757669808 
1224	 0.370525911043248 
1225	 0.370711451102653 
1226	 0.370879314737922 
1227	 0.371039859839879 
1228	 0.371202978378175 
1229	 0.37135926202879 
1230	 0.371510193057296 
1231	 0.371660704159297 
1232	 0.371811606805166 
1233	 0.371959186601053 
1234	 0.372092538125024 
1235	 0.372244187200854 
1236	 0.37240798823455 
1237	 0.372563678522975 
1238	 0.372734617027414 
1239	 0.372871966771895 
1240	 0.372995281064496 
1241	 0.37311135210439 
1242	 0.37319053512037 
1243	 0.373300012120087 
1244	 0.373414948399711 
1245	 0.373536586188662 
1246	 0.373685914238264 
1247	 0.373813122628103 
1248	 0.373926276017936 
1249	 0.374055647267393 
1250	 0.374156795734647 
1251	 0.374248557972955 
1252	 0.374342622470519 
1253	 0.374434476923718 
1254	 0.374515774437755 
1255	 0.374576500483193 
1256	 0.37467033430047 
1257	 0.374772280363335 
1258	 0.374873587766563 
1259	 0.375002996552979 
1260	 0.375114658278664 
1261	 0.375220311076889 
1262	 0.375312070723564 
1263	 0.375396812860612 
1264	 0.375477176147202 
1265	 0.375526639016831 
1266	 0.37560049874675 
1267	 0.375692505964161 
1268	 0.375779227203993 
1269	 0.375861934074518 
1270	 0.375951314545976 
1271	 0.376033457202528 
1272	 0.37611272639681 
1273	 0.376179048500969 
1274	 0.376233675871199 
1275	 0.376303674747127 
1276	 0.376357801713141 
1277	 0.376433914116728 
1278	 0.376540692447489 
1279	 0.376632329922337 
1280	 0.37672278116341 
1281	 0.376811120457821 
1282	 0.376891427954284 
1283	 0.376980524349772 
1284	 0.377071797250787 
1285	 0.377170065427548 
1286	 0.37725984779387 
1287	 0.377358956958232 
1288	 0.377439510990134 
1289	 0.377502359443781 
1290	 0.377581594341231 
1291	 0.377662362289984 
1292	 0.377737725858901 
1293	 0.377824206242478 
1294	 0.377889238746363 
1295	 0.377944635856093 
1296	 0.377985256289453 
1297	 0.378007817738384 
1298	 0.37803656085745 
1299	 0.378060894649003 
1300	 0.378075040113796 
1301	 0.378081432543734 
1302	 0.378085116280009 
1303	 0.378079103208089 
1304	 0.378071050274378 
1305	 0.378060308792254 
1306	 0.378044169997099 
1307	 0.377991307978817 
1308	 0.377934189327308 
1309	 0.377891461147762 
1310	 0.377842294693445 
1311	 0.377806405172431 
1312	 0.377787676159484 
1313	 0.37776117157738 
1314	 0.377736623663619 
1315	 0.377705990871782 
1316	 0.377658085166465 
1317	 0.377644580402662 
1318	 0.377650427280477 
1319	 0.377644409252142 
1320	 0.377662967478015 
1321	 0.377666773844327 
1322	 0.377652109895384 
1323	 0.377634239704089 
1324	 0.377635365509293 
1325	 0.37763824832908 
1326	 0.377639459817394 
1327	 0.377665977641088 
1328	 0.377708679123565 
1329	 0.377738793899379 
1330	 0.377774351849954 
1331	 0.377813865420767 
1332	 0.377861899802444 
1333	 0.377901411259122 
1334	 0.377968845360599 
1335	 0.378057861041537 
1336	 0.378144896668268 
1337	 0.378244814908049 
1338	 0.378347193642545 
1339	 0.378468180388801 
1340	 0.378561037465676 
1341	 0.378637960332455 
1342	 0.378727064737773 
1343	 0.378807937373114 
1344	 0.378885799610997 
1345	 0.378978811282101 
1346	 0.37907560599497 
1347	 0.37915662281023 
1348	 0.379257638883413 
1349	 0.379372456123583 
1350	 0.379471828574772 
1351	 0.379571458949177 
1352	 0.379663516493417 
1353	 0.379771706569925 
1354	 0.379883033089658 
1355	 0.379995952423262 
1356	 0.380129974210053 
1357	 0.380238460781009 
1358	 0.380341569470485 
1359	 0.380430761811981 
1360	 0.380495397469895 
1361	 0.380574938523153 
1362	 0.380637704286943 
1363	 0.380721330507433 
1364	 0.380843727885189 
1365	 0.380932357676667 
1366	 0.38100913851447 
1367	 0.381087499954149 
1368	 0.38115379024927 
1369	 0.381219118638397 
1370	 0.381295508492432 
1371	 0.381368381696779 
1372	 0.381420292593402 
1373	 0.381439015202041 
1374	 0.381436508779524 
1375	 0.381411262445369 
1376	 0.381366375270819 
1377	 0.381292450442122 
1378	 0.381207597180878 
1379	 0.381098495312212 
1380	 0.38099218954694 
1381	 0.380887183432463 
1382	 0.380751317006171 
1383	 0.380608690876642 
1384	 0.380434746566411 
1385	 0.380235614110497 
1386	 0.380011817097182 
1387	 0.379773603840491 
1388	 0.379497924961494 
1389	 0.379190333171312 
1390	 0.378848486462389 
1391	 0.378501371143464 
1392	 0.378126290918387 
1393	 0.377697675398227 
1394	 0.377260614736654 
1395	 0.376783374881193 
1396	 0.3762843158994 
1397	 0.375792905430238 
1398	 0.375296628807888 
1399	 0.374802856019773 
1400	 0.374300370722486 
1401	 0.373807728431245 
1402	 0.3733140236223 
1403	 0.372840827744536 
1404	 0.372370999038794 
1405	 0.371920173445022 
1406	 0.371485738917147 
1407	 0.37107105994294 
1408	 0.370657302893466 
1409	 0.370282773003112 
1410	 0.369927138654424 
1411	 0.369612435702835 
1412	 0.369314422578969 
1413	 0.369075814047701 
1414	 0.368916823883386 
1415	 0.36880531086108 
1416	 0.36874548252454 
1417	 0.368727955832191 
1418	 0.368699093746642 
1419	 0.368654350129743 
1420	 0.368649393802699 
1421	 0.368655909432481 
1422	 0.368635563425399 
1423	 0.368626432618252 
1424	 0.368601883041599 
1425	 0.368554261983568 
1426	 0.368504248459926 
1427	 0.36845348789947 
1428	 0.368403790361026 
1429	 0.368336582514867 
1430	 0.368286734734062 
1431	 0.368249801292625 
1432	 0.368204910074972 
1433	 0.368151803279505 
1434	 0.368116537662865 
1435	 0.368096906076031 
1436	 0.368068410652497 
1437	 0.368045049541917 
1438	 0.368022247344523 
1439	 0.367994213615002 
1440	 0.367963333889319 
1441	 0.367947873254018 
1442	 0.367929871127604 
1443	 0.367897278780755 
1444	 0.367857232243686 
1445	 0.367830877778306 
1446	 0.367824087817804 
1447	 0.367828204162598 
1448	 0.367839885826357 
1449	 0.367846237730364 
1450	 0.367841269495357 
1451	 0.367834443344727 
1452	 0.367822730590528 
1453	 0.3678140828055 
1454	 0.367801454608416 
1455	 0.367788217594555 
1456	 0.36776957394988 
1457	 0.36776447507409 
1458	 0.367756232431056 
1459	 0.367766641316369 
1460	 0.367795664452281 
1461	 0.367828646849274 
1462	 0.367881523396682 
1463	 0.367916184732161 
1464	 0.367941256362072 
1465	 0.367976824746918 
1466	 0.367991040857881 
1467	 0.368045217255381 
1468	 0.368127598826884 
1469	 0.368216183892281 
1470	 0.36833198805352 
1471	 0.368443164629036 
1472	 0.368543600588491 
1473	 0.368676776976576 
1474	 0.368813486485092 
1475	 0.368959997199821 
1476	 0.369130012825763 
1477	 0.369282045621176 
1478	 0.369437507369785 
1479	 0.369601010973413 
1480	 0.369759051023285 
1481	 0.369932446397464 
1482	 0.370091684310433 
1483	 0.370236612672645 
1484	 0.370409111885845 
1485	 0.370583500881321 
1486	 0.370770869607087 
1487	 0.370989698543553 
1488	 0.371185677207971 
1489	 0.371378020259692 
1490	 0.371563860312833 
1491	 0.371746216184422 
1492	 0.371922096380599 
1493	 0.372085946641495 
1494	 0.372255337243988 
1495	 0.372431915834265 
1496	 0.372589786667819 
1497	 0.372736364565642 
1498	 0.372890104421734 
1499	 0.373036550223356 
1500	 0.37317458139672 
1501	 0.373308508658812 
1502	 0.373449582185542 
1503	 0.373578475273506 
1504	 0.373722373229671 
1505	 0.37388184626044 
1506	 0.374040623555987 
1507	 0.374192348943344 
1508	 0.374324100351209 
1509	 0.374437709559216 
1510	 0.374563818570691 
1511	 0.374700127879623 
1512	 0.374833976457503 
1513	 0.374990808949895 
1514	 0.375135307795666 
1515	 0.375267015658067 
1516	 0.375410698617754 
1517	 0.375527798266427 
1518	 0.375631484449095 
1519	 0.375725849803284 
1520	 0.375790714998113 
1521	 0.375886791278913 
1522	 0.375983603962028 
1523	 0.376097471883364 
1524	 0.37624212063909 
1525	 0.376358472389159 
1526	 0.376463788967157 
1527	 0.376581646615994 
1528	 0.376699036122867 
1529	 0.376810550729951 
1530	 0.376932277358678 
1531	 0.377041603666547 
1532	 0.37712809619761 
1533	 0.37723143295898 
1534	 0.377347034109013 
1535	 0.37745544957616 
1536	 0.377565810129082 
1537	 0.377670964973679 
1538	 0.377772720908448 
1539	 0.377868324941458 
1540	 0.377958740194185 
1541	 0.37805029102827 
1542	 0.378147192681773 
1543	 0.378223843155799 
1544	 0.378293564951382 
1545	 0.378354064189196 
1546	 0.378394663047559 
1547	 0.378421593707634 
1548	 0.378482256556718 
1549	 0.378562723086347 
1550	 0.378652547023859 
1551	 0.378763718436169 
1552	 0.378873100244105 
1553	 0.378954018041655 
1554	 0.379020008581569 
1555	 0.379103244707401 
1556	 0.379176660340879 
1557	 0.379237100124245 
1558	 0.379320740751518 
1559	 0.379391332172318 
1560	 0.379453817217267 
1561	 0.379505484060411 
1562	 0.379566538607277 
1563	 0.379619909581281 
1564	 0.379686434297592 
1565	 0.379753724760646 
1566	 0.379842924928359 
1567	 0.379954694370117 
1568	 0.380044688761745 
1569	 0.380147575996048 
1570	 0.380230173621253 
1571	 0.380294581916503 
1572	 0.38035476990285 
1573	 0.380411585948049 
1574	 0.380458717176778 
1575	 0.380483639297737 
1576	 0.3805189563651 
1577	 0.380559024820127 
1578	 0.380592997499437 
1579	 0.38063014020085 
1580	 0.380656363072901 
1581	 0.380658203341063 
1582	 0.380686686005064 
1583	 0.380725931086957 
1584	 0.380760808562829 
1585	 0.380794397315128 
1586	 0.380856853933958 
1587	 0.380942377052367 
1588	 0.381003696709584 
1589	 0.381090898845167 
1590	 0.38115003155793 
1591	 0.381163518183094 
1592	 0.381198234299564 
1593	 0.381239462986172 
1594	 0.381276627008842 
1595	 0.381312799746653 
1596	 0.381349247553846 
1597	 0.381384255448224 
1598	 0.381424494777024 
1599	 0.381469062411377 
1600	 0.381508598004291 
1601	 0.381542159688315 
1602	 0.381584746042933 
1603	 0.381636313754427 
1604	 0.38167991928806 
1605	 0.381716234753223 
1606	 0.381768283763243 
1607	 0.381829893193025 
1608	 0.381880575290167 
1609	 0.381941533733833 
1610	 0.381996707219024 
1611	 0.382014601311191 
1612	 0.382030544086243 
1613	 0.382051502248695 
1614	 0.382066156135483 
1615	 0.382091121241282 
1616	 0.382121876809554 
1617	 0.38216640411525 
1618	 0.382206447527671 
1619	 0.382223095625379 
1620	 0.382242601317912 
1621	 0.382256171275591 
1622	 0.382248841910575 
1623	 0.382258476804795 
1624	 0.382274907466307 
1625	 0.382300120382499 
1626	 0.382325719887318 
1627	 0.382362114744299 
1628	 0.382420978182187 
1629	 0.382454907070849 
1630	 0.382480644339206 
1631	 0.382509949918849 
1632	 0.382525897264015 
1633	 0.382562798740633 
1634	 0.382617094501496 
1635	 0.382654285034383 
1636	 0.382693130988931 
1637	 0.382726051805114 
1638	 0.382741928195387 
1639	 0.382777582747655 
1640	 0.38282775656789 
1641	 0.382862815878278 
1642	 0.382905933924334 
1643	 0.382925441332287 
1644	 0.382916540606535 
1645	 0.382936287335997 
1646	 0.382959063057066 
1647	 0.382978570457043 
1648	 0.383007297760734 
1649	 0.383039563082478 
1650	 0.383062985018452 
1651	 0.38309998542002 
1652	 0.38317008959087 
1653	 0.383195964601516 
1654	 0.383207364188083 
1655	 0.383207012926354 
1656	 0.383163399484116 
1657	 0.383166446894525 
1658	 0.3831807984665 
1659	 0.383201066409649 
1660	 0.383251353286027 
1661	 0.383282059748353 
1662	 0.383306683290319 
1663	 0.38333009391623 
1664	 0.383351362623399 
1665	 0.383371090887828 
1666	 0.383392538612055 
1667	 0.383400046800699 
1668	 0.383401542970923 
1669	 0.383397829339016 
1670	 0.383376459508334 
1671	 0.383367010881415 
1672	 0.383358512569107 
1673	 0.383354141230514 
1674	 0.383340108472686 
1675	 0.383359993580786 
1676	 0.383406318617745 
1677	 0.383438567344444 
1678	 0.383494873383775 
1679	 0.383528656762799 
1680	 0.383542564101492 
1681	 0.383558635082334 
1682	 0.383568457516475 
1683	 0.383584455131713 
1684	 0.383603549681858 
1685	 0.383611722109419 
1686	 0.383610903245258 
1687	 0.383627230619569 
1688	 0.383645704488201 
1689	 0.383657458660433 
1690	 0.383682899961684 
1691	 0.383699185640988 
1692	 0.38369351306988 
1693	 0.383705721028884 
1694	 0.383733267826214 
1695	 0.383754119341202 
1696	 0.383778885893164 
1697	 0.383795407331272 
1698	 0.383796358038502 
1699	 0.383820603030294 
1700	 0.383868311928922 
1701	 0.383878246385074 
1702	 0.383885062046586 
1703	 0.383887125712032 
1704	 0.383845657114295 
1705	 0.383842272629857 
1706	 0.383872985786187 
1707	 0.383880761043519 
1708	 0.383892056406322 
1709	 0.383884300439726 
1710	 0.383850312344524 
1711	 0.383838680784602 
1712	 0.383830065312717 
1713	 0.38382255826123 
1714	 0.383836896113043 
1715	 0.383817915848172 
1716	 0.383764833273025 
1717	 0.383750394583783 
1718	 0.383738548871408 
1719	 0.383734636311478 
1720	 0.383758192985601 
1721	 0.383770613866754 
1722	 0.383780427503971 
1723	 0.383785053826606 
1724	 0.383792928173493 
1725	 0.383792550733606 
1726	 0.383776630354969 
1727	 0.383766902823141 
1728	 0.383779078632914 
1729	 0.383748486838739 
1730	 0.383700679702259 
1731	 0.3836365150156 
1732	 0.383538653700082 
1733	 0.383448085777476 
1734	 0.383342023271116 
1735	 0.383253205442238 
1736	 0.383166042262981 
1737	 0.383076940074214 
1738	 0.382989298712742 
1739	 0.382917578129781 
1740	 0.382845233309823 
1741	 0.382793737341147 
1742	 0.382793555369369 
1743	 0.382707869398752 
1744	 0.382573045516206 
1745	 0.382495824080456 
1746	 0.382379227266194 
1747	 0.382390237976851 
1748	 0.382412941826093 
1749	 0.382398657184726 
1750	 0.382355764830877 
1751	 0.382259598061347 
1752	 0.382155663789035 
1753	 0.382069871484157 
1754	 0.381968976877207 
1755	 0.381887215789488 
1756	 0.381825674176348 
1757	 0.381732654701715 
1758	 0.381654612881248 
1759	 0.381602952291851 
1760	 0.381530501050467 
1761	 0.381457212383688 
1762	 0.381389626704753 
1763	 0.381304339426166 
1764	 0.381227586324383 
1765	 0.381179062245868 
1766	 0.381164999423879 
1767	 0.381160785865222 
1768	 0.381136326170999 
1769	 0.381124198110405 
1770	 0.381100263320076 
1771	 0.381055966723439 
1772	 0.381015469817604 
1773	 0.380938974129511 
1774	 0.380835991995465 
1775	 0.380740825292112 
1776	 0.38066843076137 
1777	 0.380624376599371 
1778	 0.38060782956226 
1779	 0.380618027789179 
1780	 0.380613148465964 
1781	 0.380601810914371 
1782	 0.380595846054909 
1783	 0.380557908443209 
1784	 0.380522545450531 
1785	 0.380486388399279 
1786	 0.38044535552815 
1787	 0.380378913095816 
1788	 0.38034327812289 
1789	 0.380313637520469 
1790	 0.380306268071745 
1791	 0.380344065616062 
1792	 0.380357417465288 
1793	 0.380389238921056 
1794	 0.38037610567208 
1795	 0.380334412555154 
1796	 0.380285243871062 
1797	 0.380177060755272 
1798	 0.380134412277569 
1799	 0.380112800988868 
1800	 0.380094794715204 
1801	 0.374549445112016 
1802	 0.374473397814004 
1803	 0.374460666381047 
1804	 0.374411385324214 
1805	 0.374397750961793 
1806	 0.374456490541768 
1807	 0.374480005156004 
1808	 0.374490957549835 
1809	 0.374514725311827 
1810	 0.374531614450883 
1811	 0.374524970746012 
1812	 0.374517357985566 
1813	 0.374509323317971 
1814	 0.374499135427737 
1815	 0.374494246034626 
1816	 0.374481119513763 
1817	 0.374465674052992 
1818	 0.374463378343713 
1819	 0.374454021311536 
1820	 0.374434837889532 
1821	 0.374407057043508 
1822	 0.374380233507991 
1823	 0.374382502908819 
1824	 0.374394015921096 
1825	 0.374385771199401 
1826	 0.37437533327733 
1827	 0.374348497879209 
1828	 0.374304343465301 
1829	 0.374213946740902 
1830	 0.374152480650546 
1831	 0.374095378560747 
1832	 0.374039056501483 
1833	 0.373977613235547 
1834	 0.373917065969156 
1835	 0.37387256932345 
1836	 0.373839795030587 
1837	 0.373783075245807 
1838	 0.373717808559763 
1839	 0.373653657924277 
1840	 0.373576631172083 
1841	 0.373482146162518 
1842	 0.37341503257065 
1843	 0.373350490205616 
1844	 0.373247315041737 
1845	 0.373144074413502 
1846	 0.373034643325755 
1847	 0.372928626811223 
1848	 0.372841218690695 
1849	 0.372745300412399 
1850	 0.372665655028288 
1851	 0.372603701446148 
1852	 0.372533511121028 
1853	 0.372449146046942 
1854	 0.372375010720353 
1855	 0.372239804206164 
1856	 0.372078857302476 
1857	 0.371923735687315 
1858	 0.37173259476166 
1859	 0.371539930566879 
1860	 0.371338734859223 
1861	 0.371134015089561 
1862	 0.370905257620825 
1863	 0.370659700478652 
1864	 0.370391771198935 
1865	 0.370118973045828 
1866	 0.369803527367655 
1867	 0.369443247327884 
1868	 0.369062846074018 
1869	 0.368653522575218 
1870	 0.368219157994478 
1871	 0.367727003482882 
1872	 0.367204075229449 
1873	 0.366641480875524 
1874	 0.366017751075901 
1875	 0.365337417505375 
1876	 0.36462810694901 
1877	 0.36388184625773 
1878	 0.363083327825616 
1879	 0.362194292649397 
1880	 0.361212307566238 
1881	 0.360141166804642 
1882	 0.359006687684278 
1883	 0.357780865863422 
1884	 0.356475341611557 
1885	 0.355152462032308 
1886	 0.353745745980189 
1887	 0.352223312172642 
1888	 0.350692479088498 
1889	 0.349097161938058 
1890	 0.34742899076012 
1891	 0.345740212332671 
1892	 0.343971232055401 
1893	 0.342236090369569 
1894	 0.340467110646279 
1895	 0.338738210377644 
1896	 0.336991458186737 
1897	 0.335295573551282 
1898	 0.333622544769471 
1899	 0.331978186278655 
1900	 0.330417348035842 
1901	 0.328926288744797 
1902	 0.327511762261817 
1903	 0.326157702487892 
1904	 0.32489378190726 
1905	 0.323710076648685 
1906	 0.322627882956416 
1907	 0.321597693588796 
1908	 0.320612421042896 
1909	 0.31972190673114 
1910	 0.318872241752514 
1911	 0.318072343823221 
1912	 0.317347148086024 
1913	 0.316668222951258 
1914	 0.316041764142712 
1915	 0.315449595754252 
1916	 0.314906602688897 
1917	 0.314412174824981 
1918	 0.313972965406048 
1919	 0.313552521997197 
1920	 0.313185358894773 
1921	 0.312873500545465 
1922	 0.312574939404121 
1923	 0.31231740954803 
1924	 0.312100793589298 
1925	 0.311946007552699 
1926	 0.31180061263377 
1927	 0.311681423350482 
1928	 0.311580614402742 
1929	 0.311542208567649 
1930	 0.311518429043447 
1931	 0.311515285112329 
1932	 0.311567147281842 
1933	 0.311603923029878 
1934	 0.31165688292083 
1935	 0.311746067514299 
1936	 0.311850907521203 
1937	 0.311996163854211 
1938	 0.312194813782303 
1939	 0.312392602890663 
1940	 0.312609115919408 
1941	 0.312855235915699 
1942	 0.313107655744363 
1943	 0.313367168420502 
1944	 0.313660955248603 
1945	 0.313984781257254 
1946	 0.314304104017023 
1947	 0.314633015244777 
1948	 0.314976284712284 
1949	 0.31534032411075 
1950	 0.315685918422268 
1951	 0.316025106328265 
1952	 0.316390755094637 
1953	 0.316744923120046 
1954	 0.31711461700466 
1955	 0.317517419913837 
1956	 0.317912482761834 
1957	 0.31830415278078 
1958	 0.318679930444143 
1959	 0.319087245935225 
1960	 0.31950719587049 
1961	 0.319934760480071 
1962	 0.320386364618434 
1963	 0.320833010234224 
1964	 0.321282161273701 
1965	 0.32172694661307 
1966	 0.322189060850443 
1967	 0.322666438489842 
1968	 0.323129644815955 
1969	 0.323591007512754 
1970	 0.324054416127209 
1971	 0.324523067479546 
1972	 0.324978721253257 
1973	 0.325425278819463 
1974	 0.325881755324603 
1975	 0.32634015467586 
1976	 0.326775698164186 
1977	 0.327248747725863 
1978	 0.327719313689765 
1979	 0.328158261489415 
1980	 0.328635210940467 
1981	 0.329110063116037 
1982	 0.32957838297621 
1983	 0.330064146485121 
1984	 0.330594766507619 
1985	 0.331075713743162 
1986	 0.331530597497426 
1987	 0.332002411332268 
1988	 0.332467363792249 
1989	 0.332907764600544 
1990	 0.333404092638065 
1991	 0.333901565751647 
1992	 0.334397935400217 
1993	 0.334921361396142 
1994	 0.335408350841025 
1995	 0.335874002790715 
1996	 0.336345877929138 
1997	 0.33680040202322 
1998	 0.337261332896039 
1999	 0.337730932800183 
2000	 0.338195239876585 
2001	 0.33866429101674 
2002	 0.339110614351239 
2003	 0.339560690957808 
2004	 0.340016783224273 
2005	 0.34046169521127 
2006	 0.340902056386357 
2007	 0.341338965574571 
2008	 0.341759175280208 
2009	 0.342195880219453 
2010	 0.342639989961153 
2011	 0.343079815412538 
2012	 0.343536638988959 
2013	 0.343975320256932 
2014	 0.344405136085947 
2015	 0.344819822042755 
2016	 0.345235249869488 
2017	 0.345655714521632 
2018	 0.346088423395563 
2019	 0.346546760817565 
2020	 0.346970468489988 
2021	 0.347406895859977 
2022	 0.347801830071294 
2023	 0.348139426835164 
2024	 0.348508505059692 
2025	 0.348871718754501 
2026	 0.349234787247872 
2027	 0.349611227422481 
2028	 0.349983831364929 
2029	 0.350343874957928 
2030	 0.350691855922351 
2031	 0.351036660464028 
2032	 0.35136956990647 
2033	 0.35171949869593 
2034	 0.352066850686962 
2035	 0.352421159262817 
2036	 0.352795787980868 
2037	 0.353153490118952 
2038	 0.353528170703301 
2039	 0.353861175297034 
2040	 0.354173196858443 
2041	 0.354465024836783 
2042	 0.354739564491505 
2043	 0.355008548094344 
2044	 0.355277706857739 
2045	 0.355541946789159 
2046	 0.355824340559734 
2047	 0.356102911127942 
2048	 0.356389769611303 
2049	 0.356709150848312 
2050	 0.356998110394251 
2051	 0.357272783817307 
2052	 0.357547680860632 
2053	 0.357815206824891 
2054	 0.358076077756299 
2055	 0.358323651540268 
2056	 0.358586979893898 
2057	 0.358832369185478 
2058	 0.359061449097315 
2059	 0.359304377080458 
2060	 0.359540559397833 
2061	 0.359793040665011 
2062	 0.360056192482349 
2063	 0.360322991643122 
2064	 0.360620334492496 
2065	 0.360881014270947 
2066	 0.361127642365902 
2067	 0.361371329811442 
2068	 0.361603573703444 
2069	 0.361805853521518 
2070	 0.362038847181134 
2071	 0.362289405931599 
2072	 0.362518842000092 
2073	 0.362754693780239 
2074	 0.362966665976184 
2075	 0.363135875196155 
2076	 0.363353417504217 
2077	 0.363573518716312 
2078	 0.363813807719014 
2079	 0.364112958211008 
2080	 0.364367803879153 
2081	 0.364623208748114 
2082	 0.364849719662239 
2083	 0.365042157407489 
2084	 0.365230584629572 
2085	 0.365417740275923 
2086	 0.365587083897942 
2087	 0.365770792159948 
2088	 0.365957637970657 
2089	 0.366143582313421 
2090	 0.366327669279467 
2091	 0.366516612633176 
2092	 0.366699126436073 
2093	 0.366903759412881 
2094	 0.367125116503518 
2095	 0.367342641909141 
2096	 0.367588980069611 
2097	 0.367808857093518 
2098	 0.368016544829426 
2099	 0.368215071477696 
2100	 0.368404943419801 
2101	 0.368573230879385 
2102	 0.368758383123612 
2103	 0.368934342968266 
2104	 0.36913422309215 
2105	 0.369343332843358 
2106	 0.369565094632158 
2107	 0.369804728851708 
2108	 0.370047444197633 
2109	 0.37032058907959 
2110	 0.370564006898451 
2111	 0.370802612719868 
2112	 0.371031500767042 
2113	 0.371250648474852 
2114	 0.371439987569357 
2115	 0.371647048576923 
2116	 0.371856305306306 
2117	 0.37206182546865 
2118	 0.37225459683359 
2119	 0.372475066491781 
2120	 0.372702394802408 
2121	 0.372940726725814 
2122	 0.373213530397775 
2123	 0.373456601323602 
2124	 0.373712518559579 
2125	 0.373929010877031 
2126	 0.374122685846492 
2127	 0.374299263006279 
2128	 0.374436618973068 
2129	 0.374576698114171 
2130	 0.374689081366698 
2131	 0.374823779829347 
2132	 0.374951827262823 
2133	 0.375094827857838 
2134	 0.375189400432454 
2135	 0.375281899256648 
2136	 0.375328823954477 
2137	 0.375313286213592 
2138	 0.375324206309873 
2139	 0.375329560654391 
2140	 0.375317446619502 
2141	 0.375316240938291 
2142	 0.375275426179804 
2143	 0.375188406179667 
2144	 0.375110423266777 
2145	 0.375029077160312 
2146	 0.37492082448269 
2147	 0.374788196951558 
2148	 0.374673650279768 
2149	 0.374517862232942 
2150	 0.374321293980867 
2151	 0.374140559153638 
2152	 0.373956574918466 
2153	 0.373752841578806 
2154	 0.373544761428719 
2155	 0.37331821674983 
2156	 0.373071824758363 
2157	 0.372817303846345 
2158	 0.372542928240625 
2159	 0.372269946789698 
2160	 0.372007035868724 
2161	 0.371705045733715 
2162	 0.371350712606986 
2163	 0.37104088455704 
2164	 0.370731055768055 
2165	 0.37041072121685 
2166	 0.370121024867594 
2167	 0.369887045565313 
2168	 0.369604149950362 
2169	 0.369293856872799 
2170	 0.369011506469156 
2171	 0.368756116670964 
2172	 0.368449092382155 
2173	 0.368137537047976 
2174	 0.367804673796238 
2175	 0.367410725499159 
2176	 0.367049598682677 
2177	 0.366704690241392 
2178	 0.366343457037776 
2179	 0.365979291200712 
2180	 0.365611743412099 
2181	 0.365227741019784 
2182	 0.364853461696533 
2183	 0.364483193522921 
2184	 0.36410609298487 
2185	 0.363748220830836 
2186	 0.363401611111831 
2187	 0.363048336496473 
2188	 0.362706194719155 
2189	 0.36235627080337 
2190	 0.361990345997174 
2191	 0.361648049024883 
2192	 0.361296834933777 
2193	 0.360987606270111 
2194	 0.360711970799195 
2195	 0.360437015701556 
2196	 0.360180766455922 
2197	 0.359944415917779 
2198	 0.359694549255125 
2199	 0.359498908453143 
2200	 0.359361249084928 
2201	 0.359223260964858 
2202	 0.359111434973267 
2203	 0.359028417966769 
2204	 0.358928941013953 
2205	 0.358822690455699 
2206	 0.3587434918714 
2207	 0.358654817776983 
2208	 0.35862881348699 
2209	 0.35864199766244 
2210	 0.358675970184992 
2211	 0.358774815112937 
2212	 0.358837213973455 
2213	 0.358905676409684 
2214	 0.358964700306129 
2215	 0.359001298097138 
2216	 0.359065553177419 
2217	 0.359157239908049 
2218	 0.359221448945304 
2219	 0.359294306659757 
2220	 0.359347305883243 
2221	 0.359349367018272 
2222	 0.359392326890584 
2223	 0.359443606670412 
2224	 0.359483378774662 
2225	 0.359512340072215 
2226	 0.359556958648915 
2227	 0.359548164687806 
2228	 0.359507527346382 
2229	 0.359455819880259 
2230	 0.359365476969266 
2231	 0.359289338322358 
2232	 0.359208545440793 
2233	 0.359114140999799 
2234	 0.359006684971595 
2235	 0.358910299193492 
2236	 0.35880226208989 
2237	 0.358704612633732 
2238	 0.358611807642881 
2239	 0.358531230144649 
2240	 0.358450147816616 
2241	 0.358385715163338 
2242	 0.358379484061862 
2243	 0.358315518821356 
2244	 0.358228671727467 
2245	 0.358132200339365 
2246	 0.358017965398194 
2247	 0.357875545523977 
2248	 0.357750883502038 
2249	 0.357633160684383 
2250	 0.357517185662233 
2251	 0.357380165022235 
2252	 0.35730053068205 
2253	 0.357264829097496 
2254	 0.357199528577415 
2255	 0.357151348198594 
2256	 0.357097871964402 
2257	 0.357011822713297 
2258	 0.356969240864561 
2259	 0.356968529234978 
2260	 0.356943804773344 
2261	 0.356911482410428 
2262	 0.356899988329008 
2263	 0.356892494957828 
2264	 0.356895117279778 
2265	 0.356903767639001 
2266	 0.356942813895955 
2267	 0.357017948772678 
2268	 0.357065978829297 
2269	 0.357119673206417 
2270	 0.357188802610705 
2271	 0.357228771827732 
2272	 0.357265407360688 
2273	 0.357305478823462 
2274	 0.357356968754079 
2275	 0.357406439698166 
2276	 0.35743377769002 
2277	 0.35750778966076 
2278	 0.357619210803749 
2279	 0.357699507380338 
2280	 0.357789882381662 
2281	 0.35787699850434 
2282	 0.357967270396524 
2283	 0.358025206280962 
2284	 0.358074080834829 
2285	 0.358113328116492 
2286	 0.358091508405775 
2287	 0.358121560012297 
2288	 0.358189205568843 
2289	 0.358236580670527 
2290	 0.358286957037214 
2291	 0.358351154159681 
2292	 0.358416876758082 
2293	 0.358487925162976 
2294	 0.358582221028091 
2295	 0.358653687476674 
2296	 0.358704885894652 
2297	 0.358766431863065 
2298	 0.358821247410127 
2299	 0.358888445656354 
2300	 0.358992274999984 
2301	 0.359034656267145 
2302	 0.359052967581892 
2303	 0.359108523260776 
2304	 0.359124924047518 
2305	 0.359152201818439 
2306	 0.359170636007204 
2307	 0.359176148804033 
2308	 0.359209379264644 
2309	 0.359257530542304 
2310	 0.359295810544252 
2311	 0.35937018240085 
2312	 0.359391273104105 
2313	 0.359367552538658 
2314	 0.359345553391942 
2315	 0.359289366766848 
2316	 0.359285564663602 
2317	 0.359303440899539 
2318	 0.359312166055799 
2319	 0.359353028785718 
2320	 0.359350936793908 
2321	 0.359291497433401 
2322	 0.359304452229507 
2323	 0.359385925726211 
2324	 0.35939545304244 
2325	 0.359399863969341 
2326	 0.359382436059991 
2327	 0.359294008234276 
2328	 0.359214350407669 
2329	 0.359200650079607 
2330	 0.359223684955362 
2331	 0.359254448716865 
2332	 0.359281153409053 
2333	 0.359279200680027 
2334	 0.359313957757082 
2335	 0.359344880241617 
2336	 0.359355701553421 
2337	 0.359370408244808 
2338	 0.359333656588302 
2339	 0.359254416666765 
2340	 0.359173600253286 
2341	 0.359106539944517 
2342	 0.359036035635038 
2343	 0.358970228613872 
2344	 0.35893212782228 
2345	 0.358869791486609 
2346	 0.358807155197427 
2347	 0.358703172640913 
2348	 0.358575856836716 
2349	 0.358443178594646 
2350	 0.358272696005643 
2351	 0.358135901670408 
2352	 0.358018390214349 
2353	 0.357847504802235 
2354	 0.357625860290633 
2355	 0.357479617554021 
2356	 0.35737380936868 
2357	 0.357225424022941 
2358	 0.357095285711574 
2359	 0.356976652302102 
2360	 0.356833823684304 
2361	 0.356665750722588 
2362	 0.356540595153992 
2363	 0.356352214703035 
2364	 0.356045368799462 
2365	 0.355811845511456 
2366	 0.355618344311627 
2367	 0.355418811294962 
2368	 0.355216526434968 
2369	 0.355040544495001 
2370	 0.354910258224113 
2371	 0.354723159436736 
2372	 0.354484487852025 
2373	 0.354253958950773 
2374	 0.353927121806555 
2375	 0.353589505426051 
2376	 0.353341443856624 
2377	 0.353110014425964 
2378	 0.352906559382126 
2379	 0.352692024718307 
2380	 0.352353777354397 
2381	 0.351981835452531 
2382	 0.351656985868013 
2383	 0.351319393824881 
2384	 0.351042993425068 
2385	 0.350857592845106 
2386	 0.350618867859464 
2387	 0.35035600270458 
2388	 0.350144511958069 
2389	 0.349900468157774 
2390	 0.349615369201877 
2391	 0.349354141350687 
2392	 0.349074840553928 
2393	 0.348722560591137 
2394	 0.348390416286077 
2395	 0.348087353568455 
2396	 0.347747963122642 
2397	 0.347411213098698 
2398	 0.34704596262615 
2399	 0.346629706669909 
2400	 0.346265666183894 
2401	 0.34596419458385 
2402	 0.345635105697459 
2403	 0.345334280587969 
2404	 0.345064246183501 
2405	 0.344683221057034 
2406	 0.344242560460391 
2407	 0.343861390200375 
2408	 0.343457045344928 
2409	 0.343023545128209 
2410	 0.34270142453141 
2411	 0.342399026092634 
2412	 0.34205248831398 
2413	 0.341744758259946 
2414	 0.341450522847292 
2415	 0.341093636099613 
2416	 0.340786021285948 
2417	 0.340525472221758 
2418	 0.340205511247789 
2419	 0.339890685091256 
2420	 0.339573606517617 
2421	 0.339197063707612 
2422	 0.338825082653442 
2423	 0.338469402939276 
2424	 0.338098210068263 
2425	 0.337697001671953 
2426	 0.337286995806551 
2427	 0.336887517632328 
2428	 0.336484174680308 
2429	 0.336018314249774 
2430	 0.33565094751063 
2431	 0.335347859509929 
2432	 0.335008708447225 
2433	 0.334715135305902 
2434	 0.334442416534286 
2435	 0.334178156631405 
2436	 0.333864865185651 
2437	 0.33353318889925 
2438	 0.33319697425766 
2439	 0.332839278696093 
2440	 0.332473135108627 
2441	 0.332197696144098 
2442	 0.331800325390313 
2443	 0.331213749738729 
2444	 0.330776660479993 
2445	 0.330294935813981 
2446	 0.329912652899026 
2447	 0.329705305224391 
2448	 0.329420260468766 
2449	 0.329203108651243 
2450	 0.328903359755267 
2451	 0.328530497529653 
2452	 0.328140555545291 
2453	 0.327727688277685 
2454	 0.327244194363382 
2455	 0.326592159512934 
2456	 0.326151457922382 
2457	 0.325804438384353 
2458	 0.325475252466424 
2459	 0.32537210464414 
2460	 0.325150145652443 
2461	 0.324769710048447 
2462	 0.324438406914596 
2463	 0.324057332132968 
2464	 0.323677729997517 
2465	 0.323360432494363 
2466	 0.323095223954828 
2467	 0.322902153480992 
2468	 0.322643064419644 
2469	 0.322426824147309 
2470	 0.322070851575404 
2471	 0.321618551009432 
2472	 0.321282424532733 
2473	 0.320872664956907 
2474	 0.320441037603348 
2475	 0.320158983685718 
2476	 0.320001766636059 
2477	 0.319714092143171 
2478	 0.319259776262123 
2479	 0.31891923388669 
2480	 0.318468930627946 
2481	 0.318007094920934 
2482	 0.317728829235111 
2483	 0.317440424153918 
2484	 0.317251653824571 
2485	 0.316953144853279 
2486	 0.316570236924648 
2487	 0.316302681085852 
2488	 0.315951900617773 
2489	 0.315697271004623 
2490	 0.315464544386281 
2491	 0.315179979613781 
2492	 0.314886082503357 
2493	 0.314565760436837 
2494	 0.314235369974658 
2495	 0.313770378207731 
2496	 0.313429257110645 
2497	 0.313176311804445 
2498	 0.312991063803645 
2499	 0.31315603205613 
2500	 0.313141532368519 
