Wavelength	LMW300009.asd
350	 0.110854372894553 
351	 0.109579369560507 
352	 0.109213415465096 
353	 0.111915498540169 
354	 0.1103749532583 
355	 0.114103594120866 
356	 0.118881825514767 
357	 0.11960544391742 
358	 0.123506865751759 
359	 0.122536748153033 
360	 0.118457378071295 
361	 0.118817173902063 
362	 0.118462218124602 
363	 0.11857998490505 
364	 0.119807165480381 
365	 0.120921117173424 
366	 0.119450342007341 
367	 0.118376555063965 
368	 0.120923666775972 
369	 0.125738152494616 
370	 0.125298255654958 
371	 0.122916034619482 
372	 0.127923452666162 
373	 0.127528152262929 
374	 0.127729235750045 
375	 0.131665232105356 
376	 0.133558368530933 
377	 0.133091187712743 
378	 0.133650102927702 
379	 0.137702587384922 
380	 0.138809778035345 
381	 0.138690874863904 
382	 0.139264692502074 
383	 0.142039995832945 
384	 0.144542393055125 
385	 0.144285342360856 
386	 0.14255184727026 
387	 0.14784066964701 
388	 0.151843766700403 
389	 0.153080884804394 
390	 0.152938180717026 
391	 0.154405002679859 
392	 0.157153479721668 
393	 0.160932812241645 
394	 0.165463989172207 
395	 0.165977668942224 
396	 0.166837190448712 
397	 0.170547407839944 
398	 0.172433474058576 
399	 0.174650132579281 
400	 0.17814083982713 
401	 0.182687963896506 
402	 0.184184049361367 
403	 0.185558333893192 
404	 0.188163486628922 
405	 0.191255937955313 
406	 0.193704818304057 
407	 0.195479323687477 
408	 0.196802988123056 
409	 0.197702796925538 
410	 0.199130467499881 
411	 0.201687125345387 
412	 0.205300226855556 
413	 0.206948327064649 
414	 0.207655244658571 
415	 0.208401495294197 
416	 0.209580812164057 
417	 0.210299737722529 
418	 0.210824311938019 
419	 0.211616047668905 
420	 0.212943809675049 
421	 0.213136477096646 
422	 0.212651886449072 
423	 0.213170546155783 
424	 0.213696892120441 
425	 0.213689036703089 
426	 0.213172811049461 
427	 0.213075386882546 
428	 0.212616959077241 
429	 0.211997066630303 
430	 0.211557293950539 
431	 0.21070369982865 
432	 0.209885512091253 
433	 0.209454329251236 
434	 0.209586285149999 
435	 0.209649151671481 
436	 0.209793488291277 
437	 0.210207331556011 
438	 0.210700055265769 
439	 0.211675821654364 
440	 0.213030389329141 
441	 0.214425882859205 
442	 0.215921867336091 
443	 0.217645755596055 
444	 0.219433974955474 
445	 0.220651385172027 
446	 0.222064664470693 
447	 0.223788257544587 
448	 0.225678525662768 
449	 0.227419684209398 
450	 0.229155877582324 
451	 0.230852631565291 
452	 0.232330687797729 
453	 0.233895955993272 
454	 0.235379555291605 
455	 0.236733589251445 
456	 0.238459075113597 
457	 0.239883212610419 
458	 0.241039797639814 
459	 0.242252533585687 
460	 0.243378198258715 
461	 0.24443021247709 
462	 0.245418936627012 
463	 0.246326035074897 
464	 0.24741995781198 
465	 0.248494189962353 
466	 0.249315219483506 
467	 0.250112793449955 
468	 0.25083671845729 
469	 0.251520930467607 
470	 0.252274056633161 
471	 0.253250428785875 
472	 0.254051738304098 
473	 0.254506050679828 
474	 0.255152827699959 
475	 0.255960813346588 
476	 0.25668814359275 
477	 0.257092226734513 
478	 0.257731912097357 
479	 0.258590118660999 
480	 0.259480952593885 
481	 0.260068304459344 
482	 0.260535339096902 
483	 0.261254087490038 
484	 0.262362601296207 
485	 0.262898896801383 
486	 0.263237543483799 
487	 0.263761011714301 
488	 0.264763405148051 
489	 0.265422938011008 
490	 0.265984986447873 
491	 0.266695829421577 
492	 0.267314777923142 
493	 0.267872573379756 
494	 0.268551333068147 
495	 0.269514369921907 
496	 0.270192329757231 
497	 0.270781139611968 
498	 0.271390693866362 
499	 0.271883136084994 
500	 0.272416279617999 
501	 0.273064080173996 
502	 0.273820960335369 
503	 0.274489494314414 
504	 0.275091443463182 
505	 0.275658405117685 
506	 0.276223023719183 
507	 0.276812457429262 
508	 0.277370875574093 
509	 0.277864969269501 
510	 0.278349056454675 
511	 0.278976110165454 
512	 0.279629130084659 
513	 0.280084308705554 
514	 0.280579806472328 
515	 0.281112812156148 
516	 0.281661030234855 
517	 0.282221448584204 
518	 0.282761951396018 
519	 0.283251264196142 
520	 0.283692811497928 
521	 0.284253030435101 
522	 0.284785761163134 
523	 0.285243710844043 
524	 0.285700836825475 
525	 0.286141735487167 
526	 0.286603361961133 
527	 0.287100701897957 
528	 0.287547995353661 
529	 0.288031427875954 
530	 0.288508939400788 
531	 0.288872008431917 
532	 0.289265956736604 
533	 0.289790306106892 
534	 0.290408962830846 
535	 0.290819624318524 
536	 0.291233806821492 
537	 0.291668527904892 
538	 0.292075848844045 
539	 0.292486434665555 
540	 0.292933985226092 
541	 0.293406679511534 
542	 0.293833052000972 
543	 0.294263156323364 
544	 0.294696746741308 
545	 0.295138320365812 
546	 0.295685757372996 
547	 0.296113260529563 
548	 0.296461895504892 
549	 0.296989369629278 
550	 0.297467202655792 
551	 0.297928119291672 
552	 0.298431901605129 
553	 0.29898907721303 
554	 0.299533857662965 
555	 0.300042775589022 
556	 0.30052719199903 
557	 0.301074410220001 
558	 0.30167740309608 
559	 0.302300883438194 
560	 0.302888271641853 
561	 0.303406308546138 
562	 0.303825097634157 
563	 0.304178641260173 
564	 0.304803532860668 
565	 0.305356456781074 
566	 0.305821813639368 
567	 0.306585750935345 
568	 0.307261311074079 
569	 0.307976263101719 
570	 0.308849959644793 
571	 0.309558785927294 
572	 0.310254349007194 
573	 0.310982601411916 
574	 0.311697693196985 
575	 0.312216554538188 
576	 0.31276486927512 
577	 0.313486856101935 
578	 0.314218025031293 
579	 0.31494420119284 
580	 0.315675582139788 
581	 0.316457083466067 
582	 0.317438807669563 
583	 0.318452728904867 
584	 0.31936457674446 
585	 0.320130215718868 
586	 0.320889446890567 
587	 0.321635167152473 
588	 0.322335174943922 
589	 0.323061100741729 
590	 0.323762905499552 
591	 0.324454910804563 
592	 0.3252101456558 
593	 0.325969463078968 
594	 0.326684854035942 
595	 0.327396198736239 
596	 0.328375588105252 
597	 0.329455367171268 
598	 0.330496144232167 
599	 0.3313914295172 
600	 0.332171639214729 
601	 0.332983071125762 
602	 0.333844106037533 
603	 0.334530007284089 
604	 0.335087285966497 
605	 0.335659310023577 
606	 0.33637939737076 
607	 0.337093035271357 
608	 0.33772822451396 
609	 0.338343590619128 
610	 0.33913546283521 
611	 0.339897835667627 
612	 0.340653182383231 
613	 0.341433019675565 
614	 0.342125809613151 
615	 0.342732270612354 
616	 0.343298193735981 
617	 0.343893816915791 
618	 0.344497206705513 
619	 0.345064417621579 
620	 0.345577982665971 
621	 0.346079429215097 
622	 0.346560813054979 
623	 0.347035454918796 
624	 0.347526945810568 
625	 0.34808155171741 
626	 0.34855579066111 
627	 0.348946972223112 
628	 0.34945426075757 
629	 0.350022324317092 
630	 0.350498692734948 
631	 0.350795792992927 
632	 0.351178701690651 
633	 0.351585633778148 
634	 0.352021112795874 
635	 0.352532448628703 
636	 0.352861450455867 
637	 0.353241597011381 
638	 0.353790198466433 
639	 0.354119322700348 
640	 0.35448012576205 
641	 0.354906196666728 
642	 0.355337105487144 
643	 0.35579785873447 
644	 0.356204001447496 
645	 0.356553833544498 
646	 0.356977654628704 
647	 0.357371326238089 
648	 0.357743442521455 
649	 0.358135421049411 
650	 0.358584028625317 
651	 0.359031276930242 
652	 0.359443927896887 
653	 0.359818714472742 
654	 0.360227840454556 
655	 0.36063813701091 
656	 0.36101884006879 
657	 0.36138201389769 
658	 0.361851642706993 
659	 0.362351346978066 
660	 0.362734231466441 
661	 0.363148696598403 
662	 0.363604530945169 
663	 0.364093688215722 
664	 0.364607857012179 
665	 0.364928387349466 
666	 0.365297819133441 
667	 0.365927081273438 
668	 0.366299056040179 
669	 0.366747877754619 
670	 0.367298484583766 
671	 0.367715202905835 
672	 0.368204533093275 
673	 0.36872304898866 
674	 0.369212517484403 
675	 0.369675508617329 
676	 0.370188873940887 
677	 0.370697565053383 
678	 0.371123071719736 
679	 0.37166930874719 
680	 0.372204010469089 
681	 0.372704371483149 
682	 0.373328750552733 
683	 0.373865586963663 
684	 0.374328686255267 
685	 0.374801838937083 
686	 0.375390913269655 
687	 0.375941947272766 
688	 0.376461514300845 
689	 0.377057819010112 
690	 0.377556798283031 
691	 0.378049572389016 
692	 0.378610261354478 
693	 0.379208153549098 
694	 0.379788471609889 
695	 0.380349548405582 
696	 0.380903196361415 
697	 0.381381480464584 
698	 0.381973363927893 
699	 0.382674919776517 
700	 0.383269426045343 
701	 0.383765921477052 
702	 0.384280317391749 
703	 0.384880487782121 
704	 0.385430404438669 
705	 0.385940518909355 
706	 0.386494291968177 
707	 0.387164063336988 
708	 0.387584513039246 
709	 0.38804717233851 
710	 0.38865545300874 
711	 0.389140043495903 
712	 0.389758375210696 
713	 0.390358106221462 
714	 0.390787913596148 
715	 0.391341903728446 
716	 0.391874209359257 
717	 0.392375155410955 
718	 0.392925146216357 
719	 0.393382613271709 
720	 0.393744087009294 
721	 0.394073376761635 
722	 0.394515411452864 
723	 0.395047009592844 
724	 0.395553104940323 
725	 0.395931823935436 
726	 0.39632851399045 
727	 0.39674512051465 
728	 0.397136035215472 
729	 0.397427294367991 
730	 0.397775675266995 
731	 0.398060088431463 
732	 0.398228260432338 
733	 0.398510684248839 
734	 0.398823191273261 
735	 0.399108867964771 
736	 0.399327682747226 
737	 0.399499050361446 
738	 0.399699732886552 
739	 0.39990322793849 
740	 0.399973362379081 
741	 0.400043235949283 
742	 0.400203035760545 
743	 0.40042616256132 
744	 0.400403685727607 
745	 0.400321292726179 
746	 0.400296073865294 
747	 0.400377523210802 
748	 0.400395755757309 
749	 0.400333183018132 
750	 0.400211348104956 
751	 0.400080349792902 
752	 0.399983791364835 
753	 0.399921968324042 
754	 0.399853813171283 
755	 0.399648877030115 
756	 0.399501541593041 
757	 0.399373445842681 
758	 0.399130918538688 
759	 0.398911932299 
760	 0.398650457437515 
761	 0.398368164407874 
762	 0.398213090881118 
763	 0.39801833229837 
764	 0.397736721024532 
765	 0.397389014908533 
766	 0.397100216037403 
767	 0.396764939834258 
768	 0.396431682571092 
769	 0.396190195330458 
770	 0.395833521288396 
771	 0.395508136599877 
772	 0.39523399874987 
773	 0.394847941784405 
774	 0.394505903724337 
775	 0.394192672941549 
776	 0.393864264087915 
777	 0.393507131281667 
778	 0.393149678984704 
779	 0.392742015688845 
780	 0.392245082987674 
781	 0.391906655068617 
782	 0.391645402381696 
783	 0.391345608527808 
784	 0.390898608782751 
785	 0.390474808586194 
786	 0.390109898314059 
787	 0.389788244642658 
788	 0.389452557438687 
789	 0.389026689569073 
790	 0.388609822605225 
791	 0.388310468400429 
792	 0.387889050949364 
793	 0.387521753093741 
794	 0.387214524007508 
795	 0.386819476116835 
796	 0.386411258640714 
797	 0.386045024274741 
798	 0.385717449716219 
799	 0.385317828315285 
800	 0.3850679240386 
801	 0.384825199541118 
802	 0.384410182573126 
803	 0.383933855491127 
804	 0.383681346330697 
805	 0.383517428991349 
806	 0.383091549230488 
807	 0.382712563067256 
808	 0.382321022751048 
809	 0.381919100171185 
810	 0.381631113271745 
811	 0.381367239424809 
812	 0.381084880970391 
813	 0.380780740449217 
814	 0.380535540701008 
815	 0.380208521123225 
816	 0.379862582796447 
817	 0.379616688698884 
818	 0.379392765906454 
819	 0.3791412744322 
820	 0.378845438127941 
821	 0.378525007762715 
822	 0.3782685448709 
823	 0.378048158839269 
824	 0.377813552192876 
825	 0.377510814981727 
826	 0.377299257274429 
827	 0.377124889764464 
828	 0.37689038937733 
829	 0.376559201714742 
830	 0.376248208175186 
831	 0.375999179069848 
832	 0.375812095534196 
833	 0.375712214455245 
834	 0.375618866306932 
835	 0.375441355513747 
836	 0.375114272049051 
837	 0.374875032888125 
838	 0.374738183903751 
839	 0.374652831579302 
840	 0.37453176971904 
841	 0.374387836054065 
842	 0.374193831306303 
843	 0.373950953913454 
844	 0.373761877039522 
845	 0.373633542763119 
846	 0.373565518863871 
847	 0.373520381098493 
848	 0.373303952330523 
849	 0.373134315352094 
850	 0.373067342191391 
851	 0.372992634612 
852	 0.372840326150687 
853	 0.372752873452466 
854	 0.372752139771345 
855	 0.372646463148056 
856	 0.372654362191686 
857	 0.372623802564647 
858	 0.372434851630742 
859	 0.372254008711659 
860	 0.372195950599254 
861	 0.372203401272102 
862	 0.372179524385455 
863	 0.372206892374414 
864	 0.372142474859599 
865	 0.372058610479639 
866	 0.372121294232029 
867	 0.372128912577879 
868	 0.372095136876255 
869	 0.372083892815467 
870	 0.372167438399393 
871	 0.372091885736732 
872	 0.372033684097232 
873	 0.372096787171452 
874	 0.372152303248456 
875	 0.372170880165938 
876	 0.372214256788592 
877	 0.372293572447438 
878	 0.372196118454924 
879	 0.372316110358558 
880	 0.372508021863563 
881	 0.372518369769087 
882	 0.37250784631231 
883	 0.372590126282046 
884	 0.372718849264937 
885	 0.37278100271984 
886	 0.372871464404435 
887	 0.373046645621173 
888	 0.37318463420193 
889	 0.373085266168869 
890	 0.373256090192236 
891	 0.37351854713116 
892	 0.373716637892623 
893	 0.373845392980002 
894	 0.37386502212512 
895	 0.373947126554737 
896	 0.374173126608442 
897	 0.374392710719658 
898	 0.374600943142564 
899	 0.374772121578931 
900	 0.374912154743163 
901	 0.375104141207877 
902	 0.3753339741873 
903	 0.375557781922237 
904	 0.375738008272764 
905	 0.375900538163086 
906	 0.376134082768826 
907	 0.376381448405958 
908	 0.376552880067674 
909	 0.376779325512432 
910	 0.377070297826402 
911	 0.377388397588996 
912	 0.377676182752565 
913	 0.37795389597185 
914	 0.378211388997044 
915	 0.378474258123358 
916	 0.378787538133979 
917	 0.379043125437347 
918	 0.379390243562887 
919	 0.379849734974486 
920	 0.380256445665007 
921	 0.380510242158081 
922	 0.380755727167721 
923	 0.381109098993221 
924	 0.381564167590437 
925	 0.381875392626838 
926	 0.382228467338824 
927	 0.382705729401583 
928	 0.383027550558351 
929	 0.383581004523275 
930	 0.384044537147148 
931	 0.384235417929101 
932	 0.384703617016887 
933	 0.385104099486058 
934	 0.385489581558909 
935	 0.385953459891761 
936	 0.386369160077176 
937	 0.386805307730373 
938	 0.387285453528578 
939	 0.387836255992018 
940	 0.388580490882804 
941	 0.38903863466363 
942	 0.389400247119554 
943	 0.38999840606654 
944	 0.390549199158105 
945	 0.391154185992556 
946	 0.391753426990621 
947	 0.392249601213402 
948	 0.392734465789694 
949	 0.393146093531552 
950	 0.393532255520024 
951	 0.394009372279041 
952	 0.394703967734693 
953	 0.395504651985849 
954	 0.396174707415334 
955	 0.396559125983182 
956	 0.397204070848174 
957	 0.397834651873782 
958	 0.398396099298891 
959	 0.398989800854838 
960	 0.399591714713153 
961	 0.400268407764754 
962	 0.400978897566372 
963	 0.401634662745894 
964	 0.402332807811757 
965	 0.403010883666762 
966	 0.403666246674092 
967	 0.404341917499557 
968	 0.405029207426121 
969	 0.405771699918911 
970	 0.406555560698128 
971	 0.407318196772966 
972	 0.407983759836268 
973	 0.40872870020937 
974	 0.409588277634118 
975	 0.410454809731952 
976	 0.411102997637578 
977	 0.411764166138023 
978	 0.412562329758902 
979	 0.413442763408939 
980	 0.413986107498912 
981	 0.414483378659442 
982	 0.415148523355629 
983	 0.416044944660977 
984	 0.416973821188002 
985	 0.417850940994147 
986	 0.418560660148178 
987	 0.419103327447351 
988	 0.420061554127497 
989	 0.420945924620739 
990	 0.421725565842753 
991	 0.422558200195769 
992	 0.423145183631827 
993	 0.423825404152786 
994	 0.424631618207827 
995	 0.425456203042207 
996	 0.426320930239308 
997	 0.427252422989549 
998	 0.428090418647631 
999	 0.428742579876505 
1000	 0.429583692171794 
1001	 0.432557879411705 
1002	 0.433299893575494 
1003	 0.43411230795407 
1004	 0.43487213927022 
1005	 0.435610580232891 
1006	 0.436347709290385 
1007	 0.437075962502686 
1008	 0.437750424565425 
1009	 0.438452804001053 
1010	 0.43914606679206 
1011	 0.439789709105986 
1012	 0.440468098392491 
1013	 0.441174150204374 
1014	 0.44181423210406 
1015	 0.442472676368927 
1016	 0.443085080515535 
1017	 0.443721402265738 
1018	 0.444322253780348 
1019	 0.445022753041544 
1020	 0.445708053220363 
1021	 0.446440503735181 
1022	 0.447160544820902 
1023	 0.447733348343176 
1024	 0.448330743811527 
1025	 0.448924608891681 
1026	 0.449447329956948 
1027	 0.450048905015897 
1028	 0.45071458504113 
1029	 0.451344784588669 
1030	 0.451904903167169 
1031	 0.452476033001377 
1032	 0.453042795709016 
1033	 0.45357209199179 
1034	 0.454095696333703 
1035	 0.454731157453969 
1036	 0.455351001088133 
1037	 0.455936416239173 
1038	 0.456552952746855 
1039	 0.457161455338908 
1040	 0.457729799986402 
1041	 0.458318309889515 
1042	 0.458941596617392 
1043	 0.459521015712865 
1044	 0.460111166122574 
1045	 0.46072952393768 
1046	 0.461344186935412 
1047	 0.461936058346314 
1048	 0.462571036905427 
1049	 0.463232929923997 
1050	 0.463862559777538 
1051	 0.464453785959342 
1052	 0.465045145422455 
1053	 0.46558764066461 
1054	 0.466115251051816 
1055	 0.466616205759744 
1056	 0.4670955297914 
1057	 0.467602719939437 
1058	 0.468105353626737 
1059	 0.468616093718919 
1060	 0.469172402418312 
1061	 0.469696011465397 
1062	 0.470088884215686 
1063	 0.47053131125812 
1064	 0.470978674407625 
1065	 0.471369722791199 
1066	 0.471796668762915 
1067	 0.472216942226901 
1068	 0.472618981435207 
1069	 0.472999826604126 
1070	 0.473364022237324 
1071	 0.473734546609307 
1072	 0.474106729695601 
1073	 0.474441410952137 
1074	 0.474774289667101 
1075	 0.475132541523792 
1076	 0.475448703869185 
1077	 0.475740040101869 
1078	 0.476053540460515 
1079	 0.476306506227747 
1080	 0.476550646858344 
1081	 0.476810194313837 
1082	 0.477053620495428 
1083	 0.477321829208103 
1084	 0.477653728796656 
1085	 0.477924067388276 
1086	 0.478143786438126 
1087	 0.478414397134055 
1088	 0.478710698887231 
1089	 0.478942184600023 
1090	 0.479211877913332 
1091	 0.479512434060262 
1092	 0.479794786360676 
1093	 0.480142231287729 
1094	 0.480530992647548 
1095	 0.480885411225477 
1096	 0.481215014884968 
1097	 0.481561640643362 
1098	 0.481931605777007 
1099	 0.482311980172318 
1100	 0.48270657186372 
1101	 0.483126444892919 
1102	 0.483547718436376 
1103	 0.483980393318919 
1104	 0.484398892795679 
1105	 0.484845405616596 
1106	 0.485307501020764 
1107	 0.485742673198567 
1108	 0.486222993869396 
1109	 0.486703316431533 
1110	 0.487163905892048 
1111	 0.487676578624576 
1112	 0.488221406944667 
1113	 0.488767278918911 
1114	 0.489367478538329 
1115	 0.489919608967688 
1116	 0.490435111928557 
1117	 0.490990996697784 
1118	 0.491553534656499 
1119	 0.492098760886054 
1120	 0.49269833675713 
1121	 0.493300859934974 
1122	 0.493861548926093 
1123	 0.494476342885601 
1124	 0.495098878498256 
1125	 0.495751706206136 
1126	 0.496363668395177 
1127	 0.496977528194623 
1128	 0.497574528858129 
1129	 0.498146357200956 
1130	 0.498720935987948 
1131	 0.499302292980417 
1132	 0.499877372315791 
1133	 0.500416276208025 
1134	 0.500979399203791 
1135	 0.501570727253727 
1136	 0.502143022949908 
1137	 0.502669484200456 
1138	 0.503236034127306 
1139	 0.503799501665587 
1140	 0.504348589713631 
1141	 0.504897212146223 
1142	 0.505473958183159 
1143	 0.506023370962773 
1144	 0.506553043742804 
1145	 0.50706890609097 
1146	 0.507577410802558 
1147	 0.508081193376989 
1148	 0.508564572801234 
1149	 0.509048442237284 
1150	 0.50953091969521 
1151	 0.510015676964196 
1152	 0.510509441792804 
1153	 0.510961933337938 
1154	 0.511421216486987 
1155	 0.511898537999716 
1156	 0.512326490681875 
1157	 0.512738874033238 
1158	 0.513115202603056 
1159	 0.513428397233225 
1160	 0.513784484187426 
1161	 0.514131338021135 
1162	 0.514483900510227 
1163	 0.5148601084471 
1164	 0.515231299793754 
1165	 0.51559942341301 
1166	 0.515959869579879 
1167	 0.516327505713486 
1168	 0.516688366494947 
1169	 0.517024576994425 
1170	 0.517346710601519 
1171	 0.517648331366819 
1172	 0.51791797029779 
1173	 0.51820491221334 
1174	 0.518475396589636 
1175	 0.518760278211409 
1176	 0.519073029134705 
1177	 0.519359487736515 
1178	 0.519631962867027 
1179	 0.519905333199588 
1180	 0.520157357301259 
1181	 0.520424969942315 
1182	 0.520694237708026 
1183	 0.520990818166457 
1184	 0.521255900803714 
1185	 0.521514393628066 
1186	 0.521782863114363 
1187	 0.522045945208923 
1188	 0.522301249759361 
1189	 0.522573209064263 
1190	 0.522816478274106 
1191	 0.523033348047478 
1192	 0.523254131630882 
1193	 0.523461477996752 
1194	 0.523678753862888 
1195	 0.523899673906204 
1196	 0.524112923720473 
1197	 0.524330818788305 
1198	 0.52454102769698 
1199	 0.524745018554532 
1200	 0.524933726869757 
1201	 0.525140386052618 
1202	 0.525354790822053 
1203	 0.525558952693245 
1204	 0.525766437073793 
1205	 0.525969431872025 
1206	 0.526165151077273 
1207	 0.526359226474988 
1208	 0.526562256072933 
1209	 0.526746918479923 
1210	 0.526911108619608 
1211	 0.527085380616181 
1212	 0.527263254959645 
1213	 0.527428688065857 
1214	 0.527583162194856 
1215	 0.527748236706581 
1216	 0.527913489749651 
1217	 0.528069381772864 
1218	 0.528233627522399 
1219	 0.528419289233122 
1220	 0.528575427133578 
1221	 0.528714301304463 
1222	 0.528860495535584 
1223	 0.528997093545982 
1224	 0.529138408494611 
1225	 0.529279433168255 
1226	 0.529426915112043 
1227	 0.529591592905097 
1228	 0.529730951007262 
1229	 0.529850535370802 
1230	 0.529988520699353 
1231	 0.530117854574541 
1232	 0.530250457527417 
1233	 0.530390457025645 
1234	 0.530555957800145 
1235	 0.530697973195496 
1236	 0.530829372935894 
1237	 0.530960733763417 
1238	 0.531091561313147 
1239	 0.531218776353504 
1240	 0.531334321251263 
1241	 0.531460098855674 
1242	 0.53159426826833 
1243	 0.531718924895273 
1244	 0.531846138300868 
1245	 0.531965624290827 
1246	 0.532073202612903 
1247	 0.532185602789688 
1248	 0.532293159300267 
1249	 0.532405907641493 
1250	 0.532536077290505 
1251	 0.532644701348002 
1252	 0.532760520485335 
1253	 0.532883133076833 
1254	 0.532991796869215 
1255	 0.533084887744419 
1256	 0.533196109085613 
1257	 0.533318262932348 
1258	 0.533418919035319 
1259	 0.533522418657453 
1260	 0.533616097444392 
1261	 0.533696061863097 
1262	 0.533765820012678 
1263	 0.533817007651122 
1264	 0.533884251438438 
1265	 0.533936761910987 
1266	 0.534003159963446 
1267	 0.534079046934083 
1268	 0.534181156023348 
1269	 0.534282147047602 
1270	 0.534384999896037 
1271	 0.534501729655369 
1272	 0.534638862894911 
1273	 0.534766048648331 
1274	 0.534885724067101 
1275	 0.535030020115159 
1276	 0.535183351335332 
1277	 0.535344689028667 
1278	 0.535525169666982 
1279	 0.53570793661584 
1280	 0.535902046423418 
1281	 0.536087474567348 
1282	 0.536296045789692 
1283	 0.536471870387075 
1284	 0.53663078285161 
1285	 0.536778354813729 
1286	 0.536904363117829 
1287	 0.536992489588242 
1288	 0.537055616192576 
1289	 0.53708740529816 
1290	 0.537105379670584 
1291	 0.537096372338833 
1292	 0.537075654304384 
1293	 0.537052566929348 
1294	 0.536979548345437 
1295	 0.536862215101587 
1296	 0.536740639790657 
1297	 0.536576265893106 
1298	 0.536424103375634 
1299	 0.53629172166927 
1300	 0.536117094069661 
1301	 0.5358962612633 
1302	 0.535701533520496 
1303	 0.535501213003074 
1304	 0.535287848103362 
1305	 0.535102487735533 
1306	 0.534913689425316 
1307	 0.534671004149918 
1308	 0.534427573825471 
1309	 0.534215546456388 
1310	 0.533999740135592 
1311	 0.533818133246583 
1312	 0.533665955279258 
1313	 0.533525109778751 
1314	 0.533407647915014 
1315	 0.533284362128402 
1316	 0.533156835417779 
1317	 0.533078942578877 
1318	 0.533023844402494 
1319	 0.53297335297816 
1320	 0.532959631038893 
1321	 0.532952039132462 
1322	 0.532944832373252 
1323	 0.532938401133231 
1324	 0.532981907006514 
1325	 0.533049518229874 
1326	 0.533111794073703 
1327	 0.533204269893256 
1328	 0.533299214078393 
1329	 0.533400621059073 
1330	 0.533538587480105 
1331	 0.533691457490693 
1332	 0.533883728767966 
1333	 0.534118423059473 
1334	 0.534352399066371 
1335	 0.534605973270767 
1336	 0.534875187922406 
1337	 0.535156826380146 
1338	 0.535452905867366 
1339	 0.535792957900135 
1340	 0.536096860865631 
1341	 0.536381790791457 
1342	 0.536685235344015 
1343	 0.536982325647757 
1344	 0.537278502078166 
1345	 0.537626348012649 
1346	 0.537947567398979 
1347	 0.538239106794459 
1348	 0.538561789369469 
1349	 0.538852817575326 
1350	 0.53912113184066 
1351	 0.539398055060595 
1352	 0.539664605901541 
1353	 0.539952327957254 
1354	 0.540245399286425 
1355	 0.540539954071514 
1356	 0.540860855052333 
1357	 0.54114996350713 
1358	 0.541426336255897 
1359	 0.541704460878757 
1360	 0.541967787163582 
1361	 0.542233548008496 
1362	 0.542495130575325 
1363	 0.542758990430926 
1364	 0.543030991111744 
1365	 0.54329029197001 
1366	 0.543548149153786 
1367	 0.54379659489752 
1368	 0.544032794144259 
1369	 0.544259285838756 
1370	 0.5444918322546 
1371	 0.544707675322319 
1372	 0.544893466394821 
1373	 0.545063885386184 
1374	 0.545213286588084 
1375	 0.545327023454076 
1376	 0.545448646687967 
1377	 0.545568719076546 
1378	 0.545667772165285 
1379	 0.545757091195354 
1380	 0.545831814181219 
1381	 0.545895050698018 
1382	 0.545929569800032 
1383	 0.545964285229885 
1384	 0.545951504361838 
1385	 0.5459246590154 
1386	 0.54582967257427 
1387	 0.545700837472093 
1388	 0.545495104804903 
1389	 0.545218994027308 
1390	 0.544894455176698 
1391	 0.544523073848614 
1392	 0.544101281842864 
1393	 0.543613096259289 
1394	 0.543101366789208 
1395	 0.542521818044801 
1396	 0.541898668094772 
1397	 0.541292456706271 
1398	 0.540659004390516 
1399	 0.540040470995115 
1400	 0.539408782451397 
1401	 0.538830405481289 
1402	 0.538252306582815 
1403	 0.537728294204789 
1404	 0.53724068842631 
1405	 0.536801401412819 
1406	 0.536380169068401 
1407	 0.536043956689806 
1408	 0.53575073773685 
1409	 0.535548215599713 
1410	 0.535381655592722 
1411	 0.535358171606865 
1412	 0.53541649959301 
1413	 0.535608837076111 
1414	 0.535987886404869 
1415	 0.536458021369114 
1416	 0.537026893874515 
1417	 0.537709569960324 
1418	 0.538401603147313 
1419	 0.539072137889848 
1420	 0.539778168523898 
1421	 0.540438856561611 
1422	 0.541009919841018 
1423	 0.541562872335803 
1424	 0.54203092498527 
1425	 0.542406482036423 
1426	 0.542766099675151 
1427	 0.543071726339864 
1428	 0.543355356700592 
1429	 0.543609866283842 
1430	 0.543817056657068 
1431	 0.543980459347379 
1432	 0.544126509241317 
1433	 0.544222338457256 
1434	 0.544323535364899 
1435	 0.5443961038411 
1436	 0.544480951400843 
1437	 0.544579238736323 
1438	 0.544644605121835 
1439	 0.544693694865471 
1440	 0.544754903967991 
1441	 0.544770759531887 
1442	 0.544762162539201 
1443	 0.544764664994436 
1444	 0.544759171795211 
1445	 0.544755823501326 
1446	 0.544742411671847 
1447	 0.544712890745546 
1448	 0.544672985246161 
1449	 0.544612800316055 
1450	 0.544549306268553 
1451	 0.544494646445601 
1452	 0.544439109273315 
1453	 0.544384140335333 
1454	 0.544341667664427 
1455	 0.544276958531056 
1456	 0.544207888311637 
1457	 0.544122772473769 
1458	 0.54401029531034 
1459	 0.543917817083851 
1460	 0.543816563748628 
1461	 0.543729444185191 
1462	 0.543656679495298 
1463	 0.543585750305428 
1464	 0.543517889733308 
1465	 0.543453597767787 
1466	 0.543387459212059 
1467	 0.54334830894194 
1468	 0.543317670834449 
1469	 0.543300544104618 
1470	 0.543306839704638 
1471	 0.543317644449273 
1472	 0.543334622158299 
1473	 0.543385576350176 
1474	 0.543439473746014 
1475	 0.543496692079374 
1476	 0.543575314067125 
1477	 0.543667968273607 
1478	 0.543805318705931 
1479	 0.543950913699729 
1480	 0.544091040409312 
1481	 0.544243821774171 
1482	 0.544364611330369 
1483	 0.544457257630884 
1484	 0.544573084582295 
1485	 0.544676788666274 
1486	 0.544792931096936 
1487	 0.544921720683997 
1488	 0.545056375481985 
1489	 0.545203712084183 
1490	 0.545334883844243 
1491	 0.545485702767302 
1492	 0.545598802476793 
1493	 0.545674114657134 
1494	 0.545759741932248 
1495	 0.545843019815038 
1496	 0.545907516036395 
1497	 0.545957436246242 
1498	 0.546013147133536 
1499	 0.54605085120306 
1500	 0.54609413785864 
1501	 0.54614583291823 
1502	 0.546198333872213 
1503	 0.546247561026282 
1504	 0.546293005031767 
1505	 0.546376738383692 
1506	 0.546455926238938 
1507	 0.546510063936449 
1508	 0.546566053687961 
1509	 0.546593251399896 
1510	 0.546616173210094 
1511	 0.546666334324869 
1512	 0.546718310898698 
1513	 0.54678997585281 
1514	 0.546874346295098 
1515	 0.54697489883733 
1516	 0.547079208900916 
1517	 0.547149840656726 
1518	 0.547204520534182 
1519	 0.547260778769974 
1520	 0.547289471864269 
1521	 0.547335528696837 
1522	 0.547387675420502 
1523	 0.547442505900095 
1524	 0.547494390036717 
1525	 0.54756249841296 
1526	 0.547649174085272 
1527	 0.547726221382512 
1528	 0.547809853412921 
1529	 0.547877236609071 
1530	 0.547934969753554 
1531	 0.547996903973738 
1532	 0.548054083914999 
1533	 0.548108895322492 
1534	 0.548175792643347 
1535	 0.548214916816484 
1536	 0.548218089409676 
1537	 0.548252307862927 
1538	 0.548282213425159 
1539	 0.548327216888897 
1540	 0.548409681943943 
1541	 0.548470010542006 
1542	 0.54852735583848 
1543	 0.548572882493854 
1544	 0.548602627434842 
1545	 0.548632290684304 
1546	 0.548647892907897 
1547	 0.548674472934239 
1548	 0.548709458317203 
1549	 0.548754480009106 
1550	 0.548815335761623 
1551	 0.548885352856487 
1552	 0.548939564451288 
1553	 0.548992578985877 
1554	 0.549048573707246 
1555	 0.54910056367471 
1556	 0.549174670232507 
1557	 0.549277657967352 
1558	 0.549387282439833 
1559	 0.549479198109023 
1560	 0.549561867544664 
1561	 0.549640007576966 
1562	 0.549700055976878 
1563	 0.549730416505197 
1564	 0.549795617516368 
1565	 0.5498514077617 
1566	 0.549946166078182 
1567	 0.550084336042318 
1568	 0.550194907958275 
1569	 0.550324744597348 
1570	 0.550415842426424 
1571	 0.550496069842974 
1572	 0.550546343733734 
1573	 0.550556158190109 
1574	 0.550581014751036 
1575	 0.550565014154158 
1576	 0.550605949840428 
1577	 0.550700290908359 
1578	 0.550748678842021 
1579	 0.550811194452234 
1580	 0.550844164670083 
1581	 0.550823239961696 
1582	 0.550835166954526 
1583	 0.550846629136964 
1584	 0.550880044468925 
1585	 0.550920421340169 
1586	 0.550981769595766 
1587	 0.551077953233757 
1588	 0.551158845545374 
1589	 0.551258139616382 
1590	 0.551336538930708 
1591	 0.551402575229054 
1592	 0.551460748724106 
1593	 0.551513627390041 
1594	 0.551550567574727 
1595	 0.551549681087531 
1596	 0.551586653152762 
1597	 0.551630197601403 
1598	 0.551678110619445 
1599	 0.551759050808913 
1600	 0.551828248049871 
1601	 0.551883885230376 
1602	 0.55194742584051 
1603	 0.552019670687291 
1604	 0.552086806621478 
1605	 0.552151161207619 
1606	 0.552220705274052 
1607	 0.552294054679615 
1608	 0.552368831809417 
1609	 0.552426456035868 
1610	 0.552479126921047 
1611	 0.552515388031764 
1612	 0.552546830832362 
1613	 0.552580353508553 
1614	 0.552609162682143 
1615	 0.552660001723877 
1616	 0.552698762909833 
1617	 0.552747937974943 
1618	 0.552823355552353 
1619	 0.552855910210067 
1620	 0.552896203777436 
1621	 0.552940584810427 
1622	 0.552977824883546 
1623	 0.553022761882534 
1624	 0.553078113454315 
1625	 0.553131512347226 
1626	 0.553185838224719 
1627	 0.553233331015625 
1628	 0.553284530571573 
1629	 0.553332057806551 
1630	 0.553365868710727 
1631	 0.553415418021425 
1632	 0.553476515762641 
1633	 0.553528204659617 
1634	 0.553579546303992 
1635	 0.55363248846559 
1636	 0.55368016129177 
1637	 0.553737628895297 
1638	 0.553802008885693 
1639	 0.553863316003179 
1640	 0.553931635982468 
1641	 0.553989082895097 
1642	 0.554031786603529 
1643	 0.5541009894798 
1644	 0.554173549536069 
1645	 0.554257327256079 
1646	 0.554375527448146 
1647	 0.554455064205438 
1648	 0.554522230806121 
1649	 0.55458659143183 
1650	 0.554628168980554 
1651	 0.554686944646675 
1652	 0.554762302427029 
1653	 0.554808986123066 
1654	 0.554848815913222 
1655	 0.554879147598633 
1656	 0.554877286678609 
1657	 0.554905668235892 
1658	 0.554939180097002 
1659	 0.554983975583617 
1660	 0.555049870023014 
1661	 0.55510294559279 
1662	 0.555157030001036 
1663	 0.555212137033639 
1664	 0.555270252074337 
1665	 0.555315308597188 
1666	 0.555359066389734 
1667	 0.555395486961474 
1668	 0.555414171730323 
1669	 0.555442408085707 
1670	 0.555466163608385 
1671	 0.555505550476537 
1672	 0.555553644526434 
1673	 0.555600853059676 
1674	 0.555652068744838 
1675	 0.555716532637015 
1676	 0.555785942497729 
1677	 0.555858800153797 
1678	 0.555955516626899 
1679	 0.556031222772762 
1680	 0.556099244434354 
1681	 0.556159893261776 
1682	 0.556209575798504 
1683	 0.55626206301985 
1684	 0.556307622596166 
1685	 0.556356389917954 
1686	 0.556407237718368 
1687	 0.556456483946626 
1688	 0.556501092512807 
1689	 0.556552517927954 
1690	 0.556607396971685 
1691	 0.556661723783192 
1692	 0.556728268030583 
1693	 0.556776189230798 
1694	 0.556806340049367 
1695	 0.55685407480217 
1696	 0.556891372540009 
1697	 0.556948876781273 
1698	 0.557032963570734 
1699	 0.557104980452811 
1700	 0.557178617196536 
1701	 0.557253442481324 
1702	 0.557328369085305 
1703	 0.55740034443322 
1704	 0.557496012126803 
1705	 0.557540286073772 
1706	 0.557545356660753 
1707	 0.557573211281926 
1708	 0.557580147045393 
1709	 0.557588690711653 
1710	 0.557592548641934 
1711	 0.557639350899314 
1712	 0.557696661808838 
1713	 0.557755062671938 
1714	 0.557864196205536 
1715	 0.557939828475807 
1716	 0.557986604338947 
1717	 0.558041420411724 
1718	 0.55810218599808 
1719	 0.55815321743715 
1720	 0.558198804907208 
1721	 0.558230770181835 
1722	 0.558265761988353 
1723	 0.558281279208481 
1724	 0.558260481483163 
1725	 0.558264845499736 
1726	 0.558264103737011 
1727	 0.558284737117876 
1728	 0.55833412681943 
1729	 0.558352398377124 
1730	 0.558380827969323 
1731	 0.558379175794807 
1732	 0.558350396825179 
1733	 0.558310394496292 
1734	 0.558249219237443 
1735	 0.558187495104065 
1736	 0.558108774648963 
1737	 0.558038981246323 
1738	 0.55794896102201 
1739	 0.557922478742425 
1740	 0.557920895157677 
1741	 0.557930745383398 
1742	 0.558008407886064 
1743	 0.558013796570132 
1744	 0.557983286480591 
1745	 0.557966493966001 
1746	 0.557914251772748 
1747	 0.557962594112925 
1748	 0.558010411216111 
1749	 0.558032033755283 
1750	 0.558045273051142 
1751	 0.558000537250746 
1752	 0.557943953695097 
1753	 0.557880338613771 
1754	 0.557819335037004 
1755	 0.557808081062613 
1756	 0.557778664269306 
1757	 0.557771775463931 
1758	 0.557812331035087 
1759	 0.557795189327332 
1760	 0.557756844778139 
1761	 0.557730733099154 
1762	 0.557677727050582 
1763	 0.557625980871654 
1764	 0.557597532391383 
1765	 0.557631928284479 
1766	 0.55770799569787 
1767	 0.557774625432074 
1768	 0.557857696925461 
1769	 0.557916853934007 
1770	 0.557924084245756 
1771	 0.557953612521295 
1772	 0.557950248377644 
1773	 0.557856502559421 
1774	 0.557798410606204 
1775	 0.557737349686209 
1776	 0.557669622684979 
1777	 0.557711577096373 
1778	 0.557733132393687 
1779	 0.557745703661579 
1780	 0.557808469041008 
1781	 0.557819243594045 
1782	 0.55783619049252 
1783	 0.55787640167065 
1784	 0.55789836269043 
1785	 0.55791233831866 
1786	 0.557928068103804 
1787	 0.557916423023915 
1788	 0.557943991674687 
1789	 0.558018559018188 
1790	 0.558087546397849 
1791	 0.558177411867906 
1792	 0.558234497131162 
1793	 0.558285215766173 
1794	 0.558304620587181 
1795	 0.558289014502577 
1796	 0.55827811857692 
1797	 0.558228625484028 
1798	 0.558222895211328 
1799	 0.558233439923636 
1800	 0.558270340448466 
1801	 0.553582473058441 
1802	 0.553653431354275 
1803	 0.553744621162347 
1804	 0.553832171013808 
1805	 0.553888248524146 
1806	 0.553942609406101 
1807	 0.554010974518683 
1808	 0.554066400860175 
1809	 0.554136973966834 
1810	 0.554166359023211 
1811	 0.554172776907151 
1812	 0.554170990346666 
1813	 0.554157975238722 
1814	 0.554137341061579 
1815	 0.554128309180088 
1816	 0.554108480305921 
1817	 0.554070309112022 
1818	 0.553977731317542 
1819	 0.553956970178923 
1820	 0.553953573473899 
1821	 0.553970912860627 
1822	 0.553999502252101 
1823	 0.554016475580987 
1824	 0.553989557835068 
1825	 0.553915658804972 
1826	 0.553850610684112 
1827	 0.553810552592696 
1828	 0.553742954610586 
1829	 0.553664398959713 
1830	 0.553576855152165 
1831	 0.553474187383661 
1832	 0.553367748303546 
1833	 0.553254922506662 
1834	 0.553127557897807 
1835	 0.553004640947108 
1836	 0.552877050692442 
1837	 0.55274223430239 
1838	 0.552624399433742 
1839	 0.552513635978232 
1840	 0.55242051929811 
1841	 0.552299836031167 
1842	 0.552169956410278 
1843	 0.552087321334287 
1844	 0.551994273971089 
1845	 0.551871561732873 
1846	 0.551798866688039 
1847	 0.551733540197775 
1848	 0.551652841152888 
1849	 0.55164708075671 
1850	 0.551695613428519 
1851	 0.551807569529704 
1852	 0.551918158239068 
1853	 0.552065831258098 
1854	 0.552199097795725 
1855	 0.552280145419723 
1856	 0.552373547076227 
1857	 0.552477676652033 
1858	 0.552584863787429 
1859	 0.552665815882421 
1860	 0.552750533095704 
1861	 0.552826710060204 
1862	 0.552890985428055 
1863	 0.552956417466717 
1864	 0.553088122292322 
1865	 0.553221890646425 
1866	 0.553307276932774 
1867	 0.553370634232875 
1868	 0.553435746168685 
1869	 0.553474130135074 
1870	 0.553532251968593 
1871	 0.55358052798298 
1872	 0.553662654705584 
1873	 0.553666555707003 
1874	 0.553643004905826 
1875	 0.553621065813671 
1876	 0.55354649457477 
1877	 0.553457993289984 
1878	 0.553340857462083 
1879	 0.553149498972874 
1880	 0.552923443038246 
1881	 0.552652491831881 
1882	 0.552346545040102 
1883	 0.552005178247213 
1884	 0.551605149205037 
1885	 0.551185542031315 
1886	 0.550720360955731 
1887	 0.550192042055972 
1888	 0.549682228638031 
1889	 0.549107279843956 
1890	 0.548493020672429 
1891	 0.547901895991767 
1892	 0.547285829267881 
1893	 0.54668651262925 
1894	 0.546092870577448 
1895	 0.545521046899153 
1896	 0.544962434103539 
1897	 0.544382916961172 
1898	 0.54385088232247 
1899	 0.543413679847653 
1900	 0.542989459600505 
1901	 0.5426800375811 
1902	 0.542439205896807 
1903	 0.542268629700883 
1904	 0.542160416466235 
1905	 0.54214527334933 
1906	 0.542180109250826 
1907	 0.542244278337423 
1908	 0.542333627548123 
1909	 0.542410457440318 
1910	 0.542468746011149 
1911	 0.542514455651808 
1912	 0.542569901749313 
1913	 0.542628981649917 
1914	 0.542682756684076 
1915	 0.542749747593348 
1916	 0.542838644663117 
1917	 0.542907262162844 
1918	 0.542975389742994 
1919	 0.543052938164184 
1920	 0.543098345662031 
1921	 0.543154483515336 
1922	 0.543201035351228 
1923	 0.54324447141678 
1924	 0.543292023853809 
1925	 0.543341863644948 
1926	 0.543389949787453 
1927	 0.543447962003316 
1928	 0.543488764939365 
1929	 0.543511923456042 
1930	 0.543519975183859 
1931	 0.54352177177651 
1932	 0.54352407526262 
1933	 0.543498562725805 
1934	 0.543474012180435 
1935	 0.543461867243781 
1936	 0.543403721168189 
1937	 0.543420527178393 
1938	 0.543496312285214 
1939	 0.543560811522331 
1940	 0.543637761755762 
1941	 0.543753232538795 
1942	 0.543867649335452 
1943	 0.544009086069041 
1944	 0.544172146891801 
1945	 0.544314630544473 
1946	 0.544449113083387 
1947	 0.544569637460391 
1948	 0.544684331092958 
1949	 0.544804682924908 
1950	 0.544902967028982 
1951	 0.544977039852986 
1952	 0.545045731648059 
1953	 0.545144538563049 
1954	 0.545236761729705 
1955	 0.545313431514609 
1956	 0.545392651113571 
1957	 0.54546111770994 
1958	 0.54548129142178 
1959	 0.545542637841034 
1960	 0.545627939322761 
1961	 0.545714714004676 
1962	 0.54579858980803 
1963	 0.545905366901554 
1964	 0.54602877623505 
1965	 0.546172221116527 
1966	 0.546296270232598 
1967	 0.54641608350531 
1968	 0.54653737438855 
1969	 0.546628394195513 
1970	 0.546758836176755 
1971	 0.546942912763834 
1972	 0.547074166550227 
1973	 0.547181704899129 
1974	 0.547304080901947 
1975	 0.547393752224155 
1976	 0.54750760363343 
1977	 0.547675030304272 
1978	 0.547837359101327 
1979	 0.548011638897953 
1980	 0.548181848840515 
1981	 0.548329030676192 
1982	 0.548450895597129 
1983	 0.54859942575021 
1984	 0.548734018220744 
1985	 0.54888363915173 
1986	 0.549054658810324 
1987	 0.549225549337362 
1988	 0.549395775092613 
1989	 0.549575896712794 
1990	 0.549779010503833 
1991	 0.549978475319524 
1992	 0.550164661049945 
1993	 0.550358404707703 
1994	 0.550533705805788 
1995	 0.550671091643052 
1996	 0.550844859375391 
1997	 0.55103349255313 
1998	 0.551216955910935 
1999	 0.551400434838611 
2000	 0.551605041549581 
2001	 0.551821310589863 
2002	 0.552017584926797 
2003	 0.552286811774361 
2004	 0.55257429602876 
2005	 0.552815372254113 
2006	 0.553069713771655 
2007	 0.553285195910993 
2008	 0.55343453449896 
2009	 0.553624718513304 
2010	 0.55381657593604 
2011	 0.554007194323068 
2012	 0.554195323167865 
2013	 0.554402279822464 
2014	 0.554607099198633 
2015	 0.55483461999467 
2016	 0.555072937459101 
2017	 0.555342880870791 
2018	 0.555613434449159 
2019	 0.555920028715101 
2020	 0.556176353970722 
2021	 0.556432896069778 
2022	 0.556661804392952 
2023	 0.556840140024224 
2024	 0.557037964958208 
2025	 0.55721984871726 
2026	 0.557422584999516 
2027	 0.557651927523658 
2028	 0.557856616506758 
2029	 0.55805179481635 
2030	 0.558255733662428 
2031	 0.558444441058422 
2032	 0.558575964204783 
2033	 0.558793613172871 
2034	 0.559050454869076 
2035	 0.559302199140987 
2036	 0.559628211674179 
2037	 0.559882716234927 
2038	 0.56013209507643 
2039	 0.560328553722379 
2040	 0.560473781635976 
2041	 0.560591270100991 
2042	 0.560697771802262 
2043	 0.560809318670585 
2044	 0.560934760867961 
2045	 0.561080618586859 
2046	 0.561214093348925 
2047	 0.561354472785479 
2048	 0.561477980577542 
2049	 0.561592136157116 
2050	 0.561705326848909 
2051	 0.56180020283147 
2052	 0.561905352294571 
2053	 0.562016908132805 
2054	 0.562129399874647 
2055	 0.562251496241393 
2056	 0.562362644769249 
2057	 0.56246826110721 
2058	 0.562572571996002 
2059	 0.562665668677819 
2060	 0.562728993911107 
2061	 0.56283562573095 
2062	 0.562960798791245 
2063	 0.563077779885166 
2064	 0.563236491995153 
2065	 0.563351082848358 
2066	 0.563428935582589 
2067	 0.563516046459282 
2068	 0.563608562546684 
2069	 0.563651965562892 
2070	 0.563745158642568 
2071	 0.563862061304123 
2072	 0.56395705064226 
2073	 0.564068072883302 
2074	 0.564151168534229 
2075	 0.564182918140668 
2076	 0.564277075565838 
2077	 0.564400837732246 
2078	 0.564508125397783 
2079	 0.564665458300951 
2080	 0.564769820787335 
2081	 0.564834835605865 
2082	 0.564896125819648 
2083	 0.564940518744857 
2084	 0.56496644778742 
2085	 0.565004428747405 
2086	 0.565029663985102 
2087	 0.56507378814071 
2088	 0.565131086645113 
2089	 0.56518128557905 
2090	 0.565242862743521 
2091	 0.565288715248719 
2092	 0.565312744392795 
2093	 0.565360491171586 
2094	 0.565403239803909 
2095	 0.565463689505822 
2096	 0.565550911438839 
2097	 0.565633550306821 
2098	 0.565709290464616 
2099	 0.565812936845369 
2100	 0.565911517532035 
2101	 0.566023434621825 
2102	 0.566109946567912 
2103	 0.566180304290968 
2104	 0.566279744108364 
2105	 0.566357559705085 
2106	 0.566482162018658 
2107	 0.566646796402387 
2108	 0.566818448991902 
2109	 0.567029224949802 
2110	 0.567217845968626 
2111	 0.567415786173441 
2112	 0.567605415344224 
2113	 0.567789786544897 
2114	 0.56795410956591 
2115	 0.568125933001983 
2116	 0.56829248722567 
2117	 0.568478058386805 
2118	 0.568654310275666 
2119	 0.568865997933504 
2120	 0.56910722657698 
2121	 0.569351819221898 
2122	 0.569633262997752 
2123	 0.569878491296141 
2124	 0.570141177456646 
2125	 0.570355904854267 
2126	 0.570528640183648 
2127	 0.570697901971756 
2128	 0.57084540197486 
2129	 0.570976309511209 
2130	 0.571087726794971 
2131	 0.57120157849696 
2132	 0.571284705188727 
2133	 0.571361460227667 
2134	 0.57137285915691 
2135	 0.571353629312398 
2136	 0.571294029432219 
2137	 0.571162847854051 
2138	 0.571041041442353 
2139	 0.570907486229379 
2140	 0.570741013950533 
2141	 0.570543009724777 
2142	 0.570337096848946 
2143	 0.570092731335322 
2144	 0.569859118446442 
2145	 0.569653364741241 
2146	 0.5693933487184 
2147	 0.569133128854175 
2148	 0.56880925618347 
2149	 0.568454890282348 
2150	 0.568041946812131 
2151	 0.567627098369014 
2152	 0.567181282071383 
2153	 0.566724995625451 
2154	 0.566251213593774 
2155	 0.565757087413049 
2156	 0.565257076670498 
2157	 0.564711785467382 
2158	 0.564138097511437 
2159	 0.563531413282895 
2160	 0.562857964258498 
2161	 0.562206762149822 
2162	 0.561532791165006 
2163	 0.56087271221268 
2164	 0.560239632529875 
2165	 0.559586834589013 
2166	 0.55890127047056 
2167	 0.558204987669825 
2168	 0.557481217839535 
2169	 0.556734564244181 
2170	 0.55594239801989 
2171	 0.555145098610321 
2172	 0.554269358586415 
2173	 0.553321183320387 
2174	 0.552354260278379 
2175	 0.551325102121543 
2176	 0.550293627891452 
2177	 0.549222713901064 
2178	 0.548156519123802 
2179	 0.547071602912286 
2180	 0.545988963127272 
2181	 0.544898280234575 
2182	 0.543811626146538 
2183	 0.542733456505756 
2184	 0.541648574948859 
2185	 0.540525861931186 
2186	 0.53937165571925 
2187	 0.538248288969716 
2188	 0.537076866254725 
2189	 0.535990725666223 
2190	 0.534935761433115 
2191	 0.533941886581499 
2192	 0.53298237433634 
2193	 0.53208857140894 
2194	 0.531222464236269 
2195	 0.530479411913365 
2196	 0.529824268453912 
2197	 0.529237403223784 
2198	 0.528766241591181 
2199	 0.528348229266848 
2200	 0.527966846480362 
2201	 0.527686999348441 
2202	 0.527514171696826 
2203	 0.527393861170394 
2204	 0.527354201458473 
2205	 0.527406890709285 
2206	 0.527508167152041 
2207	 0.527652726308247 
2208	 0.527923784994908 
2209	 0.528300149746429 
2210	 0.528721901438494 
2211	 0.529292061326622 
2212	 0.529802893390264 
2213	 0.530354259270134 
2214	 0.530870737546168 
2215	 0.531353409434739 
2216	 0.531882058562865 
2217	 0.53244705759397 
2218	 0.532969484578395 
2219	 0.533514605798358 
2220	 0.534026770087268 
2221	 0.534488146848082 
2222	 0.53495466070262 
2223	 0.535419613479493 
2224	 0.535808216545502 
2225	 0.536133145251988 
2226	 0.536388627548331 
2227	 0.536615285755128 
2228	 0.536785089043273 
2229	 0.536920681059154 
2230	 0.537011470866511 
2231	 0.537072818519973 
2232	 0.537067905694758 
2233	 0.537079320454757 
2234	 0.537074285260718 
2235	 0.537059830182715 
2236	 0.537029845244539 
2237	 0.537002108299507 
2238	 0.536965101499076 
2239	 0.536916677656185 
2240	 0.536896108647085 
2241	 0.536812289447614 
2242	 0.536690957866392 
2243	 0.536551191484872 
2244	 0.536357608024071 
2245	 0.536164185205195 
2246	 0.535972437994463 
2247	 0.535722526877689 
2248	 0.535495914897629 
2249	 0.535250382326317 
2250	 0.535022228176837 
2251	 0.534809215204693 
2252	 0.534582468171879 
2253	 0.53433450111058 
2254	 0.534131082735162 
2255	 0.53394206655607 
2256	 0.533754812139223 
2257	 0.533561612963274 
2258	 0.533452002048353 
2259	 0.53336541545642 
2260	 0.533309427973649 
2261	 0.533327412013044 
2262	 0.533369099140505 
2263	 0.533413716289851 
2264	 0.533518839576889 
2265	 0.533685192578649 
2266	 0.533882635711855 
2267	 0.534146859940694 
2268	 0.53439662144607 
2269	 0.534672544970382 
2270	 0.534973721595168 
2271	 0.535237410136423 
2272	 0.535513962792604 
2273	 0.535818109518077 
2274	 0.536163235730339 
2275	 0.536521764070608 
2276	 0.536916084700875 
2277	 0.537298619777937 
2278	 0.537692685241103 
2279	 0.538085880995312 
2280	 0.538480258368459 
2281	 0.538892685107446 
2282	 0.539326110661399 
2283	 0.539750172782727 
2284	 0.540195877462458 
2285	 0.540600305330415 
2286	 0.540984045382004 
2287	 0.541360316721501 
2288	 0.541711169595443 
2289	 0.54205778262416 
2290	 0.542406182716838 
2291	 0.542732450103899 
2292	 0.543005915863953 
2293	 0.543333812075418 
2294	 0.543707794631606 
2295	 0.544031746428185 
2296	 0.544334882860551 
2297	 0.544683593734542 
2298	 0.544996415482064 
2299	 0.545261119638687 
2300	 0.545590414628703 
2301	 0.545872443681442 
2302	 0.546106197877476 
2303	 0.546343411245401 
2304	 0.546557854247993 
2305	 0.546791563812988 
2306	 0.547016734003046 
2307	 0.547243810881329 
2308	 0.547463731936224 
2309	 0.547707418873773 
2310	 0.547874544295354 
2311	 0.548016667981998 
2312	 0.54812116475592 
2313	 0.548151821213106 
2314	 0.548177489583327 
2315	 0.54813533165924 
2316	 0.548189280161796 
2317	 0.548273058332916 
2318	 0.548362003092868 
2319	 0.548514706695006 
2320	 0.548656732799449 
2321	 0.548785847355068 
2322	 0.548901851496364 
2323	 0.549065286579207 
2324	 0.549166159811887 
2325	 0.54921973804631 
2326	 0.549253012892861 
2327	 0.549249580793388 
2328	 0.549238445806706 
2329	 0.54920660554913 
2330	 0.549208136530123 
2331	 0.549229558600956 
2332	 0.549296604141704 
2333	 0.5493907610986 
2334	 0.549456008519101 
2335	 0.549553484083094 
2336	 0.549665339425065 
2337	 0.549705667486769 
2338	 0.549729907562074 
2339	 0.549762980022024 
2340	 0.549708324969136 
2341	 0.549676436743378 
2342	 0.549699314458461 
2343	 0.5497099540222 
2344	 0.549710920664268 
2345	 0.549696151393434 
2346	 0.549655981066746 
2347	 0.549655090691626 
2348	 0.549654481296628 
2349	 0.549679766104746 
2350	 0.549780051337309 
2351	 0.549828304003868 
2352	 0.549854020569041 
2353	 0.549827948494164 
2354	 0.549721970397461 
2355	 0.549697870364332 
2356	 0.549649321924692 
2357	 0.549702685072949 
2358	 0.549873894102588 
2359	 0.550011600999781 
2360	 0.550216871269862 
2361	 0.550337215935267 
2362	 0.550472438569869 
2363	 0.550509303640828 
2364	 0.550372172031518 
2365	 0.550363838142178 
2366	 0.550387461208316 
2367	 0.55036109321974 
2368	 0.550396621608247 
2369	 0.550386806075932 
2370	 0.550300759708444 
2371	 0.550234129394728 
2372	 0.550161985033278 
2373	 0.549982720155453 
2374	 0.549860472026594 
2375	 0.549682123286017 
2376	 0.549443784222448 
2377	 0.549366356198015 
2378	 0.549260929962474 
2379	 0.54900113212712 
2380	 0.548711929889766 
2381	 0.548413933536531 
2382	 0.548100202536249 
2383	 0.54786456001319 
2384	 0.547781221305758 
2385	 0.547718355651893 
2386	 0.547567608189368 
2387	 0.547425961799364 
2388	 0.54731541118955 
2389	 0.547138470234973 
2390	 0.546942855731835 
2391	 0.546790646763554 
2392	 0.5465685240665 
2393	 0.54627585191963 
2394	 0.546011013120763 
2395	 0.545761705986976 
2396	 0.545493809064873 
2397	 0.545182672879003 
2398	 0.544881339484426 
2399	 0.544517577098617 
2400	 0.544148668924775 
2401	 0.543944127982903 
2402	 0.543683939529033 
2403	 0.543348450374283 
2404	 0.542980311146042 
2405	 0.542522823170929 
2406	 0.54213703055347 
2407	 0.541841659705644 
2408	 0.541608848172745 
2409	 0.541304534846358 
2410	 0.540862518842544 
2411	 0.540438296157221 
2412	 0.539945244008198 
2413	 0.539468515312055 
2414	 0.539112380692945 
2415	 0.538735112289477 
2416	 0.538318593080879 
2417	 0.537884224761239 
2418	 0.537434080100683 
2419	 0.536897897526607 
2420	 0.536439745850877 
2421	 0.536019391824851 
2422	 0.535629909398998 
2423	 0.535309140969594 
2424	 0.534941497435027 
2425	 0.534583772258848 
2426	 0.534184090100009 
2427	 0.533729936078891 
2428	 0.533353475461747 
2429	 0.532945869064724 
2430	 0.532604441849217 
2431	 0.532360807601276 
2432	 0.532093002284482 
2433	 0.531906798372144 
2434	 0.531646464144141 
2435	 0.531339419023646 
2436	 0.530981959189882 
2437	 0.530481613829598 
2438	 0.530128267831211 
2439	 0.529823453502698 
2440	 0.529581688153739 
2441	 0.529472427341291 
2442	 0.529329922342693 
2443	 0.529234920864149 
2444	 0.52907792061296 
2445	 0.528859669479086 
2446	 0.528727774552587 
2447	 0.528617316720043 
2448	 0.528409635710937 
2449	 0.528271082298748 
2450	 0.52805024832063 
2451	 0.527637140062092 
2452	 0.527423958389077 
2453	 0.527247035059917 
2454	 0.527121642461093 
2455	 0.527196316625019 
2456	 0.527054835949748 
2457	 0.526851325784305 
2458	 0.526643939725405 
2459	 0.526256762331231 
2460	 0.526055096358456 
2461	 0.525970410253478 
2462	 0.525901771827888 
2463	 0.525902824160667 
2464	 0.525805204295748 
2465	 0.525732623646761 
2466	 0.525529480895199 
2467	 0.525107983203998 
2468	 0.525044807076811 
2469	 0.525160071296891 
2470	 0.525601842346216 
2471	 0.525733094326279 
2472	 0.525695432912512 
2473	 0.525453705923778 
2474	 0.524932495153003 
2475	 0.524746402793238 
2476	 0.524802511288926 
2477	 0.524649447215549 
2478	 0.524481023936855 
2479	 0.524418931348905 
2480	 0.524234426552724 
2481	 0.524192800263177 
2482	 0.524357416102549 
2483	 0.524306921635418 
2484	 0.524214777947798 
2485	 0.524022120288581 
2486	 0.523653880465208 
2487	 0.523612406374446 
2488	 0.523649933294321 
2489	 0.523454352212015 
2490	 0.523318421040539 
2491	 0.523086811489671 
2492	 0.522815776077794 
2493	 0.5226220825617 
2494	 0.522479084687834 
2495	 0.522307542300922 
2496	 0.522036034323514 
2497	 0.521948356566075 
2498	 0.521955524344851 
2499	 0.521921202713527 
2500	 0.521788037933449 
