Wavelength	LMW400008.asd
350	 0.119732084815221 
351	 0.127458981836736 
352	 0.127028816231344 
353	 0.120493372306196 
354	 0.128480563359012 
355	 0.128002103807868 
356	 0.122672008885475 
357	 0.121318918582392 
358	 0.12423453839191 
359	 0.126508281534425 
360	 0.127980762926838 
361	 0.130806550752917 
362	 0.12560596731142 
363	 0.124851441460733 
364	 0.131940608986941 
365	 0.13248199617022 
366	 0.13227669838253 
367	 0.13307541122086 
368	 0.134845802481902 
369	 0.134594329082339 
370	 0.134101196704872 
371	 0.13413267007619 
372	 0.134761294192161 
373	 0.138073174208739 
374	 0.140035970671597 
375	 0.139407795518205 
376	 0.141080014235812 
377	 0.14118242241913 
378	 0.142840005415569 
379	 0.148223382295314 
380	 0.147114423019338 
381	 0.145609560583927 
382	 0.146704885620253 
383	 0.150057952813319 
384	 0.15011792156897 
385	 0.148487822574053 
386	 0.14812038124628 
387	 0.152724754420417 
388	 0.155494497637923 
389	 0.155343061049242 
390	 0.153799538338235 
391	 0.154148616839411 
392	 0.155341723986019 
393	 0.156873535097392 
394	 0.158809075726655 
395	 0.159548866648927 
396	 0.160203431041928 
397	 0.161511235076906 
398	 0.162500360084278 
399	 0.163193076710055 
400	 0.164102991439613 
401	 0.165549706683463 
402	 0.165590311871489 
403	 0.166012862106262 
404	 0.166872835591493 
405	 0.166375200817692 
406	 0.167500514103069 
407	 0.169123786522827 
408	 0.169823130908942 
409	 0.169425671417655 
410	 0.169547661687779 
411	 0.17023878836281 
412	 0.170838730310409 
413	 0.171781223413299 
414	 0.171654403807458 
415	 0.170859173537767 
416	 0.172233124055307 
417	 0.173208222266444 
418	 0.173538524864096 
419	 0.173638374504631 
420	 0.174131805650821 
421	 0.173950340550392 
422	 0.173789314303284 
423	 0.175181859811964 
424	 0.17564146649928 
425	 0.175571430105231 
426	 0.175559614383103 
427	 0.175791752294661 
428	 0.176161808217334 
429	 0.176399802902754 
430	 0.176354659526634 
431	 0.17674272254134 
432	 0.176980779558001 
433	 0.177068542802116 
434	 0.177583092423704 
435	 0.177753547726086 
436	 0.177923792493021 
437	 0.178278275636091 
438	 0.177906904447904 
439	 0.178118460815809 
440	 0.17871989033794 
441	 0.178894324600602 
442	 0.179485698508184 
443	 0.180044070472649 
444	 0.180284823535669 
445	 0.180335458689085 
446	 0.180474919692832 
447	 0.180763933242075 
448	 0.181142349453261 
449	 0.181382625010856 
450	 0.181798190644062 
451	 0.182300356720273 
452	 0.182467949123274 
453	 0.182435856954441 
454	 0.182475168723305 
455	 0.182712299418068 
456	 0.182869698303014 
457	 0.183045679137994 
458	 0.183322825158526 
459	 0.183730960071745 
460	 0.183961338515918 
461	 0.184137216804503 
462	 0.1842783051643 
463	 0.184192615144579 
464	 0.184338502346286 
465	 0.184628743871662 
466	 0.184843318411964 
467	 0.184877945795394 
468	 0.185223817366178 
469	 0.185717176748796 
470	 0.185707216026027 
471	 0.185716640458133 
472	 0.185966155123658 
473	 0.186398641831985 
474	 0.186415080918841 
475	 0.186604206282263 
476	 0.186841969286148 
477	 0.186781705503296 
478	 0.186851479560378 
479	 0.187139107177402 
480	 0.187501141945861 
481	 0.187520104308497 
482	 0.187794001252092 
483	 0.18810155218011 
484	 0.188137498234431 
485	 0.18822367662178 
486	 0.188287687168646 
487	 0.18838549820156 
488	 0.188662112505152 
489	 0.18881092824983 
490	 0.18887627427428 
491	 0.188957793721586 
492	 0.189152186295183 
493	 0.189137916312904 
494	 0.189042547606419 
495	 0.18916988986232 
496	 0.189353904518763 
497	 0.189605411891661 
498	 0.189887720076346 
499	 0.190074309390275 
500	 0.190216440920133 
501	 0.190301870231753 
502	 0.19032016487365 
503	 0.190313078757413 
504	 0.190425342563841 
505	 0.190617690750106 
506	 0.190694761041584 
507	 0.190856236152593 
508	 0.191043573502685 
509	 0.191164689985695 
510	 0.191157994371204 
511	 0.191205040892636 
512	 0.191305728853731 
513	 0.191368016478085 
514	 0.19142850105311 
515	 0.191588758535475 
516	 0.191836539722657 
517	 0.191964599949534 
518	 0.191996488930392 
519	 0.192006025620012 
520	 0.192079373268558 
521	 0.19223882763181 
522	 0.192382526716667 
523	 0.192468748082859 
524	 0.192526800555076 
525	 0.192581602001632 
526	 0.192624726035117 
527	 0.192662161313359 
528	 0.192789322644207 
529	 0.192802738900677 
530	 0.192794898894836 
531	 0.193015253830488 
532	 0.193085961819021 
533	 0.193172027923847 
534	 0.193362185016896 
535	 0.193414330033246 
536	 0.193530577727389 
537	 0.193651377970516 
538	 0.193654942658301 
539	 0.193728269201491 
540	 0.193795823246913 
541	 0.193836595591595 
542	 0.193928888071437 
543	 0.194032405712305 
544	 0.194139837161173 
545	 0.194250787210025 
546	 0.194368813741207 
547	 0.194420644304716 
548	 0.194438954378121 
549	 0.194541378561057 
550	 0.194680647810667 
551	 0.194751891381106 
552	 0.194744015873414 
553	 0.194921715208322 
554	 0.195063747080322 
555	 0.195168595275989 
556	 0.195332270333658 
557	 0.195421582117434 
558	 0.195509285617433 
559	 0.195649030449324 
560	 0.195832751897284 
561	 0.195896122954683 
562	 0.195896292030428 
563	 0.195958600071218 
564	 0.19609277356028 
565	 0.1961874906948 
566	 0.19624089772319 
567	 0.196379413082758 
568	 0.19658740964775 
569	 0.196774939452815 
570	 0.196889179825131 
571	 0.197067475662378 
572	 0.19725592626188 
573	 0.197417601397418 
574	 0.197529856682862 
575	 0.197577327956998 
576	 0.197675534532727 
577	 0.197853209403375 
578	 0.197903000912385 
579	 0.197956614331289 
580	 0.198065098075026 
581	 0.198237446072742 
582	 0.198422108946036 
583	 0.198609614240277 
584	 0.198787060811391 
585	 0.198932439317947 
586	 0.199014260699976 
587	 0.199085538530402 
588	 0.199196882645921 
589	 0.199274432057296 
590	 0.199296345246789 
591	 0.199324116207759 
592	 0.199482674182888 
593	 0.199640288750117 
594	 0.199732019197515 
595	 0.199774318699244 
596	 0.199962161744809 
597	 0.200146734772301 
598	 0.200312557434031 
599	 0.200503719507058 
600	 0.200603368183007 
601	 0.200718854523244 
602	 0.200873094172097 
603	 0.200891196121592 
604	 0.200857430828552 
605	 0.200870081466584 
606	 0.201002719899566 
607	 0.201155392382872 
608	 0.201258083172141 
609	 0.20133514540221 
610	 0.201512541971884 
611	 0.20169080244074 
612	 0.201825722814758 
613	 0.201908085151205 
614	 0.201993252210837 
615	 0.202103912682369 
616	 0.202240360169518 
617	 0.202379598531758 
618	 0.202442351165318 
619	 0.20247443425085 
620	 0.202524263918775 
621	 0.202601249414838 
622	 0.202712846069611 
623	 0.202797861127789 
624	 0.202802578457265 
625	 0.202926356004011 
626	 0.20303585593988 
627	 0.203085075896174 
628	 0.203178043060925 
629	 0.203255873066264 
630	 0.203314333498658 
631	 0.203366443955605 
632	 0.203436909127366 
633	 0.20348466675724 
634	 0.203527200736019 
635	 0.203621934193106 
636	 0.203642002972277 
637	 0.2036583129718 
638	 0.203726198403677 
639	 0.203775491770438 
640	 0.203842175341061 
641	 0.203930606819723 
642	 0.204024894053615 
643	 0.204074132394162 
644	 0.204110344272944 
645	 0.204173858716386 
646	 0.204308395207347 
647	 0.20433574787208 
648	 0.204333440869881 
649	 0.204410884670097 
650	 0.204465092939409 
651	 0.204490367923293 
652	 0.204521077088341 
653	 0.204617229362536 
654	 0.204696999993684 
655	 0.20472519755889 
656	 0.204718746273793 
657	 0.204800356224243 
658	 0.204880751406267 
659	 0.20495321648089 
660	 0.205036099517419 
661	 0.205024981159751 
662	 0.205067051751336 
663	 0.205198706388004 
664	 0.205263942968275 
665	 0.205315868054723 
666	 0.205365778870512 
667	 0.205410920303844 
668	 0.20542279069099 
669	 0.205458635910282 
670	 0.205536410209804 
671	 0.205634139448298 
672	 0.205679946187397 
673	 0.205704226312041 
674	 0.205749190740817 
675	 0.205844152187778 
676	 0.205916028666051 
677	 0.205954296722712 
678	 0.205983224139396 
679	 0.20605102124779 
680	 0.206086318968845 
681	 0.206100812879305 
682	 0.206227003270371 
683	 0.206276889650501 
684	 0.206288604055526 
685	 0.206339758120838 
686	 0.20642642920475 
687	 0.20646402734467 
688	 0.206480803150666 
689	 0.206573536519876 
690	 0.206619079618487 
691	 0.206638733350884 
692	 0.206671693937208 
693	 0.206754388714319 
694	 0.206808268498811 
695	 0.206837197333924 
696	 0.206873305392167 
697	 0.206915214671766 
698	 0.206960233797938 
699	 0.207021093002557 
700	 0.207123806766175 
701	 0.207186622628767 
702	 0.207235272946935 
703	 0.207293456151454 
704	 0.207306650567492 
705	 0.207318749131426 
706	 0.207364521376657 
707	 0.207454737145352 
708	 0.207456057962712 
709	 0.207465177742611 
710	 0.207522025763221 
711	 0.207549183345881 
712	 0.20758179148818 
713	 0.207630403713856 
714	 0.207689503348766 
715	 0.207713096717943 
716	 0.207772203595909 
717	 0.207842164768738 
718	 0.207838518133816 
719	 0.207868530723187 
720	 0.207888098020565 
721	 0.207879919811815 
722	 0.207919208821721 
723	 0.207991278221978 
724	 0.208052774297599 
725	 0.208067132137327 
726	 0.208090926125859 
727	 0.208122856918512 
728	 0.208154597043311 
729	 0.208175023369349 
730	 0.208202612204539 
731	 0.208229472356552 
732	 0.208247671626677 
733	 0.208259805668621 
734	 0.208276959541383 
735	 0.208295071229777 
736	 0.208306095970753 
737	 0.208318872305798 
738	 0.208354644233208 
739	 0.208396847040632 
740	 0.208389469452049 
741	 0.208354767112768 
742	 0.208367430787763 
743	 0.208446689823546 
744	 0.208431827660795 
745	 0.208429711872567 
746	 0.208454296824152 
747	 0.208470937392501 
748	 0.208432325744826 
749	 0.208432439302805 
750	 0.208483155686817 
751	 0.208484048021811 
752	 0.208459953774719 
753	 0.20846232637665 
754	 0.208517038752367 
755	 0.208558183930459 
756	 0.208591801502004 
757	 0.208580885236102 
758	 0.208498141045599 
759	 0.208534335709763 
760	 0.208580813525396 
761	 0.208578014029228 
762	 0.208565460482332 
763	 0.208578897009348 
764	 0.208589245442501 
765	 0.208571528507915 
766	 0.208561718104076 
767	 0.208563962236843 
768	 0.208560057269894 
769	 0.208531452239762 
770	 0.208547570452979 
771	 0.208566393065535 
772	 0.208557617543931 
773	 0.208519386445742 
774	 0.208515875020363 
775	 0.208518551227002 
776	 0.208494058232666 
777	 0.208451154816529 
778	 0.208454975363116 
779	 0.208494239461533 
780	 0.208516978094749 
781	 0.20847405002382 
782	 0.208469380459964 
783	 0.208502444892942 
784	 0.208457119147218 
785	 0.208455297501878 
786	 0.208481568286967 
787	 0.208493146499051 
788	 0.208442581492391 
789	 0.208416996255006 
790	 0.208430336195263 
791	 0.208456768101556 
792	 0.208433083553314 
793	 0.208417138943967 
794	 0.208427003462346 
795	 0.20843843890089 
796	 0.208425664952983 
797	 0.208410910606681 
798	 0.208400501913355 
799	 0.208353763677679 
800	 0.208352492005458 
801	 0.208386524277513 
802	 0.208410352972804 
803	 0.208358289344508 
804	 0.208386507067075 
805	 0.208456837655728 
806	 0.208426210940469 
807	 0.208427933770747 
808	 0.208388561266926 
809	 0.208317292348142 
810	 0.208352275090227 
811	 0.208408242484606 
812	 0.208405765788591 
813	 0.20833965296414 
814	 0.208400524044312 
815	 0.208441130668268 
816	 0.208404630213505 
817	 0.208308893209338 
818	 0.20833730609859 
819	 0.208391180536387 
820	 0.208417922409641 
821	 0.208422462359647 
822	 0.208422180939445 
823	 0.208421181889994 
824	 0.208410863562238 
825	 0.208364470906052 
826	 0.208389305629664 
827	 0.208435738682448 
828	 0.208439649232199 
829	 0.208446321071751 
830	 0.208399512432977 
831	 0.208351294057332 
832	 0.208384755138473 
833	 0.20842171048655 
834	 0.208465999857834 
835	 0.208501847440074 
836	 0.208495781799465 
837	 0.208483940590979 
838	 0.208488452673307 
839	 0.208508580969568 
840	 0.208509624024853 
841	 0.208539326994405 
842	 0.208512698585165 
843	 0.208402530779074 
844	 0.208474871602513 
845	 0.208547859905149 
846	 0.208557324428613 
847	 0.208515180337957 
848	 0.208505272657296 
849	 0.208511533501188 
850	 0.208536689795075 
851	 0.208595054988344 
852	 0.208596894862506 
853	 0.208579361930584 
854	 0.208574988417032 
855	 0.208580574525049 
856	 0.208630282246059 
857	 0.208661446635243 
858	 0.208637508974064 
859	 0.208648580100587 
860	 0.208627927999693 
861	 0.208632577793762 
862	 0.208716740537611 
863	 0.208737538614187 
864	 0.208715530865724 
865	 0.208710078073714 
866	 0.208770607625311 
867	 0.208710147878866 
868	 0.208739824913081 
869	 0.208847767093903 
870	 0.208784514977815 
871	 0.208744864521965 
872	 0.208751459388684 
873	 0.208794982977606 
874	 0.208860556877309 
875	 0.208910119306341 
876	 0.208911031209017 
877	 0.208869022528295 
878	 0.208869538286784 
879	 0.208943902875569 
880	 0.208997394721606 
881	 0.208947893321403 
882	 0.208965806067334 
883	 0.208987521994378 
884	 0.208972539158575 
885	 0.208929841489646 
886	 0.20906416865856 
887	 0.20913893748845 
888	 0.209091938978809 
889	 0.209046032672749 
890	 0.209079890637789 
891	 0.209142696337351 
892	 0.20919695973147 
893	 0.209244958172129 
894	 0.209188376558531 
895	 0.209156717477606 
896	 0.209225278050964 
897	 0.209291808952138 
898	 0.209340560369654 
899	 0.209334673092217 
900	 0.209276004392369 
901	 0.209258581029387 
902	 0.209333815253526 
903	 0.209435341736718 
904	 0.209478785953727 
905	 0.209494271724337 
906	 0.209518311627392 
907	 0.209542902991934 
908	 0.209544037410283 
909	 0.209539513475326 
910	 0.209555390200973 
911	 0.209588498342664 
912	 0.209621678991999 
913	 0.209700263595488 
914	 0.209715448159596 
915	 0.209696513410865 
916	 0.209777816382129 
917	 0.20976842491492 
918	 0.20976754443952 
919	 0.209845558518076 
920	 0.209980098573021 
921	 0.209959477677604 
922	 0.209915149739172 
923	 0.209947825624084 
924	 0.210016828309895 
925	 0.21006994619369 
926	 0.210130932515217 
927	 0.210196295714873 
928	 0.210181738892752 
929	 0.210290735557071 
930	 0.210405239875941 
931	 0.210416422506584 
932	 0.210435916132357 
933	 0.210437126941545 
934	 0.21042139319687 
935	 0.210411639848296 
936	 0.210481948617151 
937	 0.210444893500813 
938	 0.210421152820415 
939	 0.210557740103071 
940	 0.210725426505387 
941	 0.210774482259747 
942	 0.210752297745527 
943	 0.210765550016104 
944	 0.210770010147707 
945	 0.210864687245839 
946	 0.211021604027754 
947	 0.211147461334096 
948	 0.21117246916018 
949	 0.211138629196593 
950	 0.211079864573117 
951	 0.21104298438723 
952	 0.211163763958824 
953	 0.211300659546738 
954	 0.211343544167966 
955	 0.211278074790829 
956	 0.211397026269608 
957	 0.211457327797953 
958	 0.211449645957596 
959	 0.211495811214703 
960	 0.211462632614828 
961	 0.211463136196152 
962	 0.211559393984015 
963	 0.211722208004472 
964	 0.211698232726306 
965	 0.211713204883189 
966	 0.21180388588756 
967	 0.211863257339731 
968	 0.211906232664969 
969	 0.21195746203672 
970	 0.211995055200088 
971	 0.211993610682877 
972	 0.212102649523052 
973	 0.212235225417598 
974	 0.212302788838122 
975	 0.212269971378291 
976	 0.21229518078197 
977	 0.212423797959441 
978	 0.212503677865583 
979	 0.21237071719377 
980	 0.212503711076342 
981	 0.212464658787959 
982	 0.21237935371109 
983	 0.212627449872303 
984	 0.212792563387478 
985	 0.212854882989032 
986	 0.212875811602416 
987	 0.212920323815688 
988	 0.212842006568168 
989	 0.212967012371579 
990	 0.213100365067558 
991	 0.212941120061352 
992	 0.213046564100937 
993	 0.213077309741121 
994	 0.213103974784895 
995	 0.213276244096593 
996	 0.213204913651712 
997	 0.213331992976981 
998	 0.21352872268127 
999	 0.213566268601374 
1000	 0.213767770107684 
1001	 0.214903480808752 
1002	 0.214861376293346 
1003	 0.214819912298618 
1004	 0.214822517619124 
1005	 0.214822181358881 
1006	 0.214862423438606 
1007	 0.214953816630681 
1008	 0.215064232115945 
1009	 0.215157348159006 
1010	 0.215201453125348 
1011	 0.215224708781486 
1012	 0.215274820445565 
1013	 0.215305762194141 
1014	 0.215348738806876 
1015	 0.215395005315546 
1016	 0.215397497260767 
1017	 0.215420022622964 
1018	 0.215436409191601 
1019	 0.215450722892069 
1020	 0.215474933022856 
1021	 0.215535165869598 
1022	 0.215536384150364 
1023	 0.215530245788576 
1024	 0.215603748024563 
1025	 0.215627566779368 
1026	 0.215623765058805 
1027	 0.215663884463818 
1028	 0.215642261022319 
1029	 0.215624768083115 
1030	 0.215624674582837 
1031	 0.215626464617672 
1032	 0.215615286398434 
1033	 0.21567762229713 
1034	 0.215733264905229 
1035	 0.21577489512689 
1036	 0.215858502850184 
1037	 0.215880191700214 
1038	 0.215906519380085 
1039	 0.215994598593872 
1040	 0.216017926368474 
1041	 0.216008311871018 
1042	 0.216032319702533 
1043	 0.216019389795451 
1044	 0.216035412888525 
1045	 0.216079671934673 
1046	 0.216167219185954 
1047	 0.216211235551644 
1048	 0.216277205415214 
1049	 0.216332121436755 
1050	 0.216403193957393 
1051	 0.216499748439463 
1052	 0.216550276772158 
1053	 0.216624570654136 
1054	 0.216680084068456 
1055	 0.216668236602068 
1056	 0.216659922652647 
1057	 0.216679497407033 
1058	 0.21668982692392 
1059	 0.216733394992419 
1060	 0.216821575686468 
1061	 0.216904091909626 
1062	 0.216949778319964 
1063	 0.216959815148709 
1064	 0.216954605311345 
1065	 0.216965139745226 
1066	 0.216954813852479 
1067	 0.216990438252389 
1068	 0.217035111366019 
1069	 0.217002120974791 
1070	 0.216991349480421 
1071	 0.216989675629247 
1072	 0.216981432555719 
1073	 0.216952653025978 
1074	 0.216957288764651 
1075	 0.216994563813641 
1076	 0.21697930607949 
1077	 0.21700318766447 
1078	 0.217026508500736 
1079	 0.216986276627999 
1080	 0.216955067520138 
1081	 0.21691045497519 
1082	 0.216849929356211 
1083	 0.216799022566084 
1084	 0.216766305453679 
1085	 0.216728469574124 
1086	 0.216649818370313 
1087	 0.216618305088634 
1088	 0.216619818532231 
1089	 0.216631272269878 
1090	 0.216582209807953 
1091	 0.2165905774548 
1092	 0.216596901060303 
1093	 0.216552443343317 
1094	 0.216569721342908 
1095	 0.216613263073522 
1096	 0.216609865313243 
1097	 0.216608289076978 
1098	 0.216603660131309 
1099	 0.216572470097311 
1100	 0.216572619874029 
1101	 0.216598157689774 
1102	 0.216607033286161 
1103	 0.216623970779661 
1104	 0.216633998833914 
1105	 0.216629207038416 
1106	 0.216619717354854 
1107	 0.216602208628105 
1108	 0.216611628507366 
1109	 0.21663434172444 
1110	 0.216651745252686 
1111	 0.2166885423442 
1112	 0.21674465646299 
1113	 0.216797225926416 
1114	 0.216873790740176 
1115	 0.21692027189047 
1116	 0.216955076649042 
1117	 0.21699449754827 
1118	 0.217011996531025 
1119	 0.217040638239361 
1120	 0.217108250395451 
1121	 0.217179555416335 
1122	 0.217242147176373 
1123	 0.217309970131275 
1124	 0.217370234492027 
1125	 0.21741102689739 
1126	 0.217471512751359 
1127	 0.217548391891926 
1128	 0.217605399180926 
1129	 0.217663738245128 
1130	 0.217708436320282 
1131	 0.217728605312517 
1132	 0.217772759745179 
1133	 0.217826561271716 
1134	 0.217868395076208 
1135	 0.217913441990087 
1136	 0.217965505493817 
1137	 0.217986117547226 
1138	 0.218011569366037 
1139	 0.218052742561115 
1140	 0.21810355603824 
1141	 0.21814680833068 
1142	 0.218202959039677 
1143	 0.218247932759133 
1144	 0.218287449145466 
1145	 0.218321304503961 
1146	 0.218343884944193 
1147	 0.218372811567135 
1148	 0.218403193959939 
1149	 0.218430185251739 
1150	 0.218455115101619 
1151	 0.218491841647205 
1152	 0.21850907011476 
1153	 0.218517803691385 
1154	 0.21854807625666 
1155	 0.218592969576426 
1156	 0.218613932204593 
1157	 0.218642862624512 
1158	 0.218657112042031 
1159	 0.218637018165958 
1160	 0.218646856996927 
1161	 0.218680774146971 
1162	 0.218690375738731 
1163	 0.218690765434331 
1164	 0.218699355855462 
1165	 0.218700505844749 
1166	 0.218698588300964 
1167	 0.218719974611627 
1168	 0.218744678857449 
1169	 0.218753213926947 
1170	 0.218755821211265 
1171	 0.218757209774277 
1172	 0.218743846616673 
1173	 0.218746559372657 
1174	 0.2187636402672 
1175	 0.218761969291402 
1176	 0.218747186379883 
1177	 0.218750368230954 
1178	 0.218754762503922 
1179	 0.218758010511503 
1180	 0.218772702845717 
1181	 0.218786445115004 
1182	 0.218790597074694 
1183	 0.218799889406531 
1184	 0.218816615312359 
1185	 0.218855798760499 
1186	 0.218862821012383 
1187	 0.218853003976069 
1188	 0.218855840661664 
1189	 0.218841597280424 
1190	 0.218848993801726 
1191	 0.218887690765959 
1192	 0.218898219239138 
1193	 0.218900478407874 
1194	 0.218902683149389 
1195	 0.218881155503589 
1196	 0.2188807761514 
1197	 0.218903447690402 
1198	 0.218910012426998 
1199	 0.218913879193707 
1200	 0.21891808594478 
1201	 0.218927159272246 
1202	 0.218924365730744 
1203	 0.218939964854589 
1204	 0.218973874261788 
1205	 0.218998647562569 
1206	 0.219024863563724 
1207	 0.219049174499759 
1208	 0.219077802174831 
1209	 0.219097397654992 
1210	 0.219107744734267 
1211	 0.219124462396591 
1212	 0.219143091717958 
1213	 0.219155537334734 
1214	 0.219168681589835 
1215	 0.219180297775542 
1216	 0.219188627642239 
1217	 0.219186261570351 
1218	 0.219195636967635 
1219	 0.219212861432031 
1220	 0.219221348308501 
1221	 0.21923159918539 
1222	 0.219234856418024 
1223	 0.219235389183617 
1224	 0.219227240894445 
1225	 0.21920784468933 
1226	 0.219194831849258 
1227	 0.219168509213791 
1228	 0.219158839290313 
1229	 0.219158742318145 
1230	 0.219164078123863 
1231	 0.219191598679999 
1232	 0.219202187006744 
1233	 0.219208057185407 
1234	 0.219216467932358 
1235	 0.219210911049736 
1236	 0.21917986870038 
1237	 0.219179880575364 
1238	 0.219188654303865 
1239	 0.219194316137966 
1240	 0.219216943112453 
1241	 0.219226825346387 
1242	 0.219230506253931 
1243	 0.219230141116368 
1244	 0.21922748523135 
1245	 0.219221289350127 
1246	 0.219193557507976 
1247	 0.219188692325979 
1248	 0.219197235006928 
1249	 0.219211505831883 
1250	 0.219210031090962 
1251	 0.219194558008649 
1252	 0.219186437920749 
1253	 0.219159218636072 
1254	 0.219143162716441 
1255	 0.219138606847798 
1256	 0.219134285531596 
1257	 0.219116297920467 
1258	 0.219118790379583 
1259	 0.219157402288737 
1260	 0.219159928819991 
1261	 0.21915494485482 
1262	 0.219141518666794 
1263	 0.219089198215816 
1264	 0.219067863777265 
1265	 0.219070994404522 
1266	 0.219054977642527 
1267	 0.219039870923963 
1268	 0.21902683774867 
1269	 0.219008760406671 
1270	 0.218963612062876 
1271	 0.218964703582984 
1272	 0.21898795929668 
1273	 0.219012488008455 
1274	 0.219061844209362 
1275	 0.219097991015019 
1276	 0.2191301459985 
1277	 0.219167665851586 
1278	 0.219210185349763 
1279	 0.219248544067057 
1280	 0.219288410620843 
1281	 0.219329673509373 
1282	 0.219355165880545 
1283	 0.219405804298493 
1284	 0.219480595774796 
1285	 0.219546486221901 
1286	 0.219622291736588 
1287	 0.219669787039891 
1288	 0.219682496926963 
1289	 0.219644546648036 
1290	 0.219647765851696 
1291	 0.219644811924185 
1292	 0.21963764810642 
1293	 0.219657076458417 
1294	 0.219636062864959 
1295	 0.219575863647189 
1296	 0.219533519555362 
1297	 0.219487882426202 
1298	 0.219436845213871 
1299	 0.219385264726545 
1300	 0.219331694861674 
1301	 0.219270329311613 
1302	 0.219209300641948 
1303	 0.219154895051573 
1304	 0.21908883158499 
1305	 0.219015170597841 
1306	 0.218941919610324 
1307	 0.21885531490821 
1308	 0.218769020375629 
1309	 0.218694886417796 
1310	 0.218624820616346 
1311	 0.218557403162361 
1312	 0.218500270350089 
1313	 0.218438337415307 
1314	 0.218378647040504 
1315	 0.218310190572071 
1316	 0.218225650314094 
1317	 0.218174058271721 
1318	 0.218133331909073 
1319	 0.218088901326032 
1320	 0.218071893354226 
1321	 0.218038863830937 
1322	 0.217984485932025 
1323	 0.217946653568875 
1324	 0.217914440294056 
1325	 0.217881119142196 
1326	 0.21786139565369 
1327	 0.217846100833096 
1328	 0.217834730905977 
1329	 0.217825749979235 
1330	 0.217821349425704 
1331	 0.21781806197294 
1332	 0.217819681580386 
1333	 0.217827987101616 
1334	 0.217838052518799 
1335	 0.217839745441196 
1336	 0.217866912303266 
1337	 0.217915872599323 
1338	 0.217952385981516 
1339	 0.218006892985068 
1340	 0.218041207624022 
1341	 0.218055600219161 
1342	 0.218079053200506 
1343	 0.218100397780447 
1344	 0.218123420050982 
1345	 0.218142059837783 
1346	 0.218163069916069 
1347	 0.218199268183391 
1348	 0.218243077895773 
1349	 0.218288734764657 
1350	 0.218327926424904 
1351	 0.218349903672833 
1352	 0.218343703327884 
1353	 0.218360190946002 
1354	 0.218375312742127 
1355	 0.218397830079067 
1356	 0.218435610239007 
1357	 0.21846265211369 
1358	 0.218490987553398 
1359	 0.218514077036861 
1360	 0.218526295053903 
1361	 0.218543545260967 
1362	 0.218557777232251 
1363	 0.218575753140105 
1364	 0.218596732864868 
1365	 0.21862456757981 
1366	 0.218661923184421 
1367	 0.218690150387029 
1368	 0.218736938165288 
1369	 0.218758112975225 
1370	 0.218750798832594 
1371	 0.218752768856941 
1372	 0.218732820715532 
1373	 0.218705242525446 
1374	 0.218665251001381 
1375	 0.218619340413303 
1376	 0.218563934723708 
1377	 0.218493750846858 
1378	 0.218414188998008 
1379	 0.218330156444418 
1380	 0.218237263448847 
1381	 0.218134187518394 
1382	 0.218017938195289 
1383	 0.217890616381917 
1384	 0.217760255785914 
1385	 0.217624656553058 
1386	 0.217467788078594 
1387	 0.217310151888881 
1388	 0.217133278396527 
1389	 0.216943277596651 
1390	 0.216715076918896 
1391	 0.216477943089134 
1392	 0.216231068087682 
1393	 0.215956859232751 
1394	 0.215672331066043 
1395	 0.215375501214321 
1396	 0.215069935995994 
1397	 0.214755361681561 
1398	 0.214420826907735 
1399	 0.214100835660107 
1400	 0.213774290275364 
1401	 0.213455158781974 
1402	 0.21313965486179 
1403	 0.212835766781029 
1404	 0.21253337952336 
1405	 0.212252384702364 
1406	 0.211980372626974 
1407	 0.211725935249668 
1408	 0.21148435257268 
1409	 0.211261047018578 
1410	 0.211052093640271 
1411	 0.210864760957209 
1412	 0.210692255262706 
1413	 0.210549811141611 
1414	 0.210422151566976 
1415	 0.210299631299251 
1416	 0.210196016565895 
1417	 0.210090266474329 
1418	 0.209980016608654 
1419	 0.209884983553647 
1420	 0.209785927158727 
1421	 0.209690168581907 
1422	 0.209601486102318 
1423	 0.209518303644848 
1424	 0.209447591220376 
1425	 0.209385768797765 
1426	 0.209327532506249 
1427	 0.209282086688412 
1428	 0.209234664591038 
1429	 0.20918517674479 
1430	 0.209148859808751 
1431	 0.209118073959268 
1432	 0.20909649151783 
1433	 0.209085058243877 
1434	 0.209079189537274 
1435	 0.209084520004995 
1436	 0.209090776814155 
1437	 0.209102770630779 
1438	 0.209112760606504 
1439	 0.209130381664147 
1440	 0.209133135148495 
1441	 0.209135588188177 
1442	 0.209163167534575 
1443	 0.209169566796893 
1444	 0.209176531219961 
1445	 0.209196804819075 
1446	 0.209205134976016 
1447	 0.209207621425947 
1448	 0.209210520804094 
1449	 0.2092077848082 
1450	 0.209200443652022 
1451	 0.209204546412879 
1452	 0.209220788029027 
1453	 0.209236229224068 
1454	 0.20925119413632 
1455	 0.209269284696095 
1456	 0.209294312956776 
1457	 0.209321955222143 
1458	 0.209356669494294 
1459	 0.209383161882061 
1460	 0.209404875236825 
1461	 0.209430307803317 
1462	 0.20944627117039 
1463	 0.209478156462242 
1464	 0.209530561614393 
1465	 0.209567326423063 
1466	 0.209605516568258 
1467	 0.209637549393381 
1468	 0.209650941499887 
1469	 0.209680866067045 
1470	 0.209722454944664 
1471	 0.209753115758691 
1472	 0.209789899745999 
1473	 0.20983908723828 
1474	 0.209871863694188 
1475	 0.209912533596159 
1476	 0.209961516916716 
1477	 0.210004924004701 
1478	 0.210079286056254 
1479	 0.210173348861459 
1480	 0.210284346370299 
1481	 0.210422079192467 
1482	 0.210541041876312 
1483	 0.210664820362626 
1484	 0.210780240680012 
1485	 0.21088079609483 
1486	 0.210992352018234 
1487	 0.211105093099401 
1488	 0.211226608600982 
1489	 0.211362653757545 
1490	 0.2114829922062 
1491	 0.21160495222518 
1492	 0.211717184269926 
1493	 0.211812330742121 
1494	 0.211915612824513 
1495	 0.21202105950046 
1496	 0.212124827238781 
1497	 0.212230545404648 
1498	 0.212330595263534 
1499	 0.212431900102454 
1500	 0.212521936292957 
1501	 0.212596290598607 
1502	 0.212680639877357 
1503	 0.212762593879926 
1504	 0.212847729004156 
1505	 0.212937503945783 
1506	 0.213020044622242 
1507	 0.213091614710984 
1508	 0.213155215868781 
1509	 0.213215688956311 
1510	 0.213279288871927 
1511	 0.213350192564742 
1512	 0.213421521525788 
1513	 0.213493097025593 
1514	 0.21356496038792 
1515	 0.213641226257075 
1516	 0.213711964711663 
1517	 0.213773524404766 
1518	 0.213836543342391 
1519	 0.213885916592526 
1520	 0.213907220360895 
1521	 0.213966068445981 
1522	 0.214041429039714 
1523	 0.214101065807754 
1524	 0.214180171811568 
1525	 0.21423043082332 
1526	 0.214243536222324 
1527	 0.21428855529383 
1528	 0.214339910189803 
1529	 0.214395067876967 
1530	 0.214466532524378 
1531	 0.214531649136665 
1532	 0.214595794969693 
1533	 0.214654823093355 
1534	 0.214714646811426 
1535	 0.214769534218952 
1536	 0.21481698754399 
1537	 0.214867067275584 
1538	 0.214921394710497 
1539	 0.214966785425846 
1540	 0.215008469394168 
1541	 0.215047122801977 
1542	 0.215084413526331 
1543	 0.215106352668461 
1544	 0.215108156181735 
1545	 0.21512352677956 
1546	 0.215124665495098 
1547	 0.215146718352737 
1548	 0.215193048925088 
1549	 0.215245729388096 
1550	 0.215302179392184 
1551	 0.215345578950918 
1552	 0.215370966850146 
1553	 0.215395230428133 
1554	 0.215428789168794 
1555	 0.215468140782448 
1556	 0.215517920036572 
1557	 0.215559990873298 
1558	 0.215565579329921 
1559	 0.215568063445248 
1560	 0.215586803602714 
1561	 0.215599109979049 
1562	 0.215624013686921 
1563	 0.215668564823023 
1564	 0.215706114159886 
1565	 0.215740215118539 
1566	 0.215780209434231 
1567	 0.215832393889084 
1568	 0.215869684828674 
1569	 0.215901041893209 
1570	 0.215930847072951 
1571	 0.215962046251697 
1572	 0.215977056686052 
1573	 0.215979225534798 
1574	 0.215984074052813 
1575	 0.215974355531451 
1576	 0.215976823450319 
1577	 0.215994446947972 
1578	 0.215996328432238 
1579	 0.215994408524766 
1580	 0.21598285201495 
1581	 0.2159483823192 
1582	 0.21593824095618 
1583	 0.215931013287851 
1584	 0.215935632554075 
1585	 0.215961188780095 
1586	 0.215977201465853 
1587	 0.215996088322066 
1588	 0.216011063057126 
1589	 0.216026495328004 
1590	 0.21604044835717 
1591	 0.216051359466584 
1592	 0.216059949843676 
1593	 0.216062945236308 
1594	 0.216071038411678 
1595	 0.216073713937974 
1596	 0.216089358865577 
1597	 0.216122853809329 
1598	 0.21614185061123 
1599	 0.216167361678712 
1600	 0.2161826312429 
1601	 0.216177829725452 
1602	 0.216179717485245 
1603	 0.216176389634534 
1604	 0.216178342569827 
1605	 0.216193709165385 
1606	 0.216199462022871 
1607	 0.216200498243542 
1608	 0.216205774235326 
1609	 0.216199832646652 
1610	 0.216185670520567 
1611	 0.216175768528919 
1612	 0.216167972937406 
1613	 0.21617534545106 
1614	 0.216182055925417 
1615	 0.216193662070972 
1616	 0.216199535733304 
1617	 0.216199641806784 
1618	 0.216209919009429 
1619	 0.216212528996749 
1620	 0.216222506560186 
1621	 0.216224908941386 
1622	 0.216224097955371 
1623	 0.216212368344703 
1624	 0.216188656883374 
1625	 0.216188013338126 
1626	 0.216184585986513 
1627	 0.216191920853501 
1628	 0.216225816312318 
1629	 0.216235418652307 
1630	 0.216233154300582 
1631	 0.216238978751424 
1632	 0.216249273890369 
1633	 0.216241852980557 
1634	 0.216227115845918 
1635	 0.216215234120153 
1636	 0.216184587380056 
1637	 0.216178837850864 
1638	 0.216187597668908 
1639	 0.216196226295135 
1640	 0.216220843912274 
1641	 0.216223246373104 
1642	 0.216216448946834 
1643	 0.216216421712901 
1644	 0.216203040492129 
1645	 0.216207083177187 
1646	 0.216227174667845 
1647	 0.216239575812485 
1648	 0.216263898119086 
1649	 0.216259281681423 
1650	 0.216234575744949 
1651	 0.216226565485986 
1652	 0.216201363597928 
1653	 0.216197578830134 
1654	 0.216229571309761 
1655	 0.216221643034979 
1656	 0.216193259988567 
1657	 0.21617887902371 
1658	 0.216147336592658 
1659	 0.216137035958009 
1660	 0.216149614899961 
1661	 0.216149104816668 
1662	 0.216143423107194 
1663	 0.21614830716878 
1664	 0.216161649781292 
1665	 0.216164029787229 
1666	 0.2161744032588 
1667	 0.216167617369565 
1668	 0.216135846176552 
1669	 0.216125975185451 
1670	 0.216119961669312 
1671	 0.216114351958662 
1672	 0.216122550258725 
1673	 0.216117657032867 
1674	 0.216097619914607 
1675	 0.216095574510407 
1676	 0.216102444989946 
1677	 0.216102475512361 
1678	 0.216106665285911 
1679	 0.216111847624986 
1680	 0.216118026736392 
1681	 0.216112889485002 
1682	 0.216109837072093 
1683	 0.216098655057764 
1684	 0.216068460646355 
1685	 0.216047793589316 
1686	 0.216018874911321 
1687	 0.216019341413058 
1688	 0.216032043339335 
1689	 0.216049591090437 
1690	 0.216097805911763 
1691	 0.21612439760996 
1692	 0.216154479672554 
1693	 0.216157525697934 
1694	 0.216144446262639 
1695	 0.216127468704636 
1696	 0.216075418153389 
1697	 0.216055248148002 
1698	 0.216057784773719 
1699	 0.216038859131589 
1700	 0.216013605692633 
1701	 0.216003226612129 
1702	 0.21598380590536 
1703	 0.215974332825005 
1704	 0.215998114174076 
1705	 0.215987441272111 
1706	 0.215954436927168 
1707	 0.215932880946787 
1708	 0.215893474495808 
1709	 0.215881645842657 
1710	 0.215890683714559 
1711	 0.215888432260392 
1712	 0.215898923393765 
1713	 0.215897423083053 
1714	 0.215886825820949 
1715	 0.215875133996448 
1716	 0.215863133233899 
1717	 0.21584227160882 
1718	 0.215811912451686 
1719	 0.215782846071685 
1720	 0.215757185088463 
1721	 0.215714689350681 
1722	 0.215653124269574 
1723	 0.215611153629013 
1724	 0.215563112939008 
1725	 0.215528311021214 
1726	 0.215514442066036 
1727	 0.21549183327178 
1728	 0.215480455969805 
1729	 0.215435277088961 
1730	 0.215372357075189 
1731	 0.215318516401857 
1732	 0.21523722183517 
1733	 0.215182809154985 
1734	 0.215160156553132 
1735	 0.21510443511966 
1736	 0.215037781298501 
1737	 0.214978283695835 
1738	 0.214900098595249 
1739	 0.214839938896618 
1740	 0.214796979973294 
1741	 0.214743711685183 
1742	 0.214693577900122 
1743	 0.214641806261927 
1744	 0.214586774276276 
1745	 0.214522554959341 
1746	 0.214451507106862 
1747	 0.214388082001811 
1748	 0.214333333961335 
1749	 0.214289342647586 
1750	 0.214229488456753 
1751	 0.214160957248882 
1752	 0.214096754145727 
1753	 0.214034456051313 
1754	 0.21396776806243 
1755	 0.213906005069412 
1756	 0.213865776512955 
1757	 0.213818750214494 
1758	 0.213769192566701 
1759	 0.213733145737433 
1760	 0.213676152050327 
1761	 0.213629612784012 
1762	 0.213598611244711 
1763	 0.213532195577578 
1764	 0.213468902455253 
1765	 0.213421392503447 
1766	 0.213380487440358 
1767	 0.213360742341343 
1768	 0.21334472242456 
1769	 0.213324698370967 
1770	 0.213284537914352 
1771	 0.213258782557633 
1772	 0.213247725197103 
1773	 0.213184997791804 
1774	 0.213134179919708 
1775	 0.21310818059786 
1776	 0.213043123548877 
1777	 0.213005658396694 
1778	 0.213008774906942 
1779	 0.213004155224644 
1780	 0.213017933877503 
1781	 0.213050041767455 
1782	 0.213045669198357 
1783	 0.21302362452908 
1784	 0.21300581660286 
1785	 0.212969555350148 
1786	 0.212959749820852 
1787	 0.212962772561738 
1788	 0.21295848393103 
1789	 0.212965521667098 
1790	 0.212981238846164 
1791	 0.213001255406981 
1792	 0.212996052988878 
1793	 0.212990335853349 
1794	 0.212989310582953 
1795	 0.212973420393882 
1796	 0.212967433959081 
1797	 0.212973932039264 
1798	 0.212959037924259 
1799	 0.212916642422513 
1800	 0.212914715739473 
1801	 0.211261258891469 
1802	 0.211313351877023 
1803	 0.211387321847407 
1804	 0.211394116062964 
1805	 0.211415672858265 
1806	 0.211470411175148 
1807	 0.211496999158074 
1808	 0.211517675700629 
1809	 0.211549481363344 
1810	 0.21156318112545 
1811	 0.211551613050277 
1812	 0.211539711449741 
1813	 0.211547086860898 
1814	 0.211557375880126 
1815	 0.21153382330625 
1816	 0.211517934003983 
1817	 0.211504468376646 
1818	 0.211464763436949 
1819	 0.21145381156458 
1820	 0.211468241178163 
1821	 0.211470903992386 
1822	 0.211468711494028 
1823	 0.211490735286587 
1824	 0.211490744693204 
1825	 0.21148632532316 
1826	 0.211496939985868 
1827	 0.211494576684946 
1828	 0.21148811176302 
1829	 0.211495598388323 
1830	 0.211476453813392 
1831	 0.211439239021853 
1832	 0.211386247733056 
1833	 0.21134375012778 
1834	 0.211305440701319 
1835	 0.211271311410615 
1836	 0.211274515443427 
1837	 0.211261230709597 
1838	 0.211225338118967 
1839	 0.211212887892344 
1840	 0.211224007241707 
1841	 0.211196258957066 
1842	 0.21115962045626 
1843	 0.211137253492596 
1844	 0.211062221078829 
1845	 0.210979920025537 
1846	 0.21089988405142 
1847	 0.210819559196166 
1848	 0.210737511191723 
1849	 0.21066058741918 
1850	 0.210601439347673 
1851	 0.210564969917477 
1852	 0.210512017742683 
1853	 0.210464617056126 
1854	 0.210409908497782 
1855	 0.210308686849275 
1856	 0.210215947639653 
1857	 0.210129983546157 
1858	 0.210009350257816 
1859	 0.209863605006963 
1860	 0.209711897210528 
1861	 0.209541789534869 
1862	 0.209351876533535 
1863	 0.209150423701509 
1864	 0.208950674987238 
1865	 0.208737935642405 
1866	 0.208480930058859 
1867	 0.208187452429681 
1868	 0.207883232858326 
1869	 0.207562128174781 
1870	 0.207219140813325 
1871	 0.206863047365041 
1872	 0.206508808466004 
1873	 0.20612538376701 
1874	 0.205719568900235 
1875	 0.205288919702945 
1876	 0.204796594443125 
1877	 0.204279574772484 
1878	 0.203704610270486 
1879	 0.203077015890449 
1880	 0.202415940757203 
1881	 0.201714879136381 
1882	 0.200976986446073 
1883	 0.200208009448366 
1884	 0.199373222567754 
1885	 0.198504917249574 
1886	 0.197591560424107 
1887	 0.19661799715541 
1888	 0.195624197876075 
1889	 0.19459000576765 
1890	 0.193548763043949 
1891	 0.192513358725886 
1892	 0.191445377842703 
1893	 0.190406520494529 
1894	 0.189376129559376 
1895	 0.188357529239927 
1896	 0.187360099237863 
1897	 0.186422764435688 
1898	 0.185506006865294 
1899	 0.184640507971089 
1900	 0.183803099130041 
1901	 0.183019204622769 
1902	 0.182303688229218 
1903	 0.181666519396033 
1904	 0.181045038325868 
1905	 0.180469823500497 
1906	 0.179956644045376 
1907	 0.179454501769061 
1908	 0.178995653735128 
1909	 0.178604181824636 
1910	 0.178231029619403 
1911	 0.177892722230173 
1912	 0.177594972487159 
1913	 0.177310029299354 
1914	 0.177058804493294 
1915	 0.176808239766818 
1916	 0.176571302939313 
1917	 0.176343752743317 
1918	 0.176124639914152 
1919	 0.175949821852282 
1920	 0.175814424842065 
1921	 0.175676947202789 
1922	 0.175567542838062 
1923	 0.17547069742209 
1924	 0.175390179025011 
1925	 0.175310400212378 
1926	 0.175279280133825 
1927	 0.175278362435861 
1928	 0.175300194034822 
1929	 0.175356012325868 
1930	 0.175409893197055 
1931	 0.175489920510831 
1932	 0.17556101172038 
1933	 0.17562896094588 
1934	 0.175731210934554 
1935	 0.175832083084133 
1936	 0.175930130790187 
1937	 0.176054186851092 
1938	 0.176198592281339 
1939	 0.176342446583925 
1940	 0.176492747477552 
1941	 0.176659504478686 
1942	 0.176844823443826 
1943	 0.177047120832724 
1944	 0.177259224830815 
1945	 0.177479918059132 
1946	 0.177689460142647 
1947	 0.177883396890381 
1948	 0.178093329662703 
1949	 0.178300715418441 
1950	 0.178526932488061 
1951	 0.178773541957466 
1952	 0.179011766495525 
1953	 0.179247345707947 
1954	 0.179502908080658 
1955	 0.179751433197903 
1956	 0.180002497405077 
1957	 0.18025760974893 
1958	 0.180515754609767 
1959	 0.180779823547971 
1960	 0.181049841131773 
1961	 0.181323055635119 
1962	 0.181617923085867 
1963	 0.181898184541558 
1964	 0.182176964211308 
1965	 0.182432206093907 
1966	 0.182698232349399 
1967	 0.182974285535308 
1968	 0.183252746129511 
1969	 0.183542481488044 
1970	 0.183824367247181 
1971	 0.184109886453923 
1972	 0.184385321402742 
1973	 0.18465223614957 
1974	 0.184924875088939 
1975	 0.185192985432867 
1976	 0.185463739398077 
1977	 0.185747642216467 
1978	 0.186018578425256 
1979	 0.186300925587703 
1980	 0.186586362739679 
1981	 0.186864052436003 
1982	 0.18714528254093 
1983	 0.187417438591857 
1984	 0.187674065532743 
1985	 0.187939488789577 
1986	 0.188195239788755 
1987	 0.188465616609907 
1988	 0.188738480392792 
1989	 0.189037719282863 
1990	 0.189322517693555 
1991	 0.189613646560406 
1992	 0.189896924874682 
1993	 0.190183945692604 
1994	 0.190444459224308 
1995	 0.19068675549688 
1996	 0.190937347631472 
1997	 0.191172942747276 
1998	 0.191409434925535 
1999	 0.191651932687342 
2000	 0.191893066363038 
2001	 0.192122191228687 
2002	 0.192355640129295 
2003	 0.192602514017447 
2004	 0.192854083951792 
2005	 0.193100649885107 
2006	 0.19335606633389 
2007	 0.193590635913846 
2008	 0.193812748676391 
2009	 0.194039470863757 
2010	 0.194247555354102 
2011	 0.194471728669754 
2012	 0.194710045208072 
2013	 0.194941156827847 
2014	 0.195183298828451 
2015	 0.195409208036224 
2016	 0.195617475586881 
2017	 0.195834401745803 
2018	 0.196057691331498 
2019	 0.196282208315469 
2020	 0.196504008203347 
2021	 0.196742566908507 
2022	 0.196957832263939 
2023	 0.197151521158407 
2024	 0.19735596075489 
2025	 0.197560519201855 
2026	 0.197759304169073 
2027	 0.197958998665129 
2028	 0.198151570826767 
2029	 0.198345151909643 
2030	 0.19853481070349 
2031	 0.198721402056767 
2032	 0.198900370305777 
2033	 0.199092248025716 
2034	 0.199286152073489 
2035	 0.199480450226545 
2036	 0.199688706033163 
2037	 0.199887229693979 
2038	 0.20009232457441 
2039	 0.200271235565502 
2040	 0.200437775355837 
2041	 0.200599392602606 
2042	 0.200728726148766 
2043	 0.200848263868726 
2044	 0.200995003679367 
2045	 0.201152580273077 
2046	 0.201304875819791 
2047	 0.201482753148373 
2048	 0.201629249903983 
2049	 0.201751906945524 
2050	 0.201881741060228 
2051	 0.202001221990179 
2052	 0.202123348364888 
2053	 0.202241563214791 
2054	 0.202369034127492 
2055	 0.202497690015108 
2056	 0.202639101698389 
2057	 0.202761264475227 
2058	 0.202885853139293 
2059	 0.202997098232932 
2060	 0.203081032243984 
2061	 0.203190590685379 
2062	 0.203304670074126 
2063	 0.203426155866771 
2064	 0.203562906749074 
2065	 0.203693671740518 
2066	 0.203821909110682 
2067	 0.203958456758578 
2068	 0.204108310886934 
2069	 0.204243357092828 
2070	 0.204380017647949 
2071	 0.204524502001324 
2072	 0.204652965432843 
2073	 0.204769105902041 
2074	 0.204886148917525 
2075	 0.20499368814845 
2076	 0.205110489567506 
2077	 0.205236747480748 
2078	 0.205345398389656 
2079	 0.205441870001657 
2080	 0.205548975283063 
2081	 0.2056507211868 
2082	 0.20575227353997 
2083	 0.205860541280064 
2084	 0.205974310712809 
2085	 0.206081473761594 
2086	 0.206186943765896 
2087	 0.206274618498134 
2088	 0.206356395219632 
2089	 0.206436640128174 
2090	 0.206492012523474 
2091	 0.206565377547858 
2092	 0.206653692892169 
2093	 0.206733692592276 
2094	 0.206797549493566 
2095	 0.206885254534271 
2096	 0.207002280903933 
2097	 0.207092997346377 
2098	 0.207174125547919 
2099	 0.207270113983376 
2100	 0.207358956978738 
2101	 0.207428185199904 
2102	 0.20750723255295 
2103	 0.207596732600022 
2104	 0.207688485940261 
2105	 0.207766949245527 
2106	 0.207865696646574 
2107	 0.207987973909776 
2108	 0.208101409219714 
2109	 0.208227013899868 
2110	 0.208335503369437 
2111	 0.208437351948363 
2112	 0.208535094330462 
2113	 0.208630782411689 
2114	 0.208711318924206 
2115	 0.208772188908794 
2116	 0.208816973569876 
2117	 0.20887382435055 
2118	 0.208904077687522 
2119	 0.208966014556857 
2120	 0.209046999414 
2121	 0.20913236681477 
2122	 0.209224593650757 
2123	 0.209322529915981 
2124	 0.209464405980191 
2125	 0.209553730021927 
2126	 0.209633546509219 
2127	 0.20968656982426 
2128	 0.209682332059604 
2129	 0.209693382170214 
2130	 0.209689388451511 
2131	 0.209696578596624 
2132	 0.20970247642166 
2133	 0.209720331409718 
2134	 0.209713148712511 
2135	 0.209706645785767 
2136	 0.209674366208195 
2137	 0.209621791995119 
2138	 0.209558058519128 
2139	 0.209467330068039 
2140	 0.209384936427104 
2141	 0.209291190435908 
2142	 0.2092005017669 
2143	 0.209112798558486 
2144	 0.209022750022173 
2145	 0.208943346578394 
2146	 0.208841383467938 
2147	 0.208733358032063 
2148	 0.208617784807882 
2149	 0.20846595565593 
2150	 0.208272297719661 
2151	 0.20810148626435 
2152	 0.207899101948068 
2153	 0.207742137883639 
2154	 0.207621618950956 
2155	 0.207476208179226 
2156	 0.207340707393654 
2157	 0.207197414444038 
2158	 0.20704544062369 
2159	 0.206884206396777 
2160	 0.20672239386384 
2161	 0.206555146817345 
2162	 0.206374936443407 
2163	 0.206190889789876 
2164	 0.206015924027815 
2165	 0.205813827475323 
2166	 0.205620939703336 
2167	 0.205408211988837 
2168	 0.205230317503115 
2169	 0.205061577234018 
2170	 0.204908775425135 
2171	 0.20480030024917 
2172	 0.204640226764194 
2173	 0.204474121513768 
2174	 0.204292534537582 
2175	 0.204064347590682 
2176	 0.203864708108761 
2177	 0.203668400905846 
2178	 0.203479407679338 
2179	 0.203281236417273 
2180	 0.203116401856085 
2181	 0.202990016869871 
2182	 0.202846562521177 
2183	 0.202698739462925 
2184	 0.202584443226347 
2185	 0.202465133841963 
2186	 0.20233467225978 
2187	 0.202219630629073 
2188	 0.202130829584967 
2189	 0.202025670465575 
2190	 0.201900371370563 
2191	 0.201805266462376 
2192	 0.201734201412183 
2193	 0.201648944508701 
2194	 0.201557255366752 
2195	 0.201491058297779 
2196	 0.201437565575765 
2197	 0.201377557803712 
2198	 0.201346286055885 
2199	 0.201296181130496 
2200	 0.201230812392528 
2201	 0.201156847714515 
2202	 0.201073435984226 
2203	 0.200991387643137 
2204	 0.200905170622587 
2205	 0.200794755227465 
2206	 0.200725840427588 
2207	 0.200665797463644 
2208	 0.200630768205691 
2209	 0.200615348656255 
2210	 0.200625117866642 
2211	 0.200672313590508 
2212	 0.200706748999949 
2213	 0.200770005708854 
2214	 0.200810251299352 
2215	 0.200814664177107 
2216	 0.200862535312809 
2217	 0.200927959536048 
2218	 0.200993451258355 
2219	 0.201085803820137 
2220	 0.201174377979661 
2221	 0.201229169278674 
2222	 0.201349112813058 
2223	 0.20148781147674 
2224	 0.201593502602672 
2225	 0.201687500634472 
2226	 0.201781367818082 
2227	 0.201851390564552 
2228	 0.201892241616345 
2229	 0.201938821974546 
2230	 0.201989266727289 
2231	 0.202007622822762 
2232	 0.202006323250707 
2233	 0.201995872709978 
2234	 0.201938304493236 
2235	 0.201930521314142 
2236	 0.20193939892724 
2237	 0.201944100477845 
2238	 0.20197479660936 
2239	 0.201994393378108 
2240	 0.201990190994321 
2241	 0.202012275403859 
2242	 0.202080050436706 
2243	 0.202102114987265 
2244	 0.202114296888896 
2245	 0.202111999733677 
2246	 0.202097083977555 
2247	 0.202063008035432 
2248	 0.202046993053429 
2249	 0.202042423082119 
2250	 0.202045178385694 
2251	 0.20204890211651 
2252	 0.202061005347868 
2253	 0.202097384846517 
2254	 0.20210453428965 
2255	 0.202098480231089 
2256	 0.202093886397558 
2257	 0.202083150030108 
2258	 0.202068077098003 
2259	 0.202046221353674 
2260	 0.202027163521172 
2261	 0.201989506586299 
2262	 0.201983745232454 
2263	 0.202002997982427 
2264	 0.202010903663539 
2265	 0.202037110261503 
2266	 0.202047861339239 
2267	 0.202038877953268 
2268	 0.202039526150437 
2269	 0.202048587585235 
2270	 0.20203997026535 
2271	 0.202042129392211 
2272	 0.202079949399279 
2273	 0.202109107676875 
2274	 0.202150876200626 
2275	 0.202153946612507 
2276	 0.202134409679507 
2277	 0.202122744412926 
2278	 0.202096338324734 
2279	 0.20205375004084 
2280	 0.202000535629861 
2281	 0.201964754795898 
2282	 0.201912479203423 
2283	 0.201875867344321 
2284	 0.201859003524443 
2285	 0.201845779367886 
2286	 0.201834899575217 
2287	 0.201817722050437 
2288	 0.201822039387465 
2289	 0.201806564786527 
2290	 0.201766906270885 
2291	 0.201734736219128 
2292	 0.201699836664085 
2293	 0.201671377467096 
2294	 0.201640683493418 
2295	 0.201618649121387 
2296	 0.201616658349121 
2297	 0.201594928138589 
2298	 0.201569798234776 
2299	 0.20153000713335 
2300	 0.20150833342905 
2301	 0.201462022301013 
2302	 0.201378059679454 
2303	 0.201324567029271 
2304	 0.201290276026903 
2305	 0.201246984569854 
2306	 0.201176654196469 
2307	 0.201121108594661 
2308	 0.201053490311694 
2309	 0.200931823838314 
2310	 0.200842059736351 
2311	 0.200801912967851 
2312	 0.200698864738253 
2313	 0.200554743651953 
2314	 0.200428873138662 
2315	 0.200266191989379 
2316	 0.200155553855962 
2317	 0.200067890739337 
2318	 0.199989883162113 
2319	 0.199936650382283 
2320	 0.199907454295825 
2321	 0.199891884009393 
2322	 0.199883732647693 
2323	 0.199919500334644 
2324	 0.199934723326552 
2325	 0.199962513128426 
2326	 0.19996380127092 
2327	 0.199947928425973 
2328	 0.199914181953056 
2329	 0.199906728834372 
2330	 0.199906358705149 
2331	 0.199937348443348 
2332	 0.199978508459793 
2333	 0.199979566424855 
2334	 0.199934225341796 
2335	 0.199931585106014 
2336	 0.199968788525967 
2337	 0.199976038047358 
2338	 0.200016382615907 
2339	 0.20001083665247 
2340	 0.199890626110352 
2341	 0.199838157995856 
2342	 0.199846919087744 
2343	 0.199800562199645 
2344	 0.199827863715855 
2345	 0.199826110833191 
2346	 0.199800975383634 
2347	 0.199751225848156 
2348	 0.199697653932333 
2349	 0.19965038736896 
2350	 0.199589357414843 
2351	 0.199526411009294 
2352	 0.19951865934736 
2353	 0.199408505897493 
2354	 0.199168725135647 
2355	 0.199045503976272 
2356	 0.198930200576483 
2357	 0.198818545574053 
2358	 0.198760680707125 
2359	 0.198707705268141 
2360	 0.198671789965284 
2361	 0.198600536169109 
2362	 0.198558705571511 
2363	 0.198505184977324 
2364	 0.198384867674804 
2365	 0.198270563558743 
2366	 0.198169255237223 
2367	 0.198080534782987 
2368	 0.197981282157805 
2369	 0.197881163216905 
2370	 0.197821038800112 
2371	 0.197732452554232 
2372	 0.1975357306073 
2373	 0.19733007066784 
2374	 0.197166288492328 
2375	 0.196969708873315 
2376	 0.196811281858409 
2377	 0.196723571114626 
2378	 0.196627763524561 
2379	 0.196478329369057 
2380	 0.196348914158619 
2381	 0.1962404416007 
2382	 0.196102058011459 
2383	 0.19600673977711 
2384	 0.195902394928231 
2385	 0.195761973741893 
2386	 0.195590369153796 
2387	 0.195354054957158 
2388	 0.195123654202986 
2389	 0.194953727283293 
2390	 0.194793957377372 
2391	 0.194612662508866 
2392	 0.194354545348566 
2393	 0.194042669660061 
2394	 0.193843821723259 
2395	 0.193729826507238 
2396	 0.193615962299863 
2397	 0.193521511827863 
2398	 0.193342561870513 
2399	 0.193083695684675 
2400	 0.19287152990251 
2401	 0.192700484175394 
2402	 0.192579932604647 
2403	 0.192468331781418 
2404	 0.192316571454966 
2405	 0.192198660339963 
2406	 0.192070913510192 
2407	 0.191886627002232 
2408	 0.191719362434211 
2409	 0.191534640133035 
2410	 0.191374240406218 
2411	 0.191221726937759 
2412	 0.191089698389797 
2413	 0.19107198417067 
2414	 0.190929552267088 
2415	 0.190690496127777 
2416	 0.190496014001646 
2417	 0.190262601030068 
2418	 0.190047753240403 
2419	 0.189822896773106 
2420	 0.189654439675951 
2421	 0.189546327846062 
2422	 0.189375619021679 
2423	 0.189280411612982 
2424	 0.18909416925689 
2425	 0.188776055825021 
2426	 0.18850093560785 
2427	 0.188190670048139 
2428	 0.187932446480228 
2429	 0.18772202867152 
2430	 0.187515435460304 
2431	 0.18733521254421 
2432	 0.187076679730183 
2433	 0.186733554875681 
2434	 0.186503698112421 
2435	 0.186312518165445 
2436	 0.186135984437583 
2437	 0.186095528378295 
2438	 0.185899977275893 
2439	 0.185559986603852 
2440	 0.185310726098654 
2441	 0.185021896911093 
2442	 0.18488789728484 
2443	 0.1848984015664 
2444	 0.184831942594461 
2445	 0.184881598894598 
2446	 0.184717911585225 
2447	 0.184382697758678 
2448	 0.184174563509783 
2449	 0.18388845588762 
2450	 0.183662800625872 
2451	 0.183524678115312 
2452	 0.18330378127598 
2453	 0.183092598489922 
2454	 0.182875049744018 
2455	 0.182566544134049 
2456	 0.182358785111612 
2457	 0.182205073660173 
2458	 0.182031810647503 
2459	 0.181935935136061 
2460	 0.181820688228018 
2461	 0.181707662812421 
2462	 0.181531247209426 
2463	 0.181255846985817 
2464	 0.181097653745281 
2465	 0.18102604471294 
2466	 0.180755688675895 
2467	 0.180499064676546 
2468	 0.180188722051859 
2469	 0.179586067203873 
2470	 0.179358373727912 
2471	 0.179237374774713 
2472	 0.17915728258013 
2473	 0.178988072878523 
2474	 0.178811749115159 
2475	 0.178641065328952 
2476	 0.178378963277614 
2477	 0.178314993591871 
2478	 0.178278040584576 
2479	 0.178321219641731 
2480	 0.178453525599753 
2481	 0.178277844626606 
2482	 0.178005072092597 
2483	 0.177715115646563 
2484	 0.177399758120502 
2485	 0.177193627044486 
2486	 0.177026518702357 
2487	 0.176813939897208 
2488	 0.176674085521221 
2489	 0.176624223424273 
2490	 0.176453450666008 
2491	 0.176139812529373 
2492	 0.175698995565661 
2493	 0.175373591835847 
2494	 0.175310628375144 
2495	 0.175303555188061 
2496	 0.17534978151361 
2497	 0.175255685169813 
2498	 0.174861396044517 
2499	 0.174539751743558 
2500	 0.174278652677134 
