Wavelength	LMW700009.asd
350	 6.55108856976949E-02 
351	 7.40647164833574E-02 
352	 7.41268565133811E-02 
353	 6.19817984299249E-02 
354	 0.06308968611508 
355	 6.64516816196039E-02 
356	 6.77136904200736E-02 
357	 6.52552688643568E-02 
358	 0.061209103563942 
359	 5.99384938815311E-02 
360	 6.20408714363036E-02 
361	 0.065098343060229 
362	 6.19248010036967E-02 
363	 6.25123055114386E-02 
364	 6.74991804170554E-02 
365	 5.91206536311383E-02 
366	 5.95740789306639E-02 
367	 6.27523539139743E-02 
368	 5.98310865224144E-02 
369	 6.38899607573645E-02 
370	 6.55297962511973E-02 
371	 6.35371662446718E-02 
372	 6.27065318796248E-02 
373	 6.38450796185495E-02 
374	 6.52118757280883E-02 
375	 6.57217607221481E-02 
376	 6.61342716964923E-02 
377	 6.55733297526866E-02 
378	 6.61450387165309E-02 
379	 6.92429365690281E-02 
380	 6.99823758139414E-02 
381	 6.85778671446414E-02 
382	 6.78154727879798E-02 
383	 7.14612959578662E-02 
384	 7.21190063959851E-02 
385	 7.12214189497751E-02 
386	 7.11941410527818E-02 
387	 7.39125449756992E-02 
388	 7.61364080823473E-02 
389	 7.69590580733735E-02 
390	 7.65191129523099E-02 
391	 0.075142459636287 
392	 7.63247670113451E-02 
393	 7.98138332346794E-02 
394	 8.21524902787708E-02 
395	 8.28282544799331E-02 
396	 8.35579526209072E-02 
397	 8.55724688869221E-02 
398	 8.84821758174289E-02 
399	 9.02386686999479E-02 
400	 9.09889224710295E-02 
401	 9.18493185903142E-02 
402	 0.093860301530847 
403	 9.61483499358202E-02 
404	 9.80109863930321E-02 
405	 9.90987438047987E-02 
406	 9.98544490987001E-02 
407	 0.101429477044803 
408	 0.103867669464181 
409	 0.1041321248285 
410	 0.104305591366025 
411	 0.10531001138797 
412	 0.107225977158913 
413	 0.10859763489735 
414	 0.109314262617024 
415	 0.109705642547353 
416	 0.110439210733602 
417	 0.111262441621064 
418	 0.111848514588759 
419	 0.112089324176219 
420	 0.11278895466851 
421	 0.112462311517816 
422	 0.111842496482752 
423	 0.112728953827041 
424	 0.111646380128131 
425	 0.111114200756311 
426	 0.112011103078023 
427	 0.110868227305438 
428	 0.109964690417587 
429	 0.10944257315934 
430	 0.108870648094703 
431	 0.108454269592885 
432	 0.108107946725866 
433	 0.107710988901927 
434	 0.107147016113342 
435	 0.107129630622918 
436	 0.107319990898025 
437	 0.107406778932857 
438	 0.107691476195984 
439	 0.108323593426728 
440	 0.109266134103337 
441	 0.110365581438049 
442	 0.111465867845571 
443	 0.112564494371938 
444	 0.113689358785647 
445	 0.114872042470533 
446	 0.116102407772655 
447	 0.117374991043485 
448	 0.118664305358027 
449	 0.119838890747135 
450	 0.121250660478545 
451	 0.12277981855802 
452	 0.123930255605387 
453	 0.125115799696792 
454	 0.126222003522944 
455	 0.127227156599366 
456	 0.128585730263595 
457	 0.129837978302841 
458	 0.1308123563489 
459	 0.131526389986128 
460	 0.1323113033246 
461	 0.133178496303243 
462	 0.134101921116373 
463	 0.135062514505045 
464	 0.135703847091234 
465	 0.136263599974491 
466	 0.137034901770109 
467	 0.137788664538321 
468	 0.138617149964013 
469	 0.139402341886576 
470	 0.139880953758191 
471	 0.14030764959011 
472	 0.140753421888415 
473	 0.1412371586044 
474	 0.141739471358737 
475	 0.142222095390001 
476	 0.142700937901316 
477	 0.143187112983986 
478	 0.14343776161291 
479	 0.143841877015241 
480	 0.144512060271203 
481	 0.145118839646769 
482	 0.145537904566049 
483	 0.145915076999407 
484	 0.146374664271616 
485	 0.146571477206976 
486	 0.146806950040819 
487	 0.14718074282734 
488	 0.147610512567148 
489	 0.148131383445722 
490	 0.148655330055423 
491	 0.149094685580501 
492	 0.149390528212524 
493	 0.14971282386309 
494	 0.150079106465848 
495	 0.150448471492148 
496	 0.15098054988122 
497	 0.151340401315153 
498	 0.151530883631072 
499	 0.152125388042071 
500	 0.152542847890153 
501	 0.152810569819133 
502	 0.153116718044607 
503	 0.153502497180093 
504	 0.153952098457477 
505	 0.154384466597235 
506	 0.154676233656394 
507	 0.155030864318526 
508	 0.155351231380878 
509	 0.155577601760913 
510	 0.155892518554729 
511	 0.15635922651544 
512	 0.156850484310097 
513	 0.157169627302201 
514	 0.157523447928864 
515	 0.157903446450073 
516	 0.158281846206854 
517	 0.158646205512299 
518	 0.15892932565615 
519	 0.159218908300424 
520	 0.159606731041353 
521	 0.159907930113851 
522	 0.160285471026923 
523	 0.160719898674834 
524	 0.160989188291256 
525	 0.161293520182264 
526	 0.161574279580979 
527	 0.161803752308735 
528	 0.162250741493747 
529	 0.162615381204793 
530	 0.162926603108527 
531	 0.163402730858027 
532	 0.163730841897971 
533	 0.164083563267697 
534	 0.164530184490899 
535	 0.164763760732144 
536	 0.165082108171368 
537	 0.165447714293093 
538	 0.165729768480198 
539	 0.166123952609863 
540	 0.166492421906412 
541	 0.166809518603643 
542	 0.167231641075305 
543	 0.167614011305064 
544	 0.167971174417502 
545	 0.168356444404298 
546	 0.168801476517823 
547	 0.16921444417022 
548	 0.169609172498064 
549	 0.170083450534932 
550	 0.170491224081131 
551	 0.170881825373075 
552	 0.171327624045835 
553	 0.171873968325799 
554	 0.172401373637325 
555	 0.172898882266946 
556	 0.173409782216894 
557	 0.17388437574607 
558	 0.174437354365443 
559	 0.175089988766777 
560	 0.17567650178933 
561	 0.176224555913396 
562	 0.176744847736002 
563	 0.177272304806285 
564	 0.17797222607636 
565	 0.178639748977669 
566	 0.179209353780201 
567	 0.179797671270153 
568	 0.180627407024672 
569	 0.181503452386462 
570	 0.182247590537653 
571	 0.18311810635693 
572	 0.183978815765584 
573	 0.184797286695107 
574	 0.18561079760909 
575	 0.186340369223084 
576	 0.187134617605862 
577	 0.188058960032983 
578	 0.188922391005012 
579	 0.189831581357154 
580	 0.190773573936201 
581	 0.191709710261583 
582	 0.192772337649657 
583	 0.193871393093707 
584	 0.194938315452363 
585	 0.195968238370922 
586	 0.196967755398946 
587	 0.197964238281598 
588	 0.198989373584944 
589	 0.200076099042458 
590	 0.20112628255502 
591	 0.202152330649448 
592	 0.20326610850353 
593	 0.204354386970057 
594	 0.205408452290182 
595	 0.206465528431494 
596	 0.207640271755621 
597	 0.208803745321535 
598	 0.209949060896875 
599	 0.211117718649282 
600	 0.212090572173468 
601	 0.21310068616438 
602	 0.214210098335809 
603	 0.215079773482999 
604	 0.215956685312289 
605	 0.216877448629372 
606	 0.217805317937426 
607	 0.21871634294517 
608	 0.219595725534544 
609	 0.220456280089142 
610	 0.221341022180045 
611	 0.222182255300982 
612	 0.222999842533059 
613	 0.223814710618903 
614	 0.224593955653521 
615	 0.225299710132085 
616	 0.225945828978304 
617	 0.226579138818434 
618	 0.227200395668925 
619	 0.227756383553393 
620	 0.228253049835107 
621	 0.228842340346083 
622	 0.229422937857509 
623	 0.229922826948302 
624	 0.230319664767825 
625	 0.230845923745323 
626	 0.231353503540949 
627	 0.231763872763489 
628	 0.232129959603828 
629	 0.232576168369955 
630	 0.233036246522991 
631	 0.233421041685298 
632	 0.233784189937629 
633	 0.23412978354309 
634	 0.234497689090527 
635	 0.234944657769179 
636	 0.235299561291373 
637	 0.23564020435353 
638	 0.23602333292621 
639	 0.236333989059751 
640	 0.236702343797385 
641	 0.237090270747984 
642	 0.237399422097605 
643	 0.237716048788523 
644	 0.238094246367842 
645	 0.23852340496135 
646	 0.238907378520734 
647	 0.239220103934232 
648	 0.239518862351427 
649	 0.239871552300666 
650	 0.240262393712888 
651	 0.24066930953352 
652	 0.241054653383229 
653	 0.241378322295469 
654	 0.241781245195811 
655	 0.2421917329076 
656	 0.242553758166774 
657	 0.242944530181413 
658	 0.243392600592439 
659	 0.243846939232155 
660	 0.244230031481729 
661	 0.244606840999036 
662	 0.245043150269955 
663	 0.24553589698635 
664	 0.245983833071912 
665	 0.24644847930485 
666	 0.246941190747132 
667	 0.2474407117597 
668	 0.247838566473935 
669	 0.2482902573011 
670	 0.24882377858013 
671	 0.249349653444035 
672	 0.249797873319164 
673	 0.25034263772866 
674	 0.251025414876831 
675	 0.251462420912614 
676	 0.251954784091637 
677	 0.252497460910627 
678	 0.252985372916571 
679	 0.253588038970749 
680	 0.254207490869837 
681	 0.25480292723959 
682	 0.255439847487506 
683	 0.256018171605005 
684	 0.256607515063916 
685	 0.257266255705565 
686	 0.257842000153105 
687	 0.258449944228231 
688	 0.259103481703767 
689	 0.259741908925817 
690	 0.260374108632423 
691	 0.260979620427489 
692	 0.26158173843625 
693	 0.262305004051864 
694	 0.263007213180586 
695	 0.263671749521845 
696	 0.264319410172379 
697	 0.264877107049719 
698	 0.265581630359423 
699	 0.26640953666763 
700	 0.267057714054562 
701	 0.267708751452093 
702	 0.268383769443039 
703	 0.269050852598768 
704	 0.269605899189622 
705	 0.270268603575127 
706	 0.270973611562062 
707	 0.27154460645078 
708	 0.272255605428108 
709	 0.272935289670039 
710	 0.273526188998599 
711	 0.274201654008679 
712	 0.274858217798465 
713	 0.275468629821967 
714	 0.276050610059069 
715	 0.27671229206741 
716	 0.277333061667315 
717	 0.277900912940514 
718	 0.278481063661834 
719	 0.279022083621654 
720	 0.27952379312636 
721	 0.27999502520374 
722	 0.280443341598351 
723	 0.280906184219775 
724	 0.28140749664674 
725	 0.281928196972246 
726	 0.282275066888028 
727	 0.282648504279997 
728	 0.283069191679947 
729	 0.283380929004988 
730	 0.283696281753221 
731	 0.283985151145944 
732	 0.28421709041887 
733	 0.284414419373472 
734	 0.28464343130199 
735	 0.284845513291485 
736	 0.284945088226465 
737	 0.285119237442986 
738	 0.28526344716432 
739	 0.285337786289641 
740	 0.285394102479088 
741	 0.285386752950272 
742	 0.285353895898408 
743	 0.285324526676213 
744	 0.285256305722812 
745	 0.285153533717255 
746	 0.285038508934875 
747	 0.284923996964679 
748	 0.284679694327727 
749	 0.284475765473537 
750	 0.284338953508787 
751	 0.284094782021322 
752	 0.283790656122211 
753	 0.283424542466769 
754	 0.283023613445297 
755	 0.28271872886976 
756	 0.282455726159754 
757	 0.282127184226907 
758	 0.281639424143079 
759	 0.281208320680165 
760	 0.280745696574923 
761	 0.280245363609489 
762	 0.279834904375893 
763	 0.279374721764284 
764	 0.27885622724877 
765	 0.27830884892404 
766	 0.277768583854339 
767	 0.277242633577891 
768	 0.27668993718475 
769	 0.276071790425566 
770	 0.275558748675184 
771	 0.275037080889718 
772	 0.274451571297462 
773	 0.273849202513427 
774	 0.273265436461062 
775	 0.27267476103207 
776	 0.272055106057544 
777	 0.271432002273266 
778	 0.2708500174839 
779	 0.270263190926455 
780	 0.269606592569431 
781	 0.26898883481037 
782	 0.268392220563372 
783	 0.267778138492348 
784	 0.267105966426365 
785	 0.26652692696836 
786	 0.265949936370073 
787	 0.265306398759908 
788	 0.264696862207689 
789	 0.264067753110574 
790	 0.263447689071486 
791	 0.262876553529885 
792	 0.262295304920737 
793	 0.261711604659267 
794	 0.261112159888965 
795	 0.260472380456679 
796	 0.259866556054518 
797	 0.259325302376105 
798	 0.258816359983933 
799	 0.258207259674837 
800	 0.257662785373311 
801	 0.25716293059608 
802	 0.256626596410964 
803	 0.255957368248008 
804	 0.255441598539528 
805	 0.255024573227562 
806	 0.254464691652466 
807	 0.253973444600109 
808	 0.253420532614283 
809	 0.25281121827846 
810	 0.252360434111728 
811	 0.251891172307015 
812	 0.251440122787538 
813	 0.251035726152592 
814	 0.25055678221685 
815	 0.250061822392252 
816	 0.249583607711975 
817	 0.249141226011724 
818	 0.248729296499331 
819	 0.248344461181266 
820	 0.24795591351022 
821	 0.247516812590617 
822	 0.247060145247895 
823	 0.246667256994043 
824	 0.246323764845443 
825	 0.245851748708949 
826	 0.245428871030694 
827	 0.245079634979051 
828	 0.244770101000862 
829	 0.244432006508079 
830	 0.244053799158891 
831	 0.243662965809864 
832	 0.243304423459305 
833	 0.242988612723601 
834	 0.24267747614263 
835	 0.242386887896289 
836	 0.242172324189097 
837	 0.241863730170346 
838	 0.241564243022782 
839	 0.241322768574901 
840	 0.24101798931109 
841	 0.240773940155788 
842	 0.2405135719917 
843	 0.240182117943784 
844	 0.239964538320161 
845	 0.239824452503232 
846	 0.239664811050186 
847	 0.239402836877818 
848	 0.239211334913593 
849	 0.239013210359415 
850	 0.238797969664727 
851	 0.238615775879918 
852	 0.238386479206172 
853	 0.238191667169779 
854	 0.238063346789007 
855	 0.237930594723236 
856	 0.23785252372568 
857	 0.237763799728779 
858	 0.23760596541971 
859	 0.237399048375523 
860	 0.237260010680207 
861	 0.237170523708999 
862	 0.237073555697572 
863	 0.237000625686284 
864	 0.23691276494865 
865	 0.236849031644577 
866	 0.23686578124841 
867	 0.23677327943836 
868	 0.23676036439277 
869	 0.236816913450338 
870	 0.23671447442162 
871	 0.23655297691995 
872	 0.236443196388959 
873	 0.236453641250093 
874	 0.236577803993494 
875	 0.236650571126791 
876	 0.236671551384476 
877	 0.236677499422459 
878	 0.236660702953289 
879	 0.236770661053128 
880	 0.236861098188625 
881	 0.23678374215367 
882	 0.236844548778015 
883	 0.236898875390875 
884	 0.23692707278703 
885	 0.236986059325065 
886	 0.237102498530099 
887	 0.237268147612134 
888	 0.237410763240185 
889	 0.237432742998804 
890	 0.237468230986779 
891	 0.237594668495633 
892	 0.237821259425096 
893	 0.238075713144678 
894	 0.238149488758382 
895	 0.238213022593116 
896	 0.238407146397457 
897	 0.238673742065439 
898	 0.238904790518797 
899	 0.239099071221412 
900	 0.239271181299619 
901	 0.239373336115261 
902	 0.23956343093447 
903	 0.239811982636285 
904	 0.24004577793199 
905	 0.240305054959565 
906	 0.240593915583796 
907	 0.240925654559204 
908	 0.241280257096285 
909	 0.241460741354646 
910	 0.241682820652478 
911	 0.241988500580865 
912	 0.242282121753088 
913	 0.242500126009753 
914	 0.242750498204666 
915	 0.243100320267132 
916	 0.24353763585752 
917	 0.243835314792674 
918	 0.244151684500224 
919	 0.244603389938253 
920	 0.245169598054952 
921	 0.245547513454825 
922	 0.245798518320356 
923	 0.246060901619953 
924	 0.246466497510955 
925	 0.2469237005192 
926	 0.247397253808278 
927	 0.247852021378383 
928	 0.248234124070136 
929	 0.248802201588694 
930	 0.249365259581063 
931	 0.249758945597983 
932	 0.250163628943282 
933	 0.250487340313567 
934	 0.250953691471517 
935	 0.251664199033247 
936	 0.252122535133105 
937	 0.252709836815006 
938	 0.253322458710024 
939	 0.253796442991985 
940	 0.254344891939589 
941	 0.254807473504178 
942	 0.255337367126364 
943	 0.256089972363901 
944	 0.256742081375103 
945	 0.257331028463303 
946	 0.257926246153517 
947	 0.258570202370582 
948	 0.259124411102972 
949	 0.259670668545368 
950	 0.260269091115035 
951	 0.260950829627526 
952	 0.261698012574685 
953	 0.262467555145005 
954	 0.2631310748652 
955	 0.263619268771607 
956	 0.26437561623675 
957	 0.265128344169865 
958	 0.265783671910611 
959	 0.266426098562707 
960	 0.267295653956698 
961	 0.268080989764709 
962	 0.268765044351446 
963	 0.26952120246731 
964	 0.270273797203551 
965	 0.270988869075003 
966	 0.271714564027801 
967	 0.272528859818133 
968	 0.273332799626954 
969	 0.274206372497679 
970	 0.275029945367368 
971	 0.275640721593711 
972	 0.27647496231678 
973	 0.277436641720491 
974	 0.278397000201339 
975	 0.279269215888502 
976	 0.280179930812438 
977	 0.280991761488779 
978	 0.281752355592694 
979	 0.282611048034051 
980	 0.283517975248925 
981	 0.284264424746549 
982	 0.284976042462884 
983	 0.285918529611822 
984	 0.286892037058082 
985	 0.287857646353764 
986	 0.288722735666076 
987	 0.289452348226572 
988	 0.290414309818098 
989	 0.291324067495553 
990	 0.292121283347392 
991	 0.292935056512 
992	 0.294090600372049 
993	 0.294902345885083 
994	 0.295599419952918 
995	 0.296667017262831 
996	 0.297723787305061 
997	 0.298616526825135 
998	 0.299394318183739 
999	 0.300211582507069 
1000	 0.301218425287553 
1001	 0.305514202562763 
1002	 0.306330331450885 
1003	 0.307168869906951 
1004	 0.308035325359275 
1005	 0.308866634253566 
1006	 0.309725885527619 
1007	 0.310655759858553 
1008	 0.311545873157628 
1009	 0.312325495307352 
1010	 0.313168680092253 
1011	 0.313989499655522 
1012	 0.314768976418564 
1013	 0.315633287267553 
1014	 0.316439627598817 
1015	 0.317127130544551 
1016	 0.317844863229233 
1017	 0.318623375436615 
1018	 0.319404266857366 
1019	 0.320188835929444 
1020	 0.321047231189809 
1021	 0.321924103015857 
1022	 0.32275884626794 
1023	 0.323525927605444 
1024	 0.324268369090735 
1025	 0.32498987856039 
1026	 0.325592671286906 
1027	 0.326225333861594 
1028	 0.326932155664979 
1029	 0.327688672283511 
1030	 0.328506565806398 
1031	 0.329266618718756 
1032	 0.330037697869754 
1033	 0.330770917530936 
1034	 0.331440498529056 
1035	 0.332092994225924 
1036	 0.332801915072881 
1037	 0.333523280233599 
1038	 0.334291928852501 
1039	 0.335036682961425 
1040	 0.33575124016458 
1041	 0.336467311630523 
1042	 0.337124799891346 
1043	 0.33783451104722 
1044	 0.338533665646124 
1045	 0.339242424106675 
1046	 0.339949433409569 
1047	 0.340629512551897 
1048	 0.341227827998372 
1049	 0.341950969348398 
1050	 0.342662851438715 
1051	 0.34338990060687 
1052	 0.344218914702339 
1053	 0.344917481484517 
1054	 0.345573394686961 
1055	 0.346217801792572 
1056	 0.346847182646634 
1057	 0.347487377393767 
1058	 0.348110451400186 
1059	 0.348762891356458 
1060	 0.349463927057212 
1061	 0.350078404543444 
1062	 0.350686768091123 
1063	 0.351359855200353 
1064	 0.351986704904988 
1065	 0.352596688128909 
1066	 0.353193937748514 
1067	 0.353790129287037 
1068	 0.354346936000302 
1069	 0.354910706744294 
1070	 0.355457809023975 
1071	 0.356004318133692 
1072	 0.356531912641996 
1073	 0.356990854542956 
1074	 0.357495433575989 
1075	 0.358028387413126 
1076	 0.358560621373894 
1077	 0.359046287106808 
1078	 0.3596437152572 
1079	 0.360197018339336 
1080	 0.360692073495317 
1081	 0.36121555297942 
1082	 0.361721636900132 
1083	 0.362198986356537 
1084	 0.362640276539769 
1085	 0.363111566227011 
1086	 0.363549376238953 
1087	 0.364032508030395 
1088	 0.364563943787069 
1089	 0.365058555542063 
1090	 0.365534189995359 
1091	 0.366037033429622 
1092	 0.366496481609646 
1093	 0.366972917428579 
1094	 0.367476408481508 
1095	 0.367956064175805 
1096	 0.368451437946154 
1097	 0.368955099268468 
1098	 0.369472670547351 
1099	 0.370007538541446 
1100	 0.370546223793967 
1101	 0.371115404579148 
1102	 0.371657605152136 
1103	 0.372214738604253 
1104	 0.372703471336593 
1105	 0.373216909072725 
1106	 0.373752982256794 
1107	 0.374290604942621 
1108	 0.374880909045647 
1109	 0.375444276797583 
1110	 0.375985670655794 
1111	 0.376540312665978 
1112	 0.377065914485221 
1113	 0.377649221196906 
1114	 0.378296026080637 
1115	 0.378876191507476 
1116	 0.379453405400414 
1117	 0.380038763036124 
1118	 0.380600633755321 
1119	 0.381134483276366 
1120	 0.38175408581976 
1121	 0.382354488338992 
1122	 0.38291926835788 
1123	 0.383516067299098 
1124	 0.384106098908731 
1125	 0.384692898885416 
1126	 0.38527344110698 
1127	 0.385858546697338 
1128	 0.38643680869172 
1129	 0.386992009834939 
1130	 0.387568332567824 
1131	 0.388163008945484 
1132	 0.388747362364795 
1133	 0.389338694592563 
1134	 0.389919842590499 
1135	 0.390499359455785 
1136	 0.391058062303416 
1137	 0.391623752554388 
1138	 0.392179220861921 
1139	 0.392729403435059 
1140	 0.393262381090066 
1141	 0.393819069023846 
1142	 0.394385498193853 
1143	 0.394943980073422 
1144	 0.395524047427306 
1145	 0.396072497888131 
1146	 0.396595665285831 
1147	 0.397119453576499 
1148	 0.397635331187804 
1149	 0.398148167739583 
1150	 0.398659954001867 
1151	 0.399168084582011 
1152	 0.39965551046245 
1153	 0.400113879759946 
1154	 0.400596851550537 
1155	 0.40107953200286 
1156	 0.401552230762105 
1157	 0.402045170789354 
1158	 0.402505246275656 
1159	 0.402931817117275 
1160	 0.403374786844658 
1161	 0.403794566242327 
1162	 0.40424842233554 
1163	 0.404755084691685 
1164	 0.405206112504712 
1165	 0.405642711264103 
1166	 0.406081431835775 
1167	 0.406492851414376 
1168	 0.406906593421965 
1169	 0.40732519021852 
1170	 0.407775156297622 
1171	 0.408183274743041 
1172	 0.408559259979958 
1173	 0.408951836381044 
1174	 0.409346545186782 
1175	 0.40973133945444 
1176	 0.410116066110715 
1177	 0.410495753313871 
1178	 0.410864367710479 
1179	 0.411230670707731 
1180	 0.41159180336396 
1181	 0.411958591903124 
1182	 0.41233204347821 
1183	 0.412699050616817 
1184	 0.413041118907177 
1185	 0.413371940304885 
1186	 0.413711131013682 
1187	 0.414021997050251 
1188	 0.414363771402368 
1189	 0.414738444489897 
1190	 0.415087874625309 
1191	 0.41543508020572 
1192	 0.415773375607538 
1193	 0.416114826205416 
1194	 0.416432368055528 
1195	 0.416714776313161 
1196	 0.417024798971239 
1197	 0.417339779712702 
1198	 0.417643285226475 
1199	 0.417948272294819 
1200	 0.418269776397617 
1201	 0.418580902932935 
1202	 0.41888367448768 
1203	 0.419173586528974 
1204	 0.419460460858395 
1205	 0.419752627517634 
1206	 0.420032714520036 
1207	 0.420309814798098 
1208	 0.420598404357697 
1209	 0.420878605109231 
1210	 0.421145878254571 
1211	 0.421407770368989 
1212	 0.421669880297389 
1213	 0.421930350252038 
1214	 0.422178710987943 
1215	 0.422426481935996 
1216	 0.422674164819282 
1217	 0.422928162816876 
1218	 0.42317430382916 
1219	 0.423406017223932 
1220	 0.423658445928725 
1221	 0.423920801471155 
1222	 0.424180567858448 
1223	 0.424458120757167 
1224	 0.424713654756718 
1225	 0.424962272071243 
1226	 0.425202397753189 
1227	 0.42543643872577 
1228	 0.425656551692546 
1229	 0.425853300376608 
1230	 0.426064085828467 
1231	 0.426268583543602 
1232	 0.426476532207602 
1233	 0.426689168751459 
1234	 0.426915702200665 
1235	 0.427130860081524 
1236	 0.427340982930639 
1237	 0.427553756257853 
1238	 0.427774178671863 
1239	 0.4279788336731 
1240	 0.428171401314111 
1241	 0.428372145080227 
1242	 0.428565134734122 
1243	 0.428764869290276 
1244	 0.428980406332446 
1245	 0.429182437128693 
1246	 0.429370120333201 
1247	 0.429569817248197 
1248	 0.429793056855193 
1249	 0.429984384479289 
1250	 0.430115359267397 
1251	 0.430296593878887 
1252	 0.430478136222811 
1253	 0.430632668587517 
1254	 0.430820076576739 
1255	 0.431067850774489 
1256	 0.431259676138492 
1257	 0.431426787548672 
1258	 0.431598571182274 
1259	 0.431757820349005 
1260	 0.431922594506625 
1261	 0.432093768130001 
1262	 0.432247371560709 
1263	 0.432385314260944 
1264	 0.432532527544531 
1265	 0.432677719922769 
1266	 0.432815849969265 
1267	 0.432945048921536 
1268	 0.433096701285623 
1269	 0.433240322828305 
1270	 0.433360979961269 
1271	 0.433526591385761 
1272	 0.433723361298736 
1273	 0.433903592434203 
1274	 0.434093868995664 
1275	 0.434290981953075 
1276	 0.434484343138883 
1277	 0.434686131742865 
1278	 0.434919162320291 
1279	 0.435121051431605 
1280	 0.435304006252747 
1281	 0.435492798904454 
1282	 0.435666115857957 
1283	 0.435850093890157 
1284	 0.436055710774094 
1285	 0.436240482387118 
1286	 0.436401439352099 
1287	 0.43655215536054 
1288	 0.436677770180225 
1289	 0.436771404508613 
1290	 0.436855889829844 
1291	 0.436929763237169 
1292	 0.436984160660982 
1293	 0.437016383042986 
1294	 0.43703448907393 
1295	 0.437025652795994 
1296	 0.437026899658769 
1297	 0.437013469778728 
1298	 0.437002792650142 
1299	 0.437017738216152 
1300	 0.436989302875645 
1301	 0.436929065450292 
1302	 0.436874808135585 
1303	 0.436801898119991 
1304	 0.436729586867176 
1305	 0.436641629310565 
1306	 0.436540297765894 
1307	 0.436440581408909 
1308	 0.436329655659634 
1309	 0.436249880956766 
1310	 0.436203776663378 
1311	 0.436135852555004 
1312	 0.436071940572493 
1313	 0.43600269847343 
1314	 0.435930900922562 
1315	 0.435849769122052 
1316	 0.435734844753171 
1317	 0.435682196580166 
1318	 0.435643720293183 
1319	 0.435625804221766 
1320	 0.435677950620042 
1321	 0.43568758177059 
1322	 0.435678641709891 
1323	 0.435679239067298 
1324	 0.435678100739579 
1325	 0.435682502201441 
1326	 0.435703841575309 
1327	 0.435738528123296 
1328	 0.43574771434526 
1329	 0.435766215581794 
1330	 0.435799762097223 
1331	 0.43581701645665 
1332	 0.435884888313196 
1333	 0.435998264013806 
1334	 0.436091949367411 
1335	 0.436200656972364 
1336	 0.436320915298322 
1337	 0.436434173537206 
1338	 0.436563925290721 
1339	 0.436733510504387 
1340	 0.436869161439802 
1341	 0.436992976145123 
1342	 0.437119048755406 
1343	 0.437239797636632 
1344	 0.437344985539827 
1345	 0.437473099853505 
1346	 0.437594197794757 
1347	 0.437699869355285 
1348	 0.437818250318322 
1349	 0.437898589730013 
1350	 0.437955293412257 
1351	 0.438033622493427 
1352	 0.438100765679343 
1353	 0.438187161010246 
1354	 0.438301401960895 
1355	 0.438392505968438 
1356	 0.438479384317018 
1357	 0.438561955248235 
1358	 0.438631738195096 
1359	 0.438709979892412 
1360	 0.438782275056673 
1361	 0.438868796988617 
1362	 0.438961410986342 
1363	 0.439061372089067 
1364	 0.439175628378908 
1365	 0.439289621859082 
1366	 0.439409035127439 
1367	 0.439530998167872 
1368	 0.43965363768496 
1369	 0.439751736703867 
1370	 0.439827594538494 
1371	 0.439872453127785 
1372	 0.439881348452947 
1373	 0.439885593356643 
1374	 0.439858609553631 
1375	 0.439810834599529 
1376	 0.439731035696859 
1377	 0.439618029518161 
1378	 0.439492366892648 
1379	 0.439333072631486 
1380	 0.439178608253745 
1381	 0.439011910245787 
1382	 0.438841465342139 
1383	 0.438687804153156 
1384	 0.438481831962525 
1385	 0.438269610581222 
1386	 0.438008066181415 
1387	 0.437704110404899 
1388	 0.437365020510038 
1389	 0.437005119324762 
1390	 0.436578590808291 
1391	 0.436116679835467 
1392	 0.435604425687997 
1393	 0.435036988893123 
1394	 0.434470306664816 
1395	 0.433868481969672 
1396	 0.433256997387677 
1397	 0.432645062646435 
1398	 0.432027608640759 
1399	 0.431392424051683 
1400	 0.430744335256392 
1401	 0.430093811055235 
1402	 0.429419152754877 
1403	 0.428771240184764 
1404	 0.428119705704492 
1405	 0.427499635405722 
1406	 0.426912414728668 
1407	 0.426313594419239 
1408	 0.425708555733291 
1409	 0.425137421133906 
1410	 0.424560859313564 
1411	 0.424024928056147 
1412	 0.423510859956107 
1413	 0.423058434310315 
1414	 0.422635931639209 
1415	 0.422218421131802 
1416	 0.42183787342305 
1417	 0.421508043469968 
1418	 0.421193341992017 
1419	 0.420896227580794 
1420	 0.420635181278021 
1421	 0.420383014318486 
1422	 0.420124669071752 
1423	 0.41986194981929 
1424	 0.419599757645674 
1425	 0.419332664177306 
1426	 0.419062359695939 
1427	 0.418782244182571 
1428	 0.418537794178712 
1429	 0.418298136012864 
1430	 0.418071769329669 
1431	 0.417878086831251 
1432	 0.417666346412404 
1433	 0.417443926380897 
1434	 0.417245175000425 
1435	 0.417040537785966 
1436	 0.416873317142479 
1437	 0.416746261134217 
1438	 0.416606641907608 
1439	 0.416481655700845 
1440	 0.41636487637384 
1441	 0.416233461247838 
1442	 0.416081149359169 
1443	 0.415921488939364 
1444	 0.415778381660536 
1445	 0.415654779269473 
1446	 0.415525070405258 
1447	 0.415415038575244 
1448	 0.41529599460266 
1449	 0.415135335275925 
1450	 0.414974747476876 
1451	 0.414811614970415 
1452	 0.414627837443528 
1453	 0.414467564390649 
1454	 0.41431972531156 
1455	 0.414163025739574 
1456	 0.414021657853152 
1457	 0.413854373328253 
1458	 0.413661632255761 
1459	 0.413489524665956 
1460	 0.41329154541692 
1461	 0.413142063325192 
1462	 0.413022913255623 
1463	 0.41291424837966 
1464	 0.412827288113754 
1465	 0.412759117224128 
1466	 0.412698794142782 
1467	 0.412671838839432 
1468	 0.412669268128101 
1469	 0.412696158346518 
1470	 0.412752342332482 
1471	 0.412828762050105 
1472	 0.412928292659266 
1473	 0.413071258388917 
1474	 0.413258862847051 
1475	 0.413478315017527 
1476	 0.413743775032322 
1477	 0.414021296197741 
1478	 0.414305783518817 
1479	 0.414599788865908 
1480	 0.414901972948508 
1481	 0.41522976001795 
1482	 0.415529198090446 
1483	 0.415809001497035 
1484	 0.416129053406179 
1485	 0.416451542486607 
1486	 0.416782558179546 
1487	 0.417161251332868 
1488	 0.417498578640371 
1489	 0.417823945666967 
1490	 0.418121727312738 
1491	 0.418402787998742 
1492	 0.418675308979002 
1493	 0.418914692848572 
1494	 0.419160286124907 
1495	 0.419412128820675 
1496	 0.41964564630558 
1497	 0.41986685059516 
1498	 0.420080838785324 
1499	 0.420279225980883 
1500	 0.42047083218565 
1501	 0.420651346707808 
1502	 0.420832248625606 
1503	 0.420998695100737 
1504	 0.421180670337249 
1505	 0.421374188029761 
1506	 0.421577789678594 
1507	 0.421784219736531 
1508	 0.421994429853449 
1509	 0.422188508174293 
1510	 0.422362292005484 
1511	 0.422546206836856 
1512	 0.422729901818311 
1513	 0.422922596162206 
1514	 0.423117071600202 
1515	 0.423323286114275 
1516	 0.423528913225701 
1517	 0.423702551082004 
1518	 0.423864119885455 
1519	 0.424015568886762 
1520	 0.424131024652055 
1521	 0.424268603547524 
1522	 0.424406900714225 
1523	 0.424556473892619 
1524	 0.424713226355585 
1525	 0.424870436849236 
1526	 0.42502773160902 
1527	 0.425202040779321 
1528	 0.425395291941466 
1529	 0.425566929497287 
1530	 0.425750630245569 
1531	 0.425917303341582 
1532	 0.426050762308918 
1533	 0.42620407393812 
1534	 0.426378431440284 
1535	 0.426520899328223 
1536	 0.426653708813215 
1537	 0.426780625857794 
1538	 0.426870162839781 
1539	 0.4269865444536 
1540	 0.427117344195799 
1541	 0.427242276065277 
1542	 0.427377492422351 
1543	 0.427510489513271 
1544	 0.427636906388474 
1545	 0.427767019518984 
1546	 0.427899946148068 
1547	 0.428033260445299 
1548	 0.428159900027253 
1549	 0.42829071539147 
1550	 0.428428600944393 
1551	 0.42854356953263 
1552	 0.428672549468386 
1553	 0.428796444897332 
1554	 0.428893926015888 
1555	 0.429014954615525 
1556	 0.42913727183627 
1557	 0.429263187251578 
1558	 0.429410532545609 
1559	 0.429546179700631 
1560	 0.429669108106281 
1561	 0.429776864049813 
1562	 0.429895036118564 
1563	 0.430004514931973 
1564	 0.430126372827853 
1565	 0.430260301055015 
1566	 0.43039071399618 
1567	 0.430525582844942 
1568	 0.430650718821031 
1569	 0.430779095002104 
1570	 0.430886367267746 
1571	 0.430983966760755 
1572	 0.431068426823625 
1573	 0.431130888189537 
1574	 0.43120460053635 
1575	 0.431268539822716 
1576	 0.431341987864934 
1577	 0.431431700598494 
1578	 0.431497892373762 
1579	 0.431549579027983 
1580	 0.43161042675681 
1581	 0.431663790301184 
1582	 0.431722310447304 
1583	 0.431787603414419 
1584	 0.431852614209101 
1585	 0.431918613293391 
1586	 0.431976462242861 
1587	 0.432034890672473 
1588	 0.432095884877651 
1589	 0.432145130458629 
1590	 0.432204848583935 
1591	 0.43228118640111 
1592	 0.432342688518811 
1593	 0.432386147376634 
1594	 0.432450933672284 
1595	 0.432515589882635 
1596	 0.432593758579974 
1597	 0.432701775190651 
1598	 0.432799190709347 
1599	 0.432920098990336 
1600	 0.432999721266224 
1601	 0.433055698034 
1602	 0.433102723237345 
1603	 0.433103810925618 
1604	 0.433123776223733 
1605	 0.433140278427524 
1606	 0.433171499273065 
1607	 0.433212046339463 
1608	 0.43326891991377 
1609	 0.433309024808559 
1610	 0.433364214116057 
1611	 0.433393299313062 
1612	 0.433392197756713 
1613	 0.433398592450592 
1614	 0.43340785700575 
1615	 0.433432366144196 
1616	 0.433460041745224 
1617	 0.433491725555233 
1618	 0.433542787070894 
1619	 0.433595085995809 
1620	 0.43364420268695 
1621	 0.433687892845899 
1622	 0.433737779363322 
1623	 0.433760768593766 
1624	 0.433764344168225 
1625	 0.433780137658123 
1626	 0.43378214368447 
1627	 0.433801661021435 
1628	 0.433837579622448 
1629	 0.433858868748663 
1630	 0.433877846588622 
1631	 0.433895041778902 
1632	 0.433904640290285 
1633	 0.433922386999584 
1634	 0.433940046773484 
1635	 0.433967328062429 
1636	 0.433999942905106 
1637	 0.434037792803556 
1638	 0.434081392097314 
1639	 0.434131351700937 
1640	 0.43420144779843 
1641	 0.434235378448329 
1642	 0.434258956398884 
1643	 0.434283512892105 
1644	 0.434283032259246 
1645	 0.434297508261763 
1646	 0.434330390127863 
1647	 0.434339780423188 
1648	 0.434328567454034 
1649	 0.434336575651325 
1650	 0.434345204110771 
1651	 0.43435552476257 
1652	 0.434386284745389 
1653	 0.434386349972031 
1654	 0.434365381085641 
1655	 0.434356626449884 
1656	 0.434340811046302 
1657	 0.434323779129649 
1658	 0.434300270100558 
1659	 0.434301842557108 
1660	 0.434301594137426 
1661	 0.434322350249068 
1662	 0.434388270829846 
1663	 0.434416506143369 
1664	 0.434433577402734 
1665	 0.434452229038816 
1666	 0.434464384836407 
1667	 0.434466468706007 
1668	 0.434467688049722 
1669	 0.434458779960337 
1670	 0.434426729050395 
1671	 0.434410517657169 
1672	 0.434402158952564 
1673	 0.434384887883939 
1674	 0.434354375338199 
1675	 0.434350488358974 
1676	 0.434351203507073 
1677	 0.434363781628704 
1678	 0.43441203461637 
1679	 0.434432819876257 
1680	 0.434451452478595 
1681	 0.434450908327793 
1682	 0.434431197601234 
1683	 0.434414919865688 
1684	 0.434377771840241 
1685	 0.434364959637965 
1686	 0.434363251496269 
1687	 0.434362306860221 
1688	 0.434380014613354 
1689	 0.434377297021699 
1690	 0.434367288290547 
1691	 0.434352620368641 
1692	 0.43433244323898 
1693	 0.434303592233891 
1694	 0.434267357618669 
1695	 0.434227542009959 
1696	 0.434164249055147 
1697	 0.434129333472276 
1698	 0.434120358268534 
1699	 0.434079598896501 
1700	 0.43403146529367 
1701	 0.433993594683245 
1702	 0.433932193727021 
1703	 0.433894460792547 
1704	 0.433896607434474 
1705	 0.433862048080557 
1706	 0.433801124010023 
1707	 0.433763239874845 
1708	 0.433723286911217 
1709	 0.433689907042058 
1710	 0.433668455289486 
1711	 0.433654166921829 
1712	 0.433654544029242 
1713	 0.433626694506057 
1714	 0.433602605179758 
1715	 0.433561244466112 
1716	 0.433470013627477 
1717	 0.433431358028517 
1718	 0.433426127387426 
1719	 0.433393613132245 
1720	 0.433374822029438 
1721	 0.433339220966001 
1722	 0.433269913431509 
1723	 0.433226096721739 
1724	 0.433192359986925 
1725	 0.433160195513282 
1726	 0.433151745920553 
1727	 0.433099987225533 
1728	 0.433031150585851 
1729	 0.432961921108053 
1730	 0.432866521511747 
1731	 0.432778831142785 
1732	 0.432697674352081 
1733	 0.432602872973744 
1734	 0.432491777525535 
1735	 0.432393305367701 
1736	 0.432302743503564 
1737	 0.432195390756363 
1738	 0.43208237392805 
1739	 0.431964295228269 
1740	 0.431832637489887 
1741	 0.431715721143047 
1742	 0.43160471343429 
1743	 0.431491787904665 
1744	 0.431378466132627 
1745	 0.431265474370634 
1746	 0.4311522184673 
1747	 0.431032753349165 
1748	 0.430932149014867 
1749	 0.430849359093123 
1750	 0.430752214710264 
1751	 0.430635232098636 
1752	 0.430517711799757 
1753	 0.430380725253569 
1754	 0.430241787341087 
1755	 0.430139044516477 
1756	 0.430013739478181 
1757	 0.42988182795144 
1758	 0.429802526578519 
1759	 0.429666284436636 
1760	 0.429517219616577 
1761	 0.429401119138651 
1762	 0.429221105463822 
1763	 0.429082857952529 
1764	 0.429027126669276 
1765	 0.428959480439719 
1766	 0.428900599601749 
1767	 0.428853223580801 
1768	 0.428777643338089 
1769	 0.428713064235015 
1770	 0.428634534201621 
1771	 0.428534713169842 
1772	 0.428442753769393 
1773	 0.428311971635491 
1774	 0.428207445394055 
1775	 0.428135347209369 
1776	 0.428038444781683 
1777	 0.427974238000291 
1778	 0.427929397395462 
1779	 0.4279143281836 
1780	 0.42790803092038 
1781	 0.427841359291437 
1782	 0.42777736510937 
1783	 0.427679427823324 
1784	 0.427602760747331 
1785	 0.427572554319248 
1786	 0.427510261016045 
1787	 0.427409846551454 
1788	 0.427337482462514 
1789	 0.427286633405272 
1790	 0.427230406819942 
1791	 0.427196179140653 
1792	 0.427122744305844 
1793	 0.427003001474765 
1794	 0.426923150053019 
1795	 0.426853188678857 
1796	 0.426768421894888 
1797	 0.426705231658879 
1798	 0.426630828648336 
1799	 0.426519037035906 
1800	 0.426442474003546 
1801	 0.428304522088742 
1802	 0.428339362022533 
1803	 0.428388358446275 
1804	 0.42846148946444 
1805	 0.428514009281085 
1806	 0.428532012015494 
1807	 0.428538341304467 
1808	 0.428523335908286 
1809	 0.428492384825095 
1810	 0.428445656257425 
1811	 0.428389446338106 
1812	 0.428291246085721 
1813	 0.428189154002827 
1814	 0.428069858802616 
1815	 0.427935325268332 
1816	 0.427819378537102 
1817	 0.427703197226092 
1818	 0.42758061283883 
1819	 0.427481146226209 
1820	 0.427406317886927 
1821	 0.427298265601092 
1822	 0.427216119940283 
1823	 0.427104556522966 
1824	 0.42691576073163 
1825	 0.426743556241794 
1826	 0.426565266676064 
1827	 0.426326101502355 
1828	 0.426078057545227 
1829	 0.425832531626551 
1830	 0.425547423363481 
1831	 0.425225142040085 
1832	 0.424885850845861 
1833	 0.424519356405147 
1834	 0.424130271739676 
1835	 0.423708332902508 
1836	 0.4233001111149 
1837	 0.422907345744988 
1838	 0.422511092020152 
1839	 0.422151744076979 
1840	 0.421823789940896 
1841	 0.421493374266653 
1842	 0.421179780971763 
1843	 0.420916027003722 
1844	 0.42064195320838 
1845	 0.420370457935127 
1846	 0.420143480015614 
1847	 0.419922278529541 
1848	 0.419705060376568 
1849	 0.419540463392094 
1850	 0.419407010623284 
1851	 0.419308591859092 
1852	 0.41921873694077 
1853	 0.419155664865337 
1854	 0.419088337215162 
1855	 0.419017064399311 
1856	 0.418942829093402 
1857	 0.418866884459408 
1858	 0.418771356372103 
1859	 0.418625508133333 
1860	 0.418447839777871 
1861	 0.418239103142528 
1862	 0.417974043978265 
1863	 0.417660178729117 
1864	 0.417356762521478 
1865	 0.417064678249591 
1866	 0.416732278020473 
1867	 0.416401497015901 
1868	 0.416060231498344 
1869	 0.415637940647578 
1870	 0.415196634983395 
1871	 0.414678886790738 
1872	 0.414120226173369 
1873	 0.413477828878925 
1874	 0.412777460679424 
1875	 0.411992406664561 
1876	 0.411163696909493 
1877	 0.410267058554565 
1878	 0.409242214828731 
1879	 0.4081178384096 
1880	 0.406870249004623 
1881	 0.405471333428647 
1882	 0.404008585058644 
1883	 0.402453453105615 
1884	 0.400778775568112 
1885	 0.3990462459958 
1886	 0.397231689155775 
1887	 0.395298531897519 
1888	 0.393306821275475 
1889	 0.391212899363979 
1890	 0.38907428641338 
1891	 0.38691361762062 
1892	 0.384676961624808 
1893	 0.382443772460184 
1894	 0.38019356838663 
1895	 0.377922256133657 
1896	 0.375609248512836 
1897	 0.373314133838982 
1898	 0.371021853678762 
1899	 0.368778341485487 
1900	 0.366599634071465 
1901	 0.364519907118763 
1902	 0.362537290337783 
1903	 0.360660226340251 
1904	 0.358856343890137 
1905	 0.357147605669224 
1906	 0.355524085418621 
1907	 0.353960002946343 
1908	 0.352440242250246 
1909	 0.351004506303587 
1910	 0.349617852969111 
1911	 0.348304934503872 
1912	 0.347070849350691 
1913	 0.345868926843804 
1914	 0.344707828162824 
1915	 0.343606557293076 
1916	 0.342546111655139 
1917	 0.341552419751303 
1918	 0.340638713998992 
1919	 0.339768492194093 
1920	 0.33897471631602 
1921	 0.338269907416688 
1922	 0.337611126498869 
1923	 0.337036715930569 
1924	 0.336506474982502 
1925	 0.336021651015726 
1926	 0.335612120558251 
1927	 0.335270661260215 
1928	 0.334979106982432 
1929	 0.334740782790802 
1930	 0.334564119913552 
1931	 0.334419796808864 
1932	 0.334326765107947 
1933	 0.334286909300015 
1934	 0.334319940496258 
1935	 0.334394622687808 
1936	 0.334518030671944 
1937	 0.334678772071464 
1938	 0.334901599455238 
1939	 0.335145183768334 
1940	 0.335410106551591 
1941	 0.335742119389345 
1942	 0.33609050022679 
1943	 0.336460081868824 
1944	 0.336857438062009 
1945	 0.337267055465442 
1946	 0.337715998474613 
1947	 0.338209098141153 
1948	 0.338696396177127 
1949	 0.339231142665329 
1950	 0.339735407170923 
1951	 0.340222340027878 
1952	 0.340728063145518 
1953	 0.341228813043804 
1954	 0.34172593257151 
1955	 0.342223894249653 
1956	 0.342692286397117 
1957	 0.343178012327301 
1958	 0.343637782993741 
1959	 0.344143869906531 
1960	 0.344697297382456 
1961	 0.345226166699266 
1962	 0.345777595434642 
1963	 0.346308652842546 
1964	 0.346837020394708 
1965	 0.347316155115579 
1966	 0.347806318530447 
1967	 0.348274216208094 
1968	 0.348800264840443 
1969	 0.349356302483253 
1970	 0.349900150995096 
1971	 0.350491764609834 
1972	 0.351053348624789 
1973	 0.351565784871545 
1974	 0.352115524261976 
1975	 0.352683801787341 
1976	 0.353259986424074 
1977	 0.353859785171375 
1978	 0.354417630001347 
1979	 0.354948830483366 
1980	 0.355489188179437 
1981	 0.356013966230562 
1982	 0.35649519345686 
1983	 0.357025563241912 
1984	 0.357580881283186 
1985	 0.358122636623493 
1986	 0.358678275704256 
1987	 0.35923038421552 
1988	 0.35977468736715 
1989	 0.360316694939949 
1990	 0.360876938653262 
1991	 0.361455957805809 
1992	 0.362024037849472 
1993	 0.362616864309844 
1994	 0.363160257533194 
1995	 0.363680094378241 
1996	 0.364192727187677 
1997	 0.364653933642889 
1998	 0.365158765608072 
1999	 0.36569283234947 
2000	 0.36620643471501 
2001	 0.36672880625754 
2002	 0.367240028062715 
2003	 0.367743646633187 
2004	 0.368240548271389 
2005	 0.368750748646201 
2006	 0.369284322854256 
2007	 0.369797584064385 
2008	 0.370296324370669 
2009	 0.370805517306539 
2010	 0.371322753490263 
2011	 0.371819939388378 
2012	 0.372315285581337 
2013	 0.372809090228092 
2014	 0.373290630110115 
2015	 0.373759234758227 
2016	 0.374240103781447 
2017	 0.374732230200801 
2018	 0.375230406419208 
2019	 0.375747748282072 
2020	 0.376236565553732 
2021	 0.376731445638022 
2022	 0.377202914469939 
2023	 0.377639391078535 
2024	 0.378088647702457 
2025	 0.378540533409181 
2026	 0.378977253988574 
2027	 0.379398792446366 
2028	 0.37983175866392 
2029	 0.380253203531916 
2030	 0.380665306955003 
2031	 0.381077170391715 
2032	 0.381488324260216 
2033	 0.381890756760541 
2034	 0.382275045383295 
2035	 0.38267980643079 
2036	 0.383093268769387 
2037	 0.383503472949086 
2038	 0.383936365022106 
2039	 0.384341180336997 
2040	 0.384744105276136 
2041	 0.385110118203859 
2042	 0.385475644522816 
2043	 0.385841423870451 
2044	 0.386192106543899 
2045	 0.386545528307855 
2046	 0.386867069224931 
2047	 0.387163935772115 
2048	 0.387454365171059 
2049	 0.387695501626983 
2050	 0.387985647413615 
2051	 0.38831072039966 
2052	 0.388602044206807 
2053	 0.388899612434901 
2054	 0.389193437289811 
2055	 0.389453209598252 
2056	 0.389717950013095 
2057	 0.39000883601651 
2058	 0.390331541325287 
2059	 0.3906293620353 
2060	 0.390936252986243 
2061	 0.391221563882932 
2062	 0.391487760173976 
2063	 0.391758194146892 
2064	 0.392017267409838 
2065	 0.392284222823488 
2066	 0.392552678236572 
2067	 0.392822407651361 
2068	 0.393111639293217 
2069	 0.393368677152882 
2070	 0.393629245577951 
2071	 0.393889598280346 
2072	 0.394139118760242 
2073	 0.394378103181243 
2074	 0.394613599597196 
2075	 0.394847130772231 
2076	 0.395064496887969 
2077	 0.395262640214836 
2078	 0.395471772928735 
2079	 0.39568080081703 
2080	 0.395879092907712 
2081	 0.396069890988498 
2082	 0.396266878602056 
2083	 0.396462485183176 
2084	 0.396650041770556 
2085	 0.396834660345524 
2086	 0.39702338864028 
2087	 0.397213520957257 
2088	 0.397389764579802 
2089	 0.397582306732445 
2090	 0.397805878397024 
2091	 0.397990497435368 
2092	 0.398164287200263 
2093	 0.398325794094277 
2094	 0.398456498375436 
2095	 0.398600525872065 
2096	 0.398731054320691 
2097	 0.398878406496723 
2098	 0.399038617689169 
2099	 0.399207623013153 
2100	 0.399348050682096 
2101	 0.399484514872444 
2102	 0.399618749099135 
2103	 0.399715228042768 
2104	 0.399860330523333 
2105	 0.40001872981529 
2106	 0.400205778935532 
2107	 0.400435745444625 
2108	 0.400644401657092 
2109	 0.40086020073806 
2110	 0.401087784768574 
2111	 0.401314096476283 
2112	 0.401543329123469 
2113	 0.401791353526237 
2114	 0.402042454327942 
2115	 0.402276634060275 
2116	 0.40249362318841 
2117	 0.402725336952424 
2118	 0.402954117265741 
2119	 0.403194775917552 
2120	 0.403448568468637 
2121	 0.40369709259145 
2122	 0.403963502928231 
2123	 0.404197820031224 
2124	 0.404417432797948 
2125	 0.404631132085715 
2126	 0.404834697843025 
2127	 0.405020274711443 
2128	 0.405204340005367 
2129	 0.405361118759772 
2130	 0.405485953746339 
2131	 0.405602570205787 
2132	 0.405704699356513 
2133	 0.405796138724838 
2134	 0.405862916626276 
2135	 0.405917776238517 
2136	 0.405939283409839 
2137	 0.405940742472785 
2138	 0.405901819681491 
2139	 0.405826279540908 
2140	 0.405733494501698 
2141	 0.405594370618338 
2142	 0.405458913456214 
2143	 0.405296712950541 
2144	 0.405145775547812 
2145	 0.404999903428784 
2146	 0.404839944684759 
2147	 0.404692206181263 
2148	 0.404522072594259 
2149	 0.404316582594593 
2150	 0.40407959806743 
2151	 0.40383889975925 
2152	 0.403563762621503 
2153	 0.403301526892147 
2154	 0.403040946384838 
2155	 0.402766322727253 
2156	 0.402497648817408 
2157	 0.402193749150734 
2158	 0.401880117159941 
2159	 0.401531757438677 
2160	 0.401129784578278 
2161	 0.400741363903898 
2162	 0.400326756971509 
2163	 0.399924638252095 
2164	 0.399520579429202 
2165	 0.399137766195475 
2166	 0.398746164204499 
2167	 0.398350288392896 
2168	 0.397972199675304 
2169	 0.397615820458628 
2170	 0.397225183186713 
2171	 0.396835309409313 
2172	 0.396430268091478 
2173	 0.396003497393915 
2174	 0.395568753883667 
2175	 0.395129555060548 
2176	 0.394678311451765 
2177	 0.394185738985274 
2178	 0.3937243014704 
2179	 0.393252518873616 
2180	 0.392818298664981 
2181	 0.392432839336672 
2182	 0.392028391413032 
2183	 0.391631450619531 
2184	 0.39125815407318 
2185	 0.390841868254557 
2186	 0.390384122061493 
2187	 0.389971798321061 
2188	 0.389554617868669 
2189	 0.389158864632038 
2190	 0.388800288391055 
2191	 0.388420821963345 
2192	 0.388046969117736 
2193	 0.387658331895765 
2194	 0.387238942758083 
2195	 0.386859749939512 
2196	 0.386487000683872 
2197	 0.386126148572978 
2198	 0.385789151454543 
2199	 0.385470598143291 
2200	 0.38516571852113 
2201	 0.384864365472206 
2202	 0.384591328925391 
2203	 0.384307975015849 
2204	 0.384046887028939 
2205	 0.383777961117959 
2206	 0.383552423211 
2207	 0.383372666680982 
2208	 0.383166666838197 
2209	 0.382966920338678 
2210	 0.382779190816821 
2211	 0.382575961494637 
2212	 0.38240899542903 
2213	 0.382290076943098 
2214	 0.38214373203833 
2215	 0.382004336613738 
2216	 0.381859621355096 
2217	 0.38172212939301 
2218	 0.381547345697321 
2219	 0.381351112435474 
2220	 0.381154946265655 
2221	 0.380929970690244 
2222	 0.380710840937338 
2223	 0.380482335587576 
2224	 0.380237906542762 
2225	 0.379970980162196 
2226	 0.379673257750495 
2227	 0.379365151693083 
2228	 0.379041067810692 
2229	 0.378717215315917 
2230	 0.378380489679249 
2231	 0.378024558581246 
2232	 0.377669889512239 
2233	 0.37728238393066 
2234	 0.37686009559507 
2235	 0.376434927629474 
2236	 0.3760081709937 
2237	 0.375540675504757 
2238	 0.375025280829262 
2239	 0.374528548692267 
2240	 0.374021247191595 
2241	 0.373500318500333 
2242	 0.37298703466623 
2243	 0.372455684708853 
2244	 0.371915467540469 
2245	 0.371336248656376 
2246	 0.370735324834578 
2247	 0.370111924426825 
2248	 0.369498877798064 
2249	 0.368849066769988 
2250	 0.368241876239796 
2251	 0.367652894659678 
2252	 0.367087319798672 
2253	 0.366532955947695 
2254	 0.365988351199443 
2255	 0.36545140815075 
2256	 0.364964670224356 
2257	 0.364472332233969 
2258	 0.364070376959415 
2259	 0.363745607535938 
2260	 0.363449935095938 
2261	 0.363178955045757 
2262	 0.363002310127616 
2263	 0.362902507347148 
2264	 0.362839681448095 
2265	 0.362862538310608 
2266	 0.362918258220026 
2267	 0.363014346233005 
2268	 0.363139810583678 
2269	 0.363314632605465 
2270	 0.363528770671951 
2271	 0.363755965455584 
2272	 0.364055553525883 
2273	 0.364383343816454 
2274	 0.364740195622144 
2275	 0.365110382655346 
2276	 0.365502153321143 
2277	 0.365909102856675 
2278	 0.366350585616384 
2279	 0.366772981990987 
2280	 0.367189567339865 
2281	 0.367641338300158 
2282	 0.36812016420817 
2283	 0.368569870243547 
2284	 0.369063207908888 
2285	 0.369488829583128 
2286	 0.369844021224033 
2287	 0.370227310135536 
2288	 0.37057882043649 
2289	 0.370963287532094 
2290	 0.371398921153795 
2291	 0.37178400284651 
2292	 0.372166755589487 
2293	 0.372520692080812 
2294	 0.372811363710969 
2295	 0.373123837646084 
2296	 0.373429356245468 
2297	 0.373764387911649 
2298	 0.374054420014293 
2299	 0.374305891918017 
2300	 0.374546636189704 
2301	 0.374744711036274 
2302	 0.374979974766124 
2303	 0.375265361929248 
2304	 0.375552948735362 
2305	 0.375846684743731 
2306	 0.376089669529365 
2307	 0.376301006477367 
2308	 0.376524502283881 
2309	 0.376740505174252 
2310	 0.376913805053746 
2311	 0.377086911576087 
2312	 0.37721563041913 
2313	 0.377247463373115 
2314	 0.377338185035279 
2315	 0.37743820777025 
2316	 0.377553338485241 
2317	 0.377725676291641 
2318	 0.377829821237302 
2319	 0.377915762267664 
2320	 0.377975140022274 
2321	 0.377974911531931 
2322	 0.377971622198391 
2323	 0.377938580225399 
2324	 0.377942870169304 
2325	 0.377961933333325 
2326	 0.377964566944823 
2327	 0.377983223835234 
2328	 0.377982252722431 
2329	 0.37799556565556 
2330	 0.377973653405368 
2331	 0.377972663876053 
2332	 0.378000241924416 
2333	 0.377973170901778 
2334	 0.377921484860578 
2335	 0.377901418554068 
2336	 0.377836044402609 
2337	 0.377711640224591 
2338	 0.377622096383114 
2339	 0.377543008324533 
2340	 0.377373608057507 
2341	 0.377214893323783 
2342	 0.377041578038315 
2343	 0.376763262972413 
2344	 0.3765303204155 
2345	 0.376279662004007 
2346	 0.376017717028451 
2347	 0.37573431014671 
2348	 0.375450618062402 
2349	 0.375127823380146 
2350	 0.374770022937652 
2351	 0.374445555932908 
2352	 0.374100435386725 
2353	 0.373748513318338 
2354	 0.373394912607169 
2355	 0.373048828335748 
2356	 0.372716512610682 
2357	 0.372375284717388 
2358	 0.372059819589905 
2359	 0.371692718858524 
2360	 0.371298749070015 
2361	 0.370858509638489 
2362	 0.370395270117464 
2363	 0.369895179334508 
2364	 0.369303244873708 
2365	 0.368747784025059 
2366	 0.368152500370196 
2367	 0.367616913956308 
2368	 0.367127260927212 
2369	 0.366653224367045 
2370	 0.366229740855278 
2371	 0.365784227108511 
2372	 0.36533617163971 
2373	 0.364838747396766 
2374	 0.364314644327356 
2375	 0.363726041363132 
2376	 0.363129142389365 
2377	 0.362477911149916 
2378	 0.361816371891541 
2379	 0.361235429185433 
2380	 0.36059793858901 
2381	 0.359983701788741 
2382	 0.359359799321225 
2383	 0.358733539474886 
2384	 0.358200302782157 
2385	 0.357697518442562 
2386	 0.357217861792945 
2387	 0.356585352736413 
2388	 0.355894246327448 
2389	 0.355217586491795 
2390	 0.354417745783297 
2391	 0.353805152001099 
2392	 0.353241831718564 
2393	 0.352586330058417 
2394	 0.352042841417888 
2395	 0.351415468326116 
2396	 0.350692662770666 
2397	 0.349985401284254 
2398	 0.349331677316575 
2399	 0.348701382992585 
2400	 0.348070073599769 
2401	 0.347499145725717 
2402	 0.346807429847951 
2403	 0.346050935615231 
2404	 0.3453582765948 
2405	 0.344672669243279 
2406	 0.344047337958845 
2407	 0.34341965356841 
2408	 0.342882400134461 
2409	 0.342337126801996 
2410	 0.341713178826597 
2411	 0.34124913870523 
2412	 0.340733200543802 
2413	 0.340155902673413 
2414	 0.339722517339805 
2415	 0.339209392364768 
2416	 0.338670883708206 
2417	 0.338130087409398 
2418	 0.337598679369063 
2419	 0.33701646325985 
2420	 0.336466972480994 
2421	 0.335947652297829 
2422	 0.335360879941641 
2423	 0.334703478820469 
2424	 0.334162759406356 
2425	 0.333688636972899 
2426	 0.333115199703476 
2427	 0.332585749161221 
2428	 0.332013311205336 
2429	 0.331271007473354 
2430	 0.330696254530063 
2431	 0.330220218260956 
2432	 0.329731569872504 
2433	 0.329343849162015 
2434	 0.328895334432162 
2435	 0.328399985717838 
2436	 0.328032752897505 
2437	 0.327720061891503 
2438	 0.327271958159786 
2439	 0.326886967623954 
2440	 0.326325130607076 
2441	 0.325509085952214 
2442	 0.324914513568963 
2443	 0.32442443088271 
2444	 0.323819250002663 
2445	 0.323212937670637 
2446	 0.322639442555826 
2447	 0.322025125425162 
2448	 0.321377628885595 
2449	 0.320769055046564 
2450	 0.32014842891212 
2451	 0.319436985997396 
2452	 0.31876668361473 
2453	 0.318160622661744 
2454	 0.317532467859013 
2455	 0.316816697535533 
2456	 0.316220971864569 
2457	 0.315761175624907 
2458	 0.315191134571544 
2459	 0.31457874710188 
2460	 0.314032251930192 
2461	 0.313459400675063 
2462	 0.312944559374904 
2463	 0.312556265818248 
2464	 0.312131895308001 
2465	 0.311728053245783 
2466	 0.311246410236103 
2467	 0.310661328466193 
2468	 0.310187358723958 
2469	 0.30970403433452 
2470	 0.309372630135873 
2471	 0.30902352903641 
2472	 0.308566902918979 
2473	 0.308019419678071 
2474	 0.307417761741008 
2475	 0.306905814197979 
2476	 0.306295506962281 
2477	 0.305736381863158 
2478	 0.305205908043011 
2479	 0.304497537590349 
2480	 0.304058667945084 
2481	 0.303673206831924 
2482	 0.303085996562985 
2483	 0.302718461655065 
2484	 0.301978053641685 
2485	 0.300816829400775 
2486	 0.299983155464416 
2487	 0.299280282872721 
2488	 0.298701252868508 
2489	 0.298464095357163 
2490	 0.298266881965181 
2491	 0.29776615331615 
2492	 0.29723423337706 
2493	 0.29678544262456 
2494	 0.296170866023044 
2495	 0.295567054534561 
2496	 0.295083647941324 
2497	 0.294550716648853 
2498	 0.293990090592752 
2499	 0.293534529897144 
2500	 0.292925637792514 
