Wavelength	LMW700007.asd
350	 6.10431030337963E-02 
351	 6.32199366453149E-02 
352	 5.85607146183277E-02 
353	 5.04045635035202E-02 
354	 5.91131056928343E-02 
355	 5.89363447798074E-02 
356	 5.67798086300594E-02 
357	 6.27070888030651E-02 
358	 6.63924201723041E-02 
359	 6.14335915103781E-02 
360	 5.38595472033392E-02 
361	 5.59796495381291E-02 
362	 5.59381282780675E-02 
363	 5.65670522514414E-02 
364	 5.91230337053655E-02 
365	 5.94925361437744E-02 
366	 6.11703917327782E-02 
367	 0.060797075736885 
368	 5.64322472258316E-02 
369	 5.86301249623893E-02 
370	 6.12389940393633E-02 
371	 0.063119163721898 
372	 6.63022938657848E-02 
373	 6.40794678552768E-02 
374	 6.21204884288415E-02 
375	 6.35504175509094E-02 
376	 6.46743548594427E-02 
377	 6.16233387573193E-02 
378	 5.93769307764447E-02 
379	 6.32240165713904E-02 
380	 6.81567915627876E-02 
381	 6.71520942994878E-02 
382	 6.34875594388482E-02 
383	 6.71760578628865E-02 
384	 0.069508236008534 
385	 0.069634967947705 
386	 6.89465415215391E-02 
387	 7.06583057851011E-02 
388	 7.46484041439044E-02 
389	 7.66463906351032E-02 
390	 7.36500103648396E-02 
391	 7.46763624495476E-02 
392	 7.65829315923799E-02 
393	 7.83047153705686E-02 
394	 8.09036397508913E-02 
395	 8.26073347313103E-02 
396	 8.35960152873488E-02 
397	 8.45363937770632E-02 
398	 8.65662669908138E-02 
399	 8.77029534331294E-02 
400	 8.86411003471547E-02 
401	 9.06329052054235E-02 
402	 9.21130663082575E-02 
403	 9.35115758219139E-02 
404	 9.48072823991351E-02 
405	 9.54671288194742E-02 
406	 9.83327827140495E-02 
407	 0.100787811045005 
408	 0.100985787698202 
409	 0.10163144349618 
410	 0.102934895685895 
411	 0.104492918261982 
412	 0.10571206094856 
413	 0.107390351463213 
414	 0.108344078444042 
415	 0.108472034004028 
416	 0.109212580525736 
417	 0.109831279626119 
418	 0.110656245679428 
419	 0.111703354970184 
420	 0.111085812259015 
421	 0.110557418857915 
422	 0.110624661068108 
423	 0.110885718294509 
424	 0.110947395345196 
425	 0.110677134535951 
426	 0.110141540267496 
427	 0.109641344238333 
428	 0.10918198145679 
429	 0.108656074553316 
430	 0.107964757936526 
431	 0.107246265077189 
432	 0.106769220764971 
433	 0.106564944723972 
434	 0.106437515431439 
435	 0.106222252927708 
436	 0.106166667835944 
437	 0.106481323638006 
438	 0.107094671325601 
439	 0.107731351924181 
440	 0.10840621152035 
441	 0.109288426816438 
442	 0.110501410330952 
443	 0.111521558026845 
444	 0.112278322001904 
445	 0.11344068762582 
446	 0.11477481577444 
447	 0.116296393387131 
448	 0.117966545193556 
449	 0.11930268347971 
450	 0.120607464410798 
451	 0.121928472571052 
452	 0.123087421095611 
453	 0.1242934152099 
454	 0.125439098309837 
455	 0.126480913441429 
456	 0.127687406535271 
457	 0.128728296040375 
458	 0.129684349365571 
459	 0.130762603881601 
460	 0.131641384030127 
461	 0.132314758874071 
462	 0.132937757754114 
463	 0.133838529637176 
464	 0.134866308243259 
465	 0.13572822245789 
466	 0.136255839204903 
467	 0.136909784390926 
468	 0.137629114303828 
469	 0.138311820719411 
470	 0.138845460311602 
471	 0.139356597750997 
472	 0.139794592999044 
473	 0.140157160914468 
474	 0.140605047026106 
475	 0.141207993633034 
476	 0.141818850256444 
477	 0.142236460784533 
478	 0.142681191802424 
479	 0.14311479581696 
480	 0.1435126398172 
481	 0.143897336934727 
482	 0.144332230360414 
483	 0.14483249118603 
484	 0.145369252069789 
485	 0.145844196225636 
486	 0.146107809342185 
487	 0.146302433275518 
488	 0.146783817564756 
489	 0.147267727127406 
490	 0.147705504035672 
491	 0.148100752296628 
492	 0.148483231054404 
493	 0.148762191588028 
494	 0.149094395077845 
495	 0.149676780690635 
496	 0.150071765881624 
497	 0.150352249654925 
498	 0.150665905889384 
499	 0.151199490236565 
500	 0.151628740574437 
501	 0.151924058395433 
502	 0.152184534463626 
503	 0.152635214917946 
504	 0.153081041757835 
505	 0.153433097538072 
506	 0.15372297591795 
507	 0.154151311048489 
508	 0.154603259011486 
509	 0.154951901314768 
510	 0.155207863510894 
511	 0.155447660553668 
512	 0.155788482080597 
513	 0.156313154618479 
514	 0.156619426909304 
515	 0.156911271152442 
516	 0.157315650878611 
517	 0.157717956116162 
518	 0.158027473262044 
519	 0.15829093912575 
520	 0.158600541219769 
521	 0.158992356749738 
522	 0.159384075653614 
523	 0.15974978897993 
524	 0.160129250888402 
525	 0.160448526130345 
526	 0.160745988647206 
527	 0.16107679962991 
528	 0.161478200727433 
529	 0.161801805102559 
530	 0.162089757141097 
531	 0.162494028353664 
532	 0.162854918919822 
533	 0.163239857159149 
534	 0.163651554232445 
535	 0.163869324819024 
536	 0.16418815589188 
537	 0.164550899355503 
538	 0.164819390308282 
539	 0.165341866516443 
540	 0.165767841799124 
541	 0.166016532941639 
542	 0.166431028772487 
543	 0.166816733144312 
544	 0.167165726875608 
545	 0.167523126267137 
546	 0.167949537598609 
547	 0.168379258673769 
548	 0.168785756013814 
549	 0.169183471603976 
550	 0.169650805629142 
551	 0.170097620953191 
552	 0.170487632447959 
553	 0.17100563438375 
554	 0.171568249169213 
555	 0.172110169326443 
556	 0.172590239576956 
557	 0.173121420502119 
558	 0.173685562472662 
559	 0.174267571441832 
560	 0.17489247162386 
561	 0.175469540613775 
562	 0.176016581847791 
563	 0.17658926893914 
564	 0.177214579728927 
565	 0.177826446310153 
566	 0.17843232075991 
567	 0.179127301097487 
568	 0.179890179294395 
569	 0.180686054084538 
570	 0.181495030928826 
571	 0.182371548872331 
572	 0.183264568561509 
573	 0.184130198799128 
574	 0.184931479003718 
575	 0.185644837514825 
576	 0.186444926581472 
577	 0.187398834924514 
578	 0.188272751914317 
579	 0.189218262206282 
580	 0.190210458092394 
581	 0.191173850429822 
582	 0.192219520384474 
583	 0.193273063848826 
584	 0.194302339271875 
585	 0.195362691091419 
586	 0.196418247795503 
587	 0.197446809327773 
588	 0.198448159653612 
589	 0.199499527454888 
590	 0.200569943926317 
591	 0.201644999653867 
592	 0.202730363031805 
593	 0.20380265138349 
594	 0.204856477410184 
595	 0.205920018395816 
596	 0.207113666669701 
597	 0.208299289561863 
598	 0.209448132647216 
599	 0.210585194159602 
600	 0.211588946201913 
601	 0.212618582574292 
602	 0.213709941854324 
603	 0.214622902609864 
604	 0.215507107000106 
605	 0.216418920357178 
606	 0.217365649961144 
607	 0.218262444241176 
608	 0.219107552208218 
609	 0.219941516027309 
610	 0.220845101645038 
611	 0.221692198840411 
612	 0.222525282779237 
613	 0.223373653697365 
614	 0.224090921886827 
615	 0.224759269494899 
616	 0.225415937192413 
617	 0.226059944296441 
618	 0.226675249200784 
619	 0.227225234489425 
620	 0.227725626585942 
621	 0.228315974020503 
622	 0.22883985460749 
623	 0.229294384968606 
624	 0.229742300144497 
625	 0.230226307481884 
626	 0.230714258846454 
627	 0.231171477840731 
628	 0.23156952738252 
629	 0.231982756334664 
630	 0.23241121739067 
631	 0.232824955655754 
632	 0.233166572048714 
633	 0.23348498967387 
634	 0.233838818559833 
635	 0.234278020768929 
636	 0.234606313643321 
637	 0.234929238340807 
638	 0.235317873370264 
639	 0.235617836390605 
640	 0.235953813380661 
641	 0.236330530606034 
642	 0.236696421200744 
643	 0.237022800358468 
644	 0.237400994799647 
645	 0.237831982189651 
646	 0.23817118116461 
647	 0.238449049279368 
648	 0.238747699236873 
649	 0.239131700746439 
650	 0.239513650526772 
651	 0.239903731367534 
652	 0.240291834558406 
653	 0.240653493890322 
654	 0.241062133193398 
655	 0.241448508055422 
656	 0.241781848124573 
657	 0.24218792027396 
658	 0.242641859458774 
659	 0.243080037993068 
660	 0.24343944098716 
661	 0.243840927571892 
662	 0.244315430654007 
663	 0.244817101933738 
664	 0.245202506360822 
665	 0.245627902437326 
666	 0.246125227163182 
667	 0.246659177523615 
668	 0.2470736220693 
669	 0.247531519608187 
670	 0.248071711178696 
671	 0.248615259547 
672	 0.249072768133651 
673	 0.249603284785224 
674	 0.250253774708875 
675	 0.250690778771069 
676	 0.251190082236279 
677	 0.251754880595529 
678	 0.252288899094807 
679	 0.252884115785887 
680	 0.253462245213456 
681	 0.254016763947694 
682	 0.254653168109872 
683	 0.255257321949073 
684	 0.25585888313976 
685	 0.256498638338309 
686	 0.257117354099416 
687	 0.257731654343326 
688	 0.258353292028673 
689	 0.258989820401316 
690	 0.259648453905217 
691	 0.260286592167385 
692	 0.260908827568843 
693	 0.261636718987745 
694	 0.262314673522235 
695	 0.262960752151635 
696	 0.263636304924588 
697	 0.264241874090171 
698	 0.26495377291115 
699	 0.265743905821147 
700	 0.266364182579316 
701	 0.266996036216341 
702	 0.267665046596449 
703	 0.268347380171835 
704	 0.268971798946265 
705	 0.269621538666537 
706	 0.270277927677091 
707	 0.270888225044703 
708	 0.271597790487347 
709	 0.272303401625487 
710	 0.272946396475309 
711	 0.273569565603765 
712	 0.274223504653739 
713	 0.274877268910818 
714	 0.275490072650873 
715	 0.276081068306563 
716	 0.27666684342578 
717	 0.277250358911932 
718	 0.277822113660937 
719	 0.278367121206851 
720	 0.278888019078403 
721	 0.279379149622724 
722	 0.279804394848587 
723	 0.280289836628326 
724	 0.280811636817282 
725	 0.281289138440159 
726	 0.281649036456113 
727	 0.282054018318457 
728	 0.282490328776179 
729	 0.282781773957274 
730	 0.283096330922747 
731	 0.28338919568582 
732	 0.283622215503039 
733	 0.283863135027744 
734	 0.284124369431044 
735	 0.284333694589432 
736	 0.284420357496426 
737	 0.284560512960205 
738	 0.284688255025458 
739	 0.284770374939405 
740	 0.284828531427786 
741	 0.28483304202745 
742	 0.284821149227719 
743	 0.2848106504523 
744	 0.284727502009552 
745	 0.284617597349648 
746	 0.284488092959788 
747	 0.284325770217248 
748	 0.284101877711743 
749	 0.283914389484859 
750	 0.283757228550646 
751	 0.283490039276524 
752	 0.283194436818601 
753	 0.282864403260095 
754	 0.282501439099014 
755	 0.28218055058034 
756	 0.281894587076269 
757	 0.281558007602128 
758	 0.281079849030052 
759	 0.280645520428739 
760	 0.280172797329534 
761	 0.279661415898603 
762	 0.279240191404018 
763	 0.278798087234229 
764	 0.278302675639111 
765	 0.277761671229612 
766	 0.277236195902671 
767	 0.27671316860077 
768	 0.276155992493276 
769	 0.275540859911199 
770	 0.275029271912679 
771	 0.274508840588699 
772	 0.273928413807209 
773	 0.273340432950956 
774	 0.272742623970989 
775	 0.272132451688579 
776	 0.271502078237371 
777	 0.270820636958081 
778	 0.270227164774983 
779	 0.269657056086855 
780	 0.268983594380874 
781	 0.268347924234415 
782	 0.26774888604596 
783	 0.267149481550137 
784	 0.266494332090947 
785	 0.26588774977618 
786	 0.265309130504883 
787	 0.264716489378623 
788	 0.264073002091531 
789	 0.263433922453772 
790	 0.262839481088094 
791	 0.262299932431382 
792	 0.26171968823466 
793	 0.26112463663394 
794	 0.260508067966669 
795	 0.259841225812338 
796	 0.259224401943058 
797	 0.258689496200834 
798	 0.258184558783082 
799	 0.257525254781389 
800	 0.256977953043383 
801	 0.256499324404068 
802	 0.255968312451048 
803	 0.255355220036875 
804	 0.254837358402286 
805	 0.254392502410763 
806	 0.253880729548892 
807	 0.253361470548047 
808	 0.252793135292027 
809	 0.252212291538671 
810	 0.251758423019806 
811	 0.251317140178344 
812	 0.25085264415837 
813	 0.250369471341105 
814	 0.249938062285075 
815	 0.249441688765895 
816	 0.248905570079694 
817	 0.24841653764635 
818	 0.248026997569066 
819	 0.247667004632539 
820	 0.247276810850576 
821	 0.246825228234627 
822	 0.24640215236974 
823	 0.246028138486975 
824	 0.245666827504957 
825	 0.245210814160803 
826	 0.244815493012372 
827	 0.244479155933021 
828	 0.24415399542228 
829	 0.243799552607887 
830	 0.243427672633225 
831	 0.243052417729102 
832	 0.242690488259025 
833	 0.242360516761638 
834	 0.242055142923699 
835	 0.241786319421271 
836	 0.241573478757179 
837	 0.241261999915331 
838	 0.240934400944856 
839	 0.240651614435044 
840	 0.240366805559927 
841	 0.24014350412641 
842	 0.239878013606452 
843	 0.239520728845942 
844	 0.239332563783585 
845	 0.239182818790224 
846	 0.238990958647071 
847	 0.238732265125143 
848	 0.238547904411896 
849	 0.238329348489175 
850	 0.23808461991905 
851	 0.237917687786619 
852	 0.23770555098587 
853	 0.237489858023926 
854	 0.237316255995288 
855	 0.23719993700859 
856	 0.237129825573975 
857	 0.237030232512397 
858	 0.236859036643654 
859	 0.236682493152446 
860	 0.23659605872244 
861	 0.236524099362379 
862	 0.236378920326765 
863	 0.236330060436525 
864	 0.236241099198648 
865	 0.236152509215987 
866	 0.236174146833141 
867	 0.236043585662179 
868	 0.23598720580068 
869	 0.236019749371204 
870	 0.23591468004211 
871	 0.235796735288457 
872	 0.235736350525215 
873	 0.235766026818287 
874	 0.235869939024429 
875	 0.235902986415881 
876	 0.23590751443569 
877	 0.235940772008273 
878	 0.235952862694051 
879	 0.236039754364016 
880	 0.236106622261142 
881	 0.236066569584037 
882	 0.236155453317795 
883	 0.236229665262536 
884	 0.236260160945999 
885	 0.23629819741466 
886	 0.236413712283314 
887	 0.236598328333633 
888	 0.236759447892072 
889	 0.236772010189054 
890	 0.236818370193131 
891	 0.236933236180078 
892	 0.237133300400208 
893	 0.237421710228054 
894	 0.237467891610899 
895	 0.237501898804567 
896	 0.237713451167202 
897	 0.238008850412537 
898	 0.23825815988762 
899	 0.238456284600282 
900	 0.238622777916099 
901	 0.23871806876077 
902	 0.238909113350327 
903	 0.239165385234096 
904	 0.239405687669061 
905	 0.239655081883216 
906	 0.239929710479365 
907	 0.240232586610855 
908	 0.240546193710957 
909	 0.240797480197714 
910	 0.241038056421383 
911	 0.241307700890583 
912	 0.241617098630512 
913	 0.241884875928362 
914	 0.242159314502844 
915	 0.242507252751102 
916	 0.242964156752393 
917	 0.243226039736078 
918	 0.24354415468963 
919	 0.244033766095892 
920	 0.244553574578558 
921	 0.244906891405377 
922	 0.245157211643262 
923	 0.245437994541371 
924	 0.245890160983365 
925	 0.246393970628157 
926	 0.246879282004281 
927	 0.247304716501544 
928	 0.247661157867703 
929	 0.248169939488023 
930	 0.248741806352544 
931	 0.249236957174402 
932	 0.249609449963571 
933	 0.250000531563158 
934	 0.250483748228323 
935	 0.25106544886254 
936	 0.251643952382411 
937	 0.252230043935851 
938	 0.25275968996544 
939	 0.253215738586309 
940	 0.253811781009238 
941	 0.254309393810979 
942	 0.254857797102756 
943	 0.255618277887243 
944	 0.256161938638663 
945	 0.256794206189373 
946	 0.25748080820774 
947	 0.258060085949313 
948	 0.25857916544644 
949	 0.259165049643678 
950	 0.259826182891019 
951	 0.260509736844801 
952	 0.261224730560515 
953	 0.261982265610743 
954	 0.262665144952878 
955	 0.263181757195845 
956	 0.26394239448186 
957	 0.264683847897828 
958	 0.265369842026942 
959	 0.266105757717086 
960	 0.266789994182813 
961	 0.267556217547863 
962	 0.268376417760286 
963	 0.26913742635653 
964	 0.269969761639 
965	 0.270671270835996 
966	 0.271327124265946 
967	 0.272175251160472 
968	 0.273046291608507 
969	 0.273860012396517 
970	 0.274589172342361 
971	 0.275277197962524 
972	 0.276135592311821 
973	 0.277047802147406 
974	 0.277980656121372 
975	 0.278951027333618 
976	 0.279823836672057 
977	 0.280605121894915 
978	 0.281422300864023 
979	 0.282397976444165 
980	 0.283252338720644 
981	 0.28398507475393 
982	 0.284717220764912 
983	 0.28559631426732 
984	 0.28655602037632 
985	 0.287500051723103 
986	 0.288387554941912 
987	 0.289230978307804 
988	 0.290091844103347 
989	 0.290993242645899 
990	 0.291903353030567 
991	 0.292794331070234 
992	 0.29381601216733 
993	 0.29457924083841 
994	 0.29537759179767 
995	 0.296561817821506 
996	 0.297370762740967 
997	 0.298257835834535 
998	 0.299146994645223 
999	 0.299898093494863 
1000	 0.300936024055659 
1001	 0.30504953180767 
1002	 0.305916950530738 
1003	 0.306803415158429 
1004	 0.307692697164576 
1005	 0.308640587577408 
1006	 0.309550435490191 
1007	 0.310473500907127 
1008	 0.31127872779131 
1009	 0.312068098090478 
1010	 0.312824713239606 
1011	 0.313594286209928 
1012	 0.314430205527365 
1013	 0.315302369035391 
1014	 0.316162677998263 
1015	 0.316958763587936 
1016	 0.317717662616548 
1017	 0.318518281184447 
1018	 0.319300484461646 
1019	 0.320143365898527 
1020	 0.321030370711942 
1021	 0.321886680968314 
1022	 0.322643945854459 
1023	 0.323307953225299 
1024	 0.323971827444424 
1025	 0.324637040363609 
1026	 0.325379392087565 
1027	 0.326201248738465 
1028	 0.32692675064506 
1029	 0.327638881450057 
1030	 0.328374995566467 
1031	 0.329106686853177 
1032	 0.329810560497787 
1033	 0.330587795042941 
1034	 0.331354279451438 
1035	 0.332045968196156 
1036	 0.332765343758527 
1037	 0.333506214465262 
1038	 0.334228906037222 
1039	 0.334993932342767 
1040	 0.335724379524037 
1041	 0.336359505905043 
1042	 0.337028291364639 
1043	 0.337709936727318 
1044	 0.338386199131988 
1045	 0.339044534600387 
1046	 0.339788421117766 
1047	 0.340556161627399 
1048	 0.341275090649962 
1049	 0.341996751336953 
1050	 0.342733330884859 
1051	 0.343439282600122 
1052	 0.344066337927626 
1053	 0.344742889146438 
1054	 0.345451881079659 
1055	 0.346093631174688 
1056	 0.346801713680067 
1057	 0.347446352695841 
1058	 0.348025473393811 
1059	 0.348636942937172 
1060	 0.349234030153527 
1061	 0.349828200910076 
1062	 0.350464751213015 
1063	 0.351103836574292 
1064	 0.351712736053692 
1065	 0.352321369280714 
1066	 0.352938255819252 
1067	 0.353556111347576 
1068	 0.354165251969725 
1069	 0.354742867953388 
1070	 0.355293768257358 
1071	 0.355781112521764 
1072	 0.356339114828851 
1073	 0.356924978306249 
1074	 0.35747132737181 
1075	 0.358035983950244 
1076	 0.358564071819048 
1077	 0.359067328455155 
1078	 0.359549622621067 
1079	 0.360043901846468 
1080	 0.360556997379929 
1081	 0.361042234523564 
1082	 0.361554403062439 
1083	 0.362053766195133 
1084	 0.362568603633872 
1085	 0.363043986441432 
1086	 0.363468901720485 
1087	 0.363933542452949 
1088	 0.364392902694326 
1089	 0.364871468455638 
1090	 0.365370007467219 
1091	 0.365868854203493 
1092	 0.366320535249163 
1093	 0.366793501055497 
1094	 0.367309347220684 
1095	 0.367832150908269 
1096	 0.368347525481292 
1097	 0.368855916306234 
1098	 0.369375274098258 
1099	 0.369885203711086 
1100	 0.370394283229097 
1101	 0.370910882697928 
1102	 0.371438702224522 
1103	 0.371964757020299 
1104	 0.372481034484782 
1105	 0.373023123197301 
1106	 0.373591519994401 
1107	 0.374147521728715 
1108	 0.374704937350215 
1109	 0.375252303104345 
1110	 0.375782548074458 
1111	 0.37633703949376 
1112	 0.376887909387279 
1113	 0.377451001975063 
1114	 0.378034519831184 
1115	 0.378620924683401 
1116	 0.379211943077773 
1117	 0.379802054048225 
1118	 0.380398436095205 
1119	 0.380998311786948 
1120	 0.381626177394538 
1121	 0.382207302191855 
1122	 0.3827627625199 
1123	 0.38336250431288 
1124	 0.383952846707412 
1125	 0.38452813214627 
1126	 0.385116229866928 
1127	 0.385720225460306 
1128	 0.386312383131431 
1129	 0.386892469056834 
1130	 0.387479590606867 
1131	 0.388085417774356 
1132	 0.388675448681483 
1133	 0.389259466902494 
1134	 0.389833874680525 
1135	 0.390407491313844 
1136	 0.390951776678499 
1137	 0.391500991167093 
1138	 0.392047632405884 
1139	 0.39260304954813 
1140	 0.393164205608675 
1141	 0.393725877086227 
1142	 0.394304905749503 
1143	 0.394849666948742 
1144	 0.395383318721646 
1145	 0.395903911866606 
1146	 0.396393679520341 
1147	 0.396897546623884 
1148	 0.397389894548602 
1149	 0.397898901111971 
1150	 0.398415199383327 
1151	 0.398951464393377 
1152	 0.399465213954353 
1153	 0.399961510124742 
1154	 0.400449531040594 
1155	 0.400911742072832 
1156	 0.40137920859679 
1157	 0.401856164997263 
1158	 0.40230955249867 
1159	 0.402734910973735 
1160	 0.403182654824985 
1161	 0.40361593657916 
1162	 0.404069870934673 
1163	 0.404564187039427 
1164	 0.405028714640969 
1165	 0.405485229079467 
1166	 0.405952915212308 
1167	 0.406370129899522 
1168	 0.406770377652212 
1169	 0.40719050703 
1170	 0.407604983804299 
1171	 0.408014881927885 
1172	 0.408450989057706 
1173	 0.408839666483854 
1174	 0.409187984563161 
1175	 0.409559508996236 
1176	 0.409915403289958 
1177	 0.410285782268286 
1178	 0.41068637224637 
1179	 0.41105597352699 
1180	 0.411413048151075 
1181	 0.411767929403005 
1182	 0.412112449814422 
1183	 0.412444364252601 
1184	 0.41278082623266 
1185	 0.413113620074854 
1186	 0.413457634170811 
1187	 0.413804608517088 
1188	 0.414146942002527 
1189	 0.414512255383977 
1190	 0.414838500293708 
1191	 0.415124983309317 
1192	 0.415444695794506 
1193	 0.415755729839834 
1194	 0.416081481042833 
1195	 0.416461044938514 
1196	 0.416789361055009 
1197	 0.417081084654766 
1198	 0.417386977174422 
1199	 0.417687089353304 
1200	 0.417961484764948 
1201	 0.418260919050536 
1202	 0.418587775754277 
1203	 0.418882587340346 
1204	 0.419166977022778 
1205	 0.419446876859673 
1206	 0.419710889184235 
1207	 0.419982299185431 
1208	 0.420246661157154 
1209	 0.420522677458021 
1210	 0.42082078313388 
1211	 0.421090760490495 
1212	 0.421342686500077 
1213	 0.421608858965135 
1214	 0.42187962694357 
1215	 0.422128968564404 
1216	 0.422372532557042 
1217	 0.422616160289855 
1218	 0.422873925647198 
1219	 0.423118419793337 
1220	 0.423369733011687 
1221	 0.423651576966052 
1222	 0.423908456768134 
1223	 0.424147393280019 
1224	 0.424382768890456 
1225	 0.424617784455331 
1226	 0.424847422275629 
1227	 0.425060808570347 
1228	 0.4252782773183 
1229	 0.425499492797398 
1230	 0.425717672378473 
1231	 0.425934688946249 
1232	 0.426144780110637 
1233	 0.42635133296164 
1234	 0.426552582902597 
1235	 0.42676335134542 
1236	 0.426969119673207 
1237	 0.427186470673749 
1238	 0.427424491146448 
1239	 0.427640425598951 
1240	 0.427840802968595 
1241	 0.428061654902969 
1242	 0.428296370040295 
1243	 0.428507660624692 
1244	 0.42872223169821 
1245	 0.428929632022302 
1246	 0.429121616436953 
1247	 0.42930334166665 
1248	 0.429480198683492 
1249	 0.429656116010948 
1250	 0.429827321173321 
1251	 0.429983574190317 
1252	 0.430146509040595 
1253	 0.430316146757954 
1254	 0.430486213148234 
1255	 0.430649640216328 
1256	 0.430819997543969 
1257	 0.431003983754232 
1258	 0.431176046301761 
1259	 0.431342699829211 
1260	 0.431507457332864 
1261	 0.431685956381954 
1262	 0.431834236491914 
1263	 0.431939399231047 
1264	 0.432082115871791 
1265	 0.432233442334278 
1266	 0.43237547316922 
1267	 0.432533535921947 
1268	 0.432700428109807 
1269	 0.432848815012127 
1270	 0.432955337958273 
1271	 0.43312512895246 
1272	 0.433335587161763 
1273	 0.433506593904299 
1274	 0.433672784213213 
1275	 0.433870761792895 
1276	 0.434056857136554 
1277	 0.434265189409869 
1278	 0.43454084752099 
1279	 0.434759378873557 
1280	 0.434952992832468 
1281	 0.435139838380899 
1282	 0.435292372085919 
1283	 0.435466568620076 
1284	 0.435657089160783 
1285	 0.435828482376506 
1286	 0.435970842725594 
1287	 0.436118041393442 
1288	 0.436221394597774 
1289	 0.436268585644797 
1290	 0.436342654023266 
1291	 0.436413237018338 
1292	 0.436471455759787 
1293	 0.436533845500388 
1294	 0.436561995235151 
1295	 0.436560013257545 
1296	 0.436565131205344 
1297	 0.436559834477605 
1298	 0.436541632442128 
1299	 0.436521256982455 
1300	 0.436489462537792 
1301	 0.436430474696831 
1302	 0.436373652979796 
1303	 0.436309563186771 
1304	 0.436256294128538 
1305	 0.436188346415962 
1306	 0.436126195931906 
1307	 0.436065293216877 
1308	 0.435983897962152 
1309	 0.435904543813832 
1310	 0.435819987398703 
1311	 0.43573565557798 
1312	 0.435635306999133 
1313	 0.435561656281869 
1314	 0.435494219382432 
1315	 0.435432138035224 
1316	 0.435389762264756 
1317	 0.435351212716535 
1318	 0.435307773019992 
1319	 0.435282700166728 
1320	 0.435276327237629 
1321	 0.435265138283011 
1322	 0.435260484235114 
1323	 0.435256260298806 
1324	 0.435265496571873 
1325	 0.435283528160135 
1326	 0.435306447149883 
1327	 0.43535383915848 
1328	 0.435388908957434 
1329	 0.435432783715007 
1330	 0.43548011283007 
1331	 0.435518622759495 
1332	 0.435593292111773 
1333	 0.435690691021153 
1334	 0.435784288064354 
1335	 0.435883926968535 
1336	 0.436013098039044 
1337	 0.436154122744146 
1338	 0.436302618850226 
1339	 0.436515055202874 
1340	 0.436661869204395 
1341	 0.43677517794481 
1342	 0.436885179587392 
1343	 0.436959093640083 
1344	 0.437041552295166 
1345	 0.437145603807756 
1346	 0.437258139767984 
1347	 0.437385111653251 
1348	 0.437521831112168 
1349	 0.437631556188179 
1350	 0.437724517573001 
1351	 0.437826679609583 
1352	 0.437917487778668 
1353	 0.43800797364873 
1354	 0.438108160256635 
1355	 0.43819908545287 
1356	 0.43826882151145 
1357	 0.438356671488139 
1358	 0.438463513255288 
1359	 0.438554874550638 
1360	 0.438632559700988 
1361	 0.438728410689598 
1362	 0.438821130863148 
1363	 0.438919375354254 
1364	 0.439047337179775 
1365	 0.439158261000474 
1366	 0.439258769919573 
1367	 0.439356761246876 
1368	 0.439478869911684 
1369	 0.439562936096375 
1370	 0.439638355143757 
1371	 0.439714058747859 
1372	 0.439748569783867 
1373	 0.439769007290006 
1374	 0.439779378521224 
1375	 0.439790920587291 
1376	 0.439753852151146 
1377	 0.43968753582037 
1378	 0.439611254584979 
1379	 0.439497671471577 
1380	 0.439385501038899 
1381	 0.439263407531052 
1382	 0.439133026328501 
1383	 0.439004895801882 
1384	 0.438844518468266 
1385	 0.438698103824161 
1386	 0.438482893157312 
1387	 0.438223520557543 
1388	 0.437924122580242 
1389	 0.437573845553536 
1390	 0.437193282129517 
1391	 0.436789419649771 
1392	 0.436334906594465 
1393	 0.435843243909234 
1394	 0.435341899769193 
1395	 0.434787198723583 
1396	 0.434214389374548 
1397	 0.433647745336489 
1398	 0.433061156472385 
1399	 0.4324786576849 
1400	 0.431897822139656 
1401	 0.431319058880028 
1402	 0.430737292839337 
1403	 0.430149301804188 
1404	 0.429559140910076 
1405	 0.428975765164328 
1406	 0.428374350133643 
1407	 0.427802708006448 
1408	 0.427243876434424 
1409	 0.426707036194267 
1410	 0.4261890122581 
1411	 0.42568183424184 
1412	 0.425175316769452 
1413	 0.42470793245274 
1414	 0.424294614913853 
1415	 0.423927338571506 
1416	 0.423623285647444 
1417	 0.423345957363152 
1418	 0.423057385980152 
1419	 0.422776792732993 
1420	 0.422507942834814 
1421	 0.422236946737145 
1422	 0.421982148792289 
1423	 0.421752180053187 
1424	 0.421509431155206 
1425	 0.421281027642913 
1426	 0.421029290648832 
1427	 0.420745410089672 
1428	 0.420499803791718 
1429	 0.420256080160278 
1430	 0.420036136105782 
1431	 0.419853091827634 
1432	 0.419657810026003 
1433	 0.419462560895432 
1434	 0.419273197695398 
1435	 0.419079609915416 
1436	 0.418908517949811 
1437	 0.418749396187678 
1438	 0.418602408967376 
1439	 0.418481405121408 
1440	 0.418355158156126 
1441	 0.418210550828165 
1442	 0.418061960154292 
1443	 0.417893712708186 
1444	 0.417728406399356 
1445	 0.417596425508044 
1446	 0.417460959891532 
1447	 0.417334562982923 
1448	 0.417225522296282 
1449	 0.417096659331948 
1450	 0.416951535485662 
1451	 0.41679305026885 
1452	 0.416606343625963 
1453	 0.416446088368877 
1454	 0.416289284289103 
1455	 0.416127802437793 
1456	 0.415990353348025 
1457	 0.415813743155973 
1458	 0.415593412731102 
1459	 0.415404716199519 
1460	 0.415197861609445 
1461	 0.415039235208858 
1462	 0.414909524994064 
1463	 0.414796044021829 
1464	 0.414709829928891 
1465	 0.414632219456745 
1466	 0.414566950518953 
1467	 0.414525230433825 
1468	 0.414490509837438 
1469	 0.41449478236836 
1470	 0.414527428551192 
1471	 0.414585125273473 
1472	 0.414664290637703 
1473	 0.414798009648058 
1474	 0.414968190649914 
1475	 0.41516050272452 
1476	 0.415389477669351 
1477	 0.415623093717201 
1478	 0.415877115747036 
1479	 0.416140761154613 
1480	 0.416421530139549 
1481	 0.416732343247833 
1482	 0.417016059848395 
1483	 0.417286553679162 
1484	 0.417580802208383 
1485	 0.417872925088156 
1486	 0.418173357680304 
1487	 0.41849978964356 
1488	 0.418805845497587 
1489	 0.419119849154563 
1490	 0.419396478966296 
1491	 0.419655258160206 
1492	 0.419905849518754 
1493	 0.420118026865225 
1494	 0.420344744874573 
1495	 0.420591141351948 
1496	 0.420803860548969 
1497	 0.42098601010555 
1498	 0.421185829986893 
1499	 0.421384462074684 
1500	 0.421563507067498 
1501	 0.421744201078775 
1502	 0.421920690518593 
1503	 0.42207543407927 
1504	 0.422221133346339 
1505	 0.422415258088741 
1506	 0.422611569901634 
1507	 0.422795290654808 
1508	 0.422993570006429 
1509	 0.423164190844867 
1510	 0.423317149471057 
1511	 0.42345128197174 
1512	 0.42358759425836 
1513	 0.423770308234636 
1514	 0.42394151411668 
1515	 0.424139565919267 
1516	 0.424344527271853 
1517	 0.424499997718361 
1518	 0.424611789166832 
1519	 0.424744109344677 
1520	 0.424855573735262 
1521	 0.424985973403853 
1522	 0.425127269357349 
1523	 0.425258700852167 
1524	 0.425383250035027 
1525	 0.42552482554757 
1526	 0.425668679252863 
1527	 0.42582141206442 
1528	 0.425996319313354 
1529	 0.426153924304593 
1530	 0.426313271246284 
1531	 0.426458943266349 
1532	 0.426591882758055 
1533	 0.426727253253321 
1534	 0.426863099144403 
1535	 0.42698093165319 
1536	 0.427085486629697 
1537	 0.427193567273202 
1538	 0.42728354177106 
1539	 0.42738279679852 
1540	 0.427483538005647 
1541	 0.427599941576982 
1542	 0.4277371198908 
1543	 0.42785639149622 
1544	 0.427983843594492 
1545	 0.428097210497551 
1546	 0.428192802220918 
1547	 0.428271034392539 
1548	 0.428373240498967 
1549	 0.42849351567922 
1550	 0.428610221570137 
1551	 0.428738786721511 
1552	 0.428857887027024 
1553	 0.428957732167834 
1554	 0.429047427851575 
1555	 0.429133029377289 
1556	 0.429248661449294 
1557	 0.429379973887893 
1558	 0.429514553687695 
1559	 0.429652393478937 
1560	 0.429755261674254 
1561	 0.429812479340007 
1562	 0.429913414756741 
1563	 0.4300111078772 
1564	 0.430130553279194 
1565	 0.430289727028223 
1566	 0.430414454598103 
1567	 0.43052575651307 
1568	 0.430647856554152 
1569	 0.430771261705655 
1570	 0.430871546690691 
1571	 0.430975501268994 
1572	 0.431067081829635 
1573	 0.431127130359136 
1574	 0.431202716468762 
1575	 0.43128614669088 
1576	 0.431360622094216 
1577	 0.431435159166931 
1578	 0.431496429541793 
1579	 0.431548759093571 
1580	 0.431598168336553 
1581	 0.431633437822903 
1582	 0.431675791993031 
1583	 0.431717930925899 
1584	 0.431764515437821 
1585	 0.43180950138827 
1586	 0.431858655689692 
1587	 0.43191511956801 
1588	 0.431970784490574 
1589	 0.432041513622996 
1590	 0.432089185843794 
1591	 0.432117942416038 
1592	 0.432156227730951 
1593	 0.432161369301401 
1594	 0.432211459926652 
1595	 0.432297125572459 
1596	 0.432380674363761 
1597	 0.432498598008188 
1598	 0.432596235523971 
1599	 0.432693179815766 
1600	 0.432773294830382 
1601	 0.432842100023494 
1602	 0.432902645137097 
1603	 0.432941217723942 
1604	 0.432984750670417 
1605	 0.433018802578777 
1606	 0.43306098347801 
1607	 0.433114183536889 
1608	 0.433160612743452 
1609	 0.433193928355499 
1610	 0.433218925937024 
1611	 0.433211620029859 
1612	 0.43321810093863 
1613	 0.43321667746077 
1614	 0.433216237506604 
1615	 0.433245468221346 
1616	 0.433261177237741 
1617	 0.433299418171226 
1618	 0.433365749546585 
1619	 0.433428684676809 
1620	 0.433487993081356 
1621	 0.433530901998742 
1622	 0.433575612528859 
1623	 0.433586841033678 
1624	 0.433564583292585 
1625	 0.433571913519601 
1626	 0.433568455902422 
1627	 0.433585416988729 
1628	 0.433621360120766 
1629	 0.433655687939201 
1630	 0.433694689306781 
1631	 0.433728954605563 
1632	 0.433777175002982 
1633	 0.433798915370419 
1634	 0.433800502347591 
1635	 0.433819154025267 
1636	 0.433833761038807 
1637	 0.433849811819199 
1638	 0.433870375150354 
1639	 0.433897472649006 
1640	 0.433927644356796 
1641	 0.43394707642021 
1642	 0.433975185441631 
1643	 0.433990589327461 
1644	 0.43398251885831 
1645	 0.433995417280244 
1646	 0.434018094740906 
1647	 0.434034816394532 
1648	 0.434058041777255 
1649	 0.43407064215394 
1650	 0.434071118686209 
1651	 0.434087549032617 
1652	 0.434121409421849 
1653	 0.43411706496121 
1654	 0.434104356681853 
1655	 0.434085500030078 
1656	 0.434025602806323 
1657	 0.43400086011655 
1658	 0.433983524094212 
1659	 0.433991929241122 
1660	 0.434024130456705 
1661	 0.434047602360841 
1662	 0.434099423829217 
1663	 0.434123666361897 
1664	 0.434135756633713 
1665	 0.434135017509448 
1666	 0.434121358854604 
1667	 0.434106045691479 
1668	 0.434078306530305 
1669	 0.434045647451733 
1670	 0.434001786104099 
1671	 0.433972710701198 
1672	 0.433932579348136 
1673	 0.43391600012331 
1674	 0.433924520536893 
1675	 0.433925168125838 
1676	 0.433921501699166 
1677	 0.433941978332344 
1678	 0.433990594521031 
1679	 0.4340084058797 
1680	 0.434037400990885 
1681	 0.434040650109211 
1682	 0.433994147579707 
1683	 0.433990674217194 
1684	 0.434011162763278 
1685	 0.434008910023949 
1686	 0.434008474814713 
1687	 0.434008675975795 
1688	 0.433992181566278 
1689	 0.433986039528535 
1690	 0.43400069921458 
1691	 0.433994380711906 
1692	 0.43397416701127 
1693	 0.433956771899771 
1694	 0.433924566865597 
1695	 0.433913313685961 
1696	 0.433924731604777 
1697	 0.43390632538463 
1698	 0.433889666338387 
1699	 0.433859214535925 
1700	 0.433788642029585 
1701	 0.433750836309114 
1702	 0.433741028879846 
1703	 0.433696369145652 
1704	 0.433645612232261 
1705	 0.433591278841415 
1706	 0.433504148999083 
1707	 0.433445505686518 
1708	 0.433396020729756 
1709	 0.433360705728769 
1710	 0.433337672818362 
1711	 0.433321806166634 
1712	 0.433344710219359 
1713	 0.433314888083621 
1714	 0.433254359986901 
1715	 0.433215278685673 
1716	 0.43314254351057 
1717	 0.433116785972722 
1718	 0.433143688150406 
1719	 0.433131575915589 
1720	 0.433117344524799 
1721	 0.43309933805428 
1722	 0.433061323150652 
1723	 0.433040432591319 
1724	 0.433037995387931 
1725	 0.433008693687737 
1726	 0.432971428529831 
1727	 0.432927721307268 
1728	 0.432866983062577 
1729	 0.432810496211577 
1730	 0.432767547109719 
1731	 0.432687167359205 
1732	 0.432578963677207 
1733	 0.432484675282339 
1734	 0.432379352557609 
1735	 0.432263862190265 
1736	 0.432155611291576 
1737	 0.432028370331087 
1738	 0.431858709924943 
1739	 0.431740382952753 
1740	 0.43164329096107 
1741	 0.43154457906312 
1742	 0.431474226332864 
1743	 0.431368743638605 
1744	 0.431245880131285 
1745	 0.431134551616513 
1746	 0.43101180359346 
1747	 0.430925035234453 
1748	 0.430830184986473 
1749	 0.430715317827097 
1750	 0.430601087893958 
1751	 0.430467660188198 
1752	 0.430329216829621 
1753	 0.430223583552543 
1754	 0.430127983203875 
1755	 0.430054513044484 
1756	 0.429956166033053 
1757	 0.429818580891825 
1758	 0.429712151675773 
1759	 0.429586988019013 
1760	 0.429439394447896 
1761	 0.429334203737896 
1762	 0.429219058994427 
1763	 0.429075999586669 
1764	 0.428991832513396 
1765	 0.428947297100615 
1766	 0.428873967387012 
1767	 0.428827505432108 
1768	 0.428797477901317 
1769	 0.428688877767756 
1770	 0.42857124905498 
1771	 0.428485585264923 
1772	 0.428351675113543 
1773	 0.428217276799951 
1774	 0.428115126130892 
1775	 0.428000216642767 
1776	 0.427896858637712 
1777	 0.427835640444828 
1778	 0.427798871637504 
1779	 0.427761722387254 
1780	 0.427727754283637 
1781	 0.427706094400506 
1782	 0.427659638300334 
1783	 0.427582261969059 
1784	 0.4275215134658 
1785	 0.427450159537466 
1786	 0.427381521401017 
1787	 0.42732582123152 
1788	 0.427260727284564 
1789	 0.427176671018681 
1790	 0.427131341543718 
1791	 0.427113711544539 
1792	 0.42706452536257 
1793	 0.427035720259663 
1794	 0.426971134988705 
1795	 0.426871650478369 
1796	 0.426769978980202 
1797	 0.426641526401085 
1798	 0.426537551723685 
1799	 0.426411538688571 
1800	 0.426335508561724 
1801	 0.428202530641523 
1802	 0.428221228559338 
1803	 0.428276349844208 
1804	 0.428332864910983 
1805	 0.428363062366557 
1806	 0.428347541516829 
1807	 0.428361559188172 
1808	 0.428348159914575 
1809	 0.428314943659469 
1810	 0.428269812912587 
1811	 0.428223096023688 
1812	 0.428142313795392 
1813	 0.428067319861865 
1814	 0.427984267249241 
1815	 0.427906476416547 
1816	 0.427828962336087 
1817	 0.42772568182044 
1818	 0.427587380042351 
1819	 0.427481915582602 
1820	 0.427386423399006 
1821	 0.427268494430086 
1822	 0.427167350942736 
1823	 0.427051958112747 
1824	 0.426907321012305 
1825	 0.426723256186381 
1826	 0.426518104896871 
1827	 0.426328640997917 
1828	 0.42609382987219 
1829	 0.425828694388276 
1830	 0.425553538092133 
1831	 0.425270531067033 
1832	 0.424923744544283 
1833	 0.424556367944167 
1834	 0.424186565409676 
1835	 0.423785859811083 
1836	 0.4233991963804 
1837	 0.422998951199907 
1838	 0.42258256903847 
1839	 0.422202257952535 
1840	 0.421831915000155 
1841	 0.421453829739322 
1842	 0.42112758238195 
1843	 0.420869118901523 
1844	 0.420611214811537 
1845	 0.420362160114457 
1846	 0.420137393091316 
1847	 0.419899831617075 
1848	 0.41968451659501 
1849	 0.419549083140926 
1850	 0.419439299772129 
1851	 0.419374190095659 
1852	 0.419331197407101 
1853	 0.419330919812542 
1854	 0.419304678665979 
1855	 0.419272690334199 
1856	 0.41925818383602 
1857	 0.419215474274502 
1858	 0.419145967407216 
1859	 0.419026898145003 
1860	 0.418884369196552 
1861	 0.418715462657613 
1862	 0.418502737048295 
1863	 0.418244953596278 
1864	 0.418002770474437 
1865	 0.417753469845872 
1866	 0.417481292424815 
1867	 0.417206350338848 
1868	 0.416919875512126 
1869	 0.416594802455072 
1870	 0.416225685026659 
1871	 0.415801127532424 
1872	 0.41534092951607 
1873	 0.414832063985292 
1874	 0.414248719743171 
1875	 0.413608101683566 
1876	 0.412909341398166 
1877	 0.412115031466006 
1878	 0.411213593291507 
1879	 0.410213393105395 
1880	 0.409125068976983 
1881	 0.407935868612606 
1882	 0.406658568902037 
1883	 0.405301623821592 
1884	 0.403822807881062 
1885	 0.402250965269119 
1886	 0.400603148386572 
1887	 0.398855655990972 
1888	 0.397075866026926 
1889	 0.395202166307219 
1890	 0.393237488414251 
1891	 0.391276766458848 
1892	 0.389238030447146 
1893	 0.387209624975002 
1894	 0.385176775463272 
1895	 0.38314505366666 
1896	 0.381022626185995 
1897	 0.378903328164568 
1898	 0.376781763355594 
1899	 0.374696871163339 
1900	 0.372687034250684 
1901	 0.370747554358728 
1902	 0.368896502762495 
1903	 0.367137577392587 
1904	 0.365425703643322 
1905	 0.363782255936402 
1906	 0.362230377398524 
1907	 0.360731842365147 
1908	 0.359303589930831 
1909	 0.357941276038734 
1910	 0.356612661691611 
1911	 0.35531810304045 
1912	 0.354061000325503 
1913	 0.352882845672613 
1914	 0.351784150260287 
1915	 0.350714913807635 
1916	 0.349689751128499 
1917	 0.348731550098789 
1918	 0.347841610559444 
1919	 0.346972894349069 
1920	 0.346194648373144 
1921	 0.345490223625198 
1922	 0.344808770820929 
1923	 0.344191466373773 
1924	 0.34363334245251 
1925	 0.343124787086431 
1926	 0.34269456477607 
1927	 0.342336667949652 
1928	 0.342030780908593 
1929	 0.341775827884188 
1930	 0.34157027642676 
1931	 0.341395670088976 
1932	 0.341250476310781 
1933	 0.341152873340393 
1934	 0.341130681899713 
1935	 0.341177647235745 
1936	 0.341300300816647 
1937	 0.341456399316708 
1938	 0.341704257538971 
1939	 0.341944082932204 
1940	 0.342197189075845 
1941	 0.342497055320606 
1942	 0.342812373957131 
1943	 0.343164824104135 
1944	 0.343550920307955 
1945	 0.343943945472891 
1946	 0.344350159176461 
1947	 0.344774899856239 
1948	 0.345213383421615 
1949	 0.34568647673638 
1950	 0.346129476865789 
1951	 0.34657330129567 
1952	 0.347017707906084 
1953	 0.347441606234182 
1954	 0.347855968739572 
1955	 0.348292776620131 
1956	 0.34872643999837 
1957	 0.349169706780792 
1958	 0.349616048115345 
1959	 0.350071358449204 
1960	 0.350538226331068 
1961	 0.351011459138062 
1962	 0.351501696383073 
1963	 0.351978264317027 
1964	 0.352464706944858 
1965	 0.35292463856789 
1966	 0.353376312345568 
1967	 0.353840805491778 
1968	 0.354328674700309 
1969	 0.354836743291714 
1970	 0.35534080565417 
1971	 0.355868942886055 
1972	 0.356384980386173 
1973	 0.356895744650899 
1974	 0.357401087719301 
1975	 0.357906751318002 
1976	 0.35840845841635 
1977	 0.358914323682184 
1978	 0.359411224170174 
1979	 0.359907735911258 
1980	 0.360412894664969 
1981	 0.360898879768834 
1982	 0.361365716193404 
1983	 0.361840088999938 
1984	 0.362308153298958 
1985	 0.362779246273943 
1986	 0.363248674800966 
1987	 0.363721241080585 
1988	 0.364193062119436 
1989	 0.364667250070727 
1990	 0.365156003014284 
1991	 0.365654409870797 
1992	 0.366159671257989 
1993	 0.36668830541137 
1994	 0.367198613489606 
1995	 0.36772053733094 
1996	 0.368211464457819 
1997	 0.368682287019061 
1998	 0.369155233477653 
1999	 0.369599597140795 
2000	 0.370061355372524 
2001	 0.370535521073595 
2002	 0.370997269657052 
2003	 0.371499619136811 
2004	 0.37198792063436 
2005	 0.372444821145002 
2006	 0.372888575920753 
2007	 0.373346687565696 
2008	 0.37375388903744 
2009	 0.374223188753178 
2010	 0.374749789823897 
2011	 0.375243938669093 
2012	 0.375759265935306 
2013	 0.376247616670839 
2014	 0.376717623449686 
2015	 0.377180685885102 
2016	 0.377619629240458 
2017	 0.378074510582022 
2018	 0.378538239971544 
2019	 0.379016443067478 
2020	 0.379474313157855 
2021	 0.379945126049484 
2022	 0.380387801667654 
2023	 0.380801886294653 
2024	 0.381218180522122 
2025	 0.381617463875728 
2026	 0.382029872557783 
2027	 0.382449943948902 
2028	 0.382854956071969 
2029	 0.383259295708122 
2030	 0.383678477404848 
2031	 0.384057627572584 
2032	 0.384402795637506 
2033	 0.384769615004915 
2034	 0.385115809597443 
2035	 0.385488582906281 
2036	 0.385898062146218 
2037	 0.386276467490598 
2038	 0.386667194756006 
2039	 0.387021528955959 
2040	 0.387345770041424 
2041	 0.387650779613866 
2042	 0.387964647700384 
2043	 0.388278111123941 
2044	 0.388586370285922 
2045	 0.38889975683478 
2046	 0.389209675689458 
2047	 0.389517815415881 
2048	 0.389807494300397 
2049	 0.390096819150941 
2050	 0.390375028055535 
2051	 0.390622634867597 
2052	 0.390883525794708 
2053	 0.391149276807155 
2054	 0.391413512084048 
2055	 0.391681942956802 
2056	 0.391930680803098 
2057	 0.392202486000284 
2058	 0.392488936888127 
2059	 0.392755323189297 
2060	 0.393034537879252 
2061	 0.393284936071235 
2062	 0.393493400073722 
2063	 0.393734653655036 
2064	 0.393977450185648 
2065	 0.394226305368834 
2066	 0.394499538690397 
2067	 0.39476012968296 
2068	 0.39503098889924 
2069	 0.395263064849865 
2070	 0.395514184974785 
2071	 0.395767907078149 
2072	 0.396011298727612 
2073	 0.396271906601661 
2074	 0.39647599819766 
2075	 0.396639314063384 
2076	 0.39682014064181 
2077	 0.396952081979615 
2078	 0.397132792252156 
2079	 0.397367591752486 
2080	 0.397560036986366 
2081	 0.397750214649792 
2082	 0.397931288010799 
2083	 0.398098307863546 
2084	 0.398238789316156 
2085	 0.398397050461659 
2086	 0.398561177808225 
2087	 0.398717173721843 
2088	 0.398851158112807 
2089	 0.399030721725872 
2090	 0.399249944861944 
2091	 0.399420448022904 
2092	 0.399604164602676 
2093	 0.399765441079946 
2094	 0.399867016471998 
2095	 0.400002517600565 
2096	 0.400164177771231 
2097	 0.400308166047524 
2098	 0.400454116906158 
2099	 0.400592794896858 
2100	 0.400704236269006 
2101	 0.400782000476374 
2102	 0.400895727743549 
2103	 0.400982985076342 
2104	 0.401130549868169 
2105	 0.401326192707107 
2106	 0.401517133406171 
2107	 0.401737399946872 
2108	 0.401948117990073 
2109	 0.402175817593774 
2110	 0.402384042933354 
2111	 0.402579604833789 
2112	 0.402783499041121 
2113	 0.402988192767177 
2114	 0.403175461189218 
2115	 0.403379568662681 
2116	 0.403594477104781 
2117	 0.403805111392055 
2118	 0.404010187922402 
2119	 0.40423231862068 
2120	 0.404476029956275 
2121	 0.404694677207969 
2122	 0.404912946552233 
2123	 0.405124595547427 
2124	 0.405332211611259 
2125	 0.405516450113491 
2126	 0.405706676054801 
2127	 0.405861787921702 
2128	 0.405970587027996 
2129	 0.406081417788362 
2130	 0.406172999646323 
2131	 0.406259336788796 
2132	 0.406346491196572 
2133	 0.406429473235812 
2134	 0.406507946125515 
2135	 0.406610532788854 
2136	 0.406642846847329 
2137	 0.406653806577366 
2138	 0.406627621725241 
2139	 0.406537822273713 
2140	 0.406451741067412 
2141	 0.406347421629956 
2142	 0.406227027257294 
2143	 0.406076043159944 
2144	 0.405931498167621 
2145	 0.405783727827282 
2146	 0.405623366896622 
2147	 0.40548296565326 
2148	 0.405287962985187 
2149	 0.405086400702703 
2150	 0.404866530631584 
2151	 0.404620134590454 
2152	 0.404344362840312 
2153	 0.404065005422857 
2154	 0.40375309311082 
2155	 0.403458884045468 
2156	 0.40317870068411 
2157	 0.402866289506458 
2158	 0.402548222401777 
2159	 0.40220958042462 
2160	 0.401848712187211 
2161	 0.401468073287254 
2162	 0.401069902984212 
2163	 0.400659949312849 
2164	 0.400216914238842 
2165	 0.399768589709332 
2166	 0.39934238248812 
2167	 0.398916270905604 
2168	 0.398504861720735 
2169	 0.39811634530286 
2170	 0.397709843773594 
2171	 0.397321013592327 
2172	 0.39688849132344 
2173	 0.396421319864612 
2174	 0.395971635936136 
2175	 0.395495936659419 
2176	 0.395038046772889 
2177	 0.394595032641542 
2178	 0.394156960776218 
2179	 0.393713670032961 
2180	 0.393284842822804 
2181	 0.392881057251408 
2182	 0.392467738819731 
2183	 0.392057213019258 
2184	 0.391647891717136 
2185	 0.391228694683367 
2186	 0.39078832068377 
2187	 0.390381602734592 
2188	 0.389975451604312 
2189	 0.389598756113806 
2190	 0.389278319756074 
2191	 0.388899190210794 
2192	 0.38850223766643 
2193	 0.388110264576505 
2194	 0.38767608436693 
2195	 0.387280031506936 
2196	 0.386924213350484 
2197	 0.386550435010509 
2198	 0.386140319846957 
2199	 0.385791813751506 
2200	 0.385461549501507 
2201	 0.385154689881868 
2202	 0.38488551966107 
2203	 0.384667120787841 
2204	 0.384438897091004 
2205	 0.384234883899553 
2206	 0.384001638723771 
2207	 0.383761095333599 
2208	 0.383543417049565 
2209	 0.383298519973692 
2210	 0.383109257379049 
2211	 0.38298253962193 
2212	 0.382828220514037 
2213	 0.382690220856718 
2214	 0.3825387685244 
2215	 0.382363952483984 
2216	 0.382218061230445 
2217	 0.382098158279337 
2218	 0.381951591193623 
2219	 0.381839312898247 
2220	 0.381670076524736 
2221	 0.381438326142392 
2222	 0.38122367537014 
2223	 0.380996733681654 
2224	 0.380737771294224 
2225	 0.380498450396816 
2226	 0.380283538492686 
2227	 0.380003415057865 
2228	 0.379703045729257 
2229	 0.379382129140806 
2230	 0.379011487863976 
2231	 0.378652302945635 
2232	 0.378305409743584 
2233	 0.377902641404664 
2234	 0.377462351552089 
2235	 0.377021946135221 
2236	 0.376532697388457 
2237	 0.376069001721971 
2238	 0.375622931713238 
2239	 0.375153484216076 
2240	 0.374695860903915 
2241	 0.374197342253766 
2242	 0.373667179817226 
2243	 0.373123645574539 
2244	 0.37254791370636 
2245	 0.371966877113377 
2246	 0.371373015733756 
2247	 0.37076524842207 
2248	 0.370149189518571 
2249	 0.369512679533923 
2250	 0.368893099773519 
2251	 0.368247471997885 
2252	 0.367672473429386 
2253	 0.36713419523402 
2254	 0.366588539166819 
2255	 0.366069068128015 
2256	 0.365574335868608 
2257	 0.365040985056942 
2258	 0.364628000262277 
2259	 0.364283641861725 
2260	 0.363992306954347 
2261	 0.363768167780135 
2262	 0.363612935916799 
2263	 0.363524470017484 
2264	 0.363489614389582 
2265	 0.363547933807419 
2266	 0.363618734199788 
2267	 0.363741872050341 
2268	 0.363883857183444 
2269	 0.364040023916527 
2270	 0.364252746671964 
2271	 0.36450326904934 
2272	 0.364796781159437 
2273	 0.365130446933797 
2274	 0.365528477856417 
2275	 0.3659172990075 
2276	 0.366326081319009 
2277	 0.366748889298375 
2278	 0.367203684508498 
2279	 0.367627888080604 
2280	 0.368056951585282 
2281	 0.368493633755361 
2282	 0.368911370143866 
2283	 0.369348692364822 
2284	 0.3698386837435 
2285	 0.370260724032672 
2286	 0.370634380776651 
2287	 0.371041087473811 
2288	 0.37143212634197 
2289	 0.371823008701452 
2290	 0.372247964920964 
2291	 0.372643834122696 
2292	 0.373021913988046 
2293	 0.37337065497397 
2294	 0.373700573761362 
2295	 0.374022349801364 
2296	 0.374289050089264 
2297	 0.374599955431029 
2298	 0.374931446246492 
2299	 0.375207227220598 
2300	 0.375525305214006 
2301	 0.375817067847727 
2302	 0.376096239276657 
2303	 0.376425858965831 
2304	 0.376715972706407 
2305	 0.376991818730724 
2306	 0.377249954994877 
2307	 0.377479864178463 
2308	 0.377719004620227 
2309	 0.377970857910745 
2310	 0.378168467040284 
2311	 0.378345660122397 
2312	 0.378491669679608 
2313	 0.378590880283285 
2314	 0.378666245697856 
2315	 0.378700864470804 
2316	 0.378766798343264 
2317	 0.378796496094642 
2318	 0.378874491584559 
2319	 0.379014580846782 
2320	 0.379104703310116 
2321	 0.379183954801351 
2322	 0.379250223392318 
2323	 0.379292427406728 
2324	 0.379342436529513 
2325	 0.379412726966519 
2326	 0.379449070887845 
2327	 0.379466059865325 
2328	 0.379452377043377 
2329	 0.379484017430757 
2330	 0.379462871162354 
2331	 0.379469753581368 
2332	 0.379487902439645 
2333	 0.379442136012305 
2334	 0.379440094746514 
2335	 0.379429590599106 
2336	 0.379423858843363 
2337	 0.379400096839957 
2338	 0.379303117853366 
2339	 0.379131181184787 
2340	 0.378890539468189 
2341	 0.378761857609627 
2342	 0.37861289153192 
2343	 0.378381398116152 
2344	 0.378190846102759 
2345	 0.37792994412169 
2346	 0.377514024559561 
2347	 0.37721713529372 
2348	 0.376989204146343 
2349	 0.376722055995467 
2350	 0.376459259878811 
2351	 0.376163532237079 
2352	 0.375869745362887 
2353	 0.37550565891938 
2354	 0.375058508937973 
2355	 0.37469006712553 
2356	 0.374314712324711 
2357	 0.373948721412595 
2358	 0.373663171470587 
2359	 0.373286593065517 
2360	 0.372838562895281 
2361	 0.3724119715578 
2362	 0.371998034668817 
2363	 0.371509379327327 
2364	 0.370929274689376 
2365	 0.370445148793315 
2366	 0.369975116230998 
2367	 0.369487836000832 
2368	 0.369043184006153 
2369	 0.368610012873367 
2370	 0.368166380034265 
2371	 0.367681170637035 
2372	 0.367246031837411 
2373	 0.366816120628216 
2374	 0.366388658515362 
2375	 0.365837781316493 
2376	 0.365182782210948 
2377	 0.36458919869634 
2378	 0.363907499826426 
2379	 0.363235757447332 
2380	 0.362677360708543 
2381	 0.362085437694426 
2382	 0.361402921206515 
2383	 0.360749012337731 
2384	 0.360198830412871 
2385	 0.359646559958553 
2386	 0.359126653660802 
2387	 0.358561758263229 
2388	 0.357891203050045 
2389	 0.357278653519069 
2390	 0.35665054097239 
2391	 0.356024210150501 
2392	 0.35542593590574 
2393	 0.354772562874461 
2394	 0.354151060714374 
2395	 0.353596187089267 
2396	 0.353066124762565 
2397	 0.352445392062987 
2398	 0.35178877269333 
2399	 0.351147368003297 
2400	 0.35052148013815 
2401	 0.349949128079963 
2402	 0.349308897468405 
2403	 0.348758106883876 
2404	 0.348258287024621 
2405	 0.347677974500873 
2406	 0.347183511647892 
2407	 0.346665119845633 
2408	 0.346127407392179 
2409	 0.345578603118212 
2410	 0.345042319825313 
2411	 0.344604357192395 
2412	 0.344062027971911 
2413	 0.343530797136377 
2414	 0.343106810746082 
2415	 0.342544553450468 
2416	 0.342021412565822 
2417	 0.341553669396534 
2418	 0.341010024183761 
2419	 0.340380769093055 
2420	 0.339890011129223 
2421	 0.33947493118167 
2422	 0.338876511077885 
2423	 0.338266055589519 
2424	 0.337674961239645 
2425	 0.336899340746022 
2426	 0.33628408200316 
2427	 0.335795181957596 
2428	 0.335307366923843 
2429	 0.334847602423314 
2430	 0.334420953316193 
2431	 0.334124238218885 
2432	 0.333692125207229 
2433	 0.333192497187681 
2434	 0.332694715391282 
2435	 0.332148135336591 
2436	 0.331637337909473 
2437	 0.331131952798872 
2438	 0.330549344308168 
2439	 0.329905675784311 
2440	 0.329360885980257 
2441	 0.328856959318596 
2442	 0.328277491767638 
2443	 0.327734507785871 
2444	 0.327180135151495 
2445	 0.326459885412349 
2446	 0.325936654803576 
2447	 0.325658865320753 
2448	 0.325157056661942 
2449	 0.324615701082908 
2450	 0.323980544217463 
2451	 0.323166929649153 
2452	 0.322458245705476 
2453	 0.321770946014037 
2454	 0.321164869952207 
2455	 0.320582444303776 
2456	 0.319922510683711 
2457	 0.319245937404934 
2458	 0.318583419115819 
2459	 0.317959747498909 
2460	 0.317396290517944 
2461	 0.316788174056744 
2462	 0.316290083967062 
2463	 0.315881110868442 
2464	 0.315420472238674 
2465	 0.31509718600802 
2466	 0.314728247616101 
2467	 0.314186235808499 
2468	 0.313814492627692 
2469	 0.313579307369863 
2470	 0.313351855042106 
2471	 0.313159009752295 
2472	 0.312795368560055 
2473	 0.312220625831839 
2474	 0.311592551870027 
2475	 0.310967308566589 
2476	 0.310326125056365 
2477	 0.309887201141836 
2478	 0.309522365302488 
2479	 0.309126867491546 
2480	 0.3087579398468 
2481	 0.308209315959414 
2482	 0.307642876141422 
2483	 0.307103786942538 
2484	 0.306484272406521 
2485	 0.305889052999223 
2486	 0.30531301220137 
2487	 0.304767883052328 
2488	 0.304350327750903 
2489	 0.304010676164639 
2490	 0.303673105977424 
2491	 0.303260245368569 
2492	 0.302666010077464 
2493	 0.301981255019441 
2494	 0.301218507138692 
2495	 0.300510686009897 
2496	 0.300066283408593 
2497	 0.299680541475186 
2498	 0.299243813524069 
2499	 0.298860928044535 
2500	 0.298309539909782 
