Wavelength	LMW7 profile 200018.asd
350	 7.14747753667481E-02 
351	 7.30573652539604E-02 
352	 6.69171298097016E-02 
353	 0.052494736858901 
354	 5.82057909506553E-02 
355	 0.063916618117736 
356	 6.62545283068311E-02 
357	 6.68957689934522E-02 
358	 7.12149602465766E-02 
359	 6.59447005659188E-02 
360	 5.71849822500885E-02 
361	 6.15319788813406E-02 
362	 6.25809782428238E-02 
363	 6.28651089326931E-02 
364	 0.06357375072908 
365	 5.96078998153442E-02 
366	 6.04571567414758E-02 
367	 6.25783699088007E-02 
368	 6.12360747032747E-02 
369	 6.21728302751706E-02 
370	 6.24025446882018E-02 
371	 0.062308635192377 
372	 6.43074734409188E-02 
373	 0.064840104248214 
374	 6.49899002911171E-02 
375	 6.53915865918197E-02 
376	 6.47571403827023E-02 
377	 6.46288692797848E-02 
378	 6.62065703346624E-02 
379	 6.97332884810086E-02 
380	 7.28328517537724E-02 
381	 7.35722292499241E-02 
382	 7.27824944489655E-02 
383	 7.32266936111769E-02 
384	 7.41766550059623E-02 
385	 7.55012860438637E-02 
386	 7.73497189482829E-02 
387	 8.05398635987825E-02 
388	 8.21318040270623E-02 
389	 8.24010489046412E-02 
390	 8.29796432453313E-02 
391	 8.61590683961695E-02 
392	 8.87751919477442E-02 
393	 9.04126339573645E-02 
394	 9.30994429496961E-02 
395	 9.55632856550298E-02 
396	 9.81717847755201E-02 
397	 0.101073290355974 
398	 0.103591704397018 
399	 0.10514785880059 
400	 0.107360358372104 
401	 0.11161994399568 
402	 0.113135705821899 
403	 0.115994540297298 
404	 0.12058595309541 
405	 0.123190379791689 
406	 0.125888654771206 
407	 0.128382747999509 
408	 0.130377088067386 
409	 0.132785408199968 
410	 0.134593270945131 
411	 0.136407213328972 
412	 0.139207025092509 
413	 0.140861037673975 
414	 0.142194352253229 
415	 0.143570157978859 
416	 0.144402414818224 
417	 0.145206687207509 
418	 0.145836928909761 
419	 0.14614766449514 
420	 0.146611607379156 
421	 0.146458575032388 
422	 0.14607010273463 
423	 0.146392201687208 
424	 0.145883943065897 
425	 0.144887106694493 
426	 0.143777237817129 
427	 0.142505013952486 
428	 0.141142390136727 
429	 0.139766153093896 
430	 0.13843198902249 
431	 0.137078566967509 
432	 0.135972427390078 
433	 0.13518588227612 
434	 0.13459498083842 
435	 0.134175383176983 
436	 0.134177061794548 
437	 0.134739798382208 
438	 0.135571459319897 
439	 0.136941790428533 
440	 0.138858206060467 
441	 0.141118804818374 
442	 0.142995450621712 
443	 0.145227180319712 
444	 0.147975474874914 
445	 0.150306049234548 
446	 0.1528253193376 
447	 0.155625139033934 
448	 0.158552783509848 
449	 0.161059079558726 
450	 0.163812267835838 
451	 0.166781999567016 
452	 0.169348304985965 
453	 0.171946866775605 
454	 0.17455015403985 
455	 0.177104381869562 
456	 0.179704843405079 
457	 0.182182843076755 
458	 0.18444219986397 
459	 0.186475574855051 
460	 0.188686630111027 
461	 0.190685846012497 
462	 0.192412574510967 
463	 0.194362754439918 
464	 0.196068751406776 
465	 0.197579500238868 
466	 0.19908807096136 
467	 0.200751674733043 
468	 0.202343570511522 
469	 0.203771159518295 
470	 0.205082613205449 
471	 0.206618491053728 
472	 0.207981034669224 
473	 0.208985458153505 
474	 0.210216566514608 
475	 0.211519662673682 
476	 0.212750896421343 
477	 0.213832692508661 
478	 0.215267699802327 
479	 0.21645683160066 
480	 0.217280181164716 
481	 0.218387774474528 
482	 0.21982542093141 
483	 0.221231203997307 
484	 0.222281709498674 
485	 0.223354368243727 
486	 0.224403238734708 
487	 0.225433638145372 
488	 0.226495656175608 
489	 0.227522229241584 
490	 0.228543165689976 
491	 0.229587118448494 
492	 0.230641468315658 
493	 0.231642812466352 
494	 0.23259276241147 
495	 0.233534621408674 
496	 0.234525054440865 
497	 0.235711750076564 
498	 0.237023387580797 
499	 0.238072337844851 
500	 0.238890719685 
501	 0.239723189114932 
502	 0.240775698636399 
503	 0.241748430312439 
504	 0.242818554496687 
505	 0.243912860468025 
506	 0.244744644846188 
507	 0.24575535856881 
508	 0.246805139319795 
509	 0.247728144899258 
510	 0.248588583394357 
511	 0.249560950386123 
512	 0.250557808997199 
513	 0.251393616432747 
514	 0.252387100001103 
515	 0.253352459976992 
516	 0.254236975941669 
517	 0.255322380153804 
518	 0.256293587641451 
519	 0.257070183156813 
520	 0.257743087262563 
521	 0.25881898498697 
522	 0.259915080130961 
523	 0.260831340734313 
524	 0.261618783333293 
525	 0.262561221868444 
526	 0.263523362324752 
527	 0.264358534385253 
528	 0.265216376728282 
529	 0.266007870320576 
530	 0.266843861370485 
531	 0.267923285473577 
532	 0.268846165557515 
533	 0.269672238074413 
534	 0.270501013027745 
535	 0.271356810837983 
536	 0.27230424880694 
537	 0.273231619946464 
538	 0.273999288202307 
539	 0.274801966173939 
540	 0.275694880374468 
541	 0.276633189548926 
542	 0.277455459768998 
543	 0.278378070723506 
544	 0.279307569672497 
545	 0.280132501101266 
546	 0.281028865720508 
547	 0.281918017078304 
548	 0.282798762865441 
549	 0.283734582941988 
550	 0.284587795437307 
551	 0.285430139416125 
552	 0.286334524725266 
553	 0.287270121624689 
554	 0.288271076995769 
555	 0.289281415921251 
556	 0.290217656197178 
557	 0.291223509176131 
558	 0.292239376939795 
559	 0.293233139658671 
560	 0.294265771768019 
561	 0.295281677106853 
562	 0.296174927219425 
563	 0.296919811328951 
564	 0.298004732686513 
565	 0.299054444393465 
566	 0.299996513091411 
567	 0.301149919106195 
568	 0.302343009552651 
569	 0.303510908832673 
570	 0.304639949356307 
571	 0.305801909122431 
572	 0.307041427205501 
573	 0.308276826647574 
574	 0.3093424510584 
575	 0.310248109580807 
576	 0.311230512664916 
577	 0.312388207616565 
578	 0.313441129305484 
579	 0.314544982858657 
580	 0.315739944575174 
581	 0.317017538927902 
582	 0.318360234428423 
583	 0.319738145382854 
584	 0.321066876658111 
585	 0.322188164748883 
586	 0.32329253989801 
587	 0.324379707013747 
588	 0.325409541039431 
589	 0.326423630742076 
590	 0.327479011668284 
591	 0.328576337610793 
592	 0.329666884717397 
593	 0.330734197189985 
594	 0.331794399271438 
595	 0.332900591405874 
596	 0.334199461795622 
597	 0.335526990379794 
598	 0.336820839216934 
599	 0.338072182945318 
600	 0.339180179225116 
601	 0.340203985068046 
602	 0.341190335774555 
603	 0.342134583995852 
604	 0.342997683372894 
605	 0.343838920553758 
606	 0.344731942858765 
607	 0.345621902479608 
608	 0.346455527990573 
609	 0.347264832740871 
610	 0.348176513793007 
611	 0.349083854519546 
612	 0.350000680026747 
613	 0.35092774944573 
614	 0.351741995882734 
615	 0.352502978097458 
616	 0.353210570421732 
617	 0.353830161945237 
618	 0.354477252898751 
619	 0.355103344966446 
620	 0.355673825036969 
621	 0.356234923404893 
622	 0.356779206204798 
623	 0.357298989709549 
624	 0.357799888186464 
625	 0.358386348552889 
626	 0.358928040338031 
627	 0.35936641864105 
628	 0.359759468629789 
629	 0.360279315614771 
630	 0.360789350049774 
631	 0.361152091999039 
632	 0.361595648628812 
633	 0.361984917713009 
634	 0.362358347546913 
635	 0.362878979194728 
636	 0.363223384324388 
637	 0.363622282865348 
638	 0.364192064408434 
639	 0.364523115747831 
640	 0.364901669786028 
641	 0.365287688606711 
642	 0.36554735331196 
643	 0.366022094813551 
644	 0.366517067601365 
645	 0.366903681459498 
646	 0.36721897510204 
647	 0.36765827858431 
648	 0.36811309421585 
649	 0.368452615037667 
650	 0.368864667617615 
651	 0.369343613354854 
652	 0.369815660899807 
653	 0.37017003312756 
654	 0.370651362428749 
655	 0.371129747939945 
656	 0.371497313662533 
657	 0.37185636282312 
658	 0.372345390705446 
659	 0.372865498150179 
660	 0.373238983129353 
661	 0.373688288704237 
662	 0.374223812848292 
663	 0.374775270423214 
664	 0.375187361742317 
665	 0.375571262266337 
666	 0.376022905685268 
667	 0.376584247411663 
668	 0.377091284717172 
669	 0.37766029960333 
670	 0.378234891950629 
671	 0.378629807978108 
672	 0.379109242547662 
673	 0.379659588997866 
674	 0.38023143698934 
675	 0.380820326748026 
676	 0.381392008087183 
677	 0.381897202141425 
678	 0.382319735834334 
679	 0.38288786753117 
680	 0.383457452065153 
681	 0.383986214399972 
682	 0.384608697899876 
683	 0.385183727519703 
684	 0.385759059532209 
685	 0.38637658946472 
686	 0.386868949773624 
687	 0.387372988542347 
688	 0.38793708806206 
689	 0.388531285105182 
690	 0.389033619570463 
691	 0.389519559058281 
692	 0.3900705931085 
693	 0.390739402205602 
694	 0.391268047851569 
695	 0.391734498001577 
696	 0.392293076819704 
697	 0.392733356697752 
698	 0.393270014600744 
699	 0.393936466307246 
700	 0.394550196260394 
701	 0.394976562570033 
702	 0.395372146019701 
703	 0.395869724228309 
704	 0.396345991303917 
705	 0.396779455145136 
706	 0.397203881339304 
707	 0.397674201810034 
708	 0.39814314577209 
709	 0.398561327656779 
710	 0.398942756108049 
711	 0.399393851100411 
712	 0.399760879986766 
713	 0.400093369465702 
714	 0.400468284195338 
715	 0.400836761119014 
716	 0.401180517223215 
717	 0.401491187325702 
718	 0.401767708628804 
719	 0.40200345674198 
720	 0.402199213554982 
721	 0.402375767542039 
722	 0.402587050600088 
723	 0.40284485329095 
724	 0.403069095480063 
725	 0.40318361078772 
726	 0.403302694955859 
727	 0.403433151567032 
728	 0.403513739353784 
729	 0.403442009816918 
730	 0.403474336571174 
731	 0.403511626020574 
732	 0.403456682684062 
733	 0.40337684930165 
734	 0.403282737671161 
735	 0.403172786014079 
736	 0.403049047052549 
737	 0.402994594344261 
738	 0.402846151352931 
739	 0.402584470795663 
740	 0.402364498047225 
741	 0.402227592107394 
742	 0.402016988790153 
743	 0.401630091948892 
744	 0.401219103409618 
745	 0.400845170167307 
746	 0.400505379777589 
747	 0.400149069619858 
748	 0.399668805576446 
749	 0.399266739923969 
750	 0.398938444035982 
751	 0.398405726737341 
752	 0.397867328754899 
753	 0.397341987509458 
754	 0.39680803229673 
755	 0.396242275519061 
756	 0.395723261222832 
757	 0.395172568101495 
758	 0.394475688625377 
759	 0.393892517762085 
760	 0.393246777395669 
761	 0.392516943281943 
762	 0.391918982254939 
763	 0.391299590225022 
764	 0.390600807482989 
765	 0.389831808851661 
766	 0.389114377605508 
767	 0.388469691879501 
768	 0.387802802616336 
769	 0.386995406005133 
770	 0.386231427997353 
771	 0.385515744123698 
772	 0.384805369052189 
773	 0.384024013501473 
774	 0.383241089404253 
775	 0.382469776272124 
776	 0.381707018397931 
777	 0.380941234996396 
778	 0.380195630205023 
779	 0.37941350756042 
780	 0.378533354925976 
781	 0.377690856904215 
782	 0.37695855390419 
783	 0.376258374394997 
784	 0.37538020931487 
785	 0.37459780537821 
786	 0.373876977870221 
787	 0.373123713708075 
788	 0.372228023751923 
789	 0.371480688888401 
790	 0.370783011072235 
791	 0.369945128786958 
792	 0.369152224945874 
793	 0.368458287455305 
794	 0.367778257703193 
795	 0.366939337230776 
796	 0.366161861370489 
797	 0.365458113898218 
798	 0.364754737230544 
799	 0.363880975086023 
800	 0.363101393852328 
801	 0.362436237810158 
802	 0.361788425049024 
803	 0.36093268787439 
804	 0.360159598628175 
805	 0.359513158739826 
806	 0.358866235417188 
807	 0.358150825582386 
808	 0.357397326657469 
809	 0.356662663080425 
810	 0.35601175765709 
811	 0.355414004389501 
812	 0.354801110455426 
813	 0.354131877911794 
814	 0.353458697198041 
815	 0.352788806128572 
816	 0.352145274411275 
817	 0.351539269779828 
818	 0.350892496283843 
819	 0.350295370979852 
820	 0.349720715520673 
821	 0.349053432191287 
822	 0.348481049945992 
823	 0.347914943990697 
824	 0.347302593664837 
825	 0.346719853808954 
826	 0.346169267213121 
827	 0.345667468701697 
828	 0.345202289605176 
829	 0.344682859147827 
830	 0.344028128459618 
831	 0.343361344315544 
832	 0.342865931538569 
833	 0.342414647850858 
834	 0.341966229062808 
835	 0.341511330500415 
836	 0.341061455725376 
837	 0.340511726051523 
838	 0.340048092715509 
839	 0.339700615429416 
840	 0.339159359708443 
841	 0.338675746878179 
842	 0.338202132019698 
843	 0.337703553544464 
844	 0.337460997160133 
845	 0.337151650015339 
846	 0.336724623950317 
847	 0.336270384651117 
848	 0.335832045221109 
849	 0.335447619050881 
850	 0.335089791071777 
851	 0.334689748423989 
852	 0.334343215753563 
853	 0.334074606750183 
854	 0.333824162348685 
855	 0.333436463558739 
856	 0.333143246056069 
857	 0.332835569158542 
858	 0.332440190520811 
859	 0.332182646963565 
860	 0.331939228199934 
861	 0.331664834059327 
862	 0.331365591382053 
863	 0.331153562385292 
864	 0.330850758158469 
865	 0.330532187970998 
866	 0.330383450654232 
867	 0.33015268705396 
868	 0.329956072415076 
869	 0.329803500989837 
870	 0.329570111229434 
871	 0.329236978779039 
872	 0.328999265255539 
873	 0.328940373984732 
874	 0.328910120710042 
875	 0.328834751725046 
876	 0.328659426749158 
877	 0.328396919698008 
878	 0.328176940513972 
879	 0.328144621257751 
880	 0.328093554029447 
881	 0.327840329082142 
882	 0.327857082093353 
883	 0.327884006133826 
884	 0.327744058581542 
885	 0.327415424629948 
886	 0.327376104391998 
887	 0.327471863092754 
888	 0.327494782252809 
889	 0.327291020277183 
890	 0.327205786021374 
891	 0.327187069342821 
892	 0.327219576102825 
893	 0.327380660405305 
894	 0.327297163806511 
895	 0.327171697478009 
896	 0.327191825966146 
897	 0.327300257890775 
898	 0.327380473450025 
899	 0.327400568909765 
900	 0.327383249160416 
901	 0.327408155182025 
902	 0.327488108338678 
903	 0.32760575023543 
904	 0.327728691149788 
905	 0.327829940635296 
906	 0.327918571915278 
907	 0.328052589504674 
908	 0.328266838912157 
909	 0.328367022393179 
910	 0.328528727345854 
911	 0.328711489701285 
912	 0.328764283460461 
913	 0.328894544497677 
914	 0.329071203359906 
915	 0.32926477218544 
916	 0.329459569617311 
917	 0.329563404561877 
918	 0.329754659035136 
919	 0.33009595190412 
920	 0.330466039543362 
921	 0.330717359938919 
922	 0.33084541831643 
923	 0.330955984658207 
924	 0.331248840910412 
925	 0.331570210067898 
926	 0.331886471790567 
927	 0.332199704420965 
928	 0.332530483904491 
929	 0.332838587845579 
930	 0.333076835158154 
931	 0.333280092565783 
932	 0.333671473539547 
933	 0.333903240786039 
934	 0.334137119986059 
935	 0.334575298566684 
936	 0.335098440664012 
937	 0.335485938824171 
938	 0.335770635562477 
939	 0.336095764337814 
940	 0.33661629745065 
941	 0.337098138346315 
942	 0.337505962160209 
943	 0.337894667143714 
944	 0.338293042636669 
945	 0.338757946488097 
946	 0.339273631794543 
947	 0.339774986170176 
948	 0.340174466899096 
949	 0.340492487777071 
950	 0.340870004904316 
951	 0.341438045124564 
952	 0.341996778573942 
953	 0.342604756797389 
954	 0.343080652938278 
955	 0.343294566903559 
956	 0.344106983278218 
957	 0.344734493653171 
958	 0.345116558280789 
959	 0.345653631859797 
960	 0.346245622611427 
961	 0.34684461494183 
962	 0.347418279533247 
963	 0.347946485873194 
964	 0.348395549322749 
965	 0.348872213153865 
966	 0.349438011250016 
967	 0.35010643729002 
968	 0.350882064440069 
969	 0.351607109086552 
970	 0.352218023009158 
971	 0.352756989342344 
972	 0.353384595003768 
973	 0.354045998131165 
974	 0.354744117786191 
975	 0.355514502500239 
976	 0.35629914623878 
977	 0.356984756005073 
978	 0.357586985534466 
979	 0.358213755493725 
980	 0.358965242495293 
981	 0.359511177562681 
982	 0.3599982248946 
983	 0.360770693594347 
984	 0.361451470412867 
985	 0.362179094462275 
986	 0.362941489420879 
987	 0.363662544812401 
988	 0.364494057611124 
989	 0.365179506541226 
990	 0.365749472961262 
991	 0.36639702203117 
992	 0.367255678245783 
993	 0.367909342849305 
994	 0.36861255945727 
995	 0.369674015542188 
996	 0.370299623547424 
997	 0.370924705390567 
998	 0.371638359765097 
999	 0.372398325991731 
1000	 0.373268353388593 
1001	 0.378992332941171 
1002	 0.379695278966397 
1003	 0.380474016448071 
1004	 0.381192297208201 
1005	 0.381947626305621 
1006	 0.382669863029146 
1007	 0.383338839888346 
1008	 0.383980627188374 
1009	 0.384712474897881 
1010	 0.385430878142154 
1011	 0.38611427196199 
1012	 0.386801720155887 
1013	 0.387456121288725 
1014	 0.388107751571818 
1015	 0.388767729762817 
1016	 0.389436494302874 
1017	 0.390110309798871 
1018	 0.390783941851625 
1019	 0.391447977476533 
1020	 0.392127896070984 
1021	 0.392781638531401 
1022	 0.393408612414247 
1023	 0.394025516394951 
1024	 0.394635833338533 
1025	 0.395283339761754 
1026	 0.395957851088418 
1027	 0.396612131120837 
1028	 0.397281010215529 
1029	 0.397953873388534 
1030	 0.398539107279754 
1031	 0.399151867972476 
1032	 0.399766601974742 
1033	 0.400411333385852 
1034	 0.401023490392755 
1035	 0.401718457356558 
1036	 0.402446928240818 
1037	 0.4031181391448 
1038	 0.40379309017059 
1039	 0.404458955681161 
1040	 0.405046306248477 
1041	 0.405643030490924 
1042	 0.40630763903679 
1043	 0.406968293169268 
1044	 0.407642202637731 
1045	 0.408370910485746 
1046	 0.409077886834611 
1047	 0.40970078804158 
1048	 0.410323274524475 
1049	 0.410913991401097 
1050	 0.411542342139943 
1051	 0.412255392505906 
1052	 0.412940978123928 
1053	 0.413632993469502 
1054	 0.414304686820182 
1055	 0.414833502605861 
1056	 0.415404270930846 
1057	 0.415994835141445 
1058	 0.416540345370594 
1059	 0.417147700245325 
1060	 0.417860970058602 
1061	 0.418454288315803 
1062	 0.419001702520868 
1063	 0.419609334422083 
1064	 0.420126653084248 
1065	 0.420686054773251 
1066	 0.421252364064166 
1067	 0.421739242575584 
1068	 0.422222087417324 
1069	 0.422671164986116 
1070	 0.423124483953474 
1071	 0.423558191503634 
1072	 0.42403200851017 
1073	 0.424518890586174 
1074	 0.424993463098874 
1075	 0.425497179568043 
1076	 0.425960090994311 
1077	 0.426392052314344 
1078	 0.426796557109686 
1079	 0.427156484714719 
1080	 0.427509885827384 
1081	 0.427857934348252 
1082	 0.428232334630017 
1083	 0.428601445884707 
1084	 0.428984443185201 
1085	 0.429355611643438 
1086	 0.429708062516906 
1087	 0.43007817177562 
1088	 0.430467577220886 
1089	 0.430829121134521 
1090	 0.431180436487281 
1091	 0.431564012719614 
1092	 0.431908605714413 
1093	 0.432288863694441 
1094	 0.432673814730942 
1095	 0.432977250974812 
1096	 0.433305087185656 
1097	 0.433684479342584 
1098	 0.434063896369185 
1099	 0.434476500073666 
1100	 0.434883916889324 
1101	 0.435277308571669 
1102	 0.435693878145641 
1103	 0.436138947741891 
1104	 0.436581418799339 
1105	 0.436970140047797 
1106	 0.437383522328699 
1107	 0.437752878530607 
1108	 0.438126646267036 
1109	 0.43856342339995 
1110	 0.439005870234331 
1111	 0.439457001673018 
1112	 0.439932337636672 
1113	 0.440383494493401 
1114	 0.440837923913933 
1115	 0.441290931896565 
1116	 0.44172314223607 
1117	 0.442184135138808 
1118	 0.442668496455878 
1119	 0.443133883580895 
1120	 0.443612785812616 
1121	 0.444063973282585 
1122	 0.444489801017572 
1123	 0.444911306088683 
1124	 0.445374955370283 
1125	 0.445858654939507 
1126	 0.446342478902516 
1127	 0.446852393150694 
1128	 0.447350135808387 
1129	 0.447857234418636 
1130	 0.448328736909918 
1131	 0.448768941184232 
1132	 0.449248441492512 
1133	 0.449729876154938 
1134	 0.450198977297865 
1135	 0.450691630550539 
1136	 0.451177102120687 
1137	 0.451647292085552 
1138	 0.452083097266746 
1139	 0.452537270360041 
1140	 0.453008032943966 
1141	 0.453459571957562 
1142	 0.453902601924192 
1143	 0.45434122052545 
1144	 0.454763825518146 
1145	 0.455201832761864 
1146	 0.455646953488588 
1147	 0.456073746219504 
1148	 0.456509463651867 
1149	 0.456929335718408 
1150	 0.457320301932362 
1151	 0.457718579721706 
1152	 0.458145806960546 
1153	 0.458569015887716 
1154	 0.458982163850281 
1155	 0.45941419926319 
1156	 0.459812935477799 
1157	 0.460184566721405 
1158	 0.460557816055333 
1159	 0.460916715157369 
1160	 0.461284274273185 
1161	 0.461653816764085 
1162	 0.462015065337971 
1163	 0.462375377031829 
1164	 0.462734082470742 
1165	 0.463083858864424 
1166	 0.463431579926889 
1167	 0.46380502624832 
1168	 0.464171250063779 
1169	 0.464529766311688 
1170	 0.464891096616473 
1171	 0.465246912909408 
1172	 0.465603590923608 
1173	 0.465934361834738 
1174	 0.466259595954669 
1175	 0.46656897107752 
1176	 0.466831206731344 
1177	 0.467133249540615 
1178	 0.467443050147519 
1179	 0.467763274151524 
1180	 0.468121336646813 
1181	 0.468450539440093 
1182	 0.468779306484664 
1183	 0.469093667369556 
1184	 0.469391935990036 
1185	 0.469657887275737 
1186	 0.469959120587301 
1187	 0.470270724652457 
1188	 0.470565974402637 
1189	 0.470856324106396 
1190	 0.471167852751203 
1191	 0.471480032094532 
1192	 0.471787356681288 
1193	 0.472120885263017 
1194	 0.472439410549549 
1195	 0.472731612856913 
1196	 0.473035313945782 
1197	 0.473365798831145 
1198	 0.473667088140132 
1199	 0.47395572402082 
1200	 0.47422784546901 
1201	 0.474513589791783 
1202	 0.474789776798339 
1203	 0.475067612306293 
1204	 0.475348374874439 
1205	 0.475637283545269 
1206	 0.475925750643454 
1207	 0.476210790588461 
1208	 0.47650954738711 
1209	 0.476798688067314 
1210	 0.477066991493737 
1211	 0.477351624305706 
1212	 0.477654552662912 
1213	 0.477943961676963 
1214	 0.478247964490878 
1215	 0.478524668642902 
1216	 0.478785408117055 
1217	 0.479018397102128 
1218	 0.479280398034628 
1219	 0.479530688086415 
1220	 0.479800022208539 
1221	 0.480103541452166 
1222	 0.480376096083378 
1223	 0.480643524448048 
1224	 0.48089962976332 
1225	 0.481131323011509 
1226	 0.481382474308104 
1227	 0.481641436365391 
1228	 0.481889540697027 
1229	 0.482130373806604 
1230	 0.482388983948677 
1231	 0.482655142881853 
1232	 0.482911276747948 
1233	 0.483169538108559 
1234	 0.483444990999923 
1235	 0.483705614065611 
1236	 0.483945321947572 
1237	 0.484206911400445 
1238	 0.484494708954515 
1239	 0.484748652144391 
1240	 0.484984610890414 
1241	 0.485234258658895 
1242	 0.485469287685164 
1243	 0.485716843105259 
1244	 0.485991471865108 
1245	 0.486244048612138 
1246	 0.486478154926248 
1247	 0.486725573318271 
1248	 0.486970116305784 
1249	 0.487223964476735 
1250	 0.487478321952183 
1251	 0.487720127856227 
1252	 0.487944239442501 
1253	 0.488148038273234 
1254	 0.488349460352513 
1255	 0.488530039501918 
1256	 0.488730988586624 
1257	 0.488936406037141 
1258	 0.489137573380167 
1259	 0.489346551851128 
1260	 0.48954918775925 
1261	 0.48975034148016 
1262	 0.489940303894214 
1263	 0.490108228035203 
1264	 0.490305520664704 
1265	 0.490505989190447 
1266	 0.490711853168598 
1267	 0.49093390270324 
1268	 0.491181120345483 
1269	 0.491402748604945 
1270	 0.491604394262516 
1271	 0.491833355228663 
1272	 0.49205835361366 
1273	 0.492314517587201 
1274	 0.492595136179874 
1275	 0.49287992803075 
1276	 0.493201034336627 
1277	 0.493488399628845 
1278	 0.49376813723404 
1279	 0.49404737747355 
1280	 0.494305491537426 
1281	 0.494576188967152 
1282	 0.494864559453707 
1283	 0.495135851108851 
1284	 0.495417681803877 
1285	 0.495666791180298 
1286	 0.495898743809025 
1287	 0.496100234669155 
1288	 0.496286578034997 
1289	 0.496449226535197 
1290	 0.496591090753979 
1291	 0.496704600571235 
1292	 0.496828454347648 
1293	 0.496944079080659 
1294	 0.497029931800226 
1295	 0.497102216059941 
1296	 0.497171480256319 
1297	 0.497205718913331 
1298	 0.497253838955911 
1299	 0.497335705421566 
1300	 0.497370942560591 
1301	 0.497358640825132 
1302	 0.497367049829949 
1303	 0.497365193966088 
1304	 0.497365522856226 
1305	 0.497370475997769 
1306	 0.497375496249877 
1307	 0.497347060809136 
1308	 0.497285239873752 
1309	 0.497236704017985 
1310	 0.497165544011773 
1311	 0.497130793123569 
1312	 0.497113100495451 
1313	 0.497092324918529 
1314	 0.497093574055761 
1315	 0.49707371527337 
1316	 0.497002118968903 
1317	 0.497018138039705 
1318	 0.497082370263075 
1319	 0.497129902834076 
1320	 0.497250973705308 
1321	 0.497315790771465 
1322	 0.497322665293892 
1323	 0.497346743765759 
1324	 0.497433457868216 
1325	 0.49749703226986 
1326	 0.497580698381873 
1327	 0.497672338441901 
1328	 0.497706028853298 
1329	 0.497741007043458 
1330	 0.497804158085596 
1331	 0.497861005806913 
1332	 0.497969545632314 
1333	 0.49812335876868 
1334	 0.498259733919841 
1335	 0.498418785366151 
1336	 0.498577492516233 
1337	 0.498726917616202 
1338	 0.498891611603952 
1339	 0.499080776146183 
1340	 0.499254836242314 
1341	 0.499445973918635 
1342	 0.499602660560917 
1343	 0.49974678172281 
1344	 0.49987232542261 
1345	 0.499965542828736 
1346	 0.500056967455558 
1347	 0.500169634497087 
1348	 0.500288668321084 
1349	 0.500409859533031 
1350	 0.500510041344591 
1351	 0.500588755197461 
1352	 0.50062465204631 
1353	 0.50070489733099 
1354	 0.500794155319861 
1355	 0.50086920370694 
1356	 0.500964505402672 
1357	 0.501038852725675 
1358	 0.501074685612848 
1359	 0.501147106593129 
1360	 0.501234084111965 
1361	 0.501323465179661 
1362	 0.501421459344104 
1363	 0.501525899725405 
1364	 0.501633200462517 
1365	 0.501749499707341 
1366	 0.50187063766759 
1367	 0.502011500386969 
1368	 0.502172570605495 
1369	 0.502302747090684 
1370	 0.502429104417623 
1371	 0.502544333309371 
1372	 0.50258899064848 
1373	 0.502632668099341 
1374	 0.502646081461532 
1375	 0.502620590184221 
1376	 0.502585157457097 
1377	 0.502534439647569 
1378	 0.502466543990735 
1379	 0.502368345536396 
1380	 0.502287917544548 
1381	 0.502199018238118 
1382	 0.502110818327462 
1383	 0.502050842141404 
1384	 0.50193369867066 
1385	 0.501817628821279 
1386	 0.501642695218834 
1387	 0.501410078926166 
1388	 0.501161946093227 
1389	 0.500898638194469 
1390	 0.500571341790078 
1391	 0.500206826185752 
1392	 0.499801942864231 
1393	 0.499317574334846 
1394	 0.498817488438437 
1395	 0.498293204293378 
1396	 0.497764079098308 
1397	 0.49724852810963 
1398	 0.496735800383743 
1399	 0.496216312101489 
1400	 0.495704101059552 
1401	 0.495179160679789 
1402	 0.494633421971043 
1403	 0.494108857131163 
1404	 0.493579313924347 
1405	 0.493076256307292 
1406	 0.492597339083543 
1407	 0.492119089134226 
1408	 0.491631144684781 
1409	 0.491187220071047 
1410	 0.490715474273532 
1411	 0.490351052426978 
1412	 0.490011715354454 
1413	 0.489798863710605 
1414	 0.489730767365844 
1415	 0.489740847650424 
1416	 0.489882980021811 
1417	 0.490095142579468 
1418	 0.49031560553193 
1419	 0.490556036163081 
1420	 0.490793446250093 
1421	 0.490995004874755 
1422	 0.491145894807246 
1423	 0.491252566234442 
1424	 0.491292045893552 
1425	 0.491266075061366 
1426	 0.491200660805341 
1427	 0.491058972318721 
1428	 0.490929273880816 
1429	 0.490765222702483 
1430	 0.490594414030783 
1431	 0.490420359294676 
1432	 0.490218014939785 
1433	 0.489984851039203 
1434	 0.489745106020669 
1435	 0.489461165294245 
1436	 0.489220754856165 
1437	 0.488984212009523 
1438	 0.488768273995537 
1439	 0.488589497703239 
1440	 0.488410575994429 
1441	 0.488194733919504 
1442	 0.487965328161081 
1443	 0.487742489992111 
1444	 0.487512478151977 
1445	 0.487296592403369 
1446	 0.487065266461046 
1447	 0.486803533233276 
1448	 0.486519271394866 
1449	 0.486200261716222 
1450	 0.485875352417117 
1451	 0.48552252320403 
1452	 0.485138664449826 
1453	 0.484741378034774 
1454	 0.484330758096284 
1455	 0.483890662824473 
1456	 0.48342508118744 
1457	 0.482939716810653 
1458	 0.482418249249633 
1459	 0.481900395972707 
1460	 0.481354443978558 
1461	 0.480833144428987 
1462	 0.480308653782417 
1463	 0.479807751408373 
1464	 0.479313365123303 
1465	 0.478842650300378 
1466	 0.47836771155222 
1467	 0.477953313089716 
1468	 0.477552488460916 
1469	 0.477227804539279 
1470	 0.476958938670089 
1471	 0.476755606206868 
1472	 0.47660072054935 
1473	 0.476517603210636 
1474	 0.476499094941653 
1475	 0.476546324885609 
1476	 0.476676196533779 
1477	 0.476868228806435 
1478	 0.477135409837937 
1479	 0.477438698862215 
1480	 0.477780064855902 
1481	 0.478182824800507 
1482	 0.478557969321263 
1483	 0.478949487499999 
1484	 0.479333202763434 
1485	 0.479715727819612 
1486	 0.480081806640063 
1487	 0.480458923232332 
1488	 0.480800429335725 
1489	 0.481129272627739 
1490	 0.481420967646177 
1491	 0.4816925575471 
1492	 0.481926441985661 
1493	 0.482112139069559 
1494	 0.482291432991866 
1495	 0.482430523860361 
1496	 0.48257841292663 
1497	 0.482720163751063 
1498	 0.482859282530753 
1499	 0.483005346942255 
1500	 0.483123314735465 
1501	 0.483224885534393 
1502	 0.483312752154811 
1503	 0.483368516106288 
1504	 0.483440583157221 
1505	 0.483502223783228 
1506	 0.483560659403849 
1507	 0.483631608722936 
1508	 0.483665725035967 
1509	 0.483694316432161 
1510	 0.483738158295 
1511	 0.483759692592893 
1512	 0.483795445744722 
1513	 0.483865638072109 
1514	 0.483928308535596 
1515	 0.483987540916866 
1516	 0.484068023871266 
1517	 0.484111841888003 
1518	 0.484123649309894 
1519	 0.484151794938305 
1520	 0.484163619773134 
1521	 0.484201121929078 
1522	 0.48425912686484 
1523	 0.484304646494407 
1524	 0.484351526369699 
1525	 0.484408677762112 
1526	 0.484464156959061 
1527	 0.484520256561338 
1528	 0.484597396337754 
1529	 0.484650925550377 
1530	 0.484674283294332 
1531	 0.484733714548422 
1532	 0.484805189681041 
1533	 0.484872078855624 
1534	 0.484962097461778 
1535	 0.485037420750802 
1536	 0.485098371301303 
1537	 0.485165630018248 
1538	 0.48524161355306 
1539	 0.485302128073105 
1540	 0.485342018612614 
1541	 0.485402342245707 
1542	 0.485487826437203 
1543	 0.48553537374278 
1544	 0.485565973398395 
1545	 0.485605955694301 
1546	 0.485623479464108 
1547	 0.485632690998156 
1548	 0.485683635426404 
1549	 0.485758731060274 
1550	 0.485817806325546 
1551	 0.485890822414752 
1552	 0.485990814087011 
1553	 0.486077776535982 
1554	 0.486175859831801 
1555	 0.486299056595223 
1556	 0.486412241978099 
1557	 0.486516650701525 
1558	 0.486605502783569 
1559	 0.486666039982905 
1560	 0.486718457332506 
1561	 0.486730294161033 
1562	 0.486789749413984 
1563	 0.486849427190784 
1564	 0.486941142410377 
1565	 0.487075771331955 
1566	 0.487179143676222 
1567	 0.487288643998734 
1568	 0.487392519049814 
1569	 0.48749271733209 
1570	 0.487565995490638 
1571	 0.487631737917415 
1572	 0.487692544919067 
1573	 0.487722145483213 
1574	 0.487769000117142 
1575	 0.487825017135216 
1576	 0.487879537906441 
1577	 0.487928909375917 
1578	 0.48798159666096 
1579	 0.488042367501534 
1580	 0.488099286946567 
1581	 0.488155057594861 
1582	 0.488207146815353 
1583	 0.488252741818749 
1584	 0.488308604401076 
1585	 0.488367596913067 
1586	 0.488423782249458 
1587	 0.488509607834023 
1588	 0.488548565485032 
1589	 0.488546929999102 
1590	 0.488564161273261 
1591	 0.488561188474185 
1592	 0.488569297159728 
1593	 0.488590681752313 
1594	 0.488611867573398 
1595	 0.48863352852163 
1596	 0.488652409792576 
1597	 0.488684787393124 
1598	 0.488703265780416 
1599	 0.488707879125962 
1600	 0.488711531452126 
1601	 0.488700888608351 
1602	 0.488703370784054 
1603	 0.488702552111821 
1604	 0.488714680327118 
1605	 0.488740519918151 
1606	 0.488771170141413 
1607	 0.488813964010134 
1608	 0.488865001973228 
1609	 0.488891242584097 
1610	 0.48890897936446 
1611	 0.488903796399072 
1612	 0.488897694836378 
1613	 0.488903681673971 
1614	 0.488905885472093 
1615	 0.488933227183381 
1616	 0.488963072412717 
1617	 0.488985250991317 
1618	 0.489028110061647 
1619	 0.489050229585532 
1620	 0.489045663545563 
1621	 0.489043869769602 
1622	 0.489035890798498 
1623	 0.48901909306832 
1624	 0.488990784590044 
1625	 0.488966734098259 
1626	 0.488932321561299 
1627	 0.488914905508281 
1628	 0.488902520272449 
1629	 0.48889858351695 
1630	 0.488910919727477 
1631	 0.488901936792304 
1632	 0.48889355039887 
1633	 0.488873827366688 
1634	 0.488836672246788 
1635	 0.488811979542767 
1636	 0.488794990468032 
1637	 0.488755577147856 
1638	 0.488688748931112 
1639	 0.488675793675115 
1640	 0.488671163005406 
1641	 0.488675800729872 
1642	 0.488726699264964 
1643	 0.488753344432714 
1644	 0.488768267695923 
1645	 0.488778854323885 
1646	 0.488802502697644 
1647	 0.488797715968862 
1648	 0.488763160685925 
1649	 0.488743095503124 
1650	 0.488714462540082 
1651	 0.488699255575249 
1652	 0.488697493390748 
1653	 0.488677884296669 
1654	 0.488654359349114 
1655	 0.488632830487828 
1656	 0.488606201655552 
1657	 0.488571145687054 
1658	 0.48853240218612 
1659	 0.488501250267644 
1660	 0.488463837471869 
1661	 0.488424441416309 
1662	 0.488393631114723 
1663	 0.488359665448442 
1664	 0.488312209944952 
1665	 0.488275003274354 
1666	 0.488252664630721 
1667	 0.488217995061697 
1668	 0.488190021925317 
1669	 0.488130586171432 
1670	 0.488050524835172 
1671	 0.487974831310231 
1672	 0.487857667840978 
1673	 0.487794867202958 
1674	 0.487755089808587 
1675	 0.487730497208861 
1676	 0.487742285468994 
1677	 0.487742368632614 
1678	 0.487753244234482 
1679	 0.487760015929978 
1680	 0.487791471310234 
1681	 0.48776411107541 
1682	 0.487703661314472 
1683	 0.487649696440257 
1684	 0.487525641518497 
1685	 0.487489680525354 
1686	 0.487516994535216 
1687	 0.487512284730317 
1688	 0.487548411217245 
1689	 0.48753768109551 
1690	 0.487479839885764 
1691	 0.487450036095762 
1692	 0.48742331398843 
1693	 0.487387529934531 
1694	 0.48736308318026 
1695	 0.487315820048453 
1696	 0.487245599173901 
1697	 0.48718325375505 
1698	 0.487106719228941 
1699	 0.487048916737993 
1700	 0.487010899027859 
1701	 0.486947913835611 
1702	 0.486879245780977 
1703	 0.486815174834055 
1704	 0.486742103622668 
1705	 0.486659986835742 
1706	 0.486586384204963 
1707	 0.486496804328059 
1708	 0.486368621443173 
1709	 0.486282013993341 
1710	 0.486208513066995 
1711	 0.486144162728203 
1712	 0.486108965102107 
1713	 0.486055792479495 
1714	 0.48599581772903 
1715	 0.485949699358034 
1716	 0.485911607979803 
1717	 0.485861128142566 
1718	 0.485828212603424 
1719	 0.485752683403934 
1720	 0.485631723279051 
1721	 0.485550265584286 
1722	 0.485481212701967 
1723	 0.485385154300609 
1724	 0.485285675697388 
1725	 0.485201899428997 
1726	 0.485085055085394 
1727	 0.485010039633384 
1728	 0.484997429334178 
1729	 0.484922306282139 
1730	 0.484827365382436 
1731	 0.484737567975289 
1732	 0.484643255305636 
1733	 0.484512446720529 
1734	 0.484368988708688 
1735	 0.48420609446287 
1736	 0.483993031623252 
1737	 0.4838159652922 
1738	 0.483633488211516 
1739	 0.483493710421451 
1740	 0.483377949767234 
1741	 0.483258365719566 
1742	 0.483181922772055 
1743	 0.483059154353941 
1744	 0.482902705712501 
1745	 0.482774671721568 
1746	 0.482638447809863 
1747	 0.482530850311976 
1748	 0.48245487698288 
1749	 0.48234673228945 
1750	 0.482242734664161 
1751	 0.482132457845729 
1752	 0.481979209884231 
1753	 0.481815585608201 
1754	 0.48164029130263 
1755	 0.48149867300113 
1756	 0.481358858471273 
1757	 0.48122004648863 
1758	 0.481120602024527 
1759	 0.480989707441918 
1760	 0.480838432965039 
1761	 0.480738623836465 
1762	 0.480632507810284 
1763	 0.480479980858925 
1764	 0.480369621218995 
1765	 0.480268154383684 
1766	 0.480148393442318 
1767	 0.480072160476577 
1768	 0.479990642489166 
1769	 0.479902497235101 
1770	 0.479796361919558 
1771	 0.479672591322977 
1772	 0.479546847963044 
1773	 0.479364065611331 
1774	 0.479221513973688 
1775	 0.479100808383347 
1776	 0.478948216429842 
1777	 0.478838217976953 
1778	 0.478703998292769 
1779	 0.478590890121186 
1780	 0.478525037894471 
1781	 0.478447396635902 
1782	 0.4783845684401 
1783	 0.478255180666493 
1784	 0.478146191006162 
1785	 0.478044622230975 
1786	 0.477910890006304 
1787	 0.477756511976858 
1788	 0.477635250575187 
1789	 0.477493838224399 
1790	 0.477401867715511 
1791	 0.477388988740033 
1792	 0.477299353794113 
1793	 0.477189854543171 
1794	 0.477077339791997 
1795	 0.47694082863208 
1796	 0.476789827669503 
1797	 0.47662004763731 
1798	 0.47645547603882 
1799	 0.476262830869126 
1800	 0.476100247361218 
1801	 0.47966613756723 
1802	 0.479620940142996 
1803	 0.479568996576332 
1804	 0.479533554164024 
1805	 0.47949722354705 
1806	 0.479466718603349 
1807	 0.479470149888777 
1808	 0.479421117357289 
1809	 0.479374225127795 
1810	 0.479290536822796 
1811	 0.479178873784949 
1812	 0.47901407440542 
1813	 0.478875056633895 
1814	 0.478697973856788 
1815	 0.478461795424599 
1816	 0.478226969355776 
1817	 0.477993407769447 
1818	 0.477717221811922 
1819	 0.477471269954335 
1820	 0.477254343882992 
1821	 0.477021217674004 
1822	 0.476749504336031 
1823	 0.47650737466702 
1824	 0.476193067427913 
1825	 0.475814125217302 
1826	 0.475452245770258 
1827	 0.474982489521697 
1828	 0.474471228154399 
1829	 0.473920912181804 
1830	 0.473345341221789 
1831	 0.472702424507156 
1832	 0.472044577955551 
1833	 0.471379980106281 
1834	 0.470660524449211 
1835	 0.469928825230206 
1836	 0.469200521007794 
1837	 0.468444398446541 
1838	 0.467715470449349 
1839	 0.467035800170901 
1840	 0.466375109566252 
1841	 0.465736514639871 
1842	 0.465172910765872 
1843	 0.464676276613993 
1844	 0.464225467889027 
1845	 0.463823324980157 
1846	 0.463483112460155 
1847	 0.463208296771872 
1848	 0.463002017433747 
1849	 0.462847279008371 
1850	 0.462783285192854 
1851	 0.462814615333578 
1852	 0.462904159520382 
1853	 0.463014935042837 
1854	 0.463179044066475 
1855	 0.463384013125152 
1856	 0.463581465445487 
1857	 0.463794832740339 
1858	 0.464041275763449 
1859	 0.464256903907053 
1860	 0.464483346094475 
1861	 0.464715267968176 
1862	 0.464950398206043 
1863	 0.465179334557737 
1864	 0.465415925438278 
1865	 0.465653291438296 
1866	 0.465925238687158 
1867	 0.46619603821361 
1868	 0.466499763538463 
1869	 0.466826958108003 
1870	 0.467147685031166 
1871	 0.467441243512706 
1872	 0.467753650515484 
1873	 0.467999506014907 
1874	 0.468172867147858 
1875	 0.468285446130116 
1876	 0.468318078985328 
1877	 0.46830266802793 
1878	 0.46822809723641 
1879	 0.46807141991816 
1880	 0.467856302462741 
1881	 0.467565388489845 
1882	 0.467229290107671 
1883	 0.466837404789495 
1884	 0.466395957181946 
1885	 0.46589242409255 
1886	 0.465320083905772 
1887	 0.46464851554356 
1888	 0.463919060602563 
1889	 0.463123344762093 
1890	 0.462244746043862 
1891	 0.46132657935342 
1892	 0.460331490522997 
1893	 0.459315508635306 
1894	 0.458244281196649 
1895	 0.457171265499684 
1896	 0.456054120517938 
1897	 0.454903834051794 
1898	 0.453738601419978 
1899	 0.452562572674162 
1900	 0.451373534015615 
1901	 0.450220212641038 
1902	 0.449077019815844 
1903	 0.447947257481357 
1904	 0.446818636134293 
1905	 0.445708261466487 
1906	 0.444610639993099 
1907	 0.443479587536152 
1908	 0.44236069120689 
1909	 0.441279537042014 
1910	 0.440169705410073 
1911	 0.43908208552827 
1912	 0.438008245483267 
1913	 0.436940507339552 
1914	 0.435864765187634 
1915	 0.434812899650047 
1916	 0.433771884673291 
1917	 0.432748902806211 
1918	 0.431753677924069 
1919	 0.430800071712451 
1920	 0.429889551766088 
1921	 0.429012432651956 
1922	 0.428181351841096 
1923	 0.427390778143211 
1924	 0.426635498412295 
1925	 0.42592244471666 
1926	 0.425258141666614 
1927	 0.424636303981795 
1928	 0.424032740592695 
1929	 0.423499513225137 
1930	 0.423017686144409 
1931	 0.422594034670268 
1932	 0.422217822864656 
1933	 0.421870700701582 
1934	 0.421600654314357 
1935	 0.421384964016543 
1936	 0.421214720641768 
1937	 0.421112845264142 
1938	 0.421106530080493 
1939	 0.421099463257243 
1940	 0.421127571388327 
1941	 0.421203032621434 
1942	 0.421286246351736 
1943	 0.421417257922068 
1944	 0.421587235284518 
1945	 0.421724471587929 
1946	 0.42185617307494 
1947	 0.421986191692026 
1948	 0.422109460582737 
1949	 0.422225157609579 
1950	 0.422330047103175 
1951	 0.422430174620207 
1952	 0.422516872528667 
1953	 0.422596494016347 
1954	 0.422693007532903 
1955	 0.422806796295767 
1956	 0.422904338780283 
1957	 0.423007487175759 
1958	 0.42310638093555 
1959	 0.423208461714988 
1960	 0.42330233620648 
1961	 0.423427655330467 
1962	 0.423590874269479 
1963	 0.423720165347604 
1964	 0.423844146527404 
1965	 0.423965900981093 
1966	 0.424112075469077 
1967	 0.424225023405874 
1968	 0.424354390438476 
1969	 0.424517263797687 
1970	 0.424654298272139 
1971	 0.424762258182036 
1972	 0.424895605851554 
1973	 0.425043753605934 
1974	 0.425187531971809 
1975	 0.425328498391105 
1976	 0.42547371712552 
1977	 0.425647442095062 
1978	 0.425804055005864 
1979	 0.425960616822038 
1980	 0.426149848680648 
1981	 0.426319589782431 
1982	 0.426475092228697 
1983	 0.426645102050016 
1984	 0.426826740343566 
1985	 0.426991326802238 
1986	 0.427149295854445 
1987	 0.427318013386856 
1988	 0.427485991002002 
1989	 0.427646820579644 
1990	 0.427840535745317 
1991	 0.428013733308825 
1992	 0.428183382281817 
1993	 0.428359442113575 
1994	 0.428512579863015 
1995	 0.42863025492513 
1996	 0.428783839327419 
1997	 0.428935783426196 
1998	 0.429100241495279 
1999	 0.429290531970624 
2000	 0.429478323489807 
2001	 0.429662720446136 
2002	 0.429851635429761 
2003	 0.43008178594189 
2004	 0.430307587145324 
2005	 0.430517210053968 
2006	 0.430728582829789 
2007	 0.43094457545204 
2008	 0.431133135913335 
2009	 0.431351815844412 
2010	 0.431602237753457 
2011	 0.431837325763445 
2012	 0.43208044142594 
2013	 0.432314383431284 
2014	 0.432541607336103 
2015	 0.432763027516323 
2016	 0.432986672439001 
2017	 0.433219319078382 
2018	 0.433481421539157 
2019	 0.433776505209392 
2020	 0.434056245107594 
2021	 0.43436927166296 
2022	 0.434640790888004 
2023	 0.43489927817718 
2024	 0.435139694532739 
2025	 0.435354327723215 
2026	 0.435562771518914 
2027	 0.435752017036565 
2028	 0.435934113021853 
2029	 0.436126433864298 
2030	 0.436316633423639 
2031	 0.436504783044878 
2032	 0.436685161215443 
2033	 0.436889948828994 
2034	 0.437101821389144 
2035	 0.437317834455684 
2036	 0.437577850531571 
2037	 0.437793698105406 
2038	 0.438001298456611 
2039	 0.438175337981089 
2040	 0.438324430834972 
2041	 0.438447527276797 
2042	 0.438543980938925 
2043	 0.438648672266802 
2044	 0.43875102707138 
2045	 0.43884903133645 
2046	 0.438947734510015 
2047	 0.439059369620678 
2048	 0.439140155899501 
2049	 0.43920284765062 
2050	 0.439266805393889 
2051	 0.439283902247367 
2052	 0.439349996292856 
2053	 0.439445934112814 
2054	 0.439540587704786 
2055	 0.439662586212803 
2056	 0.439795052275359 
2057	 0.439880961991733 
2058	 0.439943513483111 
2059	 0.440008412366547 
2060	 0.440035890978399 
2061	 0.440097604183686 
2062	 0.440177076479919 
2063	 0.440249599660019 
2064	 0.440319597720899 
2065	 0.440404252430305 
2066	 0.440510761648921 
2067	 0.440594708886185 
2068	 0.440689178983256 
2069	 0.440755847696599 
2070	 0.440832374950346 
2071	 0.440896626968387 
2072	 0.440953176687803 
2073	 0.441010252675876 
2074	 0.441067099513104 
2075	 0.441095214098832 
2076	 0.441153510852333 
2077	 0.441239901614369 
2078	 0.441312162265598 
2079	 0.441394908002427 
2080	 0.441460490595827 
2081	 0.441521000643446 
2082	 0.441568248229071 
2083	 0.441606942019877 
2084	 0.441633749591857 
2085	 0.441639241621817 
2086	 0.441617414699894 
2087	 0.441619606815261 
2088	 0.441610672925928 
2089	 0.441612192015365 
2090	 0.441626885361002 
2091	 0.441641892302819 
2092	 0.441658284381698 
2093	 0.441670034432742 
2094	 0.441696683555786 
2095	 0.441707595302896 
2096	 0.441709812957721 
2097	 0.441700126192626 
2098	 0.441666235953114 
2099	 0.441644389058066 
2100	 0.441640318334433 
2101	 0.441628503543995 
2102	 0.441643946278859 
2103	 0.441695037860398 
2104	 0.441731873393775 
2105	 0.44175784310916 
2106	 0.441818847681574 
2107	 0.441899056793442 
2108	 0.441984299392858 
2109	 0.442110448904623 
2110	 0.442207510557646 
2111	 0.442297789725693 
2112	 0.442379630051292 
2113	 0.442450066922877 
2114	 0.442512826145558 
2115	 0.442579158565601 
2116	 0.442628682653392 
2117	 0.442721583621676 
2118	 0.442827103921115 
2119	 0.442947210477408 
2120	 0.443096775581699 
2121	 0.443248004380761 
2122	 0.443426741166302 
2123	 0.443570425185676 
2124	 0.443747335148097 
2125	 0.443852836910723 
2126	 0.443903209366128 
2127	 0.443942753363673 
2128	 0.443939105937377 
2129	 0.443924960922746 
2130	 0.443894206507791 
2131	 0.443848199601157 
2132	 0.443783958818542 
2133	 0.443715720538226 
2134	 0.443586831086648 
2135	 0.443422780060032 
2136	 0.443237321154183 
2137	 0.442998773611134 
2138	 0.44275842067087 
2139	 0.44251409978525 
2140	 0.442234439920165 
2141	 0.441910322584544 
2142	 0.44159142884603 
2143	 0.441243411153586 
2144	 0.440907017154543 
2145	 0.440590415518375 
2146	 0.440243028739836 
2147	 0.439891779864968 
2148	 0.439528202677651 
2149	 0.439105903242471 
2150	 0.438634113397679 
2151	 0.438164702053147 
2152	 0.43764947123353 
2153	 0.437150719700882 
2154	 0.436641694387534 
2155	 0.436150019518887 
2156	 0.435670120952094 
2157	 0.435171132957233 
2158	 0.434693386427714 
2159	 0.434175407128094 
2160	 0.433640714050093 
2161	 0.43306732532345 
2162	 0.432439943872443 
2163	 0.431831103444786 
2164	 0.431205226955285 
2165	 0.430570218838148 
2166	 0.429925776328929 
2167	 0.429285714307641 
2168	 0.428641068355083 
2169	 0.4279730812444 
2170	 0.427314850402148 
2171	 0.426679709873241 
2172	 0.426011475110801 
2173	 0.425340813719838 
2174	 0.424626396404317 
2175	 0.423870786167694 
2176	 0.423126355931121 
2177	 0.42234591962793 
2178	 0.421576902143549 
2179	 0.420834592480497 
2180	 0.420060672690974 
2181	 0.419248614256278 
2182	 0.418458345938879 
2183	 0.417679253371638 
2184	 0.416878952867756 
2185	 0.416063188163485 
2186	 0.415243555198706 
2187	 0.414417457104676 
2188	 0.413549910559427 
2189	 0.4127247097602 
2190	 0.411913325312701 
2191	 0.411121293743593 
2192	 0.410325917199581 
2193	 0.409582501863266 
2194	 0.408866298343865 
2195	 0.408187119403246 
2196	 0.407559653530215 
2197	 0.406939179423375 
2198	 0.406348772119828 
2199	 0.405775213403385 
2200	 0.405183941536226 
2201	 0.404670186256955 
2202	 0.40420645730804 
2203	 0.403776875742871 
2204	 0.403399064460606 
2205	 0.403097192465154 
2206	 0.40279430336972 
2207	 0.402491281653166 
2208	 0.402290485063689 
2209	 0.402129839128266 
2210	 0.402061074401673 
2211	 0.402118873774606 
2212	 0.402153708996079 
2213	 0.402271552046396 
2214	 0.402335542507392 
2215	 0.402405047249027 
2216	 0.402448951775899 
2217	 0.402491777408765 
2218	 0.402487543998977 
2219	 0.40245581544731 
2220	 0.40239144333633 
2221	 0.402263744542101 
2222	 0.402143054789393 
2223	 0.402039352370482 
2224	 0.40191135663107 
2225	 0.401733383851641 
2226	 0.401545412471149 
2227	 0.401309923505985 
2228	 0.401011852862069 
2229	 0.400701312810813 
2230	 0.400370069151612 
2231	 0.400017294866648 
2232	 0.399629152052947 
2233	 0.399219686042887 
2234	 0.398794411491621 
2235	 0.398341578477677 
2236	 0.397866979129576 
2237	 0.397343533423862 
2238	 0.396794548761033 
2239	 0.396205779982629 
2240	 0.395580102023401 
2241	 0.394894525106765 
2242	 0.394175455157607 
2243	 0.393395812019319 
2244	 0.392549415823284 
2245	 0.39164002558951 
2246	 0.390723878795218 
2247	 0.389752298660826 
2248	 0.388730770611185 
2249	 0.387639378256232 
2250	 0.386583080353188 
2251	 0.385474394029681 
2252	 0.384418388130928 
2253	 0.383381534666344 
2254	 0.382377728049462 
2255	 0.381354146179883 
2256	 0.38042860763742 
2257	 0.379541823554067 
2258	 0.378754800327352 
2259	 0.378031852814656 
2260	 0.377414687491793 
2261	 0.376863982329626 
2262	 0.376458449910365 
2263	 0.376176949955806 
2264	 0.375993638041831 
2265	 0.375979860038813 
2266	 0.375997556973003 
2267	 0.376068486716161 
2268	 0.376251043338362 
2269	 0.376521742290142 
2270	 0.376877124221551 
2271	 0.377341017479768 
2272	 0.377896050374595 
2273	 0.378508674604894 
2274	 0.379179521617156 
2275	 0.3799209124841 
2276	 0.380764741701851 
2277	 0.381593009512685 
2278	 0.382474399251867 
2279	 0.383370088240132 
2280	 0.384279422526489 
2281	 0.385219103881234 
2282	 0.386227355569216 
2283	 0.387175581747999 
2284	 0.388141627324515 
2285	 0.389059111655678 
2286	 0.389927395437973 
2287	 0.390804940293652 
2288	 0.391688145539898 
2289	 0.392502192167225 
2290	 0.393297933602329 
2291	 0.394044767384004 
2292	 0.394730833366346 
2293	 0.395377639438838 
2294	 0.395980009825894 
2295	 0.396556116437586 
2296	 0.397050519094991 
2297	 0.397578216377297 
2298	 0.398109901031057 
2299	 0.398584678472587 
2300	 0.399108680758255 
2301	 0.399608753512215 
2302	 0.400099269200538 
2303	 0.400613762592029 
2304	 0.401086359253025 
2305	 0.401587285076409 
2306	 0.402058898103622 
2307	 0.402497134674592 
2308	 0.402977230198191 
2309	 0.40349895210309 
2310	 0.403940694558853 
2311	 0.404397963757651 
2312	 0.404770514958424 
2313	 0.405033020253969 
2314	 0.405314993410012 
2315	 0.405567749813243 
2316	 0.40582350212602 
2317	 0.406056381755919 
2318	 0.406305128165131 
2319	 0.406583422879418 
2320	 0.40680346432486 
2321	 0.40696521485457 
2322	 0.407175577425215 
2323	 0.407400804739452 
2324	 0.407576718781688 
2325	 0.407804785961459 
2326	 0.407956997684873 
2327	 0.40803660700205 
2328	 0.40804567929988 
2329	 0.408095979381802 
2330	 0.408138811816243 
2331	 0.408151490882038 
2332	 0.408185532817327 
2333	 0.408224427761643 
2334	 0.408219222098339 
2335	 0.408221107706567 
2336	 0.408211358485436 
2337	 0.408136956699729 
2338	 0.408047921716408 
2339	 0.407941851263209 
2340	 0.407772443130824 
2341	 0.407619861233666 
2342	 0.407438174056185 
2343	 0.407178511983934 
2344	 0.406963507258897 
2345	 0.406729908950606 
2346	 0.406451537046994 
2347	 0.406204164658421 
2348	 0.406024747081502 
2349	 0.405725197500338 
2350	 0.405372092262637 
2351	 0.405027183474804 
2352	 0.404602050295999 
2353	 0.404202321535337 
2354	 0.403797407830078 
2355	 0.403421472190062 
2356	 0.40306257836042 
2357	 0.402702916324563 
2358	 0.402377644132165 
2359	 0.40203258729134 
2360	 0.401690869550359 
2361	 0.401287832380836 
2362	 0.400879004329563 
2363	 0.400436330583338 
2364	 0.399897294382717 
2365	 0.399384264828635 
2366	 0.398934611082409 
2367	 0.398355866671087 
2368	 0.397655899961566 
2369	 0.397043908190475 
2370	 0.396411853236244 
2371	 0.395746808034679 
2372	 0.395128492449275 
2373	 0.394563535997193 
2374	 0.393998558549963 
2375	 0.393296835542584 
2376	 0.392639849113047 
2377	 0.391974623000779 
2378	 0.391179488100125 
2379	 0.390422823146546 
2380	 0.389614030997925 
2381	 0.388738088942932 
2382	 0.387889817268225 
2383	 0.387067606246832 
2384	 0.386308930361334 
2385	 0.385607485122216 
2386	 0.38486634815727 
2387	 0.384073659864225 
2388	 0.383300279454776 
2389	 0.382486198771909 
2390	 0.381672021642153 
2391	 0.381011548148154 
2392	 0.3803262838752 
2393	 0.379572046982959 
2394	 0.378853651117535 
2395	 0.37803687022766 
2396	 0.377159554148234 
2397	 0.376305908910104 
2398	 0.375480464625468 
2399	 0.374675526644847 
2400	 0.373969203351646 
2401	 0.373312972019935 
2402	 0.372637038547536 
2403	 0.37203795679867 
2404	 0.371302022684493 
2405	 0.37057835189679 
2406	 0.369943069526086 
2407	 0.369226884863558 
2408	 0.36863812032343 
2409	 0.368048294782406 
2410	 0.367359397633249 
2411	 0.366727964346089 
2412	 0.366130683398088 
2413	 0.365498501972993 
2414	 0.364855938836167 
2415	 0.36412382428736 
2416	 0.363454831359441 
2417	 0.362759543438108 
2418	 0.362096528718052 
2419	 0.36147386938474 
2420	 0.36091307015432 
2421	 0.360368281410101 
2422	 0.359793948461601 
2423	 0.359319099710034 
2424	 0.358770327567388 
2425	 0.358082207415749 
2426	 0.35752398223566 
2427	 0.35705046294442 
2428	 0.356555959451486 
2429	 0.356137815443114 
2430	 0.355617064551894 
2431	 0.354988778477432 
2432	 0.354446496168323 
2433	 0.353937677778739 
2434	 0.353368351558372 
2435	 0.35281414833175 
2436	 0.352273454924239 
2437	 0.351659396627427 
2438	 0.351114607689351 
2439	 0.350706541880881 
2440	 0.350138302508727 
2441	 0.349483245982991 
2442	 0.348829657182016 
2443	 0.348104168546796 
2444	 0.347426710689856 
2445	 0.346711096975674 
2446	 0.34610567888849 
2447	 0.345589105650102 
2448	 0.344989605784567 
2449	 0.344474486634441 
2450	 0.343915438918658 
2451	 0.343173963493395 
2452	 0.342560253261162 
2453	 0.342071734576422 
2454	 0.341485298244836 
2455	 0.340913655672566 
2456	 0.340325069437879 
2457	 0.339641552006825 
2458	 0.339088624658307 
2459	 0.338577737875668 
2460	 0.338157725943967 
2461	 0.337886487419893 
2462	 0.337526635251919 
2463	 0.337167177872064 
2464	 0.336796208433361 
2465	 0.336363059847098 
2466	 0.336013566690883 
2467	 0.335753001141002 
2468	 0.335443876357219 
2469	 0.33514080811306 
2470	 0.334912084239698 
2471	 0.334550198569172 
2472	 0.334042515182035 
2473	 0.333666195071573 
2474	 0.333452213741035 
2475	 0.333209573101248 
2476	 0.333039130216461 
2477	 0.332825517343089 
2478	 0.332273953656891 
2479	 0.331677393716732 
2480	 0.331370110690056 
2481	 0.331037304283983 
2482	 0.330518223498838 
2483	 0.33010865852441 
2484	 0.329676926837275 
2485	 0.329105160849133 
2486	 0.328637983570011 
2487	 0.328312187638112 
2488	 0.327858437162002 
2489	 0.327430095680954 
2490	 0.327280102406473 
2491	 0.326882463846464 
2492	 0.326378654987315 
2493	 0.325883731312979 
2494	 0.324979960796809 
2495	 0.324181540731017 
2496	 0.323526977464993 
2497	 0.322819735235252 
2498	 0.322329331324244 
2499	 0.321873332144837 
2500	 0.321147612262791 
