Wavelength	LMW7 profile 200001.asd
350	 6.36502113744454E-02 
351	 6.93987720598476E-02 
352	 6.84956056139577E-02 
353	 6.19914249653448E-02 
354	 0.067207904008797 
355	 6.47952586607687E-02 
356	 6.06209832151576E-02 
357	 0.062490754368487 
358	 5.90579713334696E-02 
359	 5.63857075929996E-02 
360	 5.73210422920211E-02 
361	 6.15452757118755E-02 
362	 6.17085350451593E-02 
363	 5.92167411147996E-02 
364	 5.72039869024823E-02 
365	 5.98616414740177E-02 
366	 6.05976051620475E-02 
367	 6.12305531624198E-02 
368	 6.42568677538428E-02 
369	 0.065804028440129 
370	 0.064129761165907 
371	 6.15639991094941E-02 
372	 6.25125142618864E-02 
373	 6.17995940433912E-02 
374	 6.13210306770849E-02 
375	 6.26943741459687E-02 
376	 6.57678583736894E-02 
377	 6.55289736084088E-02 
378	 6.44229775815467E-02 
379	 6.60420657928437E-02 
380	 6.84817096273726E-02 
381	 6.83833069243983E-02 
382	 6.79261689595623E-02 
383	 7.25245414120898E-02 
384	 7.25183092509136E-02 
385	 7.20810442172386E-02 
386	 7.40083669174969E-02 
387	 7.45913409279672E-02 
388	 7.58375445018327E-02 
389	 7.77355030677136E-02 
390	 7.98083783355473E-02 
391	 8.26777918932174E-02 
392	 0.084067249210618 
393	 8.48050033304038E-02 
394	 8.80817506756789E-02 
395	 8.99099125269664E-02 
396	 9.07289347063188E-02 
397	 9.17382141073698E-02 
398	 9.42861691792008E-02 
399	 9.62806522379915E-02 
400	 9.87457796019535E-02 
401	 0.102993574644316 
402	 0.105384368685 
403	 0.106792637103084 
404	 0.108642237204606 
405	 0.112426710626129 
406	 0.115104789612494 
407	 0.117336955864975 
408	 0.11961563960748 
409	 0.11979046546125 
410	 0.120884339625644 
411	 0.123193662389504 
412	 0.125609857038034 
413	 0.127397166179189 
414	 0.128540656085861 
415	 0.129289925440693 
416	 0.130089518559908 
417	 0.130531657674038 
418	 0.13098612497001 
419	 0.131707074662749 
420	 0.132063319027628 
421	 0.131411923272035 
422	 0.130713423830301 
423	 0.131613337922702 
424	 0.131450634495676 
425	 0.13071189082936 
426	 0.129922478106145 
427	 0.128859792935285 
428	 0.127832351072356 
429	 0.126664649766588 
430	 0.125216253560733 
431	 0.124368836003388 
432	 0.123267438545471 
433	 0.122085705725858 
434	 0.121987175272552 
435	 0.122056795360889 
436	 0.122186782440496 
437	 0.1224876659465 
438	 0.123197412899885 
439	 0.124248792163795 
440	 0.125578525338858 
441	 0.127117447049296 
442	 0.128772324096293 
443	 0.13062709654971 
444	 0.132627598039575 
445	 0.134456383820986 
446	 0.13675539458035 
447	 0.139088592451687 
448	 0.140961099928368 
449	 0.142977246606748 
450	 0.145390432412888 
451	 0.147966340668059 
452	 0.150109304898325 
453	 0.152333976093968 
454	 0.154367746273586 
455	 0.1561229131704 
456	 0.158306695145631 
457	 0.160360017522379 
458	 0.162176866178131 
459	 0.163880299944709 
460	 0.165713884873425 
461	 0.167396895163827 
462	 0.168839685407368 
463	 0.170278466034453 
464	 0.171734306874966 
465	 0.173145866610121 
466	 0.174459805908346 
467	 0.175773451628831 
468	 0.17708572294874 
469	 0.178300655893322 
470	 0.1792766269899 
471	 0.180355731321508 
472	 0.181376926126421 
473	 0.182276860028363 
474	 0.183434219546089 
475	 0.18457181190088 
476	 0.185510703074558 
477	 0.186202281069975 
478	 0.187162263347138 
479	 0.188279786057009 
480	 0.189394782839835 
481	 0.190365385425994 
482	 0.191329597323403 
483	 0.192269673366927 
484	 0.193148383766454 
485	 0.194032663267136 
486	 0.194861772530979 
487	 0.195641177768269 
488	 0.196433997369701 
489	 0.19724322166105 
490	 0.198131725646942 
491	 0.199097619573555 
492	 0.199978339079145 
493	 0.200706020974035 
494	 0.201383400677882 
495	 0.20219090917435 
496	 0.203173729154355 
497	 0.204129760018886 
498	 0.204966437791665 
499	 0.205788211736413 
500	 0.206534010546546 
501	 0.207309263893961 
502	 0.2081931096796 
503	 0.208945285300051 
504	 0.209681947828394 
505	 0.210467689653914 
506	 0.211305764364201 
507	 0.212170882616443 
508	 0.2130019129719 
509	 0.213753954525971 
510	 0.214431372344824 
511	 0.215118713957596 
512	 0.215860383323041 
513	 0.216657021212149 
514	 0.217316117759442 
515	 0.218096755821269 
516	 0.219076730416879 
517	 0.219964243296593 
518	 0.220643027105936 
519	 0.221208401679107 
520	 0.221837452096293 
521	 0.222647468195949 
522	 0.223489894494427 
523	 0.22424322649743 
524	 0.224838758997249 
525	 0.225566478987288 
526	 0.226317789897402 
527	 0.22697507458324 
528	 0.227702759049243 
529	 0.228408579859099 
530	 0.229071956614753 
531	 0.229726580121164 
532	 0.230430488144582 
533	 0.231201828352612 
534	 0.232004677646426 
535	 0.232704451562274 
536	 0.233387203035359 
537	 0.234078167515798 
538	 0.234780382113061 
539	 0.235513400915877 
540	 0.236209327314282 
541	 0.236855918762891 
542	 0.237520049294936 
543	 0.238193500664703 
544	 0.23891210087019 
545	 0.239693528588154 
546	 0.240468487901946 
547	 0.241124530218401 
548	 0.24174930581554 
549	 0.242579197969748 
550	 0.243301876274053 
551	 0.243984092994951 
552	 0.244734467558205 
553	 0.24559301134209 
554	 0.246427571003898 
555	 0.247204348807905 
556	 0.247947575093059 
557	 0.248671458080236 
558	 0.249456863595556 
559	 0.250331183138563 
560	 0.251233964303795 
561	 0.252003417223622 
562	 0.252753625203756 
563	 0.25365765323446 
564	 0.254619884878786 
565	 0.255505615565402 
566	 0.256310041913036 
567	 0.257175693885722 
568	 0.258136872322286 
569	 0.259131884688117 
570	 0.260091117303754 
571	 0.261014430965075 
572	 0.261964055497457 
573	 0.262929250077225 
574	 0.263849842766656 
575	 0.264763511033807 
576	 0.265806705861174 
577	 0.266981298689619 
578	 0.267969646314064 
579	 0.268909658603097 
580	 0.269820904414836 
581	 0.270695640598662 
582	 0.271632301583013 
583	 0.27257252150924 
584	 0.273514080794507 
585	 0.274555385481437 
586	 0.275767225601068 
587	 0.277015546482756 
588	 0.27815318251766 
589	 0.279276364896434 
590	 0.280450777869165 
591	 0.281662348219433 
592	 0.282828653942994 
593	 0.283949810911943 
594	 0.284974519582838 
595	 0.285875698668423 
596	 0.286707395230784 
597	 0.287466420049405 
598	 0.288213345953168 
599	 0.289026710931551 
600	 0.28977208319994 
601	 0.290620418160301 
602	 0.2916200641724 
603	 0.292556037769554 
604	 0.293361356181472 
605	 0.294164378959712 
606	 0.295119662468528 
607	 0.296064346969922 
608	 0.296942550046072 
609	 0.297777709257585 
610	 0.298674488220645 
611	 0.299477833633087 
612	 0.300201348622516 
613	 0.300881397353065 
614	 0.301486760748374 
615	 0.302061958606938 
616	 0.302632178741254 
617	 0.303201521289589 
618	 0.303731397114768 
619	 0.304234793246034 
620	 0.304740696151234 
621	 0.305302214995782 
622	 0.305810320134212 
623	 0.306223680198021 
624	 0.306563759975303 
625	 0.307040324679874 
626	 0.307522175091386 
627	 0.307925876931235 
628	 0.308268276721437 
629	 0.308665906462675 
630	 0.30907760313261 
631	 0.309440848281181 
632	 0.309799712656311 
633	 0.310153859566892 
634	 0.31052806392148 
635	 0.310954313786127 
636	 0.311210086618445 
637	 0.311500869664343 
638	 0.311943399921547 
639	 0.312250623023554 
640	 0.312565334367966 
641	 0.312905722003767 
642	 0.313235580180873 
643	 0.31353264347157 
644	 0.313875402207662 
645	 0.314264171941519 
646	 0.314571623344871 
647	 0.314915032443134 
648	 0.315276280867378 
649	 0.315616809582865 
650	 0.315982663176089 
651	 0.316373206223699 
652	 0.316751923212699 
653	 0.317063594670067 
654	 0.317477385731993 
655	 0.317850386154233 
656	 0.318108794553456 
657	 0.318483856879255 
658	 0.318962882713218 
659	 0.31944785993185 
660	 0.319814027986692 
661	 0.320131721059041 
662	 0.320563181566606 
663	 0.321099011946356 
664	 0.321472329700564 
665	 0.321841800858488 
666	 0.322306053683782 
667	 0.322856788583954 
668	 0.323096450525216 
669	 0.323486828818183 
670	 0.324070713417298 
671	 0.324531578146278 
672	 0.324972493577681 
673	 0.325486862525578 
674	 0.326060594521428 
675	 0.326407383362172 
676	 0.326831855932402 
677	 0.327331297321924 
678	 0.327784074349901 
679	 0.328252810130292 
680	 0.328744732339529 
681	 0.329251521960466 
682	 0.329751986493284 
683	 0.330250097442445 
684	 0.33073820404535 
685	 0.331220608303451 
686	 0.331758551676605 
687	 0.332245761814354 
688	 0.332719500290844 
689	 0.333299988588374 
690	 0.333775910701327 
691	 0.334239876033403 
692	 0.334768730609127 
693	 0.335331666516026 
694	 0.335774196058089 
695	 0.336217983830178 
696	 0.336818363465739 
697	 0.337289347692997 
698	 0.337757961640169 
699	 0.338290471942033 
700	 0.338858088324823 
701	 0.339299353229223 
702	 0.339684837662529 
703	 0.340114834108168 
704	 0.340629490483804 
705	 0.341074517614842 
706	 0.341460959047082 
707	 0.341886837564585 
708	 0.342365915276004 
709	 0.342816989631348 
710	 0.34319451832745 
711	 0.343516868323747 
712	 0.343906334563028 
713	 0.344335323914163 
714	 0.344724061218758 
715	 0.344965943572365 
716	 0.345307734351318 
717	 0.345745053144834 
718	 0.346086305300435 
719	 0.346322077263283 
720	 0.346522667425788 
721	 0.346731943673552 
722	 0.346904619110555 
723	 0.347200387132204 
724	 0.347510750847087 
725	 0.347675809357488 
726	 0.34778828301847 
727	 0.347908712269467 
728	 0.348036065829582 
729	 0.348114178583037 
730	 0.348154778164884 
731	 0.348177172042199 
732	 0.34819978778279 
733	 0.348242480276478 
734	 0.348218951043011 
735	 0.348142184066753 
736	 0.34806627072008 
737	 0.348009251485132 
738	 0.347895331505065 
739	 0.347732130755062 
740	 0.347620643443928 
741	 0.347438588571788 
742	 0.347210068924894 
743	 0.34697244525317 
744	 0.346705960334871 
745	 0.346453104281118 
746	 0.346184832751627 
747	 0.345849330645679 
748	 0.345489940081703 
749	 0.345170676883405 
750	 0.344858920508168 
751	 0.344409700242632 
752	 0.343953850742697 
753	 0.343531051726114 
754	 0.343127259592631 
755	 0.34263208765297 
756	 0.342175383612814 
757	 0.341755473564985 
758	 0.341297130005938 
759	 0.340751282528584 
760	 0.340079795440318 
761	 0.339387277630882 
762	 0.33893920205087 
763	 0.338428307896438 
764	 0.337802647146332 
765	 0.337120565896514 
766	 0.336571065768405 
767	 0.335973797184581 
768	 0.33528260130808 
769	 0.334546180978935 
770	 0.333935679156881 
771	 0.333355734270193 
772	 0.332724665254831 
773	 0.332014296389656 
774	 0.331403353861586 
775	 0.330788778457133 
776	 0.330075075749334 
777	 0.329362466892365 
778	 0.328700421652382 
779	 0.328058990616052 
780	 0.327372188773658 
781	 0.326626513618966 
782	 0.325931187887359 
783	 0.325286447500917 
784	 0.324576866892562 
785	 0.323943887784809 
786	 0.323315246972996 
787	 0.322620909345569 
788	 0.321879958823882 
789	 0.321224706985984 
790	 0.320606340459571 
791	 0.319924293216608 
792	 0.319223571209842 
793	 0.318575517327408 
794	 0.317938721728667 
795	 0.31718945191621 
796	 0.31644597496262 
797	 0.315781548117614 
798	 0.315182421627542 
799	 0.314490151300872 
800	 0.313881980100994 
801	 0.313329027454795 
802	 0.312732380449884 
803	 0.311969867125573 
804	 0.311352497341369 
805	 0.310847275017803 
806	 0.310223308690429 
807	 0.309635689464203 
808	 0.309007681113268 
809	 0.308326889682472 
810	 0.307689146683882 
811	 0.307133703843356 
812	 0.306616529753104 
813	 0.30608640555439 
814	 0.305546539586466 
815	 0.304909649754179 
816	 0.304281456975403 
817	 0.303798427259312 
818	 0.303292551627167 
819	 0.302751953004974 
820	 0.30220696703441 
821	 0.301709183568165 
822	 0.301188172338064 
823	 0.30068621626409 
824	 0.300206203466916 
825	 0.299659461032184 
826	 0.299212352293551 
827	 0.298827915258839 
828	 0.298415386563483 
829	 0.297914469085259 
830	 0.297337625187452 
831	 0.296780881129827 
832	 0.296351012268816 
833	 0.295965411593179 
834	 0.295544278410985 
835	 0.295098570498171 
836	 0.294720365863489 
837	 0.294384168381377 
838	 0.294073201021681 
839	 0.293736439548369 
840	 0.293268030927581 
841	 0.292784324869083 
842	 0.292351363514828 
843	 0.292000251017632 
844	 0.291714835981679 
845	 0.291402422426112 
846	 0.2910937038733 
847	 0.290839307401598 
848	 0.290430885541521 
849	 0.290048455003241 
850	 0.289747361937647 
851	 0.289448524145613 
852	 0.28907363971131 
853	 0.288725984021086 
854	 0.28846921844459 
855	 0.288267891736586 
856	 0.288070296149856 
857	 0.287822148297312 
858	 0.287523858129612 
859	 0.287305599815046 
860	 0.287049003062156 
861	 0.286786942786714 
862	 0.286589486743199 
863	 0.286447575293424 
864	 0.286236514726607 
865	 0.285990340004503 
866	 0.285825553287758 
867	 0.28566534471796 
868	 0.285509058379249 
869	 0.285342739519202 
870	 0.285135085868152 
871	 0.284855794475387 
872	 0.284631884085911 
873	 0.284560113403356 
874	 0.284645299403817 
875	 0.284498909247351 
876	 0.284284630267433 
877	 0.284178105305984 
878	 0.283968526258027 
879	 0.283957674718499 
880	 0.283963305742225 
881	 0.28377085136678 
882	 0.283788851311429 
883	 0.283749202765316 
884	 0.283605803130505 
885	 0.283463399065909 
886	 0.283438227908037 
887	 0.283484875073941 
888	 0.283508088361403 
889	 0.283409835665445 
890	 0.28334126889487 
891	 0.283282952312859 
892	 0.283262085050812 
893	 0.283375785132327 
894	 0.28341972946757 
895	 0.283406603859899 
896	 0.283403769662851 
897	 0.283489349895393 
898	 0.283552859976488 
899	 0.283574453695599 
900	 0.283588082811583 
901	 0.283696886104212 
902	 0.28381966420549 
903	 0.283942716902482 
904	 0.284062560535949 
905	 0.284127483609201 
906	 0.284175938653448 
907	 0.284217803454637 
908	 0.284272965872555 
909	 0.284486564928482 
910	 0.284680974691298 
911	 0.284833115226569 
912	 0.285017749169923 
913	 0.285138735998361 
914	 0.285238083079532 
915	 0.285374252413484 
916	 0.285587627619221 
917	 0.28571140026219 
918	 0.285979427190991 
919	 0.286389689066691 
920	 0.286629978360508 
921	 0.286760924534408 
922	 0.286878397332296 
923	 0.287046457487855 
924	 0.287263098495341 
925	 0.287556121330559 
926	 0.287968651690684 
927	 0.288389741173722 
928	 0.28844417469346 
929	 0.288785370977066 
930	 0.2892005524772 
931	 0.289452286933751 
932	 0.289793221193936 
933	 0.290005619790552 
934	 0.290210750699287 
935	 0.290548402583294 
936	 0.290923351852479 
937	 0.291264375724437 
938	 0.291566554265916 
939	 0.291871704716761 
940	 0.292266185133565 
941	 0.292717314286496 
942	 0.293191827469922 
943	 0.293644311316378 
944	 0.293978538129171 
945	 0.294406422610708 
946	 0.294870366519379 
947	 0.295246487422644 
948	 0.295741372040331 
949	 0.296176236048365 
950	 0.29651522242594 
951	 0.296854494347159 
952	 0.29746835086216 
953	 0.29808766406588 
954	 0.298556120572353 
955	 0.2988917117838 
956	 0.299512303105947 
957	 0.300008475658769 
958	 0.300413902425811 
959	 0.300993533566161 
960	 0.301490824805706 
961	 0.301955353791373 
962	 0.302504377296415 
963	 0.303200624197609 
964	 0.303636848730373 
965	 0.304080586254021 
966	 0.304664388808682 
967	 0.305345908634511 
968	 0.305868081810124 
969	 0.306465825842263 
970	 0.30714439410729 
971	 0.307753204970623 
972	 0.308388806694276 
973	 0.309025228423486 
974	 0.309672233776697 
975	 0.310344649464073 
976	 0.310907943943641 
977	 0.311533869593368 
978	 0.312239093598447 
979	 0.312914159483722 
980	 0.313467915892898 
981	 0.313989036080759 
982	 0.31459497356151 
983	 0.315372635969715 
984	 0.31625562970387 
985	 0.31701732498659 
986	 0.317584671269485 
987	 0.318043944924965 
988	 0.318662861669009 
989	 0.319405342798643 
990	 0.320102109280469 
991	 0.320654588467923 
992	 0.321553866775229 
993	 0.32227217800169 
994	 0.322860479124568 
995	 0.323572810185039 
996	 0.324231279272831 
997	 0.324862570189934 
998	 0.325493156550394 
999	 0.32620843045846 
1000	 0.327314886244528 
1001	 0.330625966754128 
1002	 0.331286639576903 
1003	 0.331944326973519 
1004	 0.332613701624898 
1005	 0.333331013856275 
1006	 0.334011317242682 
1007	 0.334678986961895 
1008	 0.335321496415068 
1009	 0.335957955470724 
1010	 0.336614295475891 
1011	 0.337274844936724 
1012	 0.337944569580662 
1013	 0.338664031756595 
1014	 0.339335005252135 
1015	 0.339982176082684 
1016	 0.340589994039225 
1017	 0.341208742818294 
1018	 0.341790548345848 
1019	 0.342430991412336 
1020	 0.343055358707601 
1021	 0.343715178003773 
1022	 0.344423894050421 
1023	 0.345035140107784 
1024	 0.345626634515607 
1025	 0.346265523644818 
1026	 0.346864825104177 
1027	 0.347440033607266 
1028	 0.348059464594 
1029	 0.348684408858522 
1030	 0.34924234406187 
1031	 0.349810222569699 
1032	 0.350374035315818 
1033	 0.350958662208939 
1034	 0.351511210706331 
1035	 0.352063019835657 
1036	 0.352627010808985 
1037	 0.353111975730042 
1038	 0.353571166177221 
1039	 0.354154943762147 
1040	 0.35473335429509 
1041	 0.355258222819953 
1042	 0.355804650578232 
1043	 0.356305133992282 
1044	 0.35681733740585 
1045	 0.357291060551344 
1046	 0.35785702977272 
1047	 0.35843863724024 
1048	 0.358961402054568 
1049	 0.359485936296847 
1050	 0.360021926858947 
1051	 0.360553553719129 
1052	 0.361095206063831 
1053	 0.361649573480769 
1054	 0.362205684141518 
1055	 0.362723520038647 
1056	 0.363209764838423 
1057	 0.363739401633071 
1058	 0.364274388961198 
1059	 0.364841436363465 
1060	 0.365440682072946 
1061	 0.366048816695645 
1062	 0.366666288142823 
1063	 0.367229789696539 
1064	 0.367789430246799 
1065	 0.368411125270031 
1066	 0.368982074333018 
1067	 0.36950379770584 
1068	 0.370057214301418 
1069	 0.370564061226907 
1070	 0.371085830015998 
1071	 0.371631019723039 
1072	 0.372188684332838 
1073	 0.37273035142122 
1074	 0.373272257028568 
1075	 0.3738283959121 
1076	 0.374379182483226 
1077	 0.374921449152655 
1078	 0.375454857068521 
1079	 0.375997921255235 
1080	 0.37649627041157 
1081	 0.376959545684566 
1082	 0.377477622577242 
1083	 0.377961801981006 
1084	 0.378420307202433 
1085	 0.378905941705599 
1086	 0.37939133282921 
1087	 0.379866395614325 
1088	 0.38034557231344 
1089	 0.380838645141917 
1090	 0.381336718916821 
1091	 0.381813768235629 
1092	 0.382248745956015 
1093	 0.382728127538109 
1094	 0.383165054622395 
1095	 0.383554020136975 
1096	 0.383980720172025 
1097	 0.384389776424495 
1098	 0.384819373145737 
1099	 0.385276291875583 
1100	 0.385699127464607 
1101	 0.386103089360674 
1102	 0.386531176288285 
1103	 0.386975175242631 
1104	 0.387353938591011 
1105	 0.387762778067762 
1106	 0.388238995557139 
1107	 0.388633455530664 
1108	 0.389047995267379 
1109	 0.389506077131807 
1110	 0.389899944642445 
1111	 0.390304582492963 
1112	 0.390711555164963 
1113	 0.391114568578317 
1114	 0.391510439068733 
1115	 0.391896809227794 
1116	 0.392271657772037 
1117	 0.392660102280555 
1118	 0.393037573065868 
1119	 0.393423899986801 
1120	 0.393850915055929 
1121	 0.394258423553253 
1122	 0.394651014891273 
1123	 0.395038958852115 
1124	 0.39544056869726 
1125	 0.395840577513357 
1126	 0.396244817568024 
1127	 0.396664137730374 
1128	 0.397071133837602 
1129	 0.397467570607404 
1130	 0.397866603373938 
1131	 0.398264735333481 
1132	 0.3986703766371 
1133	 0.399090940858019 
1134	 0.399486176507393 
1135	 0.39988393933357 
1136	 0.400256663131386 
1137	 0.400599611756886 
1138	 0.400951920997515 
1139	 0.401322730666139 
1140	 0.401704338945722 
1141	 0.402075078396912 
1142	 0.402459656354192 
1143	 0.402830832181688 
1144	 0.403186395381582 
1145	 0.403548556095192 
1146	 0.403910425284943 
1147	 0.404274946881881 
1148	 0.404622127196013 
1149	 0.404997784884595 
1150	 0.405389412734402 
1151	 0.405802288695404 
1152	 0.406198786804894 
1153	 0.406580714996996 
1154	 0.406946021648445 
1155	 0.407282809743456 
1156	 0.40762609024501 
1157	 0.407964204420014 
1158	 0.408300364241089 
1159	 0.408624878699029 
1160	 0.408960344247238 
1161	 0.409302334930407 
1162	 0.409640648249982 
1163	 0.409969135894472 
1164	 0.410317049770734 
1165	 0.410683155438645 
1166	 0.41102941728407 
1167	 0.411391375017664 
1168	 0.411775514283323 
1169	 0.412136271148754 
1170	 0.412491496136074 
1171	 0.412837997137796 
1172	 0.413177333941864 
1173	 0.413510454482864 
1174	 0.413827504383428 
1175	 0.414156270587827 
1176	 0.414488322026467 
1177	 0.414819398743459 
1178	 0.415140752082786 
1179	 0.415482691095374 
1180	 0.41584689180079 
1181	 0.416190230650175 
1182	 0.416522150572673 
1183	 0.416884600752838 
1184	 0.417232869376049 
1185	 0.417570912330943 
1186	 0.417907299946858 
1187	 0.418241214561349 
1188	 0.418592122749321 
1189	 0.418950085867453 
1190	 0.419287962516497 
1191	 0.419638369304209 
1192	 0.419977772439237 
1193	 0.420286849671724 
1194	 0.42060800385772 
1195	 0.420947249539479 
1196	 0.421271780930986 
1197	 0.421587282820877 
1198	 0.421896305786867 
1199	 0.422199735833389 
1200	 0.422498212516009 
1201	 0.422796034975576 
1202	 0.423088409363869 
1203	 0.423377012392774 
1204	 0.423658531089517 
1205	 0.423950287267552 
1206	 0.424241376650828 
1207	 0.424533622834842 
1208	 0.42484658770634 
1209	 0.425133048130425 
1210	 0.42540070583478 
1211	 0.42567362365616 
1212	 0.425933736173544 
1213	 0.426199524189023 
1214	 0.426480742548694 
1215	 0.426744895443249 
1216	 0.427001344939546 
1217	 0.42724287789966 
1218	 0.427507461741041 
1219	 0.427775447181447 
1220	 0.428035411235964 
1221	 0.428309107820843 
1222	 0.4285715035407 
1223	 0.428812741817144 
1224	 0.429069402566533 
1225	 0.429346416042261 
1226	 0.429601872015593 
1227	 0.429854472715772 
1228	 0.430095179919122 
1229	 0.430311704996472 
1230	 0.430540684824143 
1231	 0.430770108862568 
1232	 0.430997535619416 
1233	 0.431226185719674 
1234	 0.431468055079784 
1235	 0.431685047568582 
1236	 0.431881136177082 
1237	 0.432099952450938 
1238	 0.43232028149319 
1239	 0.432536851856629 
1240	 0.432768253631761 
1241	 0.432987371391982 
1242	 0.43318501718059 
1243	 0.433401149410641 
1244	 0.433631229791666 
1245	 0.433852353419191 
1246	 0.434086233486092 
1247	 0.434301467170133 
1248	 0.43449669301023 
1249	 0.434696635299226 
1250	 0.434909655538482 
1251	 0.435107301737446 
1252	 0.435314719854541 
1253	 0.435540132371459 
1254	 0.435741706940939 
1255	 0.435932947154456 
1256	 0.436120311436239 
1257	 0.436298856544027 
1258	 0.436474117807913 
1259	 0.436634724793481 
1260	 0.436809910189151 
1261	 0.436993257359258 
1262	 0.437166776117158 
1263	 0.437340512897208 
1264	 0.437517604092053 
1265	 0.437705360426907 
1266	 0.437867898522098 
1267	 0.438034037748867 
1268	 0.438173183653921 
1269	 0.438302074223083 
1270	 0.438389246950018 
1271	 0.438517713067669 
1272	 0.438656807416039 
1273	 0.438791030824158 
1274	 0.438931651904838 
1275	 0.439077495389797 
1276	 0.439218313042253 
1277	 0.43937172846775 
1278	 0.439529949553508 
1279	 0.439707574488136 
1280	 0.439891561381153 
1281	 0.440092102507157 
1282	 0.440330150143153 
1283	 0.440552624229131 
1284	 0.440778757451275 
1285	 0.441002280523071 
1286	 0.441215295211997 
1287	 0.441428003483462 
1288	 0.441646104406984 
1289	 0.441860677687899 
1290	 0.442090635445693 
1291	 0.442331587840212 
1292	 0.442568850469922 
1293	 0.44281881464804 
1294	 0.443052503881307 
1295	 0.443274864103723 
1296	 0.443504755011826 
1297	 0.443720211622712 
1298	 0.443959952029053 
1299	 0.444234340259876 
1300	 0.444473804813924 
1301	 0.444714777127054 
1302	 0.444938634614852 
1303	 0.445135449621857 
1304	 0.445324191077871 
1305	 0.445520109388011 
1306	 0.445695329097395 
1307	 0.445848750947331 
1308	 0.445978194647574 
1309	 0.446105915977823 
1310	 0.446206686690427 
1311	 0.446330787319869 
1312	 0.446461763909859 
1313	 0.446580983215875 
1314	 0.446705995375015 
1315	 0.446816842716522 
1316	 0.446916585453892 
1317	 0.44701441588116 
1318	 0.447107048974008 
1319	 0.447192114849801 
1320	 0.447269727543736 
1321	 0.447341616051918 
1322	 0.447411198883801 
1323	 0.4474643580437 
1324	 0.447531247814434 
1325	 0.447588167088994 
1326	 0.447616983265492 
1327	 0.447662894081063 
1328	 0.447670039043513 
1329	 0.447661514068037 
1330	 0.447673964312902 
1331	 0.447685967374748 
1332	 0.447703085765169 
1333	 0.447739927314538 
1334	 0.447753696655173 
1335	 0.447753087817244 
1336	 0.447766126951296 
1337	 0.447774224965462 
1338	 0.447791889939075 
1339	 0.447828777020177 
1340	 0.447847343419486 
1341	 0.447863885231332 
1342	 0.447868038128381 
1343	 0.447863817274864 
1344	 0.447848270347451 
1345	 0.447835271643378 
1346	 0.447816406905731 
1347	 0.447777270194622 
1348	 0.447756663807848 
1349	 0.447696402035363 
1350	 0.447605732065897 
1351	 0.447520236038107 
1352	 0.447402971941091 
1353	 0.447321712338318 
1354	 0.447260476946563 
1355	 0.447185911676183 
1356	 0.447111707539775 
1357	 0.447045914493585 
1358	 0.446970891244495 
1359	 0.446914149145194 
1360	 0.446876310519743 
1361	 0.446844116722517 
1362	 0.446810271870267 
1363	 0.446792222769045 
1364	 0.446803347173952 
1365	 0.446798047291491 
1366	 0.446789347650261 
1367	 0.446784987245829 
1368	 0.446806676830713 
1369	 0.446810587787278 
1370	 0.446807748608574 
1371	 0.446811976385798 
1372	 0.446767689183333 
1373	 0.446691075005887 
1374	 0.446610066263363 
1375	 0.446527162983173 
1376	 0.446400743909452 
1377	 0.446249567073173 
1378	 0.446075096029798 
1379	 0.445845681574107 
1380	 0.445652955013264 
1381	 0.445438204487996 
1382	 0.445260333056142 
1383	 0.445119428239714 
1384	 0.444960838595535 
1385	 0.444851698619621 
1386	 0.444673680783483 
1387	 0.444477002175059 
1388	 0.444236276569738 
1389	 0.443958374836791 
1390	 0.443624024403566 
1391	 0.443259096285609 
1392	 0.442858690258068 
1393	 0.4423978863651 
1394	 0.441913408273491 
1395	 0.441407306929831 
1396	 0.440905468575325 
1397	 0.440433389562646 
1398	 0.439978073144096 
1399	 0.439516839408562 
1400	 0.439075109500218 
1401	 0.438628830245794 
1402	 0.438171162750152 
1403	 0.437734422870889 
1404	 0.437291506412727 
1405	 0.436887325644627 
1406	 0.436510460070813 
1407	 0.436136104105377 
1408	 0.435768466020585 
1409	 0.435452233927099 
1410	 0.435106658475977 
1411	 0.434879119565161 
1412	 0.434714727713947 
1413	 0.434627286441074 
1414	 0.434677267603054 
1415	 0.434783354869674 
1416	 0.43496471744333 
1417	 0.435225815738645 
1418	 0.43549118816202 
1419	 0.435755027037696 
1420	 0.436031920898119 
1421	 0.436276057367701 
1422	 0.436448129689154 
1423	 0.43658947482478 
1424	 0.436677078714595 
1425	 0.436695147909479 
1426	 0.436702353909468 
1427	 0.436670924873169 
1428	 0.436624849165255 
1429	 0.436551608255385 
1430	 0.436463189905434 
1431	 0.436358466976356 
1432	 0.436224934033035 
1433	 0.436035919286327 
1434	 0.435889404870433 
1435	 0.435736291983838 
1436	 0.435600745091986 
1437	 0.435509231153141 
1438	 0.435388820261339 
1439	 0.435264125399783 
1440	 0.435122496025553 
1441	 0.434961315048086 
1442	 0.434791168984951 
1443	 0.434597023652835 
1444	 0.434390389623505 
1445	 0.434176741869981 
1446	 0.433960350141043 
1447	 0.433768832346606 
1448	 0.433549110855547 
1449	 0.43329897982505 
1450	 0.433033523292647 
1451	 0.432741910204164 
1452	 0.432408218034833 
1453	 0.432074201746997 
1454	 0.43173935398539 
1455	 0.431365611489257 
1456	 0.430960167290326 
1457	 0.430540448478824 
1458	 0.430086697541938 
1459	 0.429638922755154 
1460	 0.429167848765415 
1461	 0.42871635907725 
1462	 0.428245620849288 
1463	 0.427826369600581 
1464	 0.427426223869062 
1465	 0.427054570200653 
1466	 0.42671794013778 
1467	 0.426404619792944 
1468	 0.426113365277517 
1469	 0.425849543197213 
1470	 0.425600185764471 
1471	 0.425406557983784 
1472	 0.425237026940525 
1473	 0.425121093675197 
1474	 0.425096792180101 
1475	 0.425127445360303 
1476	 0.425239815297117 
1477	 0.425411253008345 
1478	 0.425640331295743 
1479	 0.425907044954585 
1480	 0.426183167222015 
1481	 0.426499786549643 
1482	 0.426800959122748 
1483	 0.427104106848954 
1484	 0.427412997259484 
1485	 0.427728367173083 
1486	 0.428043867328054 
1487	 0.428377548365065 
1488	 0.428680851373224 
1489	 0.428996600359815 
1490	 0.429245705794602 
1491	 0.429456451682303 
1492	 0.429643995255029 
1493	 0.429774063257259 
1494	 0.42991768584682 
1495	 0.430049365805522 
1496	 0.430170510166505 
1497	 0.430279362087044 
1498	 0.430385576651974 
1499	 0.430482636885718 
1500	 0.430570147394772 
1501	 0.430657121441306 
1502	 0.430729343070793 
1503	 0.430781309983275 
1504	 0.43083354076718 
1505	 0.430896305831685 
1506	 0.4309605670463 
1507	 0.43102653014222 
1508	 0.4310827149469 
1509	 0.431116849134433 
1510	 0.431130809370487 
1511	 0.43115440834212 
1512	 0.43118957122469 
1513	 0.431235050426624 
1514	 0.431289886703813 
1515	 0.431353066055251 
1516	 0.431419162260324 
1517	 0.431457794532573 
1518	 0.431480845648647 
1519	 0.43151131377165 
1520	 0.431519333823721 
1521	 0.431551233302073 
1522	 0.431607102642997 
1523	 0.431644378907024 
1524	 0.431671772179069 
1525	 0.431707465885293 
1526	 0.431737735208957 
1527	 0.43178449786755 
1528	 0.431853644987428 
1529	 0.431900366114328 
1530	 0.431938277597201 
1531	 0.431983992697707 
1532	 0.432015340840358 
1533	 0.432065249999093 
1534	 0.432147412819095 
1535	 0.43220335051489 
1536	 0.432249744647116 
1537	 0.432294293458073 
1538	 0.432328259732755 
1539	 0.432355236550744 
1540	 0.43237194743047 
1541	 0.432403421336767 
1542	 0.432434542852782 
1543	 0.432468096140205 
1544	 0.43251437704377 
1545	 0.432554635508878 
1546	 0.432588845345373 
1547	 0.432615986546043 
1548	 0.432672540910281 
1549	 0.432753679853621 
1550	 0.432834717255145 
1551	 0.432918435820603 
1552	 0.432978879451587 
1553	 0.433020739167066 
1554	 0.433067311141102 
1555	 0.433123262448927 
1556	 0.433185255656786 
1557	 0.433235813858552 
1558	 0.433283358104613 
1559	 0.433325790114074 
1560	 0.43338014995686 
1561	 0.433440212674884 
1562	 0.433498009786862 
1563	 0.433566360393038 
1564	 0.433619381519835 
1565	 0.433659966657927 
1566	 0.433712355679152 
1567	 0.433760254705117 
1568	 0.433816372254258 
1569	 0.433892926496859 
1570	 0.433936299274209 
1571	 0.433973287939917 
1572	 0.434001527280791 
1573	 0.433989922019927 
1574	 0.434021956551632 
1575	 0.434064351512212 
1576	 0.43411588761804 
1577	 0.434217971224707 
1578	 0.434261333784316 
1579	 0.434284018204863 
1580	 0.434298819052566 
1581	 0.434271004262873 
1582	 0.434265379540544 
1583	 0.434257236728048 
1584	 0.434268254689004 
1585	 0.434284068880467 
1586	 0.434314714365453 
1587	 0.43437497169115 
1588	 0.434420693190268 
1589	 0.434483548374097 
1590	 0.434514550945135 
1591	 0.434517130769573 
1592	 0.434534396660405 
1593	 0.434533375634186 
1594	 0.434549294164022 
1595	 0.434587133326539 
1596	 0.434611937427947 
1597	 0.434642504545368 
1598	 0.434658827392705 
1599	 0.434664083892531 
1600	 0.434668351089201 
1601	 0.434655236541043 
1602	 0.434651867444429 
1603	 0.434654705274301 
1604	 0.434654408632569 
1605	 0.43464436535439 
1606	 0.434656092789289 
1607	 0.43469094532353 
1608	 0.434707676876852 
1609	 0.434728942986452 
1610	 0.434736433946324 
1611	 0.434691476576374 
1612	 0.434658025453567 
1613	 0.434627290185416 
1614	 0.434576596865509 
1615	 0.434556404806373 
1616	 0.434537015793552 
1617	 0.434509001975807 
1618	 0.434522555836504 
1619	 0.434520587243035 
1620	 0.434515536054388 
1621	 0.434529035730652 
1622	 0.434562025704612 
1623	 0.434566813095067 
1624	 0.434573759773452 
1625	 0.434567300850583 
1626	 0.434542620050425 
1627	 0.434515378185146 
1628	 0.434486662864184 
1629	 0.434449367268045 
1630	 0.434383634694644 
1631	 0.434363601336637 
1632	 0.434362963432812 
1633	 0.434354219647394 
1634	 0.434368297916441 
1635	 0.434365028581582 
1636	 0.434348668741151 
1637	 0.43433612447264 
1638	 0.434329468898992 
1639	 0.434310251476148 
1640	 0.434277240847553 
1641	 0.43425589850565 
1642	 0.434231253640871 
1643	 0.434218126731219 
1644	 0.434214365011047 
1645	 0.434209610635904 
1646	 0.434217998691598 
1647	 0.434205132461729 
1648	 0.434186582836215 
1649	 0.434161554739225 
1650	 0.434123247257525 
1651	 0.434082856925147 
1652	 0.43403737105625 
1653	 0.433991990964678 
1654	 0.433939707577188 
1655	 0.433888662610349 
1656	 0.433845573130682 
1657	 0.433784245887217 
1658	 0.433700542111275 
1659	 0.433642902780035 
1660	 0.433567167190367 
1661	 0.433545112096209 
1662	 0.43357810373628 
1663	 0.433575802691249 
1664	 0.433600855207153 
1665	 0.433586091214614 
1666	 0.433535285326003 
1667	 0.43349253700652 
1668	 0.433439282882671 
1669	 0.433387430074758 
1670	 0.433331667496464 
1671	 0.433273663781602 
1672	 0.433202196588124 
1673	 0.43315584426273 
1674	 0.433125011510442 
1675	 0.433080536212515 
1676	 0.433035769005912 
1677	 0.433011485954856 
1678	 0.432990480592655 
1679	 0.432965757231495 
1680	 0.432979352840506 
1681	 0.432942837221601 
1682	 0.432860394242169 
1683	 0.432803499222392 
1684	 0.432736752228524 
1685	 0.432681457204445 
1686	 0.4326366043278 
1687	 0.432595113354836 
1688	 0.432556125953612 
1689	 0.432519718415515 
1690	 0.432499774671652 
1691	 0.432461567196644 
1692	 0.432426075115171 
1693	 0.432363728446011 
1694	 0.432259945824398 
1695	 0.432201319387129 
1696	 0.432139936959633 
1697	 0.43210087521559 
1698	 0.432113540513308 
1699	 0.432088070728161 
1700	 0.432058669092625 
1701	 0.432007995228521 
1702	 0.431935361346115 
1703	 0.431865818408414 
1704	 0.431787148559611 
1705	 0.431702251952357 
1706	 0.431602791990604 
1707	 0.431522235306242 
1708	 0.431437977525334 
1709	 0.431363232074054 
1710	 0.431302082469466 
1711	 0.431253390352739 
1712	 0.431219762022245 
1713	 0.43116500126029 
1714	 0.431126652334077 
1715	 0.431055584231788 
1716	 0.430930826435245 
1717	 0.430864676424428 
1718	 0.430820605439506 
1719	 0.430766470141222 
1720	 0.430745877404116 
1721	 0.430693113612468 
1722	 0.430614979519927 
1723	 0.430539463362071 
1724	 0.430462829810417 
1725	 0.430371302987238 
1726	 0.430267059438176 
1727	 0.430157335998213 
1728	 0.430032904596608 
1729	 0.429920917010288 
1730	 0.429813422827914 
1731	 0.429691615531391 
1732	 0.429566890207088 
1733	 0.429444083098851 
1734	 0.429307910242292 
1735	 0.429186610294119 
1736	 0.429084800080608 
1737	 0.428952477051918 
1738	 0.428798495020689 
1739	 0.428671131857018 
1740	 0.428534661803254 
1741	 0.428423705451071 
1742	 0.428360305627575 
1743	 0.428237948228148 
1744	 0.428091379145049 
1745	 0.427959417719965 
1746	 0.427808534135204 
1747	 0.427671848178347 
1748	 0.427534430009009 
1749	 0.427396601481087 
1750	 0.427262273395734 
1751	 0.427143989055778 
1752	 0.427032857397652 
1753	 0.426894670551301 
1754	 0.426733548948867 
1755	 0.426597598644882 
1756	 0.42645853892511 
1757	 0.426291551049132 
1758	 0.426144609316948 
1759	 0.425975724593741 
1760	 0.425814001014888 
1761	 0.425685554703594 
1762	 0.425542483023253 
1763	 0.425407232952217 
1764	 0.42525979505378 
1765	 0.425133601590633 
1766	 0.425049242427029 
1767	 0.424943164808484 
1768	 0.424808627725156 
1769	 0.424676273693017 
1770	 0.424542956130456 
1771	 0.424403796222551 
1772	 0.424294906365361 
1773	 0.424182855560133 
1774	 0.424045914244866 
1775	 0.423905077633324 
1776	 0.423764472105296 
1777	 0.423634808214322 
1778	 0.423511940431898 
1779	 0.423413013685286 
1780	 0.423313266792351 
1781	 0.423197758040605 
1782	 0.423108467321043 
1783	 0.423029546572639 
1784	 0.422935870567487 
1785	 0.422862214408167 
1786	 0.422753893945148 
1787	 0.422607432804141 
1788	 0.42248482438097 
1789	 0.422351441213463 
1790	 0.422228966350802 
1791	 0.422121434898214 
1792	 0.422005918978251 
1793	 0.421894266898799 
1794	 0.421776917748331 
1795	 0.42166640737914 
1796	 0.421541915595331 
1797	 0.42141358922194 
1798	 0.421261219291944 
1799	 0.421074321838353 
1800	 0.420909684548587 
1801	 0.41978103895393 
1802	 0.419733864535507 
1803	 0.4197111140686 
1804	 0.419686087768983 
1805	 0.419653311616943 
1806	 0.419584793112266 
1807	 0.419550757772697 
1808	 0.419490640118598 
1809	 0.419403674914617 
1810	 0.419313092255559 
1811	 0.419241149813813 
1812	 0.419118672598649 
1813	 0.418960796259693 
1814	 0.418824142271833 
1815	 0.418676295937519 
1816	 0.418513322462685 
1817	 0.418317172363978 
1818	 0.418085871458253 
1819	 0.417861695754683 
1820	 0.417619064964665 
1821	 0.417368118624542 
1822	 0.417120803323971 
1823	 0.416892583820985 
1824	 0.416631529930015 
1825	 0.416320542955125 
1826	 0.416002592442348 
1827	 0.415631977992621 
1828	 0.415212175913753 
1829	 0.414742433077153 
1830	 0.414254633472309 
1831	 0.413717468681673 
1832	 0.41316291333324 
1833	 0.412593700450425 
1834	 0.412007616267847 
1835	 0.411420898779379 
1836	 0.410824780268371 
1837	 0.410203379713968 
1838	 0.409605050816514 
1839	 0.409056409075408 
1840	 0.408524004783983 
1841	 0.408016258595327 
1842	 0.407594090207782 
1843	 0.407212051794075 
1844	 0.406825175016584 
1845	 0.406490366023333 
1846	 0.406207797666894 
1847	 0.405948461512912 
1848	 0.405740357990514 
1849	 0.405602986519212 
1850	 0.405531095661791 
1851	 0.405516544268231 
1852	 0.405560045285073 
1853	 0.40567873433602 
1854	 0.405835952899189 
1855	 0.40601991551007 
1856	 0.406229939118039 
1857	 0.406449658117645 
1858	 0.406656162258777 
1859	 0.406853467173486 
1860	 0.407033774273363 
1861	 0.407200841503439 
1862	 0.407330300781253 
1863	 0.407486364256427 
1864	 0.407649557951304 
1865	 0.407857966717104 
1866	 0.408122990610658 
1867	 0.408355073361498 
1868	 0.408603020937051 
1869	 0.408839549881219 
1870	 0.409052184880176 
1871	 0.409265249949461 
1872	 0.409499686328256 
1873	 0.409697062512089 
1874	 0.40984613774839 
1875	 0.409979409167094 
1876	 0.410062015398133 
1877	 0.410088531033163 
1878	 0.410053851127537 
1879	 0.409949885809837 
1880	 0.409778714062909 
1881	 0.409519015452276 
1882	 0.409223067978744 
1883	 0.408888406748841 
1884	 0.408473612378323 
1885	 0.407982469980602 
1886	 0.407442394182071 
1887	 0.406792771395923 
1888	 0.406080902437411 
1889	 0.405342489442423 
1890	 0.404561090734256 
1891	 0.403740627178103 
1892	 0.402883359053118 
1893	 0.401989268508284 
1894	 0.401051077043276 
1895	 0.400068369361124 
1896	 0.399065185820228 
1897	 0.398036486516317 
1898	 0.396975810873785 
1899	 0.395927564755207 
1900	 0.394862150543183 
1901	 0.393803791285376 
1902	 0.392770828654333 
1903	 0.391766635075732 
1904	 0.390745200546591 
1905	 0.389729244807291 
1906	 0.388733924069643 
1907	 0.387729289873477 
1908	 0.386713666614146 
1909	 0.385735374408315 
1910	 0.38475569827865 
1911	 0.383769937258935 
1912	 0.382816518684299 
1913	 0.381889659533926 
1914	 0.380978709389518 
1915	 0.380099389695921 
1916	 0.379250354491248 
1917	 0.378420679769611 
1918	 0.377640011991701 
1919	 0.37686668974582 
1920	 0.376119173415315 
1921	 0.375418198860526 
1922	 0.374723829333241 
1923	 0.374052766016654 
1924	 0.373426744367776 
1925	 0.372837019639968 
1926	 0.372292631083963 
1927	 0.371796757603349 
1928	 0.37131112645403 
1929	 0.370873322660235 
1930	 0.370471554238236 
1931	 0.370088608728398 
1932	 0.369740566244941 
1933	 0.369413948685207 
1934	 0.369128596931833 
1935	 0.368910214612638 
1936	 0.368743570293896 
1937	 0.368620609573152 
1938	 0.368577866126144 
1939	 0.368540020790364 
1940	 0.368518514497891 
1941	 0.368543863038127 
1942	 0.368604093379322 
1943	 0.368703473598928 
1944	 0.3688297227243 
1945	 0.368924469720467 
1946	 0.369042975351396 
1947	 0.369184906150837 
1948	 0.369304743096874 
1949	 0.369436936302237 
1950	 0.369550401581081 
1951	 0.369643146999893 
1952	 0.369722448988167 
1953	 0.369827401103333 
1954	 0.369940784912796 
1955	 0.370078991618658 
1956	 0.370184370012227 
1957	 0.37027215195362 
1958	 0.37032176584004 
1959	 0.370404446778586 
1960	 0.370476418874604 
1961	 0.370571912693555 
1962	 0.37069760973141 
1963	 0.370814424108154 
1964	 0.370940418981647 
1965	 0.371054796747854 
1966	 0.371157400594901 
1967	 0.371262704202831 
1968	 0.371367479217476 
1969	 0.371455690493962 
1970	 0.371558185669187 
1971	 0.371667962508702 
1972	 0.371786252182943 
1973	 0.371910627714921 
1974	 0.37204095421904 
1975	 0.372182773442144 
1976	 0.37231892978026 
1977	 0.372498414527126 
1978	 0.372648878343634 
1979	 0.372778178870664 
1980	 0.37292440300653 
1981	 0.373057975336695 
1982	 0.373155167691798 
1983	 0.37328208837984 
1984	 0.373426417248996 
1985	 0.373571806896264 
1986	 0.373715122521149 
1987	 0.373867396737271 
1988	 0.374033535199441 
1989	 0.374196744564582 
1990	 0.374371687194738 
1991	 0.374557476933637 
1992	 0.374751639919659 
1993	 0.374982606928013 
1994	 0.37516389766297 
1995	 0.375331105454081 
1996	 0.375493796835338 
1997	 0.375624286029214 
1998	 0.375767144494382 
1999	 0.375909527824 
2000	 0.376059330638553 
2001	 0.376210236645982 
2002	 0.37635570257842 
2003	 0.376525192237166 
2004	 0.376695693828893 
2005	 0.376877343268912 
2006	 0.377064668674075 
2007	 0.377271344954978 
2008	 0.377487134878214 
2009	 0.37771880975409 
2010	 0.377988720521108 
2011	 0.378229078523219 
2012	 0.378474475430839 
2013	 0.37870958150022 
2014	 0.378931837020362 
2015	 0.37913409083953 
2016	 0.379358453030942 
2017	 0.379589532795007 
2018	 0.379811754405807 
2019	 0.380051721874013 
2020	 0.380249635160754 
2021	 0.380410348170063 
2022	 0.380598980315149 
2023	 0.3807763603906 
2024	 0.380961367928479 
2025	 0.381175483831259 
2026	 0.381365035049275 
2027	 0.381552502018883 
2028	 0.381710269280467 
2029	 0.381860772215375 
2030	 0.381992847837868 
2031	 0.382139436884064 
2032	 0.382265857244842 
2033	 0.382419385047766 
2034	 0.382588240018821 
2035	 0.382766355604071 
2036	 0.382976212311645 
2037	 0.383151161944201 
2038	 0.383328381123527 
2039	 0.383488680007943 
2040	 0.383626329238317 
2041	 0.383748390227631 
2042	 0.383866417241667 
2043	 0.383983738853213 
2044	 0.38410455728648 
2045	 0.384217969346272 
2046	 0.384334019611698 
2047	 0.384467416746815 
2048	 0.384575227224115 
2049	 0.384658333441171 
2050	 0.384753358159138 
2051	 0.384846874046443 
2052	 0.384936390103589 
2053	 0.38502013753166 
2054	 0.38511788617002 
2055	 0.385235715117641 
2056	 0.385324323619537 
2057	 0.385404397689929 
2058	 0.385489447831763 
2059	 0.385551386155271 
2060	 0.385568657734477 
2061	 0.385623363169168 
2062	 0.385678130639649 
2063	 0.385753229630142 
2064	 0.38585392771118 
2065	 0.385946891560652 
2066	 0.38605822867059 
2067	 0.386155768099562 
2068	 0.386268110469454 
2069	 0.38633394345695 
2070	 0.386403202834923 
2071	 0.386463633249366 
2072	 0.386516775581484 
2073	 0.386554946666743 
2074	 0.386590314747237 
2075	 0.386610642502671 
2076	 0.386646271829369 
2077	 0.386677488272033 
2078	 0.386719193636536 
2079	 0.386777322026997 
2080	 0.386829231956977 
2081	 0.386888731874982 
2082	 0.386933015991048 
2083	 0.386966648062376 
2084	 0.387003555597188 
2085	 0.387043775720342 
2086	 0.387077151027172 
2087	 0.387116544354718 
2088	 0.387173298564183 
2089	 0.387208265510025 
2090	 0.387236590836997 
2091	 0.387251327318212 
2092	 0.387245964072545 
2093	 0.387250641253508 
2094	 0.387244193716776 
2095	 0.387246666077286 
2096	 0.387249089276581 
2097	 0.387265159065872 
2098	 0.387285141735747 
2099	 0.387325193197091 
2100	 0.387344183799086 
2101	 0.38737049202108 
2102	 0.387384524261464 
2103	 0.387374583482803 
2104	 0.38738676711582 
2105	 0.387395190703536 
2106	 0.387433426487662 
2107	 0.387480275146611 
2108	 0.38755042510535 
2109	 0.387660558901724 
2110	 0.387759267675425 
2111	 0.387880527763473 
2112	 0.387981736722185 
2113	 0.388075263785052 
2114	 0.388172989193057 
2115	 0.388234838059462 
2116	 0.388264397475158 
2117	 0.388325057284525 
2118	 0.388364997898051 
2119	 0.388437933718439 
2120	 0.388547844318612 
2121	 0.388638023520418 
2122	 0.388730494026884 
2123	 0.388819657246747 
2124	 0.38891429909588 
2125	 0.388994627931083 
2126	 0.389070132462801 
2127	 0.389137670735934 
2128	 0.389218729592706 
2129	 0.389252379030822 
2130	 0.389258393138459 
2131	 0.38925979198964 
2132	 0.38920645152146 
2133	 0.389096794127124 
2134	 0.388989390283978 
2135	 0.388853180725368 
2136	 0.388708956221271 
2137	 0.388553095186928 
2138	 0.388376119200571 
2139	 0.38818263313489 
2140	 0.387967824933774 
2141	 0.387725036600008 
2142	 0.387477143642392 
2143	 0.387220335250415 
2144	 0.386941833263811 
2145	 0.386639825601395 
2146	 0.386336276140554 
2147	 0.386045068376209 
2148	 0.385700899205283 
2149	 0.385324534872797 
2150	 0.384931218453356 
2151	 0.384504369937912 
2152	 0.38400682856431 
2153	 0.383542801294131 
2154	 0.383076322539177 
2155	 0.382606802510235 
2156	 0.382142392672011 
2157	 0.381656039658112 
2158	 0.381162742023152 
2159	 0.380653897585093 
2160	 0.380116799024275 
2161	 0.379588357218718 
2162	 0.379062863206901 
2163	 0.37852190982423 
2164	 0.377979961004258 
2165	 0.377416067943232 
2166	 0.376859940915047 
2167	 0.37627778573971 
2168	 0.375742026755666 
2169	 0.375246989624885 
2170	 0.374698217881745 
2171	 0.374169080236869 
2172	 0.373582729906198 
2173	 0.372940143775228 
2174	 0.372297322767325 
2175	 0.371627927592199 
2176	 0.370956096693095 
2177	 0.370251666523287 
2178	 0.369567370230697 
2179	 0.368891553231996 
2180	 0.368207594767321 
2181	 0.36753370083973 
2182	 0.366847838912602 
2183	 0.366165754310773 
2184	 0.365455715632805 
2185	 0.364717482667575 
2186	 0.363935846013417 
2187	 0.363206002560825 
2188	 0.362458355422296 
2189	 0.361739507142561 
2190	 0.361057749564704 
2191	 0.360383481671598 
2192	 0.359692034660461 
2193	 0.359053010899437 
2194	 0.35846136183269 
2195	 0.357877185613377 
2196	 0.357329606833905 
2197	 0.356776856488164 
2198	 0.356203719186664 
2199	 0.355695433164519 
2200	 0.355187485033964 
2201	 0.354751541821224 
2202	 0.354407663789862 
2203	 0.354078051251365 
2204	 0.353771969868105 
2205	 0.353509876068151 
2206	 0.353260182843722 
2207	 0.353010558335476 
2208	 0.352835599604741 
2209	 0.352702677538571 
2210	 0.352620310192638 
2211	 0.352619099460195 
2212	 0.352600034149404 
2213	 0.352621985905596 
2214	 0.352632454603778 
2215	 0.352660973981564 
2216	 0.352664675064992 
2217	 0.352686382948037 
2218	 0.352661057916322 
2219	 0.35259238895225 
2220	 0.352520543341789 
2221	 0.352407469519968 
2222	 0.352320711594465 
2223	 0.352220117935489 
2224	 0.352091723590531 
2225	 0.351948387477981 
2226	 0.351802707872407 
2227	 0.35158775487137 
2228	 0.351343026365382 
2229	 0.351058760096294 
2230	 0.350711917182746 
2231	 0.3503537785065 
2232	 0.349970871910838 
2233	 0.349552856492882 
2234	 0.349083771748878 
2235	 0.348627198443047 
2236	 0.348152177826888 
2237	 0.347665268348794 
2238	 0.347190438627421 
2239	 0.346669440289702 
2240	 0.346115131359538 
2241	 0.345542648192484 
2242	 0.344968269063924 
2243	 0.344323571461108 
2244	 0.343640810788363 
2245	 0.342913356433569 
2246	 0.342126938058535 
2247	 0.34125565521914 
2248	 0.340400672394166 
2249	 0.339509086137113 
2250	 0.33861891497014 
2251	 0.337697621086559 
2252	 0.336830493089054 
2253	 0.335943877268583 
2254	 0.335127401604786 
2255	 0.334354150951078 
2256	 0.333615910582536 
2257	 0.332893626910751 
2258	 0.332268454566723 
2259	 0.331688966226898 
2260	 0.331202510139733 
2261	 0.330816909797154 
2262	 0.330480729128859 
2263	 0.330170575340946 
2264	 0.330007517675286 
2265	 0.329965185020918 
2266	 0.329977714787579 
2267	 0.330140425932416 
2268	 0.330322633206747 
2269	 0.330538001861563 
2270	 0.330808066479018 
2271	 0.331180515344388 
2272	 0.33160573235829 
2273	 0.332101449486983 
2274	 0.332647864714476 
2275	 0.333206564519779 
2276	 0.33379460814964 
2277	 0.33443265346412 
2278	 0.335106305586123 
2279	 0.335815704221936 
2280	 0.336580154327186 
2281	 0.337352130052269 
2282	 0.338172225705061 
2283	 0.338974635812416 
2284	 0.339828680880001 
2285	 0.340603712848524 
2286	 0.341354829368619 
2287	 0.342061888207102 
2288	 0.34270264329083 
2289	 0.343341030916912 
2290	 0.343964996832859 
2291	 0.344551267216313 
2292	 0.345115669947039 
2293	 0.345644981876469 
2294	 0.346121370529554 
2295	 0.346589163248396 
2296	 0.347012066270812 
2297	 0.347447154085179 
2298	 0.347891733977797 
2299	 0.34834004207802 
2300	 0.348806094920415 
2301	 0.349257822936966 
2302	 0.349662042109439 
2303	 0.350008641474961 
2304	 0.350334874562179 
2305	 0.350670210285448 
2306	 0.351035147538735 
2307	 0.351435537258451 
2308	 0.351805507361393 
2309	 0.352204988820367 
2310	 0.352537834711021 
2311	 0.352821948948659 
2312	 0.353103001110179 
2313	 0.353343375095474 
2314	 0.353599387731634 
2315	 0.353852549181256 
2316	 0.354101565843306 
2317	 0.354366623857931 
2318	 0.354581147692678 
2319	 0.354772062023303 
2320	 0.354946791657713 
2321	 0.355087118110413 
2322	 0.355217819720768 
2323	 0.355319804016853 
2324	 0.355438265314613 
2325	 0.355553226212024 
2326	 0.355648868564021 
2327	 0.355767921147774 
2328	 0.355834365720787 
2329	 0.355824439209174 
2330	 0.355836354020347 
2331	 0.355865738269684 
2332	 0.355878834003552 
2333	 0.355942654794223 
2334	 0.355982602059235 
2335	 0.355944109283591 
2336	 0.355905746143985 
2337	 0.355807643728684 
2338	 0.355679442671799 
2339	 0.355549541932186 
2340	 0.355387071326179 
2341	 0.355276053629023 
2342	 0.355151564893181 
2343	 0.354901892629594 
2344	 0.354677951271254 
2345	 0.354499797512113 
2346	 0.354296234768932 
2347	 0.354080374973372 
2348	 0.353974319383505 
2349	 0.353726344109444 
2350	 0.353358171926993 
2351	 0.353025565253652 
2352	 0.352653271210824 
2353	 0.352284888941718 
2354	 0.351858573263311 
2355	 0.351526434608978 
2356	 0.35127222974818 
2357	 0.351000406515317 
2358	 0.350790060803683 
2359	 0.350489285735698 
2360	 0.350126038581082 
2361	 0.349772101667833 
2362	 0.349413589887923 
2363	 0.349043390896755 
2364	 0.348670159072918 
2365	 0.348242521001892 
2366	 0.34776294986835 
2367	 0.347269309621191 
2368	 0.346714602312044 
2369	 0.346215075128047 
2370	 0.345729525624926 
2371	 0.345236041406249 
2372	 0.344778273984358 
2373	 0.344323693517628 
2374	 0.343829428591443 
2375	 0.34326897672463 
2376	 0.342641774201804 
2377	 0.341993828350064 
2378	 0.341302363890981 
2379	 0.340596686330018 
2380	 0.339906614511252 
2381	 0.33920573325407 
2382	 0.338536073011547 
2383	 0.337934609517014 
2384	 0.337356558095835 
2385	 0.33677332832986 
2386	 0.336134828358975 
2387	 0.335473211758024 
2388	 0.334897308774643 
2389	 0.334214907700798 
2390	 0.333452253078982 
2391	 0.33276216093875 
2392	 0.332002575465566 
2393	 0.331302639541297 
2394	 0.330751684691442 
2395	 0.330144436536233 
2396	 0.329469966769187 
2397	 0.328798827177215 
2398	 0.328064745020157 
2399	 0.327261707961212 
2400	 0.326513435952085 
2401	 0.325794721033184 
2402	 0.325058031171286 
2403	 0.324467975217022 
2404	 0.323933462070535 
2405	 0.323394401180122 
2406	 0.322861845293781 
2407	 0.322241873144763 
2408	 0.321652234236488 
2409	 0.321034186135373 
2410	 0.320411934037723 
2411	 0.31989836037883 
2412	 0.319275124517053 
2413	 0.318591320170973 
2414	 0.318030125800953 
2415	 0.317467583617266 
2416	 0.316939126487513 
2417	 0.316525852642798 
2418	 0.316043408610244 
2419	 0.315481486931832 
2420	 0.315000230534861 
2421	 0.314584863134583 
2422	 0.314091481536638 
2423	 0.313641939630111 
2424	 0.313144879245868 
2425	 0.312519629761727 
2426	 0.311954711283177 
2427	 0.311402941173121 
2428	 0.310884582034049 
2429	 0.31037001507167 
2430	 0.309936206736017 
2431	 0.309617934213409 
2432	 0.309200733541736 
2433	 0.308790965845832 
2434	 0.308377218826497 
2435	 0.30787755642609 
2436	 0.307396075377324 
2437	 0.307004947994604 
2438	 0.306494138591221 
2439	 0.305868192367649 
2440	 0.305345072868997 
2441	 0.304768093025367 
2442	 0.304292549494238 
2443	 0.30397665939973 
2444	 0.303547641290617 
2445	 0.303127629328222 
2446	 0.302644846967818 
2447	 0.302056942432406 
2448	 0.301484253016178 
2449	 0.300891978155105 
2450	 0.300354839621199 
2451	 0.299793838504866 
2452	 0.299263726783967 
2453	 0.298851003198632 
2454	 0.29830496421078 
2455	 0.297691732178369 
2456	 0.297250643145974 
2457	 0.296754992506779 
2458	 0.296315799331651 
2459	 0.296063291862919 
2460	 0.295661667996488 
2461	 0.295190901209135 
2462	 0.294763748536425 
2463	 0.294243319117641 
2464	 0.293865830699107 
2465	 0.29360883388631 
2466	 0.293298309557084 
2467	 0.293143687447947 
2468	 0.292838699756526 
2469	 0.292394286833767 
2470	 0.29203610174722 
2471	 0.291528513098692 
2472	 0.291320208711684 
2473	 0.291125791174935 
2474	 0.290890290047952 
2475	 0.290648327099045 
2476	 0.290164133710023 
2477	 0.289687594840235 
2478	 0.289227153730862 
2479	 0.28887689277237 
2480	 0.288651131420723 
2481	 0.288384896317126 
2482	 0.288151044654695 
2483	 0.287885196711396 
2484	 0.287678763304026 
2485	 0.287380736654346 
2486	 0.286892997285175 
2487	 0.286401097494752 
2488	 0.285865968551984 
2489	 0.285325158841334 
2490	 0.284856219715079 
2491	 0.284415833780434 
2492	 0.283933989826244 
2493	 0.283574534918545 
2494	 0.283200829345817 
2495	 0.282832709539124 
2496	 0.282522629882201 
2497	 0.281886880498147 
2498	 0.281398852352409 
2499	 0.281064023392261 
2500	 0.280509386754544 
