Wavelength	LMW7 profile 200007.asd
350	 0.05854333597612 
351	 6.14391645695471E-02 
352	 6.24316379575825E-02 
353	 5.92702351348469E-02 
354	 5.95081449904401E-02 
355	 6.33939985878133E-02 
356	 0.065404960803659 
357	 6.15580485570679E-02 
358	 5.96310842152124E-02 
359	 5.91477404852568E-02 
360	 6.10365289683158E-02 
361	 6.60440752627049E-02 
362	 6.12864800611082E-02 
363	 5.85500377261561E-02 
364	 6.18861242998551E-02 
365	 5.86052770616723E-02 
366	 5.85465553271524E-02 
367	 6.17552645161253E-02 
368	 6.51422168487115E-02 
369	 6.48676388833551E-02 
370	 6.32078228651108E-02 
371	 6.17504178217072E-02 
372	 6.14195522609935E-02 
373	 6.29949515800548E-02 
374	 6.41210222532754E-02 
375	 6.41009082383911E-02 
376	 6.58760520687113E-02 
377	 6.58671188668173E-02 
378	 6.54874516408096E-02 
379	 6.67937780897205E-02 
380	 6.80525223464689E-02 
381	 6.76829295612099E-02 
382	 6.78331581930072E-02 
383	 7.25346008112372E-02 
384	 7.27569989601209E-02 
385	 7.14002332306835E-02 
386	 7.16243940962923E-02 
387	 0.073719527254919 
388	 7.61811536244363E-02 
389	 7.75894805317946E-02 
390	 0.077709993203124 
391	 8.13157120266412E-02 
392	 0.083747352934547 
393	 8.47170247401982E-02 
394	 8.77129331976657E-02 
395	 0.088942643000794 
396	 9.06867549428018E-02 
397	 9.40169237613709E-02 
398	 9.53406881224001E-02 
399	 9.71248496595556E-02 
400	 9.98625936512626E-02 
401	 0.103085479310833 
402	 0.105393481368684 
403	 0.107146302006745 
404	 0.10899449718829 
405	 0.111679726209886 
406	 0.11458810173147 
407	 0.117329626227224 
408	 0.119489985085589 
409	 0.120246238961236 
410	 0.121980498787855 
411	 0.124203847793014 
412	 0.125393218818762 
413	 0.127315166021225 
414	 0.129067692356099 
415	 0.130166240857879 
416	 0.130948643667643 
417	 0.131163550224547 
418	 0.13150238570683 
419	 0.132365908329984 
420	 0.132543488855349 
421	 0.132037982586043 
422	 0.131669871325959 
423	 0.132456573542067 
424	 0.131644357175668 
425	 0.130598515382764 
426	 0.130142099444265 
427	 0.129131027372402 
428	 0.128190059368296 
429	 0.127232531754757 
430	 0.126068419815066 
431	 0.125161508531682 
432	 0.123892863946317 
433	 0.12256550424638 
434	 0.122332544232903 
435	 0.122158719452802 
436	 0.122411689427849 
437	 0.123243510596573 
438	 0.123469828455419 
439	 0.124288166251841 
440	 0.125821442842248 
441	 0.12759279894174 
442	 0.129030191486049 
443	 0.130862259422398 
444	 0.133226092310131 
445	 0.135171714142877 
446	 0.137319261449469 
447	 0.139517199555654 
448	 0.141535460091814 
449	 0.14374025418344 
450	 0.146056817886493 
451	 0.148348543667131 
452	 0.150455656025352 
453	 0.152633597721504 
454	 0.154753919551719 
455	 0.156753336448634 
456	 0.158910709597477 
457	 0.160930776792657 
458	 0.162844461349086 
459	 0.164784052852238 
460	 0.16651000666215 
461	 0.168013507245435 
462	 0.169421451057684 
463	 0.171013728149365 
464	 0.172487647476026 
465	 0.17384050911355 
466	 0.175140316189373 
467	 0.176374706650409 
468	 0.177549777646284 
469	 0.178678333140054 
470	 0.179785606319314 
471	 0.181007232287594 
472	 0.182176013776474 
473	 0.183205876297206 
474	 0.184319386151851 
475	 0.185366519131339 
476	 0.186299341903254 
477	 0.187148475434276 
478	 0.188173432233529 
479	 0.189058721855064 
480	 0.189824215193543 
481	 0.191023777366109 
482	 0.191919181212487 
483	 0.192779754874379 
484	 0.193945030425671 
485	 0.194865660570292 
486	 0.195710934262024 
487	 0.196552368494033 
488	 0.197366819648846 
489	 0.198141073607366 
490	 0.198996693011345 
491	 0.199976876756968 
492	 0.200898470917732 
493	 0.201695392794718 
494	 0.202412964776975 
495	 0.203185305194016 
496	 0.204351311487376 
497	 0.205245757773791 
498	 0.205753044286591 
499	 0.206706457081838 
500	 0.207499561800072 
501	 0.208163624075551 
502	 0.208903592805909 
503	 0.209855371046888 
504	 0.210736901005193 
505	 0.211486400678387 
506	 0.212256012587708 
507	 0.213052391976883 
508	 0.213937347130152 
509	 0.214878932800301 
510	 0.21558681771598 
511	 0.216250144564801 
512	 0.216936163369006 
513	 0.217650437822747 
514	 0.218424474487344 
515	 0.21926878220437 
516	 0.220121419681503 
517	 0.220788428094425 
518	 0.221587306205723 
519	 0.222397415148524 
520	 0.223028754230642 
521	 0.223734263485004 
522	 0.224442087177991 
523	 0.225130382428191 
524	 0.225847234846213 
525	 0.226532728096391 
526	 0.22724986715024 
527	 0.228039695585116 
528	 0.228799573269943 
529	 0.229512552312579 
530	 0.230189982918814 
531	 0.2308675164544 
532	 0.231599408974384 
533	 0.23241417520082 
534	 0.233250377085179 
535	 0.233852469131354 
536	 0.234510367504024 
537	 0.23523641594233 
538	 0.235943185745497 
539	 0.236686331795137 
540	 0.237357489981719 
541	 0.237963938815099 
542	 0.238677873274921 
543	 0.239386571340488 
544	 0.24009712355482 
545	 0.240837444472335 
546	 0.241604311075387 
547	 0.24229840534861 
548	 0.24296788580248 
549	 0.243772947061802 
550	 0.244465266969201 
551	 0.245178799181527 
552	 0.246005401811101 
553	 0.246737976129504 
554	 0.247513422168195 
555	 0.248335444021016 
556	 0.249140971470632 
557	 0.249942268412097 
558	 0.250725892677128 
559	 0.251516724466644 
560	 0.252424495424334 
561	 0.253187077063066 
562	 0.253921882568653 
563	 0.254833700341897 
564	 0.25582398845418 
565	 0.256744463894286 
566	 0.257563554772861 
567	 0.258385055253002 
568	 0.259274573033976 
569	 0.260270538355205 
570	 0.261345831941058 
571	 0.262316857506061 
572	 0.263230058231733 
573	 0.264114824887965 
574	 0.264992604428094 
575	 0.26595270705421 
576	 0.267019554782931 
577	 0.268141256044231 
578	 0.269129405229093 
579	 0.270093683814265 
580	 0.270995281755075 
581	 0.271785197796485 
582	 0.272763244911583 
583	 0.27377796621586 
584	 0.274746760908787 
585	 0.275742765888131 
586	 0.27693545094816 
587	 0.278168465957266 
588	 0.279265753989515 
589	 0.280451273217643 
590	 0.281580330176964 
591	 0.282665526631435 
592	 0.283863358185804 
593	 0.284997468178527 
594	 0.286039658893042 
595	 0.286987695376604 
596	 0.28781921376915 
597	 0.288611289720862 
598	 0.289390529835196 
599	 0.290162146763469 
600	 0.290971598057699 
601	 0.291864568319756 
602	 0.292823133103096 
603	 0.293728720833008 
604	 0.294557697965586 
605	 0.295392605877794 
606	 0.296331548254658 
607	 0.297317760436611 
608	 0.298194841326398 
609	 0.298992481957581 
610	 0.299952495232883 
611	 0.300772677855102 
612	 0.301468969334855 
613	 0.30212732188264 
614	 0.302798303018166 
615	 0.303421777542212 
616	 0.304003631160469 
617	 0.304589750725238 
618	 0.305138743160821 
619	 0.305637906393426 
620	 0.306105641378476 
621	 0.306613429066697 
622	 0.30714536483411 
623	 0.307623695015568 
624	 0.307992754973428 
625	 0.308542766968273 
626	 0.309007803335968 
627	 0.309321330642899 
628	 0.309734998257821 
629	 0.310180727719368 
630	 0.310600754321556 
631	 0.310960706323855 
632	 0.31132682528522 
633	 0.311645174386265 
634	 0.31198211060242 
635	 0.3124767799693 
636	 0.312744475688955 
637	 0.313039577534576 
638	 0.313518171494715 
639	 0.313814994079448 
640	 0.314117376689538 
641	 0.314456651711764 
642	 0.314795021202719 
643	 0.315105358177297 
644	 0.315466627739685 
645	 0.31587522759271 
646	 0.316193433982536 
647	 0.316520865526323 
648	 0.316873836442416 
649	 0.317245207195454 
650	 0.317634294667716 
651	 0.318029737330032 
652	 0.318394610023648 
653	 0.318683125896374 
654	 0.319087018444776 
655	 0.319476497169972 
656	 0.319770637019507 
657	 0.320155181087784 
658	 0.32060085373123 
659	 0.321056133787065 
660	 0.321458700204488 
661	 0.321794660785511 
662	 0.32225121137246 
663	 0.322821796338289 
664	 0.323194885093155 
665	 0.323579832429318 
666	 0.324026911822401 
667	 0.324495710318028 
668	 0.324734639174033 
669	 0.325162166221704 
670	 0.325772203824359 
671	 0.326206808398013 
672	 0.326662526568026 
673	 0.32718354141079 
674	 0.327727500224212 
675	 0.328088574916496 
676	 0.328545317834774 
677	 0.329053333011891 
678	 0.329461276636339 
679	 0.32994527651497 
680	 0.330453573237295 
681	 0.330954731192704 
682	 0.331470715196231 
683	 0.33197806830566 
684	 0.332473588519174 
685	 0.332962533323955 
686	 0.33345941054099 
687	 0.333939406915454 
688	 0.334436120815748 
689	 0.335007179518831 
690	 0.33546601008719 
691	 0.335924577515158 
692	 0.336463586052864 
693	 0.337027410250408 
694	 0.337463295789838 
695	 0.337893150838416 
696	 0.338478033931484 
697	 0.338961044176127 
698	 0.339460228234171 
699	 0.340011558230439 
700	 0.34054124594955 
701	 0.341008372146679 
702	 0.34142410006439 
703	 0.341835728832051 
704	 0.342363360444613 
705	 0.342807212423174 
706	 0.343171092877959 
707	 0.343567991267844 
708	 0.344025264666292 
709	 0.344495013695266 
710	 0.344927609424953 
711	 0.345284599861184 
712	 0.345655264872686 
713	 0.346030845801849 
714	 0.346376396711021 
715	 0.346660475531369 
716	 0.347019951408036 
717	 0.347420215031684 
718	 0.347710822365432 
719	 0.34799440120057 
720	 0.348238144440609 
721	 0.348420906222987 
722	 0.348563919884719 
723	 0.348860827760254 
724	 0.349181779559869 
725	 0.349335014267399 
726	 0.349446622933574 
727	 0.34958957664639 
728	 0.349733204856224 
729	 0.349764058784602 
730	 0.349859996302285 
731	 0.349941835982565 
732	 0.349949760088202 
733	 0.349995306804699 
734	 0.349928707449526 
735	 0.34979911635844 
736	 0.349720116958797 
737	 0.349642996223506 
738	 0.349529033010642 
739	 0.349382918138032 
740	 0.34925379769737 
741	 0.349062406755584 
742	 0.348852560546104 
743	 0.348648265393527 
744	 0.348336108969208 
745	 0.348072116039085 
746	 0.347828004643238 
747	 0.347502194009579 
748	 0.347155263786657 
749	 0.34685272843269 
750	 0.346548812763265 
751	 0.346070363022187 
752	 0.345599444965118 
753	 0.345168676242596 
754	 0.344760162978706 
755	 0.344319998422503 
756	 0.343872552039163 
757	 0.343422995872495 
758	 0.342957562072382 
759	 0.342408621477136 
760	 0.341742919015531 
761	 0.341055781240313 
762	 0.340585148883515 
763	 0.340064434022779 
764	 0.339443270867133 
765	 0.338768574545078 
766	 0.338210644119811 
767	 0.337597755229137 
768	 0.33688972889978 
769	 0.336142288452203 
770	 0.335545525126908 
771	 0.335004372006172 
772	 0.334406106748398 
773	 0.333660816317114 
774	 0.333036789929437 
775	 0.332414784862155 
776	 0.331682384117134 
777	 0.330990931744833 
778	 0.330351332737618 
779	 0.329704147836185 
780	 0.328976976023913 
781	 0.328258532801473 
782	 0.327591736437524 
783	 0.326947234643664 
784	 0.326232254636175 
785	 0.325548821565951 
786	 0.324900682389953 
787	 0.324252610545609 
788	 0.323513747222332 
789	 0.322821536115043 
790	 0.322174690805594 
791	 0.321519067456823 
792	 0.320832461141215 
793	 0.320191077364685 
794	 0.319544186066053 
795	 0.31875389249168 
796	 0.318066594395235 
797	 0.317432081888743 
798	 0.316787385222892 
799	 0.316136616137733 
800	 0.31550264469535 
801	 0.314895844760838 
802	 0.314291975538854 
803	 0.313538797288652 
804	 0.312927958699071 
805	 0.312421903296434 
806	 0.311796541145076 
807	 0.311217929073349 
808	 0.310576772300397 
809	 0.309876078886423 
810	 0.309290720023151 
811	 0.308733794700462 
812	 0.308210224812582 
813	 0.307707639247794 
814	 0.307123379564441 
815	 0.306482062793651 
816	 0.305868089557899 
817	 0.305358189696102 
818	 0.304838960543353 
819	 0.304308359484391 
820	 0.303780066313567 
821	 0.30327258811438 
822	 0.302748629629553 
823	 0.302235312900163 
824	 0.3017379060469 
825	 0.301209876577097 
826	 0.300770117539139 
827	 0.300362860858925 
828	 0.299909525045736 
829	 0.299428787994823 
830	 0.298889303953853 
831	 0.29834162742012 
832	 0.297867680023558 
833	 0.297475461463038 
834	 0.297090835098445 
835	 0.296671707695249 
836	 0.29622614050433 
837	 0.295902815906375 
838	 0.295612240204149 
839	 0.295259959875434 
840	 0.294817466427441 
841	 0.294333172756885 
842	 0.293866681691355 
843	 0.293477652120072 
844	 0.29323625318087 
845	 0.292908738096623 
846	 0.292551376927674 
847	 0.292308957661376 
848	 0.291966437466055 
849	 0.291572877186945 
850	 0.291200649786033 
851	 0.290908574223938 
852	 0.290544278712274 
853	 0.290216992325182 
854	 0.289982730379282 
855	 0.289766926949382 
856	 0.289615286381242 
857	 0.289383052720256 
858	 0.289012823975288 
859	 0.288770508184883 
860	 0.288517861070369 
861	 0.288272270694586 
862	 0.288082828412227 
863	 0.287906858636123 
864	 0.287695707179883 
865	 0.287488786572708 
866	 0.287353080544844 
867	 0.287135073727962 
868	 0.286953565058579 
869	 0.286812840970131 
870	 0.286584168765306 
871	 0.286277711436972 
872	 0.286079034837658 
873	 0.286065761257866 
874	 0.286099628933382 
875	 0.285981336230369 
876	 0.285785229155278 
877	 0.285622180651606 
878	 0.285472772442691 
879	 0.285465672188106 
880	 0.28545664719016 
881	 0.285298390629571 
882	 0.285258814943305 
883	 0.285213164302046 
884	 0.285094317801207 
885	 0.28491406092378 
886	 0.284887790948365 
887	 0.284959055280264 
888	 0.284989243472428 
889	 0.284837741803533 
890	 0.284824357768114 
891	 0.28481004515597 
892	 0.284780305495115 
893	 0.284927949640133 
894	 0.284912642041482 
895	 0.284852916391928 
896	 0.284878290900948 
897	 0.28496666814167 
898	 0.285054607472544 
899	 0.285084823915455 
900	 0.285060497880516 
901	 0.285116744194414 
902	 0.285270099446128 
903	 0.285436562529403 
904	 0.285525615635596 
905	 0.285577797758495 
906	 0.285641581269853 
907	 0.285693132184065 
908	 0.285715836252779 
909	 0.285917532360328 
910	 0.286128146016518 
911	 0.286296690416722 
912	 0.286462941350441 
913	 0.286601910222945 
914	 0.286737795477907 
915	 0.286896200726997 
916	 0.287087575050669 
917	 0.287193352417302 
918	 0.287435937587032 
919	 0.287817767006828 
920	 0.288057231228648 
921	 0.288243296675032 
922	 0.28837147353336 
923	 0.288488527722391 
924	 0.288721453821899 
925	 0.289055921062469 
926	 0.289462887685671 
927	 0.289834456398368 
928	 0.289943808717451 
929	 0.290245774115611 
930	 0.290619506665319 
931	 0.290905841284494 
932	 0.291232313146777 
933	 0.291381767980997 
934	 0.291567985330359 
935	 0.291978609639315 
936	 0.292354131019415 
937	 0.292760405847054 
938	 0.293115852804723 
939	 0.293379986985515 
940	 0.293789273481551 
941	 0.294230376271587 
942	 0.294652489302098 
943	 0.295038972543155 
944	 0.295391937234767 
945	 0.29580140816642 
946	 0.296265897116684 
947	 0.296736102778664 
948	 0.297190174770396 
949	 0.297594175583174 
950	 0.2979441580297 
951	 0.29829050812977 
952	 0.298825619585918 
953	 0.299462749439077 
954	 0.300016900653631 
955	 0.300369785556523 
956	 0.300979113661104 
957	 0.301466080164996 
958	 0.301856687584345 
959	 0.30240911065009 
960	 0.303013959853404 
961	 0.303527023527553 
962	 0.304012951185357 
963	 0.304620933730572 
964	 0.305137454282053 
965	 0.305599868723838 
966	 0.306103325700774 
967	 0.306729430218987 
968	 0.307312423907102 
969	 0.307979475958783 
970	 0.308608678574225 
971	 0.30901110889088 
972	 0.309711650528265 
973	 0.310410293368028 
974	 0.311073586697934 
975	 0.311830525399239 
976	 0.312387232925666 
977	 0.312997438379727 
978	 0.313733666013657 
979	 0.314478344996136 
980	 0.31496729135051 
981	 0.315407931418815 
982	 0.316011501377669 
983	 0.316858880980339 
984	 0.317534542501571 
985	 0.318284540821369 
986	 0.319042993418932 
987	 0.319610526793628 
988	 0.320157214200499 
989	 0.320796484160046 
990	 0.321470607229776 
991	 0.322107966919574 
992	 0.323039268587592 
993	 0.323696484852081 
994	 0.32426239026229 
995	 0.325097505763311 
996	 0.32572857798442 
997	 0.326229497915879 
998	 0.326768552313838 
999	 0.327532969244718 
1000	 0.328672920782833 
1001	 0.331928570613291 
1002	 0.332548800642172 
1003	 0.333198700843827 
1004	 0.333883166793679 
1005	 0.334614712138844 
1006	 0.335327330631755 
1007	 0.336066382853483 
1008	 0.336800636129271 
1009	 0.33745304662976 
1010	 0.338038683596498 
1011	 0.338632773428248 
1012	 0.339199028984665 
1013	 0.339823776845396 
1014	 0.34059862865329 
1015	 0.341323435669486 
1016	 0.341970125944741 
1017	 0.342624476090208 
1018	 0.343271644521607 
1019	 0.343859921033726 
1020	 0.344461538642635 
1021	 0.345139495375779 
1022	 0.345808646615352 
1023	 0.346389532469682 
1024	 0.347008298435667 
1025	 0.347640091907672 
1026	 0.348187915049197 
1027	 0.34876050187405 
1028	 0.349332576472864 
1029	 0.349869858848504 
1030	 0.350465575116431 
1031	 0.351066983046242 
1032	 0.351710350012057 
1033	 0.352318376543003 
1034	 0.352891412079373 
1035	 0.353396760808342 
1036	 0.353895865450836 
1037	 0.354393772345951 
1038	 0.354903335908254 
1039	 0.3554800472641 
1040	 0.356012905921955 
1041	 0.356531805175323 
1042	 0.357085188808196 
1043	 0.357631187108528 
1044	 0.358186422843697 
1045	 0.358775549056621 
1046	 0.359351230335523 
1047	 0.359897820622125 
1048	 0.360426606371589 
1049	 0.360910129124554 
1050	 0.361399921352979 
1051	 0.361911007690538 
1052	 0.362470176082698 
1053	 0.363077970433585 
1054	 0.363660677317188 
1055	 0.364203475410118 
1056	 0.364724973594416 
1057	 0.365275921508859 
1058	 0.365831352897281 
1059	 0.366384280745738 
1060	 0.366947111821887 
1061	 0.367534457825062 
1062	 0.368110300541992 
1063	 0.368677356477326 
1064	 0.3692814161701 
1065	 0.369877386964443 
1066	 0.37041928618239 
1067	 0.370943413939789 
1068	 0.371494911575245 
1069	 0.372017463394845 
1070	 0.372559786725648 
1071	 0.373122665674057 
1072	 0.373688035612602 
1073	 0.374262673189284 
1074	 0.37482002333069 
1075	 0.375383398800447 
1076	 0.375893483467951 
1077	 0.376420224096133 
1078	 0.37694395628971 
1079	 0.377443424398877 
1080	 0.377940711842048 
1081	 0.378416567996679 
1082	 0.378879379693463 
1083	 0.379362146568995 
1084	 0.379855369546266 
1085	 0.380355512018253 
1086	 0.380874584359072 
1087	 0.381366019318031 
1088	 0.381864534415438 
1089	 0.382313636117673 
1090	 0.38275143107118 
1091	 0.383199488835775 
1092	 0.383659777669013 
1093	 0.384157122197466 
1094	 0.384638104063673 
1095	 0.38509072216556 
1096	 0.385521415113874 
1097	 0.385908882907118 
1098	 0.386343966123777 
1099	 0.386811403709644 
1100	 0.387260507601775 
1101	 0.387727467190033 
1102	 0.38816755002445 
1103	 0.388598309974481 
1104	 0.388995128613682 
1105	 0.389379396296335 
1106	 0.389823160274184 
1107	 0.390251604945842 
1108	 0.390663104747824 
1109	 0.391055502652315 
1110	 0.391418873074651 
1111	 0.391836060510064 
1112	 0.392266694530885 
1113	 0.392689606357906 
1114	 0.39317544330781 
1115	 0.393592611042887 
1116	 0.393944595194622 
1117	 0.394345216930818 
1118	 0.394750391330451 
1119	 0.395142937645196 
1120	 0.395571162618883 
1121	 0.395975319348482 
1122	 0.396378693842328 
1123	 0.396794056241506 
1124	 0.397209687773153 
1125	 0.397643789100897 
1126	 0.398065259699195 
1127	 0.398474581271393 
1128	 0.398887316076585 
1129	 0.399300556234033 
1130	 0.399714848076905 
1131	 0.400149998005337 
1132	 0.400551067234121 
1133	 0.400928384569098 
1134	 0.401311354311536 
1135	 0.401682253971807 
1136	 0.40203795268465 
1137	 0.402390533648848 
1138	 0.402758363969676 
1139	 0.403126840134845 
1140	 0.403476714247685 
1141	 0.40385244075519 
1142	 0.404257521261669 
1143	 0.404648388314749 
1144	 0.405036549691668 
1145	 0.405425429834721 
1146	 0.405820037718346 
1147	 0.406203114078757 
1148	 0.406571364581126 
1149	 0.406958390778335 
1150	 0.407358198682226 
1151	 0.40774474813931 
1152	 0.408128654424643 
1153	 0.40851809200702 
1154	 0.408885090931479 
1155	 0.40922636671562 
1156	 0.409576785218413 
1157	 0.409930700866669 
1158	 0.410269401521859 
1159	 0.410587083932474 
1160	 0.410926590537708 
1161	 0.411249324036365 
1162	 0.411606685929626 
1163	 0.41201153833632 
1164	 0.412388709373442 
1165	 0.412774362689874 
1166	 0.413149988559849 
1167	 0.413517629778691 
1168	 0.413864634347501 
1169	 0.414218321165443 
1170	 0.414581345446914 
1171	 0.41492342797465 
1172	 0.415246616711787 
1173	 0.415578688406 
1174	 0.415899205310575 
1175	 0.416236365587796 
1176	 0.416586324290687 
1177	 0.416929897482313 
1178	 0.417278033050044 
1179	 0.417624137175676 
1180	 0.417964224862518 
1181	 0.418310040418606 
1182	 0.41866941167012 
1183	 0.419017447736397 
1184	 0.419355863856676 
1185	 0.41968120603832 
1186	 0.420029624397666 
1187	 0.420372297470594 
1188	 0.420730887296686 
1189	 0.421117859207988 
1190	 0.421484565925206 
1191	 0.421863613362723 
1192	 0.422210849951934 
1193	 0.422541684177496 
1194	 0.422867061440101 
1195	 0.423159355963207 
1196	 0.423465779248107 
1197	 0.423780384437913 
1198	 0.424087294471072 
1199	 0.424391882894933 
1200	 0.424695311269151 
1201	 0.425000271329124 
1202	 0.425303772521412 
1203	 0.42560297079012 
1204	 0.42590102486219 
1205	 0.42620156026033 
1206	 0.426496845203807 
1207	 0.426796124341838 
1208	 0.427107649180972 
1209	 0.427405652396657 
1210	 0.427704208964866 
1211	 0.427988205016545 
1212	 0.42826082667262 
1213	 0.42852908770736 
1214	 0.428783026608165 
1215	 0.429038152867096 
1216	 0.429290952122223 
1217	 0.4295315074186 
1218	 0.429801462272943 
1219	 0.430088238486288 
1220	 0.430357932453684 
1221	 0.430640481163041 
1222	 0.430912012123366 
1223	 0.43116810170055 
1224	 0.431426000339982 
1225	 0.431686840246373 
1226	 0.431946948667388 
1227	 0.432206389571858 
1228	 0.432454332765232 
1229	 0.432702105761544 
1230	 0.432944960523092 
1231	 0.433178936977462 
1232	 0.433403406245523 
1233	 0.433622069072051 
1234	 0.433837209397279 
1235	 0.434052983011342 
1236	 0.434251665254135 
1237	 0.434473201756448 
1238	 0.434714615627217 
1239	 0.434939612834139 
1240	 0.435160203150565 
1241	 0.435388892277972 
1242	 0.435628665850413 
1243	 0.435844659272802 
1244	 0.436053345587043 
1245	 0.436264575736219 
1246	 0.436446713963547 
1247	 0.436649708676508 
1248	 0.436859363039018 
1249	 0.43709497385583 
1250	 0.437334314257387 
1251	 0.437555632114567 
1252	 0.437760278952384 
1253	 0.437958124257433 
1254	 0.438142941349966 
1255	 0.438288516573571 
1256	 0.438477347454861 
1257	 0.438678448455725 
1258	 0.438880738961334 
1259	 0.439114583527114 
1260	 0.439317974474113 
1261	 0.439520867563024 
1262	 0.439699208316639 
1263	 0.439843837627176 
1264	 0.440002000333027 
1265	 0.440145227996662 
1266	 0.440295183463937 
1267	 0.440457532270162 
1268	 0.440620550033325 
1269	 0.440764792811294 
1270	 0.440898614542308 
1271	 0.441034219626956 
1272	 0.441156554054753 
1273	 0.441285638529213 
1274	 0.441405910216125 
1275	 0.441549731944006 
1276	 0.441695382321139 
1277	 0.441865558315741 
1278	 0.44207376277102 
1279	 0.44225994598663 
1280	 0.44244288296659 
1281	 0.442636478826885 
1282	 0.442819711062066 
1283	 0.443021422560398 
1284	 0.443243199079095 
1285	 0.443469379856389 
1286	 0.443693728969992 
1287	 0.443943090555312 
1288	 0.44416401612083 
1289	 0.444375744050567 
1290	 0.444597060788899 
1291	 0.444798878679609 
1292	 0.445031802787605 
1293	 0.44529234860066 
1294	 0.445540522928678 
1295	 0.445798124868038 
1296	 0.446045363835177 
1297	 0.446291710994972 
1298	 0.446529090624898 
1299	 0.446768523945054 
1300	 0.446986773861434 
1301	 0.447171861032206 
1302	 0.44737728881403 
1303	 0.447578580215406 
1304	 0.447792370872616 
1305	 0.447989338287481 
1306	 0.448178818328683 
1307	 0.448323008097624 
1308	 0.448414166410745 
1309	 0.448535566619112 
1310	 0.448649920072332 
1311	 0.448764480651011 
1312	 0.448885883681322 
1313	 0.448999934013187 
1314	 0.449109099862767 
1315	 0.449199491720406 
1316	 0.449272907946352 
1317	 0.449363936408627 
1318	 0.449444392018505 
1319	 0.449533271420716 
1320	 0.449661784784136 
1321	 0.449748003673738 
1322	 0.449817488014411 
1323	 0.449866403768153 
1324	 0.449898876553272 
1325	 0.449920709513669 
1326	 0.449942372741419 
1327	 0.44998334221875 
1328	 0.45002786015226 
1329	 0.450038282857635 
1330	 0.45005453945639 
1331	 0.450054685970871 
1332	 0.450076987137894 
1333	 0.450109004821617 
1334	 0.450133606371197 
1335	 0.450169918248943 
1336	 0.450191471087626 
1337	 0.450195474649949 
1338	 0.450210453986495 
1339	 0.450221419875754 
1340	 0.450242642600432 
1341	 0.450282987968776 
1342	 0.450300485465264 
1343	 0.450318351757796 
1344	 0.45032704445472 
1345	 0.45030607637609 
1346	 0.45029461304301 
1347	 0.450280176981889 
1348	 0.450252161566364 
1349	 0.450187521630084 
1350	 0.450093034758351 
1351	 0.450003384842077 
1352	 0.449871082318057 
1353	 0.449789898805504 
1354	 0.449740809863725 
1355	 0.44966725910313 
1356	 0.449593452690563 
1357	 0.449525767941558 
1358	 0.449431613557711 
1359	 0.449383827908022 
1360	 0.449370409954334 
1361	 0.449355782422881 
1362	 0.44936401919533 
1363	 0.449368624632081 
1364	 0.449375042660347 
1365	 0.449386511941061 
1366	 0.449403561187045 
1367	 0.449425611799118 
1368	 0.449450517445 
1369	 0.44946013249135 
1370	 0.449482054212518 
1371	 0.449476855517024 
1372	 0.449433874237601 
1373	 0.449389625162571 
1374	 0.449310258633409 
1375	 0.449194961482027 
1376	 0.449065471301785 
1377	 0.448921520196586 
1378	 0.448747690852929 
1379	 0.448524179662646 
1380	 0.448333143911061 
1381	 0.448115103971603 
1382	 0.447936067525004 
1383	 0.447798924089471 
1384	 0.447641313367056 
1385	 0.447525402973211 
1386	 0.447346550823499 
1387	 0.447157127419928 
1388	 0.446913308259106 
1389	 0.446623287320153 
1390	 0.44628896969901 
1391	 0.445936770974212 
1392	 0.445528592480131 
1393	 0.445084732665683 
1394	 0.444644955468525 
1395	 0.444154468994202 
1396	 0.4436703966783 
1397	 0.443207435319668 
1398	 0.442746249310658 
1399	 0.442288918429603 
1400	 0.441853198147241 
1401	 0.44140286976458 
1402	 0.440936368532895 
1403	 0.440494122782298 
1404	 0.44004966458582 
1405	 0.439640114325013 
1406	 0.43925132170145 
1407	 0.438876729858031 
1408	 0.438502762630662 
1409	 0.438181762650506 
1410	 0.437847650988159 
1411	 0.43762444570832 
1412	 0.437459659197522 
1413	 0.437378458391712 
1414	 0.437404245189373 
1415	 0.437502143835295 
1416	 0.43768750081847 
1417	 0.437937548926154 
1418	 0.438210817907118 
1419	 0.438486270977471 
1420	 0.438763145889467 
1421	 0.439009365137552 
1422	 0.439199711253459 
1423	 0.439365440215827 
1424	 0.439463556622171 
1425	 0.439486665727468 
1426	 0.439497078741023 
1427	 0.439459968300817 
1428	 0.439412484010921 
1429	 0.439331602744774 
1430	 0.439253123976168 
1431	 0.439170105477089 
1432	 0.43904733494222 
1433	 0.438888843096044 
1434	 0.438746214846771 
1435	 0.438567008989462 
1436	 0.438419327236048 
1437	 0.438301120220784 
1438	 0.438175991375445 
1439	 0.438058573560989 
1440	 0.437935584120086 
1441	 0.437804794727328 
1442	 0.437644845009738 
1443	 0.437447967237233 
1444	 0.437238554513098 
1445	 0.437026807322377 
1446	 0.436811852634774 
1447	 0.436591522860354 
1448	 0.436358207741704 
1449	 0.436097602253846 
1450	 0.435802189933487 
1451	 0.435489600462596 
1452	 0.435149029010693 
1453	 0.434797818136362 
1454	 0.43442603783158 
1455	 0.434041276918276 
1456	 0.433641809312187 
1457	 0.433226557857132 
1458	 0.432783482517403 
1459	 0.432351090705287 
1460	 0.431903275200276 
1461	 0.431467944912888 
1462	 0.431020150972278 
1463	 0.430616232559054 
1464	 0.430222392478237 
1465	 0.429852778697615 
1466	 0.429524666847371 
1467	 0.429204083184459 
1468	 0.428873288716565 
1469	 0.428604004720697 
1470	 0.428371988749366 
1471	 0.428162173320967 
1472	 0.427996039767267 
1473	 0.42790816001981 
1474	 0.427885528775914 
1475	 0.427923908766268 
1476	 0.428048448830326 
1477	 0.428221111223791 
1478	 0.428444181276933 
1479	 0.428695770201951 
1480	 0.4289775728168 
1481	 0.429296061323727 
1482	 0.429585087279375 
1483	 0.429865145480083 
1484	 0.430175487850437 
1485	 0.430488770027698 
1486	 0.430807641354134 
1487	 0.431175001193292 
1488	 0.431482381660243 
1489	 0.431776708556458 
1490	 0.432024128416295 
1491	 0.432231752602612 
1492	 0.432431577518893 
1493	 0.432594106043071 
1494	 0.432750658625407 
1495	 0.432896608609413 
1496	 0.433023645526682 
1497	 0.433121323182272 
1498	 0.433223912876727 
1499	 0.433323010093872 
1500	 0.43340998342627 
1501	 0.43348770559885 
1502	 0.433562280449448 
1503	 0.433630285926523 
1504	 0.433683595943842 
1505	 0.433738220846204 
1506	 0.433794883023242 
1507	 0.433847195290281 
1508	 0.43388156535135 
1509	 0.433918116068603 
1510	 0.433958820188364 
1511	 0.433981846443648 
1512	 0.434016891596647 
1513	 0.434071921549841 
1514	 0.434119407355602 
1515	 0.434189851815716 
1516	 0.434258732080981 
1517	 0.434293087693025 
1518	 0.434299830009791 
1519	 0.434325940414694 
1520	 0.434324186213238 
1521	 0.43436568453244 
1522	 0.434448018935462 
1523	 0.434495835491623 
1524	 0.434541039415323 
1525	 0.434589246838279 
1526	 0.434626190726275 
1527	 0.434663148131189 
1528	 0.434713407744 
1529	 0.434749607834644 
1530	 0.43475889564304 
1531	 0.434797157648541 
1532	 0.434838776126599 
1533	 0.434892177834558 
1534	 0.434987818146059 
1535	 0.43503985517356 
1536	 0.435072016698853 
1537	 0.435114506810493 
1538	 0.435140987544837 
1539	 0.435163984729758 
1540	 0.435181272287483 
1541	 0.435219120996713 
1542	 0.435262139337109 
1543	 0.435296652834043 
1544	 0.435350187875484 
1545	 0.435396134674866 
1546	 0.435418866245876 
1547	 0.435452463599969 
1548	 0.435513382116802 
1549	 0.435570060886552 
1550	 0.435625242639475 
1551	 0.435679997843269 
1552	 0.435729489288196 
1553	 0.435784624270501 
1554	 0.435858196416607 
1555	 0.435937121676808 
1556	 0.435994411945279 
1557	 0.436035445633489 
1558	 0.436077306094838 
1559	 0.436119231291789 
1560	 0.436177861735357 
1561	 0.436263166422622 
1562	 0.436323032359204 
1563	 0.436380759999136 
1564	 0.436431974900906 
1565	 0.436469438446835 
1566	 0.436518351909834 
1567	 0.436563073504268 
1568	 0.436614925888437 
1569	 0.436674936121701 
1570	 0.436731026220518 
1571	 0.436796008364327 
1572	 0.436852805598053 
1573	 0.436905334042706 
1574	 0.43695025028194 
1575	 0.436987467421261 
1576	 0.437022732337443 
1577	 0.437063099220808 
1578	 0.437080354936136 
1579	 0.437081048764558 
1580	 0.437088043979044 
1581	 0.437070545129519 
1582	 0.437074809551998 
1583	 0.437095093528854 
1584	 0.437114101224799 
1585	 0.437131826152796 
1586	 0.437163243479891 
1587	 0.437210713906432 
1588	 0.437246750309738 
1589	 0.437301182374982 
1590	 0.437329428145274 
1591	 0.43732634629618 
1592	 0.43734291154573 
1593	 0.437353936588299 
1594	 0.437368213425784 
1595	 0.437397200589019 
1596	 0.437420854126905 
1597	 0.437445961018331 
1598	 0.43746137739863 
1599	 0.437472165143349 
1600	 0.437479898202347 
1601	 0.437469338612934 
1602	 0.437473950075111 
1603	 0.437480560315787 
1604	 0.437497747813594 
1605	 0.437530611798152 
1606	 0.437560729583171 
1607	 0.437602789639158 
1608	 0.437640702453611 
1609	 0.437666952636243 
1610	 0.437657243150186 
1611	 0.437606524874895 
1612	 0.437567778914174 
1613	 0.437508235942673 
1614	 0.437449512802481 
1615	 0.437416030691129 
1616	 0.437373736520395 
1617	 0.437371665740782 
1618	 0.437381517194606 
1619	 0.437382121294274 
1620	 0.437405050351969 
1621	 0.437411715836425 
1622	 0.437409855602509 
1623	 0.437406638049317 
1624	 0.437408540386392 
1625	 0.437390271192914 
1626	 0.43735761539192 
1627	 0.437327963703027 
1628	 0.437285189134149 
1629	 0.437256643821278 
1630	 0.437224334625692 
1631	 0.437219351223585 
1632	 0.437231008993703 
1633	 0.437243183964431 
1634	 0.437286620112732 
1635	 0.437283530437216 
1636	 0.437261216641716 
1637	 0.437239580465667 
1638	 0.43719379921654 
1639	 0.43716499684886 
1640	 0.437141041606212 
1641	 0.437122373494486 
1642	 0.437104190491855 
1643	 0.437091744055045 
1644	 0.437088786387416 
1645	 0.437082628519908 
1646	 0.437082289314808 
1647	 0.437070228951011 
1648	 0.437060020701986 
1649	 0.437034515789545 
1650	 0.436987819371185 
1651	 0.436959087267433 
1652	 0.436945457242158 
1653	 0.436893179397522 
1654	 0.43681999928096 
1655	 0.436768578041318 
1656	 0.436692092903339 
1657	 0.43664216067173 
1658	 0.436626572895695 
1659	 0.436599418881733 
1660	 0.436566688947321 
1661	 0.436538927677345 
1662	 0.43652644195303 
1663	 0.436499599512048 
1664	 0.436458998482228 
1665	 0.436430933772429 
1666	 0.436408556698456 
1667	 0.436379276886713 
1668	 0.436359855590846 
1669	 0.436319563134081 
1670	 0.436264179467692 
1671	 0.436208520680628 
1672	 0.43613739683336 
1673	 0.436078314997328 
1674	 0.436016035573824 
1675	 0.435967503812869 
1676	 0.435927854798354 
1677	 0.435892884251825 
1678	 0.435866994459939 
1679	 0.435844938762648 
1680	 0.435849647815811 
1681	 0.435807644165131 
1682	 0.435746908092058 
1683	 0.435685767728309 
1684	 0.435570668176025 
1685	 0.435517311977464 
1686	 0.435502776523381 
1687	 0.4354759901232 
1688	 0.435481235742743 
1689	 0.435452696334692 
1690	 0.435400737161602 
1691	 0.435359805599588 
1692	 0.435312206584468 
1693	 0.435268299650151 
1694	 0.435235814194451 
1695	 0.43518554150414 
1696	 0.435115326539364 
1697	 0.435066233036318 
1698	 0.435017984997424 
1699	 0.434974574903552 
1700	 0.434948741139727 
1701	 0.434913129736144 
1702	 0.434885362412255 
1703	 0.434827385557878 
1704	 0.434766768123005 
1705	 0.434674726978867 
1706	 0.434528710003868 
1707	 0.434426925403011 
1708	 0.434313431124197 
1709	 0.434235738590072 
1710	 0.434192632643625 
1711	 0.434147191755052 
1712	 0.434128489415473 
1713	 0.434088406425067 
1714	 0.434051585390507 
1715	 0.434001112929861 
1716	 0.433934276895624 
1717	 0.433869716307193 
1718	 0.433793012513128 
1719	 0.433730551258887 
1720	 0.43367695205502 
1721	 0.433611299952176 
1722	 0.43355679412721 
1723	 0.433479975916341 
1724	 0.433376936647671 
1725	 0.43329103251253 
1726	 0.433210534589067 
1727	 0.433112447074931 
1728	 0.433011311441497 
1729	 0.432901965010191 
1730	 0.432785516415893 
1731	 0.43264774721792 
1732	 0.432492450863079 
1733	 0.432356975179595 
1734	 0.432203001827221 
1735	 0.432067335547015 
1736	 0.431961020201137 
1737	 0.431833716603124 
1738	 0.431689481072664 
1739	 0.431567121934614 
1740	 0.431454552781405 
1741	 0.431339523545652 
1742	 0.431235958672376 
1743	 0.431120065082451 
1744	 0.43099907855365 
1745	 0.430871331922013 
1746	 0.430733913663825 
1747	 0.430612291840052 
1748	 0.430490096014175 
1749	 0.430342494073435 
1750	 0.430204885992177 
1751	 0.430061110680276 
1752	 0.429905508770791 
1753	 0.429761232259576 
1754	 0.429620988054326 
1755	 0.429490540801605 
1756	 0.429331918730642 
1757	 0.42918389384566 
1758	 0.42907532060581 
1759	 0.428947125674755 
1760	 0.428817158451031 
1761	 0.428702789342516 
1762	 0.428561294315772 
1763	 0.428418615045571 
1764	 0.428316768827349 
1765	 0.428197325095126 
1766	 0.428071985322736 
1767	 0.427951859262168 
1768	 0.427802188207468 
1769	 0.427673134307238 
1770	 0.427530194318836 
1771	 0.427376395427401 
1772	 0.427253264125055 
1773	 0.427103013805424 
1774	 0.426983321320959 
1775	 0.426878220878952 
1776	 0.426731562382167 
1777	 0.426608922104144 
1778	 0.426493394031433 
1779	 0.426408160393679 
1780	 0.426325606537593 
1781	 0.426219723296656 
1782	 0.426151079844121 
1783	 0.426043796096212 
1784	 0.425930657756471 
1785	 0.425827685193854 
1786	 0.425697011301734 
1787	 0.425521308986863 
1788	 0.425388437111492 
1789	 0.425271438668283 
1790	 0.425160921908269 
1791	 0.425059971455739 
1792	 0.424971376093729 
1793	 0.42491207433114 
1794	 0.424825965176238 
1795	 0.424775338375365 
1796	 0.424643917656918 
1797	 0.424443924725578 
1798	 0.424239200161102 
1799	 0.423953646718708 
1800	 0.42377005058632 
1801	 0.422761876570321 
1802	 0.422710694687551 
1803	 0.422716825648047 
1804	 0.42268492190681 
1805	 0.422645241656023 
1806	 0.422620666169135 
1807	 0.422578089031533 
1808	 0.422525073705143 
1809	 0.422476692227609 
1810	 0.422393097598019 
1811	 0.422288106752875 
1812	 0.422171895379819 
1813	 0.42203969945555 
1814	 0.42187112932602 
1815	 0.421681660856362 
1816	 0.421489120529556 
1817	 0.421297275211024 
1818	 0.4210933692963 
1819	 0.4208793356675 
1820	 0.420674340638588 
1821	 0.420447218428959 
1822	 0.42017619703634 
1823	 0.419906691927018 
1824	 0.419627307218106 
1825	 0.419300718570618 
1826	 0.418973904380919 
1827	 0.418618403116624 
1828	 0.418212221569805 
1829	 0.417767478869847 
1830	 0.417297609629395 
1831	 0.416787909435111 
1832	 0.416245832166361 
1833	 0.415673777634471 
1834	 0.415095607459554 
1835	 0.414476759786251 
1836	 0.413843864417141 
1837	 0.413230978908416 
1838	 0.412623914257927 
1839	 0.412072997107763 
1840	 0.411563155811942 
1841	 0.411079188452819 
1842	 0.410622051811017 
1843	 0.410229908290685 
1844	 0.409851699008252 
1845	 0.409511811327579 
1846	 0.409238152082882 
1847	 0.408982829775175 
1848	 0.408756912076324 
1849	 0.408585639667823 
1850	 0.408510584700429 
1851	 0.408506299544837 
1852	 0.408581655983476 
1853	 0.408703494538193 
1854	 0.408848217375527 
1855	 0.408996626734643 
1856	 0.409124097022111 
1857	 0.409289419050984 
1858	 0.40949831912319 
1859	 0.40966658387548 
1860	 0.409847702768361 
1861	 0.410039612834081 
1862	 0.41022236772769 
1863	 0.410384651332881 
1864	 0.410592700820565 
1865	 0.4108183271799 
1866	 0.411050103057394 
1867	 0.411297034242235 
1868	 0.411539732788093 
1869	 0.411769190551213 
1870	 0.412006145802497 
1871	 0.412220349713535 
1872	 0.412430379144674 
1873	 0.412616100573359 
1874	 0.412784618648337 
1875	 0.412929112514872 
1876	 0.413026088587962 
1877	 0.413074164484207 
1878	 0.41305022913154 
1879	 0.412947104559823 
1880	 0.412780913939303 
1881	 0.412548153601268 
1882	 0.412249744012556 
1883	 0.411896163881283 
1884	 0.41144451314284 
1885	 0.410942586602006 
1886	 0.410395255897475 
1887	 0.409768404208553 
1888	 0.409114462948304 
1889	 0.408381662426587 
1890	 0.40759076286016 
1891	 0.406795743896712 
1892	 0.40597025034011 
1893	 0.405103174044022 
1894	 0.404221070704284 
1895	 0.403301095073256 
1896	 0.402282598015943 
1897	 0.401229703284446 
1898	 0.400171318293694 
1899	 0.399102840153147 
1900	 0.398042581631687 
1901	 0.397011691661886 
1902	 0.395986982868541 
1903	 0.394965006423695 
1904	 0.393955305388979 
1905	 0.392967565949242 
1906	 0.391990773715443 
1907	 0.390991471127854 
1908	 0.389993993466075 
1909	 0.389032611601525 
1910	 0.388055168318882 
1911	 0.387093496646228 
1912	 0.386173130798461 
1913	 0.385261366004394 
1914	 0.384345895009964 
1915	 0.383471098843885 
1916	 0.38262173309629 
1917	 0.381800935643145 
1918	 0.381017679507091 
1919	 0.380248697248653 
1920	 0.379510177896201 
1921	 0.378796107370487 
1922	 0.378099447600808 
1923	 0.377443880611065 
1924	 0.376821326174837 
1925	 0.376230908926336 
1926	 0.375682307881831 
1927	 0.375170011630622 
1928	 0.37469136006183 
1929	 0.374254255560145 
1930	 0.373841505657814 
1931	 0.373451684562578 
1932	 0.373075728801474 
1933	 0.372736957354462 
1934	 0.372465573128278 
1935	 0.372246422623025 
1936	 0.372087774846921 
1937	 0.37197343062056 
1938	 0.37192383827014 
1939	 0.371891567723746 
1940	 0.37190007549211 
1941	 0.371942307365659 
1942	 0.372001006880188 
1943	 0.372080748110582 
1944	 0.372186464745936 
1945	 0.372292220963071 
1946	 0.372403019059752 
1947	 0.372526188049209 
1948	 0.372653910660424 
1949	 0.372799956462295 
1950	 0.372922331887869 
1951	 0.373041006525609 
1952	 0.373158820123696 
1953	 0.373257312911962 
1954	 0.373349849605597 
1955	 0.373450584990116 
1956	 0.373538329140849 
1957	 0.373624795330496 
1958	 0.373696555691788 
1959	 0.373779870420095 
1960	 0.373861428739559 
1961	 0.373957599522943 
1962	 0.374066836049452 
1963	 0.374173850382927 
1964	 0.374293085001939 
1965	 0.374401462559921 
1966	 0.374501014488261 
1967	 0.374606176512592 
1968	 0.374710201299653 
1969	 0.374797704647361 
1970	 0.374910434665024 
1971	 0.375042122289844 
1972	 0.37516676119326 
1973	 0.375312461211247 
1974	 0.375445251148188 
1975	 0.375567474635 
1976	 0.375676529371891 
1977	 0.375843652491059 
1978	 0.375987646672379 
1979	 0.376115792925265 
1980	 0.376264235124351 
1981	 0.376393000797049 
1982	 0.376475825651489 
1983	 0.376594581931154 
1984	 0.376736608450998 
1985	 0.376873404072061 
1986	 0.37700486432794 
1987	 0.37715187728021 
1988	 0.377310520950568 
1989	 0.37746523843496 
1990	 0.377645067497233 
1991	 0.37783873307502 
1992	 0.37802970992264 
1993	 0.378246789074354 
1994	 0.378429315279698 
1995	 0.378603032058306 
1996	 0.378762187355738 
1997	 0.378888854309441 
1998	 0.379040088409606 
1999	 0.379189899066286 
2000	 0.379343479427262 
2001	 0.379513217999774 
2002	 0.379670995930941 
2003	 0.379830350569096 
2004	 0.380001718796365 
2005	 0.380183792454931 
2006	 0.380387461773608 
2007	 0.380579267498886 
2008	 0.380755130163227 
2009	 0.380966961098221 
2010	 0.381197086345667 
2011	 0.381427240918744 
2012	 0.381699861685146 
2013	 0.381945599297379 
2014	 0.382191416357995 
2015	 0.382402832278158 
2016	 0.382603025238992 
2017	 0.382801682135655 
2018	 0.383016505615578 
2019	 0.383232903541044 
2020	 0.383446233200503 
2021	 0.38368230181998 
2022	 0.383891557216366 
2023	 0.384078581387627 
2024	 0.384273777875273 
2025	 0.384486218049509 
2026	 0.384660092748311 
2027	 0.384826459256644 
2028	 0.384954332372524 
2029	 0.385088041545967 
2030	 0.385182528329472 
2031	 0.385315308067218 
2032	 0.385461639495998 
2033	 0.385612632726854 
2034	 0.385765008404464 
2035	 0.38593349042515 
2036	 0.386124543110489 
2037	 0.386302000863993 
2038	 0.386506590722216 
2039	 0.386674352519886 
2040	 0.386827614113585 
2041	 0.386952561865806 
2042	 0.387064394758436 
2043	 0.387191776707945 
2044	 0.387310854099715 
2045	 0.387426684145908 
2046	 0.387550668418913 
2047	 0.387686537890697 
2048	 0.38779624367628 
2049	 0.387904655060902 
2050	 0.387999192177768 
2051	 0.388067756535708 
2052	 0.388137228067755 
2053	 0.388198875339771 
2054	 0.388267027827962 
2055	 0.388335050846515 
2056	 0.388389091612865 
2057	 0.388457279642257 
2058	 0.388543300477571 
2059	 0.388600914130135 
2060	 0.388633685602447 
2061	 0.388700461064505 
2062	 0.38876215544969 
2063	 0.38884108670598 
2064	 0.388955582928773 
2065	 0.389059397805854 
2066	 0.389159376876 
2067	 0.389265116600081 
2068	 0.38940301380755 
2069	 0.389494685922793 
2070	 0.389591736340627 
2071	 0.389700059556717 
2072	 0.38975765800259 
2073	 0.389783518255068 
2074	 0.389808746828868 
2075	 0.389773751446502 
2076	 0.389803072205984 
2077	 0.389873283647984 
2078	 0.38991393987094 
2079	 0.389970059355985 
2080	 0.390016195216739 
2081	 0.390040367487134 
2082	 0.390062632274773 
2083	 0.390079086437748 
2084	 0.39011319330952 
2085	 0.39013864204492 
2086	 0.390149716093672 
2087	 0.390175645161766 
2088	 0.39021681011775 
2089	 0.390246248743161 
2090	 0.390278695473148 
2091	 0.390294933465478 
2092	 0.390298599459042 
2093	 0.390308128624995 
2094	 0.39030123432653 
2095	 0.390310202817284 
2096	 0.390327154847053 
2097	 0.390350633544825 
2098	 0.390395051801727 
2099	 0.390422607328545 
2100	 0.390442502971087 
2101	 0.390462392954574 
2102	 0.390474935319838 
2103	 0.390459791494235 
2104	 0.39047713668335 
2105	 0.390501532762541 
2106	 0.390541357312698 
2107	 0.39059806876967 
2108	 0.390661178345302 
2109	 0.390736316321762 
2110	 0.390819529992684 
2111	 0.390933472463153 
2112	 0.391018477465666 
2113	 0.391107121597485 
2114	 0.391172859284742 
2115	 0.391235222808968 
2116	 0.391264782426359 
2117	 0.391333493958211 
2118	 0.391409487000567 
2119	 0.391497491952707 
2120	 0.391610845539181 
2121	 0.3917090370178 
2122	 0.391814039515827 
2123	 0.391907155882322 
2124	 0.391990064269748 
2125	 0.392075939290875 
2126	 0.392186030236542 
2127	 0.392248457099069 
2128	 0.392307403780925 
2129	 0.392322415752153 
2130	 0.392283210056061 
2131	 0.392225706021124 
2132	 0.392157900593927 
2133	 0.392072816308037 
2134	 0.391956054310559 
2135	 0.39181475012068 
2136	 0.391662312707985 
2137	 0.391475773834386 
2138	 0.391291036111422 
2139	 0.391110163886224 
2140	 0.390897960156336 
2141	 0.390660127014464 
2142	 0.390413776480538 
2143	 0.39014425941195 
2144	 0.389871758153933 
2145	 0.389612993549603 
2146	 0.389309920963691 
2147	 0.388985976363028 
2148	 0.388635376197904 
2149	 0.388253882318004 
2150	 0.387826894442663 
2151	 0.387397506846855 
2152	 0.38695274516927 
2153	 0.386478911809644 
2154	 0.385961089638899 
2155	 0.385474074667563 
2156	 0.384961362967251 
2157	 0.384481981705865 
2158	 0.384064759542103 
2159	 0.383582383790954 
2160	 0.38308233094763 
2161	 0.382571701616455 
2162	 0.382005120075951 
2163	 0.381464781902759 
2164	 0.380942869885517 
2165	 0.380419206139038 
2166	 0.379856128779459 
2167	 0.379275059056654 
2168	 0.378700913121847 
2169	 0.378097772892017 
2170	 0.377506437888485 
2171	 0.376946768952421 
2172	 0.376337377867668 
2173	 0.375699095214075 
2174	 0.375051168152097 
2175	 0.374382318654732 
2176	 0.373702226830315 
2177	 0.372993539497306 
2178	 0.372296264751342 
2179	 0.371576886630874 
2180	 0.370880992239593 
2181	 0.370223697997933 
2182	 0.369533634015889 
2183	 0.368836321635001 
2184	 0.368133099589947 
2185	 0.367416045272785 
2186	 0.366657025740306 
2187	 0.365939234813884 
2188	 0.36523555338501 
2189	 0.364530222734445 
2190	 0.363820779080698 
2191	 0.363144895385587 
2192	 0.362477793616883 
2193	 0.361830119522574 
2194	 0.361205041326833 
2195	 0.360606163006868 
2196	 0.360024745804519 
2197	 0.359460109126995 
2198	 0.358910408002906 
2199	 0.358402859435616 
2200	 0.357914856435193 
2201	 0.357463257274913 
2202	 0.357062942979872 
2203	 0.356683370642126 
2204	 0.356335672879227 
2205	 0.356010185321882 
2206	 0.355730448805611 
2207	 0.355471869230925 
2208	 0.355295969179664 
2209	 0.355180052018243 
2210	 0.355102099905503 
2211	 0.355120272197222 
2212	 0.355106693282949 
2213	 0.355118285010774 
2214	 0.355125328447111 
2215	 0.355145641214772 
2216	 0.35515333033068 
2217	 0.355169801970702 
2218	 0.355166354434119 
2219	 0.355172276777571 
2220	 0.355128015248498 
2221	 0.355041049748637 
2222	 0.354959325217051 
2223	 0.354834991827166 
2224	 0.354699712603623 
2225	 0.35452286932273 
2226	 0.35433069138942 
2227	 0.354097363348146 
2228	 0.353810482969645 
2229	 0.353521064249065 
2230	 0.353219454009675 
2231	 0.352881970492702 
2232	 0.352532201640056 
2233	 0.352122050943663 
2234	 0.351650461501602 
2235	 0.351181668108629 
2236	 0.35065242847079 
2237	 0.350150841183404 
2238	 0.349680761941637 
2239	 0.34916434534373 
2240	 0.348662421301536 
2241	 0.348080816744376 
2242	 0.347436810270608 
2243	 0.346766773571816 
2244	 0.346047854577393 
2245	 0.345282314769133 
2246	 0.344532919699247 
2247	 0.343722346023053 
2248	 0.342865735176538 
2249	 0.34194884808283 
2250	 0.341057235559176 
2251	 0.340098743074497 
2252	 0.339227056140458 
2253	 0.338390932293314 
2254	 0.337568397754776 
2255	 0.33676244873255 
2256	 0.336001881429429 
2257	 0.335214686854492 
2258	 0.334588832372681 
2259	 0.334064006005602 
2260	 0.333586478623629 
2261	 0.333206963574989 
2262	 0.332894883455072 
2263	 0.332616143301969 
2264	 0.332446073898009 
2265	 0.332399678140987 
2266	 0.332405731570158 
2267	 0.332480485711732 
2268	 0.332640277116178 
2269	 0.332892914451278 
2270	 0.333207542294211 
2271	 0.333572049841306 
2272	 0.334009954552054 
2273	 0.334482493464624 
2274	 0.335022364543154 
2275	 0.335606121618511 
2276	 0.336265778205329 
2277	 0.33693144423589 
2278	 0.337642238653836 
2279	 0.338359047219981 
2280	 0.339101102014307 
2281	 0.33987631728408 
2282	 0.340697450675151 
2283	 0.341486977608411 
2284	 0.342315625891615 
2285	 0.343096985675569 
2286	 0.343856279635621 
2287	 0.344575000743381 
2288	 0.345279191299864 
2289	 0.345932580160125 
2290	 0.346532524357165 
2291	 0.347112551379455 
2292	 0.347653187989333 
2293	 0.348170692600469 
2294	 0.348637800188285 
2295	 0.349115733645082 
2296	 0.349582361478002 
2297	 0.350032122163772 
2298	 0.350501643908418 
2299	 0.350923056951042 
2300	 0.35134902007432 
2301	 0.351787163185482 
2302	 0.352210106467761 
2303	 0.352665401722688 
2304	 0.353084234378248 
2305	 0.353481281995471 
2306	 0.353863245305454 
2307	 0.354220140905273 
2308	 0.354562947050839 
2309	 0.354907277511476 
2310	 0.35520410119461 
2311	 0.355444756910866 
2312	 0.35572341618071 
2313	 0.355981796197241 
2314	 0.356242791543051 
2315	 0.356527678275263 
2316	 0.356799224201002 
2317	 0.357077653745286 
2318	 0.357305479750583 
2319	 0.357520296824646 
2320	 0.357710845116475 
2321	 0.3578298438361 
2322	 0.357983264347827 
2323	 0.35816613727756 
2324	 0.358302184808889 
2325	 0.358419570673454 
2326	 0.358517043360998 
2327	 0.358575839851496 
2328	 0.358630670596385 
2329	 0.358680769069765 
2330	 0.358714155320297 
2331	 0.3587516991366 
2332	 0.3587670238446 
2333	 0.358768774389849 
2334	 0.358770234806059 
2335	 0.358722713656879 
2336	 0.35868870520491 
2337	 0.358665049007675 
2338	 0.358600722291946 
2339	 0.358526861748706 
2340	 0.358382916181804 
2341	 0.358223796387309 
2342	 0.358073148135283 
2343	 0.357846523202306 
2344	 0.357681311922729 
2345	 0.357487205573924 
2346	 0.357264045220421 
2347	 0.357021949349906 
2348	 0.356777991059931 
2349	 0.356508130869501 
2350	 0.356220216961975 
2351	 0.355910033534967 
2352	 0.355585000271254 
2353	 0.355236231286465 
2354	 0.354811864532604 
2355	 0.354453647994429 
2356	 0.354132117043742 
2357	 0.353796926780213 
2358	 0.353477619976823 
2359	 0.353157856001804 
2360	 0.35283550052462 
2361	 0.352491447453851 
2362	 0.352196492131776 
2363	 0.351807957424791 
2364	 0.35133607189718 
2365	 0.350869909778786 
2366	 0.350324573833108 
2367	 0.34983904566492 
2368	 0.34938309706281 
2369	 0.348911687309169 
2370	 0.348475457468496 
2371	 0.348002589472742 
2372	 0.347419226758694 
2373	 0.346948053027209 
2374	 0.346490690709961 
2375	 0.345895538469711 
2376	 0.345348966866347 
2377	 0.344707565197426 
2378	 0.343973233103965 
2379	 0.343317621452112 
2380	 0.342681838603558 
2381	 0.342038775834649 
2382	 0.341366443822929 
2383	 0.340723916030423 
2384	 0.340067180008583 
2385	 0.33935632366932 
2386	 0.338727861570086 
2387	 0.33806052001079 
2388	 0.337349444752781 
2389	 0.336727156814593 
2390	 0.336049485100819 
2391	 0.33541301008957 
2392	 0.334800012556 
2393	 0.334067311780566 
2394	 0.333375274096031 
2395	 0.332668893943354 
2396	 0.331935091652536 
2397	 0.33124462925844 
2398	 0.330484715737645 
2399	 0.329706814414225 
2400	 0.329021105022402 
2401	 0.328306817772461 
2402	 0.327616570960807 
2403	 0.327052499727745 
2404	 0.326491631559662 
2405	 0.325959497462059 
2406	 0.325406824812044 
2407	 0.324857479770367 
2408	 0.324263292003615 
2409	 0.323535768708548 
2410	 0.322913492167318 
2411	 0.322279333360718 
2412	 0.321659837702123 
2413	 0.321235768912753 
2414	 0.320743819023892 
2415	 0.320198635415774 
2416	 0.319681601979146 
2417	 0.319122135003209 
2418	 0.318544338769598 
2419	 0.317996011036036 
2420	 0.317466548781751 
2421	 0.316860029776349 
2422	 0.316380677749306 
2423	 0.316046351380731 
2424	 0.315554963099479 
2425	 0.315031141786694 
2426	 0.314504966840053 
2427	 0.313885451706279 
2428	 0.313368322241297 
2429	 0.312934493067241 
2430	 0.312494179382043 
2431	 0.312055252544835 
2432	 0.311615193336618 
2433	 0.311220548331103 
2434	 0.310736659849611 
2435	 0.310172511362169 
2436	 0.30976201580471 
2437	 0.309412158916311 
2438	 0.308942952534645 
2439	 0.308538652309751 
2440	 0.308055982903886 
2441	 0.307394710758465 
2442	 0.306863144260711 
2443	 0.306432813080366 
2444	 0.305941585532717 
2445	 0.305444607074858 
2446	 0.304923306404592 
2447	 0.304337465418785 
2448	 0.303803776526095 
2449	 0.303268349029008 
2450	 0.30271527294607 
2451	 0.30225054203679 
2452	 0.301732688417356 
2453	 0.301136047604301 
2454	 0.300654489404042 
2455	 0.300162903264733 
2456	 0.299651310620077 
2457	 0.2991812834772 
2458	 0.298721701025797 
2459	 0.298272029569243 
2460	 0.297920159341709 
2461	 0.297683197681909 
2462	 0.297385394636833 
2463	 0.297031412701104 
2464	 0.296810182359553 
2465	 0.296711122868385 
2466	 0.29641221630614 
2467	 0.296152430879744 
2468	 0.295787623020123 
2469	 0.29510990221004 
2470	 0.294864305814116 
2471	 0.294587493914841 
2472	 0.294421457033411 
2473	 0.294137861636654 
2474	 0.29376905039531 
2475	 0.293559748646922 
2476	 0.293219958223832 
2477	 0.293023603943249 
2478	 0.292690191898334 
2479	 0.292091963677519 
2480	 0.291703965410002 
2481	 0.291463122976943 
2482	 0.291198965448955 
2483	 0.290904527994155 
2484	 0.290646768574222 
2485	 0.289952054166677 
2486	 0.289131206639795 
2487	 0.28882515574551 
2488	 0.288463843707296 
2489	 0.288140240861588 
2490	 0.28793939356534 
2491	 0.287400112612837 
2492	 0.286724975540902 
2493	 0.286190676210819 
2494	 0.285782993365986 
2495	 0.28531132758084 
2496	 0.284649817203833 
2497	 0.283903362466874 
2498	 0.283229900537722 
2499	 0.28276423668784 
2500	 0.282527461627414 
