Wavelength	LMW7 profile 200014.asd
350	 6.38891129738068E-02 
351	 7.74385601814282E-02 
352	 7.76313725909585E-02 
353	 5.83921782206023E-02 
354	 6.17687581917205E-02 
355	 6.20789497571983E-02 
356	 5.94900980494546E-02 
357	 5.95433975563305E-02 
358	 6.22917780194386E-02 
359	 6.28332225045376E-02 
360	 6.27138892699251E-02 
361	 6.65560240942576E-02 
362	 6.38543746034755E-02 
363	 6.24317958740027E-02 
364	 6.51365351613927E-02 
365	 6.36868272648018E-02 
366	 6.29575322049966E-02 
367	 6.37567270667045E-02 
368	 6.52062553032626E-02 
369	 6.43833884434187E-02 
370	 6.33406474488528E-02 
371	 6.30444261019225E-02 
372	 6.36375844915063E-02 
373	 6.66470547841187E-02 
374	 6.72742562735049E-02 
375	 6.48969676215176E-02 
376	 6.74043599841723E-02 
377	 6.87301349209441E-02 
378	 6.82158506149685E-02 
379	 6.76661028343412E-02 
380	 7.25448509160964E-02 
381	 7.29317641195917E-02 
382	 6.96303801118977E-02 
383	 7.13441102063129E-02 
384	 7.41084255287471E-02 
385	 7.63902755039938E-02 
386	 7.72213010694123E-02 
387	 7.55643093247851E-02 
388	 7.84837334807727E-02 
389	 8.19810336163887E-02 
390	 8.09681611557244E-02 
391	 8.35241306500382E-02 
392	 8.59211870343361E-02 
393	 8.78515802464529E-02 
394	 9.20026202336079E-02 
395	 9.37670610901247E-02 
396	 9.48464962930162E-02 
397	 9.70293951430186E-02 
398	 0.100044236754587 
399	 0.104213013735959 
400	 0.107811486479906 
401	 0.109292849161162 
402	 0.112354420851186 
403	 0.114961713989163 
404	 0.117047022071863 
405	 0.120749932807774 
406	 0.124039919240091 
407	 0.127084439193811 
408	 0.129905871661306 
409	 0.130882385924705 
410	 0.131972991003817 
411	 0.134273029860322 
412	 0.137932782531467 
413	 0.140079467002699 
414	 0.141370257108272 
415	 0.142391552029436 
416	 0.14316041954242 
417	 0.1435535547381 
418	 0.144035430280924 
419	 0.144878301224081 
420	 0.145433150370975 
421	 0.144714735680824 
422	 0.14371905980677 
423	 0.14437147426034 
424	 0.144101419719237 
425	 0.143095318530431 
426	 0.14190111526495 
427	 0.141066145011304 
428	 0.139521006802808 
429	 0.137844960173652 
430	 0.136791196172 
431	 0.135132556530259 
432	 0.133612246459136 
433	 0.132674538142617 
434	 0.132361613535809 
435	 0.132383907089149 
436	 0.132446359862328 
437	 0.132539307583177 
438	 0.133274053947861 
439	 0.134991362980905 
440	 0.137199518916332 
441	 0.139073757316516 
442	 0.140873545128734 
443	 0.143154901723987 
444	 0.145877598333402 
445	 0.148048596395747 
446	 0.150775861426032 
447	 0.153645292679923 
448	 0.156078211284191 
449	 0.158738765659037 
450	 0.161553970262337 
451	 0.164339245629734 
452	 0.166858294076003 
453	 0.169444039762569 
454	 0.172028757606479 
455	 0.174520266589921 
456	 0.176949852859334 
457	 0.179282975667326 
458	 0.18153916229346 
459	 0.183758781005958 
460	 0.186006038752552 
461	 0.188048579719679 
462	 0.189813734914443 
463	 0.191478117036565 
464	 0.193042930488356 
465	 0.194595564005195 
466	 0.196215283481186 
467	 0.19789362467557 
468	 0.199481728868642 
469	 0.200900491370994 
470	 0.202154886347997 
471	 0.203539046383608 
472	 0.204925107479987 
473	 0.206176162420876 
474	 0.207278610198768 
475	 0.208510247196593 
476	 0.20974696669503 
477	 0.21077155859134 
478	 0.212129686597326 
479	 0.213457997869168 
480	 0.214537913554742 
481	 0.215448608632106 
482	 0.216553979856556 
483	 0.217757979296033 
484	 0.218882210694605 
485	 0.220029847918952 
486	 0.221169696087062 
487	 0.222202845182728 
488	 0.223013369312854 
489	 0.224096517070081 
490	 0.22538573977947 
491	 0.226615653734849 
492	 0.227228456630884 
493	 0.22823739427306 
494	 0.229418940023601 
495	 0.230113767623944 
496	 0.231246770168555 
497	 0.232338623242028 
498	 0.233240240769553 
499	 0.234503588254158 
500	 0.23543397376992 
501	 0.236235260408535 
502	 0.237263239055216 
503	 0.238288521669384 
504	 0.239382197111678 
505	 0.240442595486695 
506	 0.24122992356378 
507	 0.242134440140619 
508	 0.243143313249728 
509	 0.244147142073197 
510	 0.245005811770532 
511	 0.245887769176242 
512	 0.246850713467274 
513	 0.247867212643588 
514	 0.248710603077795 
515	 0.249547347813417 
516	 0.250502688560502 
517	 0.251569654736099 
518	 0.252538203254051 
519	 0.253402276547473 
520	 0.254229422774261 
521	 0.25503961223685 
522	 0.255851862382681 
523	 0.256730610143979 
524	 0.257782610714031 
525	 0.258732330531415 
526	 0.259620489334889 
527	 0.260516268733485 
528	 0.26132509261435 
529	 0.262130420176898 
530	 0.262985632690152 
531	 0.26390987030305 
532	 0.264773709035385 
533	 0.265641022788672 
534	 0.2665447542514 
535	 0.267387670165519 
536	 0.268246063888498 
537	 0.269127635871071 
538	 0.270000985633165 
539	 0.270769732745532 
540	 0.27156242700114 
541	 0.272455708509111 
542	 0.273438517370773 
543	 0.274307374276576 
544	 0.275114797230187 
545	 0.275957576803713 
546	 0.276781775757158 
547	 0.277634152373329 
548	 0.278518936164847 
549	 0.279403413316576 
550	 0.280270034850426 
551	 0.281134427100552 
552	 0.282033405058419 
553	 0.283053536982636 
554	 0.284034172744986 
555	 0.284943887244407 
556	 0.285834438747749 
557	 0.286817265152302 
558	 0.287874074470094 
559	 0.288941932211827 
560	 0.289914836421706 
561	 0.29079642156131 
562	 0.291655061131856 
563	 0.292577368612993 
564	 0.293597288878343 
565	 0.294555468581758 
566	 0.295463983789037 
567	 0.296536259628818 
568	 0.297724273942746 
569	 0.298951156201837 
570	 0.300140986237525 
571	 0.301260521080024 
572	 0.302387525690517 
573	 0.303534822856585 
574	 0.304655468149433 
575	 0.305610135012241 
576	 0.306564563494477 
577	 0.307620103462566 
578	 0.30861432487252 
579	 0.309771352348726 
580	 0.311024336699671 
581	 0.312218262113569 
582	 0.313545298024962 
583	 0.314920040874878 
584	 0.31622423560559 
585	 0.317329738775478 
586	 0.318438389806619 
587	 0.31952333141676 
588	 0.320526995324452 
589	 0.321577654908452 
590	 0.322590261355217 
591	 0.323593696881263 
592	 0.324716519296545 
593	 0.325752865789365 
594	 0.326780952718429 
595	 0.327907731485475 
596	 0.329177888477052 
597	 0.330483822223972 
598	 0.331771182940594 
599	 0.333010016454874 
600	 0.3340517676501 
601	 0.335073366632609 
602	 0.33612778389997 
603	 0.33697745882428 
604	 0.337793485818998 
605	 0.338633331394287 
606	 0.339511837511593 
607	 0.340435199549825 
608	 0.341293679697177 
609	 0.342102039354118 
610	 0.343021645156278 
611	 0.343973849102221 
612	 0.344862608988563 
613	 0.345639115156781 
614	 0.34644345830052 
615	 0.34719951415924 
616	 0.347886757160821 
617	 0.348524775201698 
618	 0.349141759349622 
619	 0.349741706380462 
620	 0.350327026996138 
621	 0.350903820450658 
622	 0.351475303396783 
623	 0.352012563676694 
624	 0.352494764611608 
625	 0.353050008987812 
626	 0.353548000888747 
627	 0.35395081217544 
628	 0.35436687301643 
629	 0.354858200401125 
630	 0.355346564390876 
631	 0.355766645670481 
632	 0.356291834129233 
633	 0.356699479856002 
634	 0.357045224884391 
635	 0.357587469194922 
636	 0.35788255247013 
637	 0.358204922333637 
638	 0.358724211867721 
639	 0.359036836808216 
640	 0.359410964486873 
641	 0.359826401536649 
642	 0.360158400704146 
643	 0.360540139167922 
644	 0.360971965850308 
645	 0.361403172708126 
646	 0.361724947483699 
647	 0.362128850315747 
648	 0.362543501869143 
649	 0.36288396416787 
650	 0.363357575471293 
651	 0.363824007098063 
652	 0.364221440211849 
653	 0.364573375555933 
654	 0.365001015585716 
655	 0.365434369360705 
656	 0.36581644676778 
657	 0.366199037474583 
658	 0.366725044585706 
659	 0.367268479899738 
660	 0.367618242305153 
661	 0.368018353359163 
662	 0.368547886976333 
663	 0.36915205575135 
664	 0.369611766506234 
665	 0.369994607653291 
666	 0.370421633577867 
667	 0.370973232107443 
668	 0.371474946666734 
669	 0.372042394932284 
670	 0.372598953265686 
671	 0.372931939166976 
672	 0.373433404535447 
673	 0.374010389887782 
674	 0.374550971827451 
675	 0.375107360012171 
676	 0.375713929603712 
677	 0.376253833578867 
678	 0.376612074112884 
679	 0.377177740838325 
680	 0.377740346819505 
681	 0.378242069750727 
682	 0.37889313710115 
683	 0.379449469616503 
684	 0.379957958645811 
685	 0.38050722892009 
686	 0.381034332513049 
687	 0.381626524781773 
688	 0.382255031964544 
689	 0.382810646900063 
690	 0.383281573103782 
691	 0.383793936082374 
692	 0.384394556334439 
693	 0.384938021761305 
694	 0.385437869918369 
695	 0.385964433514785 
696	 0.386560545263517 
697	 0.386948324522188 
698	 0.387504653458031 
699	 0.388231124197083 
700	 0.388710510440486 
701	 0.389161729343024 
702	 0.389612984934676 
703	 0.390065554632189 
704	 0.390561435827243 
705	 0.390970060049714 
706	 0.391338592340124 
707	 0.391793663512091 
708	 0.392265628195841 
709	 0.39273256886122 
710	 0.39315833655145 
711	 0.393478200621928 
712	 0.393851385893805 
713	 0.394243048200676 
714	 0.394589478286381 
715	 0.394946912919546 
716	 0.395282812166957 
717	 0.395584873297577 
718	 0.395856837147984 
719	 0.396100607969325 
720	 0.396293926474966 
721	 0.396442914211567 
722	 0.396606865837085 
723	 0.396846490489574 
724	 0.397092410879653 
725	 0.397251838624363 
726	 0.397376042594898 
727	 0.397502605568484 
728	 0.397602504037946 
729	 0.397594251144509 
730	 0.397605107331267 
731	 0.397601414104487 
732	 0.397547249299285 
733	 0.397469875151284 
734	 0.397408048164563 
735	 0.397324765667581 
736	 0.397179018948861 
737	 0.397138954441425 
738	 0.396957528852095 
739	 0.396643154219694 
740	 0.396503087287495 
741	 0.396352220869263 
742	 0.396112157123295 
743	 0.395764031475058 
744	 0.395379614218414 
745	 0.394992854162397 
746	 0.394627457662324 
747	 0.394279115386113 
748	 0.3938032402634 
749	 0.393427485638649 
750	 0.393128661649143 
751	 0.392553446442113 
752	 0.39199110855551 
753	 0.391449541166208 
754	 0.390892649506496 
755	 0.390342381941558 
756	 0.389875815047453 
757	 0.389377507612017 
758	 0.388688406735155 
759	 0.388121441011825 
760	 0.387478704724081 
761	 0.386739829064274 
762	 0.386157664808292 
763	 0.385554221116389 
764	 0.384861802002299 
765	 0.384095214060828 
766	 0.383421005716098 
767	 0.382786447883928 
768	 0.382107138903019 
769	 0.381311274622714 
770	 0.380545260059178 
771	 0.379818370183963 
772	 0.379090084720509 
773	 0.378280927801306 
774	 0.377517024366007 
775	 0.376757037174691 
776	 0.375966935906838 
777	 0.375244393938357 
778	 0.374512028302132 
779	 0.373714380179843 
780	 0.372838552960679 
781	 0.37204316516641 
782	 0.371346304421654 
783	 0.370659085534462 
784	 0.36981121675747 
785	 0.369029756510949 
786	 0.368310931726601 
787	 0.36756647722401 
788	 0.36658926837671 
789	 0.365797003367213 
790	 0.365119647242106 
791	 0.364343413825657 
792	 0.36359540041718 
793	 0.362850860986967 
794	 0.362097209060367 
795	 0.361338528080084 
796	 0.360550361567874 
797	 0.359801864888308 
798	 0.359099120909291 
799	 0.358305466529553 
800	 0.357556925762861 
801	 0.356891402564887 
802	 0.356261347355674 
803	 0.355415379345304 
804	 0.354658454524197 
805	 0.354038043662319 
806	 0.353419109734106 
807	 0.352701649433168 
808	 0.351932674732404 
809	 0.351192828182567 
810	 0.350569532143104 
811	 0.349937068562166 
812	 0.349300524694593 
813	 0.348676990636926 
814	 0.348031095366122 
815	 0.347393912830879 
816	 0.346757226322351 
817	 0.346105840635932 
818	 0.345469237517928 
819	 0.344899597284817 
820	 0.344355105918257 
821	 0.34372879828844 
822	 0.343151317023776 
823	 0.342580146076612 
824	 0.341998768130141 
825	 0.341476919053687 
826	 0.340935401886441 
827	 0.340403093182059 
828	 0.339904521899124 
829	 0.339359042940498 
830	 0.338737505077149 
831	 0.338105796976232 
832	 0.33756948840355 
833	 0.337159588948385 
834	 0.336717714664664 
835	 0.336236625155817 
836	 0.335847765299787 
837	 0.335345510311115 
838	 0.334884126345118 
839	 0.334508088426402 
840	 0.33397850782592 
841	 0.333499174439649 
842	 0.333068258005148 
843	 0.332651041447096 
844	 0.33230242961247 
845	 0.331941239212527 
846	 0.33154017092126 
847	 0.331112903847974 
848	 0.330719612056818 
849	 0.33035260259935 
850	 0.330007075029631 
851	 0.329675559111671 
852	 0.329248225154472 
853	 0.32889399360685 
854	 0.328638967349349 
855	 0.328253729366436 
856	 0.327987549446315 
857	 0.327735960159057 
858	 0.327398113934412 
859	 0.32709095085592 
860	 0.326830734975446 
861	 0.326581145087639 
862	 0.326304002243237 
863	 0.326068069600388 
864	 0.325750141662272 
865	 0.325455200330621 
866	 0.325361601776559 
867	 0.325091582740081 
868	 0.324904304923388 
869	 0.324811175911829 
870	 0.324533381823406 
871	 0.32414596030361 
872	 0.323891329939319 
873	 0.323864095716359 
874	 0.323880180082071 
875	 0.323797495002159 
876	 0.323592235595894 
877	 0.323330164447674 
878	 0.3231866020434 
879	 0.323139948827267 
880	 0.323058397965546 
881	 0.322856921931967 
882	 0.322815207882701 
883	 0.322802590600243 
884	 0.322684083707813 
885	 0.322408704565448 
886	 0.322360813787638 
887	 0.322424838683476 
888	 0.322436884528424 
889	 0.322271912868075 
890	 0.322224299294726 
891	 0.322175313415972 
892	 0.322135076769286 
893	 0.322312529779308 
894	 0.322269928717991 
895	 0.322194429084073 
896	 0.322248039419371 
897	 0.322317935645967 
898	 0.322378169845282 
899	 0.322384658083289 
900	 0.322337612618167 
901	 0.322341136436399 
902	 0.322431987856372 
903	 0.322565772954064 
904	 0.322674553453561 
905	 0.322726534433134 
906	 0.322891663626305 
907	 0.323128614592732 
908	 0.323297019565757 
909	 0.323346719999384 
910	 0.323458598415547 
911	 0.323598147466826 
912	 0.323631727123806 
913	 0.323853441472136 
914	 0.324073239751379 
915	 0.324213808245067 
916	 0.324343526759049 
917	 0.324499374270883 
918	 0.324760736047847 
919	 0.325089032646917 
920	 0.325319087922804 
921	 0.3254948224871 
922	 0.325654471348729 
923	 0.325829562157533 
924	 0.326037754569553 
925	 0.326349696715102 
926	 0.326671002947744 
927	 0.326951838785281 
928	 0.327288905877813 
929	 0.327657757107162 
930	 0.327955678680387 
931	 0.328167516762206 
932	 0.328523449498883 
933	 0.32878496093281 
934	 0.329056824381856 
935	 0.329461814230025 
936	 0.329879144178183 
937	 0.330287950171759 
938	 0.330669387084152 
939	 0.331040332409139 
940	 0.331520834429068 
941	 0.331920924521142 
942	 0.332292169308477 
943	 0.33273226944365 
944	 0.333084592388622 
945	 0.333596224901835 
946	 0.3341722730474 
947	 0.334605970668778 
948	 0.334984673749187 
949	 0.335299363665706 
950	 0.335679712432748 
951	 0.336257577508919 
952	 0.336849256998435 
953	 0.33739096338989 
954	 0.337823992991554 
955	 0.338171660621091 
956	 0.338830942960824 
957	 0.339332998932698 
958	 0.339706999421402 
959	 0.34027722034558 
960	 0.340982977835133 
961	 0.341529646885064 
962	 0.341982795822898 
963	 0.342591941886608 
964	 0.343127875754733 
965	 0.343639405398401 
966	 0.344276409608583 
967	 0.345134234347734 
968	 0.345689436355556 
969	 0.346229626278473 
970	 0.346846007035089 
971	 0.347458496534706 
972	 0.348112022522527 
973	 0.348713187596966 
974	 0.349332937448104 
975	 0.350088951482249 
976	 0.350658624666246 
977	 0.351293415847606 
978	 0.352075715545336 
979	 0.352897018285847 
980	 0.353469395105103 
981	 0.353933513008118 
982	 0.354473239861453 
983	 0.355204296336377 
984	 0.355877893838346 
985	 0.356704352502741 
986	 0.357583998938926 
987	 0.358295076862509 
988	 0.359022259607468 
989	 0.359739073728338 
990	 0.360373946258298 
991	 0.360917278070205 
992	 0.361700788794343 
993	 0.362469200946581 
994	 0.363169973811928 
995	 0.363856121309322 
996	 0.364532571609425 
997	 0.365253802155352 
998	 0.365989551504774 
999	 0.366731592300676 
1000	 0.367686640341031 
1001	 0.373314482437385 
1002	 0.37401109320888 
1003	 0.374693983258467 
1004	 0.375403544255422 
1005	 0.376150232386014 
1006	 0.376852656028784 
1007	 0.377543573726591 
1008	 0.378253520399096 
1009	 0.37895004914639 
1010	 0.379655019131769 
1011	 0.380364251675851 
1012	 0.381070080422992 
1013	 0.381751695438318 
1014	 0.382406820137254 
1015	 0.383101343993676 
1016	 0.383768162076036 
1017	 0.384411040817644 
1018	 0.385019299844871 
1019	 0.385651527720446 
1020	 0.386308716449012 
1021	 0.386989675779232 
1022	 0.387744725171728 
1023	 0.388474678706916 
1024	 0.389114137902897 
1025	 0.389727663123302 
1026	 0.390256695456382 
1027	 0.390808038732373 
1028	 0.391463697787496 
1029	 0.392109441885988 
1030	 0.392775257672067 
1031	 0.393431429535579 
1032	 0.394089955945452 
1033	 0.394683689319869 
1034	 0.395308786137062 
1035	 0.395975211541101 
1036	 0.396617128228307 
1037	 0.397269857319909 
1038	 0.39794207548973 
1039	 0.398557124613157 
1040	 0.399204228597017 
1041	 0.399864751940137 
1042	 0.400511300895582 
1043	 0.40120884555638 
1044	 0.401869033877927 
1045	 0.402522366227863 
1046	 0.403158134743806 
1047	 0.403807805004472 
1048	 0.404457899343087 
1049	 0.405112713260358 
1050	 0.405775658314572 
1051	 0.406469826498189 
1052	 0.407113886864984 
1053	 0.407788090012371 
1054	 0.408440289190278 
1055	 0.408934775135013 
1056	 0.409536920920886 
1057	 0.410134520982113 
1058	 0.410686655471365 
1059	 0.411279907269409 
1060	 0.4119716120111 
1061	 0.412552797719279 
1062	 0.413047208083244 
1063	 0.41360434880554 
1064	 0.414145497943207 
1065	 0.414649259758199 
1066	 0.415141542537854 
1067	 0.415629133715543 
1068	 0.416130949095146 
1069	 0.416627960960194 
1070	 0.417088533221968 
1071	 0.417522283913991 
1072	 0.418022472880018 
1073	 0.418514749163648 
1074	 0.418991836819844 
1075	 0.419515756091627 
1076	 0.420030851002789 
1077	 0.420495280450035 
1078	 0.420956495002511 
1079	 0.421399923711121 
1080	 0.421828045321456 
1081	 0.422190947270219 
1082	 0.422548689448055 
1083	 0.422940383417566 
1084	 0.423364714572695 
1085	 0.423757276441546 
1086	 0.4241546417415 
1087	 0.424525492295312 
1088	 0.424869675910172 
1089	 0.425207070936991 
1090	 0.425564953970349 
1091	 0.425920232126973 
1092	 0.426240409566929 
1093	 0.426589561324702 
1094	 0.426949735608851 
1095	 0.427297225372533 
1096	 0.427682485202972 
1097	 0.428089461973837 
1098	 0.428477012423966 
1099	 0.428850835267618 
1100	 0.429243238730146 
1101	 0.429642356383386 
1102	 0.430034099012937 
1103	 0.430424499113564 
1104	 0.430830437996568 
1105	 0.431233562265181 
1106	 0.431640162544001 
1107	 0.432061750062818 
1108	 0.432474353137205 
1109	 0.432852876223868 
1110	 0.433253722626867 
1111	 0.433682834368448 
1112	 0.434120982539512 
1113	 0.434567683813268 
1114	 0.435071995802275 
1115	 0.435513479608311 
1116	 0.435913519766288 
1117	 0.436350415801824 
1118	 0.436766887722161 
1119	 0.437211915830418 
1120	 0.437731159361445 
1121	 0.438216479764117 
1122	 0.438687959441654 
1123	 0.439135804535285 
1124	 0.439585500410428 
1125	 0.440003473605789 
1126	 0.440452352605404 
1127	 0.440901789768106 
1128	 0.441376973726135 
1129	 0.441876355925504 
1130	 0.44235034657533 
1131	 0.442859328643986 
1132	 0.443331437818661 
1133	 0.44375787503966 
1134	 0.44419311547967 
1135	 0.444627513762335 
1136	 0.445034855160665 
1137	 0.445449883622492 
1138	 0.445892409465824 
1139	 0.446344835124199 
1140	 0.44682450819183 
1141	 0.447275279712318 
1142	 0.44774235399279 
1143	 0.448171911675149 
1144	 0.448547254632477 
1145	 0.448963471475908 
1146	 0.449390315132616 
1147	 0.449810997432681 
1148	 0.450243766831326 
1149	 0.450677646556956 
1150	 0.45112125520467 
1151	 0.451525643875116 
1152	 0.451944265983146 
1153	 0.452392494215199 
1154	 0.452810606471017 
1155	 0.453219544840819 
1156	 0.453612869181853 
1157	 0.453999590704667 
1158	 0.454367728763263 
1159	 0.454714003052449 
1160	 0.455066937138702 
1161	 0.455409037444276 
1162	 0.455751260299265 
1163	 0.456091080501776 
1164	 0.456429367108869 
1165	 0.456757148877918 
1166	 0.457094965429672 
1167	 0.457460797435374 
1168	 0.457833657064191 
1169	 0.458177440565907 
1170	 0.458535219343826 
1171	 0.458854618107744 
1172	 0.459122419888134 
1173	 0.459428636291171 
1174	 0.45973724156016 
1175	 0.460048454484439 
1176	 0.46037697016246 
1177	 0.460691871460575 
1178	 0.460994957326659 
1179	 0.461307461889919 
1180	 0.461623033642002 
1181	 0.461935838731392 
1182	 0.462247990700239 
1183	 0.462569484785806 
1184	 0.4628839433021 
1185	 0.463194164597449 
1186	 0.463510129695016 
1187	 0.463831651501062 
1188	 0.464145358623824 
1189	 0.464458073810075 
1190	 0.464767404382444 
1191	 0.465074138369846 
1192	 0.465375579084925 
1193	 0.465669557864191 
1194	 0.465971279381458 
1195	 0.466276282229697 
1196	 0.466573080001948 
1197	 0.466874578569962 
1198	 0.467168852827155 
1199	 0.467456968931257 
1200	 0.467727855995144 
1201	 0.468021593877834 
1202	 0.468325818515412 
1203	 0.468618903404131 
1204	 0.468915240124019 
1205	 0.469211478153599 
1206	 0.46949103273442 
1207	 0.46979414916826 
1208	 0.470128660837035 
1209	 0.470432626524057 
1210	 0.470734654106356 
1211	 0.47102899784792 
1212	 0.471302955702011 
1213	 0.471578409962131 
1214	 0.471859510131242 
1215	 0.472129632379119 
1216	 0.472392124570879 
1217	 0.472640926541573 
1218	 0.472900283179007 
1219	 0.473153866225552 
1220	 0.473418280823946 
1221	 0.473685974525262 
1222	 0.473964110996945 
1223	 0.474263123092884 
1224	 0.474538109357444 
1225	 0.474822914375128 
1226	 0.475081884408105 
1227	 0.475305183810086 
1228	 0.475544364108437 
1229	 0.475766421982077 
1230	 0.476010933959519 
1231	 0.476281677931206 
1232	 0.476539078005535 
1233	 0.476796669161589 
1234	 0.477066941486346 
1235	 0.477316940215431 
1236	 0.4775455631525 
1237	 0.477795511758663 
1238	 0.478053738562147 
1239	 0.478301436723681 
1240	 0.478552669428604 
1241	 0.478801526564338 
1242	 0.47904637445636 
1243	 0.479283275080407 
1244	 0.479530077771675 
1245	 0.479755398281214 
1246	 0.479940411015742 
1247	 0.480156715702808 
1248	 0.480373585827743 
1249	 0.48060610238229 
1250	 0.480840086773861 
1251	 0.481086448655923 
1252	 0.481331058165155 
1253	 0.48157017291445 
1254	 0.481817280972774 
1255	 0.482084231267445 
1256	 0.482327855297926 
1257	 0.482571113539962 
1258	 0.482793267147594 
1259	 0.482987206061644 
1260	 0.483200602387574 
1261	 0.483419232584206 
1262	 0.483618875082895 
1263	 0.483809766470535 
1264	 0.48401174703341 
1265	 0.484193220637999 
1266	 0.484390522775148 
1267	 0.484608939186902 
1268	 0.484839843618041 
1269	 0.485043888417075 
1270	 0.48522377738662 
1271	 0.485449354374017 
1272	 0.48567437807243 
1273	 0.485921345441164 
1274	 0.486219132174885 
1275	 0.486481603593486 
1276	 0.486723162526712 
1277	 0.48699402798925 
1278	 0.487277673208205 
1279	 0.48755238058757 
1280	 0.487846352759189 
1281	 0.488123958921921 
1282	 0.488384698463493 
1283	 0.488646776186518 
1284	 0.488921703841951 
1285	 0.489171603711079 
1286	 0.489399127516291 
1287	 0.489614481898675 
1288	 0.489803150839514 
1289	 0.48995732385662 
1290	 0.49011948665909 
1291	 0.490269168883397 
1292	 0.490411476137453 
1293	 0.490557645610655 
1294	 0.490666668636045 
1295	 0.490748037145924 
1296	 0.490829120330097 
1297	 0.49088573899951 
1298	 0.490942438810691 
1299	 0.491005297250443 
1300	 0.491046845040208 
1301	 0.491070991602405 
1302	 0.491085966556394 
1303	 0.491095384285029 
1304	 0.491078680514826 
1305	 0.49105417690932 
1306	 0.491026295346104 
1307	 0.490975540971549 
1308	 0.490931351596835 
1309	 0.49088429285501 
1310	 0.490818874735727 
1311	 0.490787426482715 
1312	 0.490775944332277 
1313	 0.49075128784695 
1314	 0.490735081585364 
1315	 0.490722121716233 
1316	 0.490673069825089 
1317	 0.490693713155127 
1318	 0.490768481713521 
1319	 0.490826538524094 
1320	 0.490933827341374 
1321	 0.491001566932595 
1322	 0.491037175229033 
1323	 0.491078535626129 
1324	 0.491139228161316 
1325	 0.491193348021566 
1326	 0.491263044199862 
1327	 0.491340234026922 
1328	 0.491421559541709 
1329	 0.491497403353071 
1330	 0.491577558344623 
1331	 0.491659720510522 
1332	 0.49175848820087 
1333	 0.491856465429783 
1334	 0.491975673516627 
1335	 0.492119758565618 
1336	 0.49225735482743 
1337	 0.492410192755147 
1338	 0.492543700638436 
1339	 0.492668489887843 
1340	 0.492800383175425 
1341	 0.492938592122117 
1342	 0.493053584437228 
1343	 0.493160482036878 
1344	 0.493262979781665 
1345	 0.493362374937313 
1346	 0.493467475424911 
1347	 0.493588726857987 
1348	 0.493728795517617 
1349	 0.493827078311629 
1350	 0.49388847460696 
1351	 0.49394736468013 
1352	 0.493958557419396 
1353	 0.494029586664937 
1354	 0.494121278044585 
1355	 0.494206923507368 
1356	 0.494335168221678 
1357	 0.49441459103667 
1358	 0.494452476582561 
1359	 0.494521929139967 
1360	 0.494579631860246 
1361	 0.494660030818561 
1362	 0.494769703749069 
1363	 0.494865645177261 
1364	 0.494954979971379 
1365	 0.495062555783212 
1366	 0.495176326018895 
1367	 0.495293513732824 
1368	 0.49543889487042 
1369	 0.495576727636296 
1370	 0.495682952845147 
1371	 0.495783361587485 
1372	 0.495839658549467 
1373	 0.495844996091628 
1374	 0.495839756737804 
1375	 0.495793943540014 
1376	 0.495753087243207 
1377	 0.495706527820264 
1378	 0.495639497724769 
1379	 0.495556825412008 
1380	 0.495473745724828 
1381	 0.495362358208758 
1382	 0.495259375857148 
1383	 0.495178655268394 
1384	 0.495060604823311 
1385	 0.494958421554014 
1386	 0.494789182498413 
1387	 0.494579610439823 
1388	 0.494328632657519 
1389	 0.49402590650524 
1390	 0.493696780467231 
1391	 0.493330073188885 
1392	 0.49292133094267 
1393	 0.492455714997183 
1394	 0.491962646835109 
1395	 0.491442836369296 
1396	 0.490924533991261 
1397	 0.490427153297597 
1398	 0.489945383707562 
1399	 0.489438621511872 
1400	 0.488944648671376 
1401	 0.488420382579842 
1402	 0.487849557786656 
1403	 0.487324075001498 
1404	 0.486794682694031 
1405	 0.486293606994181 
1406	 0.485829592658885 
1407	 0.48535988528973 
1408	 0.484880023829758 
1409	 0.48443944996653 
1410	 0.483961910468433 
1411	 0.483603235828527 
1412	 0.483277491711481 
1413	 0.483064694845006 
1414	 0.483008119326514 
1415	 0.48303330629145 
1416	 0.483171407320351 
1417	 0.483387474578167 
1418	 0.483595236098992 
1419	 0.483805702953362 
1420	 0.484009111968013 
1421	 0.484184333932286 
1422	 0.484329557519564 
1423	 0.484432259762864 
1424	 0.484468634357238 
1425	 0.484441178160978 
1426	 0.484385240818396 
1427	 0.484263624366495 
1428	 0.484146135887444 
1429	 0.484003147876358 
1430	 0.483840563035716 
1431	 0.483656320767579 
1432	 0.483458276439132 
1433	 0.483231996122969 
1434	 0.483008019340442 
1435	 0.482756087790359 
1436	 0.482534087840155 
1437	 0.48231502914801 
1438	 0.482109823968379 
1439	 0.481932913921355 
1440	 0.48175194583399 
1441	 0.481543035377565 
1442	 0.481330763654384 
1443	 0.481096443817231 
1444	 0.480849063203214 
1445	 0.480628029406728 
1446	 0.480380108843127 
1447	 0.480104037586323 
1448	 0.479823288609127 
1449	 0.47949970757413 
1450	 0.479153826614556 
1451	 0.478797588146077 
1452	 0.478426566259651 
1453	 0.478036856003247 
1454	 0.477632069211987 
1455	 0.477203793637306 
1456	 0.47676278766762 
1457	 0.476288739373729 
1458	 0.475772096031601 
1459	 0.475267610710438 
1460	 0.474731302096123 
1461	 0.474222927832395 
1462	 0.473722176389926 
1463	 0.473229832398212 
1464	 0.472726586132522 
1465	 0.472266519987951 
1466	 0.471807607343933 
1467	 0.471414177240351 
1468	 0.471077267568657 
1469	 0.470763307968336 
1470	 0.470480062006201 
1471	 0.470239391707593 
1472	 0.470042142794106 
1473	 0.469935966009978 
1474	 0.469907198690953 
1475	 0.469965032316079 
1476	 0.470102468967726 
1477	 0.470271036786611 
1478	 0.470544323510801 
1479	 0.470862661668535 
1480	 0.471213413446533 
1481	 0.471633334649598 
1482	 0.472020504644466 
1483	 0.472421066223566 
1484	 0.472815747127975 
1485	 0.473213109649551 
1486	 0.473590329512152 
1487	 0.473973556074416 
1488	 0.474323734393705 
1489	 0.474671113815059 
1490	 0.474953049791035 
1491	 0.47519408431406 
1492	 0.475416279195665 
1493	 0.475577262176972 
1494	 0.475746104052243 
1495	 0.475900781391664 
1496	 0.476053536132737 
1497	 0.476193198707849 
1498	 0.47632624714187 
1499	 0.476469473359183 
1500	 0.476580124604603 
1501	 0.476660798333141 
1502	 0.47674141642181 
1503	 0.476801417564566 
1504	 0.476864971213393 
1505	 0.476926507962891 
1506	 0.476984511511448 
1507	 0.477041857929971 
1508	 0.477080306551574 
1509	 0.477113173815561 
1510	 0.47715925973112 
1511	 0.477207129070426 
1512	 0.477261615953671 
1513	 0.477328822935832 
1514	 0.477374620805599 
1515	 0.477423637347837 
1516	 0.477465936586614 
1517	 0.477484862601708 
1518	 0.477485499983925 
1519	 0.477498014225342 
1520	 0.477482584541676 
1521	 0.477504678966905 
1522	 0.477546890547596 
1523	 0.477590525316626 
1524	 0.477655862068139 
1525	 0.477708555667365 
1526	 0.477763089385467 
1527	 0.477812788516848 
1528	 0.477859526017022 
1529	 0.477901070702474 
1530	 0.477933483435458 
1531	 0.477976478220857 
1532	 0.478005618386135 
1533	 0.478064668205588 
1534	 0.478153957959034 
1535	 0.478230509430633 
1536	 0.478320843685071 
1537	 0.478400740235116 
1538	 0.4784675058434 
1539	 0.478539256053151 
1540	 0.478620299071656 
1541	 0.478688738206732 
1542	 0.478760607059924 
1543	 0.478812540929834 
1544	 0.478835375638287 
1545	 0.478872708154963 
1546	 0.478898948910342 
1547	 0.478929811200253 
1548	 0.478997271030765 
1549	 0.479089964376863 
1550	 0.479191379378892 
1551	 0.479288694378468 
1552	 0.479377999186711 
1553	 0.479463067032638 
1554	 0.47955416959117 
1555	 0.479649738755779 
1556	 0.479740993399318 
1557	 0.479845171498051 
1558	 0.479931895753689 
1559	 0.480001817457691 
1560	 0.480076780454049 
1561	 0.480135212810931 
1562	 0.480215752144624 
1563	 0.480316812238856 
1564	 0.480389184045934 
1565	 0.480458591118774 
1566	 0.480528658063467 
1567	 0.480574065681001 
1568	 0.48064290263525 
1569	 0.480736352467023 
1570	 0.480801951130362 
1571	 0.480862396000336 
1572	 0.480920496202468 
1573	 0.480968016953207 
1574	 0.481007062375368 
1575	 0.481028851817071 
1576	 0.481074377205543 
1577	 0.481130685237328 
1578	 0.481172710590705 
1579	 0.48122695428133 
1580	 0.481271168976886 
1581	 0.481284849064115 
1582	 0.481324143049445 
1583	 0.481379931217656 
1584	 0.481433702327023 
1585	 0.481492261084101 
1586	 0.481550364916666 
1587	 0.481626939004725 
1588	 0.481675315632068 
1589	 0.481711124959105 
1590	 0.481739876608366 
1591	 0.481738852600333 
1592	 0.481754779537134 
1593	 0.481774582311877 
1594	 0.481800024326101 
1595	 0.481833130792082 
1596	 0.481864000621335 
1597	 0.481909505012401 
1598	 0.481931139361919 
1599	 0.481937214461479 
1600	 0.481948154722687 
1601	 0.481942223508961 
1602	 0.481942523842015 
1603	 0.481945195029988 
1604	 0.481953791013424 
1605	 0.481945791903772 
1606	 0.48197471986384 
1607	 0.482046336574828 
1608	 0.482101935566085 
1609	 0.482157104287138 
1610	 0.482199308571436 
1611	 0.482174588386 
1612	 0.482146687675837 
1613	 0.482116088840755 
1614	 0.482096579915752 
1615	 0.482117584986671 
1616	 0.482138240492435 
1617	 0.482175817792319 
1618	 0.482216967915939 
1619	 0.482215845206363 
1620	 0.482202382267122 
1621	 0.482196826348502 
1622	 0.482184864829646 
1623	 0.482148674069389 
1624	 0.482106043758059 
1625	 0.482070395250121 
1626	 0.481996883672369 
1627	 0.481979931649294 
1628	 0.482007040935851 
1629	 0.482004672906547 
1630	 0.482005483795803 
1631	 0.482010746390864 
1632	 0.482014268881975 
1633	 0.482012694878685 
1634	 0.482023318554804 
1635	 0.482013665507728 
1636	 0.48198233858046 
1637	 0.481963445448598 
1638	 0.481934224797384 
1639	 0.481933707581033 
1640	 0.481949937179388 
1641	 0.481959362047075 
1642	 0.481990397656767 
1643	 0.481998001109998 
1644	 0.481982814415786 
1645	 0.481990215616965 
1646	 0.482012307361218 
1647	 0.482008469404606 
1648	 0.482001483338483 
1649	 0.481992012113768 
1650	 0.481950898976653 
1651	 0.481946684255285 
1652	 0.481982547832036 
1653	 0.481968869727885 
1654	 0.481952602016726 
1655	 0.481912423792252 
1656	 0.481827919380567 
1657	 0.481764704537021 
1658	 0.481687281460781 
1659	 0.48164377170004 
1660	 0.481616940174843 
1661	 0.481588973039794 
1662	 0.481593525715092 
1663	 0.481566695621682 
1664	 0.481530935523436 
1665	 0.481477174523867 
1666	 0.481400676657084 
1667	 0.481334868771917 
1668	 0.481260412944795 
1669	 0.481182916917486 
1670	 0.481097500229682 
1671	 0.481035901623405 
1672	 0.480970608245437 
1673	 0.480924630137477 
1674	 0.480908447607091 
1675	 0.480888288047554 
1676	 0.480865742999688 
1677	 0.480861487396614 
1678	 0.480883621614873 
1679	 0.480886261846038 
1680	 0.480907402738777 
1681	 0.480884311163803 
1682	 0.480817539222856 
1683	 0.480782649922065 
1684	 0.480727517983658 
1685	 0.480702623089755 
1686	 0.48072356878854 
1687	 0.480705948706064 
1688	 0.480688322432539 
1689	 0.480647020237473 
1690	 0.480561349796114 
1691	 0.480520306723598 
1692	 0.480498664140687 
1693	 0.480451667669756 
1694	 0.480410969668716 
1695	 0.480373683895378 
1696	 0.480315513651278 
1697	 0.480265937045746 
1698	 0.480247166153142 
1699	 0.480196085223218 
1700	 0.480110420678091 
1701	 0.480047512366561 
1702	 0.479981425313298 
1703	 0.479931182753285 
1704	 0.479898241790347 
1705	 0.479858252578897 
1706	 0.479834265523924 
1707	 0.479782909941119 
1708	 0.479719653212726 
1709	 0.47964858501709 
1710	 0.479550866033001 
1711	 0.479477344835199 
1712	 0.479406991017674 
1713	 0.479341643339691 
1714	 0.479286488051861 
1715	 0.479231329937789 
1716	 0.47917933693583 
1717	 0.479125672515851 
1718	 0.479084977992181 
1719	 0.479022419763676 
1720	 0.478950382681075 
1721	 0.478869831268641 
1722	 0.478773143018251 
1723	 0.478682060779602 
1724	 0.478568923509631 
1725	 0.478502819956141 
1726	 0.478471303991906 
1727	 0.478402195210781 
1728	 0.47836029470181 
1729	 0.478266373802482 
1730	 0.478126087108973 
1731	 0.477989320183572 
1732	 0.477829170763123 
1733	 0.477682934586397 
1734	 0.477518656053433 
1735	 0.477382692418832 
1736	 0.477281181494187 
1737	 0.477139478586114 
1738	 0.476976997407169 
1739	 0.47685524104909 
1740	 0.476733718091972 
1741	 0.476608759734414 
1742	 0.476525085745584 
1743	 0.476397465658936 
1744	 0.47622028057748 
1745	 0.476090941191082 
1746	 0.475975405632991 
1747	 0.475857001063463 
1748	 0.475761544069629 
1749	 0.475644160550057 
1750	 0.475530463100175 
1751	 0.475409871625521 
1752	 0.475259199208088 
1753	 0.475089041357304 
1754	 0.474914190336348 
1755	 0.474755713988063 
1756	 0.474589163338779 
1757	 0.474452019968346 
1758	 0.47433900483716 
1759	 0.47418632831401 
1760	 0.474056452340724 
1761	 0.473948494237401 
1762	 0.473776684282958 
1763	 0.473582083343683 
1764	 0.473428229677594 
1765	 0.473277983341794 
1766	 0.473158542541934 
1767	 0.473076927002561 
1768	 0.472989119863963 
1769	 0.472913787025263 
1770	 0.472825185719156 
1771	 0.472731577508741 
1772	 0.472621260766969 
1773	 0.472454527095202 
1774	 0.472304475854036 
1775	 0.472180309213174 
1776	 0.472074556754011 
1777	 0.472008180730071 
1778	 0.4719158668277 
1779	 0.471815036221211 
1780	 0.471700612387743 
1781	 0.471567730334552 
1782	 0.471449164435694 
1783	 0.471303980280374 
1784	 0.471180098886976 
1785	 0.47105914659191 
1786	 0.470915058724453 
1787	 0.470772911725532 
1788	 0.470622993786763 
1789	 0.470437507600849 
1790	 0.470307920415541 
1791	 0.470217394231911 
1792	 0.470106944495215 
1793	 0.470021521570292 
1794	 0.469897709358996 
1795	 0.469756432629076 
1796	 0.469591778795879 
1797	 0.469385348614615 
1798	 0.469222045211306 
1799	 0.469051008480532 
1800	 0.468900701391307 
1801	 0.472602571068297 
1802	 0.472590848271362 
1803	 0.472598072447191 
1804	 0.47254973759545 
1805	 0.472516935943829 
1806	 0.472495955690744 
1807	 0.472450725239396 
1808	 0.472384514338429 
1809	 0.472332451887159 
1810	 0.472244855950484 
1811	 0.472124127870355 
1812	 0.47197307600843 
1813	 0.471839681938534 
1814	 0.471673365405842 
1815	 0.471454350295103 
1816	 0.471230311735208 
1817	 0.470995860229189 
1818	 0.470732712818268 
1819	 0.470478520372084 
1820	 0.470228956221883 
1821	 0.469958344392429 
1822	 0.469694422632806 
1823	 0.469391810205789 
1824	 0.469045872966511 
1825	 0.468663638814797 
1826	 0.468225507606274 
1827	 0.467750711108487 
1828	 0.467251660367424 
1829	 0.466729920336766 
1830	 0.466170686579092 
1831	 0.465580614878574 
1832	 0.464952659806442 
1833	 0.464273033160808 
1834	 0.463603399559128 
1835	 0.462915680463678 
1836	 0.462182319964634 
1837	 0.461457403268038 
1838	 0.460733341285191 
1839	 0.460049438808364 
1840	 0.459363270862137 
1841	 0.458744075337527 
1842	 0.458166991256974 
1843	 0.457636345796163 
1844	 0.457153100227851 
1845	 0.456694699767264 
1846	 0.456322804627703 
1847	 0.456035126573971 
1848	 0.455795875115861 
1849	 0.455651704174738 
1850	 0.455608375121077 
1851	 0.45567831733782 
1852	 0.455778401598801 
1853	 0.45594012071347 
1854	 0.45615519727131 
1855	 0.456359108007062 
1856	 0.456586990231723 
1857	 0.456820668185858 
1858	 0.457047521092183 
1859	 0.457274739106763 
1860	 0.457498933276549 
1861	 0.457714420399976 
1862	 0.457917106312068 
1863	 0.458151949593839 
1864	 0.458408559059771 
1865	 0.458654123365678 
1866	 0.45893388566751 
1867	 0.459213892326826 
1868	 0.459515395536427 
1869	 0.459836278763325 
1870	 0.460160699098135 
1871	 0.460459306156954 
1872	 0.460774950725747 
1873	 0.461019023250703 
1874	 0.461215251778545 
1875	 0.461374805255212 
1876	 0.461430088370106 
1877	 0.461396969698222 
1878	 0.461305435253711 
1879	 0.461128359997561 
1880	 0.460885968114067 
1881	 0.460570326292786 
1882	 0.460212583947718 
1883	 0.45980235473207 
1884	 0.459298697510379 
1885	 0.45874775555528 
1886	 0.458179431996814 
1887	 0.457516060981022 
1888	 0.456817639082532 
1889	 0.456064152419775 
1890	 0.455216089284993 
1891	 0.454318656568168 
1892	 0.453324267006532 
1893	 0.452319075070562 
1894	 0.451267934072065 
1895	 0.450193549208902 
1896	 0.449064490631243 
1897	 0.447900332476312 
1898	 0.446704293742154 
1899	 0.445501648366882 
1900	 0.444279501027601 
1901	 0.443076936718139 
1902	 0.441916067474962 
1903	 0.440773637600834 
1904	 0.439650584647598 
1905	 0.438572034612508 
1906	 0.437528926629476 
1907	 0.436418765323183 
1908	 0.435307881230107 
1909	 0.434230312203505 
1910	 0.433112389547889 
1911	 0.43203937798884 
1912	 0.430986459045133 
1913	 0.4299230836927 
1914	 0.428841253961397 
1915	 0.42778905108406 
1916	 0.42672645259551 
1917	 0.42571388060659 
1918	 0.424755680929535 
1919	 0.423809459824361 
1920	 0.422935326186 
1921	 0.422092979329892 
1922	 0.421256063968771 
1923	 0.420478535467059 
1924	 0.419736157198596 
1925	 0.419027107394038 
1926	 0.418371608710643 
1927	 0.417771892406986 
1928	 0.417179909479424 
1929	 0.416642543329607 
1930	 0.416158113690776 
1931	 0.415719732753754 
1932	 0.415348761214929 
1933	 0.415013089024843 
1934	 0.414742912571059 
1935	 0.414534722425687 
1936	 0.414387791576843 
1937	 0.414275567935453 
1938	 0.414241426266507 
1939	 0.414213710787144 
1940	 0.414195118177775 
1941	 0.41424193054881 
1942	 0.414315401394518 
1943	 0.414432413142298 
1944	 0.414593594306768 
1945	 0.414745408222525 
1946	 0.41490199088207 
1947	 0.41509342955498 
1948	 0.415246484975224 
1949	 0.415392898347187 
1950	 0.415518195660624 
1951	 0.415621393046256 
1952	 0.415713894984925 
1953	 0.415792499924733 
1954	 0.41586027017175 
1955	 0.415949698709105 
1956	 0.416045195273906 
1957	 0.416144192181496 
1958	 0.416263180063071 
1959	 0.416368571498739 
1960	 0.416456227869752 
1961	 0.416566926226165 
1962	 0.416685772595367 
1963	 0.416810178439687 
1964	 0.416948546561507 
1965	 0.417092508453408 
1966	 0.417237550640789 
1967	 0.417379245183046 
1968	 0.417514720488942 
1969	 0.417648549620159 
1970	 0.417782491440189 
1971	 0.417908624930252 
1972	 0.418040743859585 
1973	 0.418166782179359 
1974	 0.418307608461295 
1975	 0.418451397362899 
1976	 0.418606399906884 
1977	 0.418786510032148 
1978	 0.418964131202987 
1979	 0.41912014020003 
1980	 0.419287612286346 
1981	 0.419443080400297 
1982	 0.419577188551071 
1983	 0.419724927447936 
1984	 0.419875674223081 
1985	 0.420025021606218 
1986	 0.420173417555989 
1987	 0.420330225581505 
1988	 0.420480598621924 
1989	 0.42065733798962 
1990	 0.420841426345825 
1991	 0.421015248334557 
1992	 0.421203554672608 
1993	 0.421419027577339 
1994	 0.421595048785874 
1995	 0.421753772713242 
1996	 0.42191811367568 
1997	 0.42204569217097 
1998	 0.422218837139681 
1999	 0.422424358739112 
2000	 0.422627667251163 
2001	 0.422863175977413 
2002	 0.423069847353307 
2003	 0.423281817388255 
2004	 0.423472682201183 
2005	 0.423670555066841 
2006	 0.42385954152393 
2007	 0.424063998981018 
2008	 0.424255164920553 
2009	 0.424485076848259 
2010	 0.424754644123543 
2011	 0.424998692998125 
2012	 0.425264270393297 
2013	 0.425513113910366 
2014	 0.425743209207133 
2015	 0.425957376413991 
2016	 0.426199169861052 
2017	 0.426444651273855 
2018	 0.426700414374832 
2019	 0.426976146805517 
2020	 0.427239384013084 
2021	 0.427515363461465 
2022	 0.427768299154255 
2023	 0.428015830974971 
2024	 0.428243825573127 
2025	 0.42845624302215 
2026	 0.428655132203823 
2027	 0.428834585091195 
2028	 0.428999965659973 
2029	 0.429179762567387 
2030	 0.429359315663374 
2031	 0.429524135349299 
2032	 0.42967667612534 
2033	 0.429858834765882 
2034	 0.430037392700739 
2035	 0.430226253436519 
2036	 0.430463571307303 
2037	 0.430657828567998 
2038	 0.430840500759919 
2039	 0.430998777323684 
2040	 0.43113152584775 
2041	 0.431257925160816 
2042	 0.431358697808707 
2043	 0.431475628201777 
2044	 0.431591977442439 
2045	 0.431715986569897 
2046	 0.431829234665558 
2047	 0.43194445563933 
2048	 0.432047152981719 
2049	 0.432146479370453 
2050	 0.432230955368296 
2051	 0.432302471116581 
2052	 0.432369059291114 
2053	 0.43239470535261 
2054	 0.432462958338593 
2055	 0.432561426861443 
2056	 0.432645420064775 
2057	 0.432730229741472 
2058	 0.432836875470694 
2059	 0.432926009536434 
2060	 0.432991056047445 
2061	 0.433075062783334 
2062	 0.433175078748593 
2063	 0.433266861842142 
2064	 0.433359442277944 
2065	 0.433444589700806 
2066	 0.433518225393316 
2067	 0.433604124237884 
2068	 0.433705380769374 
2069	 0.433775882261175 
2070	 0.433864632959653 
2071	 0.433989632157053 
2072	 0.434036955378001 
2073	 0.434048462020745 
2074	 0.434062958187651 
2075	 0.434001588225372 
2076	 0.43402370795271 
2077	 0.434089500231627 
2078	 0.434147470932405 
2079	 0.434239916972626 
2080	 0.434320205396923 
2081	 0.434401080808507 
2082	 0.434470666284411 
2083	 0.434536579928903 
2084	 0.434618305022958 
2085	 0.434654807229755 
2086	 0.434669666107888 
2087	 0.43466972123917 
2088	 0.434623896954297 
2089	 0.434617085870649 
2090	 0.434605563407121 
2091	 0.434612231433536 
2092	 0.434645356441508 
2093	 0.434673145635738 
2094	 0.434716585977976 
2095	 0.434737636935252 
2096	 0.434736562728107 
2097	 0.434758925953301 
2098	 0.434786870570891 
2099	 0.434811585251292 
2100	 0.434823819161588 
2101	 0.43485608987345 
2102	 0.434851748738354 
2103	 0.434792495599971 
2104	 0.434794153107912 
2105	 0.434801159770674 
2106	 0.434836679724588 
2107	 0.434914209213969 
2108	 0.434980713997181 
2109	 0.435064806956115 
2110	 0.435141384475989 
2111	 0.4352109571923 
2112	 0.435292278230025 
2113	 0.435385574085662 
2114	 0.435475623763862 
2115	 0.435548381842018 
2116	 0.435616175895046 
2117	 0.435693923671028 
2118	 0.435744353754615 
2119	 0.43584110014114 
2120	 0.435980882110799 
2121	 0.436094925551102 
2122	 0.436220144035849 
2123	 0.436331596534198 
2124	 0.436444506870178 
2125	 0.436531919485628 
2126	 0.436621431626034 
2127	 0.436675789240937 
2128	 0.436682007678839 
2129	 0.436695612806288 
2130	 0.436691399384105 
2131	 0.43669271422164 
2132	 0.436659310326467 
2133	 0.436631602518589 
2134	 0.436540818231011 
2135	 0.436403308542176 
2136	 0.436249632279303 
2137	 0.436069803470082 
2138	 0.4358521923849 
2139	 0.435597367755021 
2140	 0.435324427051573 
2141	 0.435004308917676 
2142	 0.434684487269112 
2143	 0.434335717910539 
2144	 0.434003960182748 
2145	 0.433693049345937 
2146	 0.433340106437074 
2147	 0.432974055374398 
2148	 0.432602938329239 
2149	 0.43219629908071 
2150	 0.431739967398955 
2151	 0.431296097865998 
2152	 0.430858096257326 
2153	 0.430372483727156 
2154	 0.429836360553529 
2155	 0.429339805273372 
2156	 0.42884207304235 
2157	 0.428327400352484 
2158	 0.427845645053175 
2159	 0.427313173199679 
2160	 0.426738668787551 
2161	 0.426148487210084 
2162	 0.425512421571336 
2163	 0.424902513112614 
2164	 0.424304147262016 
2165	 0.423668584665339 
2166	 0.423042467889891 
2167	 0.422431878243507 
2168	 0.421804838080067 
2169	 0.421145910637754 
2170	 0.42051707826898 
2171	 0.419926118934595 
2172	 0.419278530255026 
2173	 0.41863577379354 
2174	 0.417937263410861 
2175	 0.417166881251106 
2176	 0.416421442087805 
2177	 0.415644082493502 
2178	 0.414884404208245 
2179	 0.414166598473504 
2180	 0.413395521887617 
2181	 0.412597392281405 
2182	 0.41179232444933 
2183	 0.410949559485365 
2184	 0.410092997658932 
2185	 0.409260607199458 
2186	 0.408421136046372 
2187	 0.407617347138723 
2188	 0.406845578949967 
2189	 0.406049942465458 
2190	 0.405253293220914 
2191	 0.404485232923182 
2192	 0.403690849337288 
2193	 0.402960365791058 
2194	 0.40228515979011 
2195	 0.401619616108321 
2196	 0.400989715649331 
2197	 0.400364538056106 
2198	 0.399733077045691 
2199	 0.39915929161516 
2200	 0.398603008769249 
2201	 0.398097584019487 
2202	 0.397646281085576 
2203	 0.397242609474257 
2204	 0.396869328928533 
2205	 0.396525887498708 
2206	 0.396240858428997 
2207	 0.395993615927979 
2208	 0.395816335502409 
2209	 0.395701265655689 
2210	 0.395636364127249 
2211	 0.395646178644919 
2212	 0.395675895859786 
2213	 0.395791313503762 
2214	 0.395855258999642 
2215	 0.395961764855176 
2216	 0.396004235189294 
2217	 0.395999415411729 
2218	 0.395987143301138 
2219	 0.395961467747422 
2220	 0.395892454978131 
2221	 0.395768976629125 
2222	 0.395673150887089 
2223	 0.395533453043631 
2224	 0.39537921130778 
2225	 0.395206244904225 
2226	 0.395028650202899 
2227	 0.394821653070908 
2228	 0.394599655853438 
2229	 0.394322977122611 
2230	 0.394025785924893 
2231	 0.393678836954777 
2232	 0.393279346518052 
2233	 0.392835402863242 
2234	 0.392348675105184 
2235	 0.391833335636472 
2236	 0.391238522399704 
2237	 0.390664187966808 
2238	 0.390085162376838 
2239	 0.389483796930173 
2240	 0.388911069681071 
2241	 0.388252328346883 
2242	 0.387550275884036 
2243	 0.386794264663046 
2244	 0.385984013652624 
2245	 0.385091165649818 
2246	 0.38417584815699 
2247	 0.383232844992857 
2248	 0.382244619237471 
2249	 0.381195215561067 
2250	 0.380166194034868 
2251	 0.37909328320629 
2252	 0.378059907317322 
2253	 0.377021233700003 
2254	 0.3760279421903 
2255	 0.375032948312399 
2256	 0.374117048445676 
2257	 0.373214353830229 
2258	 0.372435662424174 
2259	 0.371721578773327 
2260	 0.371124631002788 
2261	 0.370623703784449 
2262	 0.370245587997375 
2263	 0.369972846695378 
2264	 0.369818805458876 
2265	 0.369831327142033 
2266	 0.369888377538597 
2267	 0.370062112506048 
2268	 0.370281650860238 
2269	 0.370564728995658 
2270	 0.37090383175729 
2271	 0.371316904327635 
2272	 0.371812863364828 
2273	 0.372382630666103 
2274	 0.373008935753315 
2275	 0.373710382310997 
2276	 0.37450332450957 
2277	 0.375308763071548 
2278	 0.376193924141349 
2279	 0.377063344659746 
2280	 0.377960992215097 
2281	 0.378858628375553 
2282	 0.379772571073565 
2283	 0.380688366738039 
2284	 0.381646447305935 
2285	 0.382534140841917 
2286	 0.383397402481481 
2287	 0.384249860577283 
2288	 0.385065069430508 
2289	 0.385858033524453 
2290	 0.386672784288002 
2291	 0.3874062726347 
2292	 0.388068538900087 
2293	 0.388704543066779 
2294	 0.389285063977763 
2295	 0.389849068568368 
2296	 0.39034561057598 
2297	 0.390890052349776 
2298	 0.39142952737819 
2299	 0.391935203976552 
2300	 0.392475950116938 
2301	 0.392987623501004 
2302	 0.393471413192501 
2303	 0.393983556442173 
2304	 0.394471175888818 
2305	 0.394960209891787 
2306	 0.395446468400328 
2307	 0.395932189845707 
2308	 0.396396024564259 
2309	 0.39687909668851 
2310	 0.397284034143619 
2311	 0.397627544985581 
2312	 0.397994002503584 
2313	 0.398326113931703 
2314	 0.398648198630676 
2315	 0.399006957798649 
2316	 0.399280875354351 
2317	 0.399475324735889 
2318	 0.399687251318475 
2319	 0.399859244685293 
2320	 0.400040395278748 
2321	 0.400197174093514 
2322	 0.400399843442204 
2323	 0.400652009925282 
2324	 0.40085146640837 
2325	 0.401077786999211 
2326	 0.401237447924217 
2327	 0.401329384398987 
2328	 0.401402132145198 
2329	 0.40145098218246 
2330	 0.401527478845499 
2331	 0.401539470452529 
2332	 0.401533433485199 
2333	 0.401587273594543 
2334	 0.401587545529325 
2335	 0.401589128704783 
2336	 0.401592226748585 
2337	 0.401469536441994 
2338	 0.401347088100199 
2339	 0.40126320678817 
2340	 0.401089174337181 
2341	 0.400920270350747 
2342	 0.400739897881152 
2343	 0.400462041510612 
2344	 0.400182971530275 
2345	 0.399916398399823 
2346	 0.399632557644766 
2347	 0.399357432888634 
2348	 0.399111864213373 
2349	 0.398824117709091 
2350	 0.398514747692047 
2351	 0.398195140549539 
2352	 0.397859508432807 
2353	 0.397498315254716 
2354	 0.397087494536027 
2355	 0.396718616277237 
2356	 0.396361267367749 
2357	 0.395994521938819 
2358	 0.395644810777976 
2359	 0.395308769184516 
2360	 0.394971140957509 
2361	 0.394609381954337 
2362	 0.394314586015541 
2363	 0.393902733523842 
2364	 0.393375273050231 
2365	 0.392873065732927 
2366	 0.392353748122937 
2367	 0.391772188262224 
2368	 0.391127323702928 
2369	 0.390541647624224 
2370	 0.389949431422706 
2371	 0.389315173746344 
2372	 0.388719906894085 
2373	 0.388127367683212 
2374	 0.387447016965496 
2375	 0.386753249110606 
2376	 0.386073199567138 
2377	 0.38532648725759 
2378	 0.38459885664382 
2379	 0.383867465830758 
2380	 0.383086320855755 
2381	 0.38233228734055 
2382	 0.381563386951655 
2383	 0.380764179228572 
2384	 0.380018377911415 
2385	 0.379319376385441 
2386	 0.378621210770001 
2387	 0.377866988224661 
2388	 0.37711418437879 
2389	 0.37642246044258 
2390	 0.375671216269563 
2391	 0.374882602939399 
2392	 0.374129292812087 
2393	 0.373340832597961 
2394	 0.372488560324997 
2395	 0.371724233362758 
2396	 0.370954568468974 
2397	 0.370116103954411 
2398	 0.369388014960629 
2399	 0.368603369786248 
2400	 0.367834769252959 
2401	 0.367144102691017 
2402	 0.366413099059061 
2403	 0.365779014547646 
2404	 0.365134107251932 
2405	 0.364410425688829 
2406	 0.363650386303502 
2407	 0.362867735074646 
2408	 0.36219574150183 
2409	 0.361580679535064 
2410	 0.360902374629466 
2411	 0.360268979165254 
2412	 0.359664744394434 
2413	 0.358934668934275 
2414	 0.358279425263984 
2415	 0.357699739189742 
2416	 0.357061773740114 
2417	 0.356378754687741 
2418	 0.355707544947358 
2419	 0.354991760965124 
2420	 0.354360239858507 
2421	 0.353737316938475 
2422	 0.353206066531624 
2423	 0.352771337756412 
2424	 0.35232227863058 
2425	 0.351959841774791 
2426	 0.351453262703874 
2427	 0.350959657809228 
2428	 0.350381328810223 
2429	 0.349580992117857 
2430	 0.348976076164857 
2431	 0.348392963279395 
2432	 0.347840415965893 
2433	 0.347489499068173 
2434	 0.347023662814026 
2435	 0.346521959403294 
2436	 0.345952166329387 
2437	 0.345284233813086 
2438	 0.344634484527565 
2439	 0.343905316069494 
2440	 0.343262165246453 
2441	 0.342660736627935 
2442	 0.342119167784795 
2443	 0.341711179869327 
2444	 0.34112505684736 
2445	 0.34046123192873 
2446	 0.339930228161907 
2447	 0.339319570416529 
2448	 0.338756692925686 
2449	 0.338396366629764 
2450	 0.337801387171919 
2451	 0.337009662113672 
2452	 0.336418177674357 
2453	 0.335892975528384 
2454	 0.335353126691247 
2455	 0.334875907901149 
2456	 0.334294638724626 
2457	 0.333511289122362 
2458	 0.333034454589616 
2459	 0.332799803436624 
2460	 0.332458984724843 
2461	 0.332268761702013 
2462	 0.331927889408889 
2463	 0.33132732188962 
2464	 0.330848891479294 
2465	 0.33053499690223 
2466	 0.33003717694731 
2467	 0.329396534671794 
2468	 0.329044508201261 
2469	 0.328686537325994 
2470	 0.32842944779894 
2471	 0.328248232430507 
2472	 0.327880129171124 
2473	 0.327637388428987 
2474	 0.327531593050272 
2475	 0.327312391950688 
2476	 0.327155413901158 
2477	 0.326864118653309 
2478	 0.326331492491929 
2479	 0.325993087508935 
2480	 0.325755879155825 
2481	 0.325255089200162 
2482	 0.324699047389402 
2483	 0.324384020562145 
2484	 0.324021145702794 
2485	 0.323597972134476 
2486	 0.323461869297158 
2487	 0.323148117213883 
2488	 0.322434343519938 
2489	 0.321670897607438 
2490	 0.320941068371128 
2491	 0.320177999711043 
2492	 0.319491304122733 
2493	 0.318988931668567 
2494	 0.31845540435925 
2495	 0.318012008995466 
2496	 0.317728288576226 
2497	 0.31715082342523 
2498	 0.316486141599796 
2499	 0.315930948430569 
2500	 0.315155661679237 
