Wavelength	LMW700000.asd
350	 5.67087562679173E-02 
351	 6.41158826705029E-02 
352	 6.41744909755556E-02 
353	 5.71571740722738E-02 
354	 0.056578298027876 
355	 6.14983413606646E-02 
356	 6.30590208502047E-02 
357	 5.60099573095301E-02 
358	 5.65329763183116E-02 
359	 5.96929802446176E-02 
360	 6.14692358917058E-02 
361	 5.92578508984002E-02 
362	 5.45651912464865E-02 
363	 5.46440161603403E-02 
364	 5.97160415324996E-02 
365	 5.84197591911612E-02 
366	 5.66286778058434E-02 
367	 5.59458554420155E-02 
368	 5.68802282412465E-02 
369	 6.07341960002625E-02 
370	 0.059778864182387 
371	 5.64437827866865E-02 
372	 5.92668794879885E-02 
373	 6.08175040155657E-02 
374	 6.16342530099728E-02 
375	 6.25170889469236E-02 
376	 6.29491215183611E-02 
377	 6.20844225908207E-02 
378	 6.11741347581956E-02 
379	 6.19373069461764E-02 
380	 6.56749199424444E-02 
381	 6.53064829114444E-02 
382	 6.24320013353646E-02 
383	 6.47491830153001E-02 
384	 6.76626585491727E-02 
385	 6.83335525024191E-02 
386	 0.066999257595 
387	 6.92168067555674E-02 
388	 7.04670313224751E-02 
389	 7.15213135955495E-02 
390	 7.38665340377885E-02 
391	 7.39449792961371E-02 
392	 7.53449818447294E-02 
393	 7.83787448789779E-02 
394	 8.03343280089442E-02 
395	 7.99846544585421E-02 
396	 8.02670662281491E-02 
397	 8.27233649624432E-02 
398	 8.46192653043497E-02 
399	 8.58388022946037E-02 
400	 8.70779169287166E-02 
401	 8.90187055798704E-02 
402	 8.99720389141368E-02 
403	 9.13933851746928E-02 
404	 9.33619695419394E-02 
405	 9.44514252893987E-02 
406	 9.58417251428616E-02 
407	 9.73835300981154E-02 
408	 0.098679544448827 
409	 9.92686500280624E-02 
410	 0.10054934695447 
411	 0.102250223227422 
412	 0.103448496270377 
413	 0.104894606576226 
414	 0.105652208712227 
415	 0.10559935605731 
416	 0.105761992968088 
417	 0.106643199867675 
418	 0.107908933526633 
419	 0.108834732929814 
420	 0.108199510744183 
421	 0.107484853240609 
422	 0.107490386027583 
423	 0.108326263551721 
424	 0.108290485131829 
425	 0.107636403548916 
426	 0.106923498178948 
427	 0.106807595459028 
428	 0.106029595139659 
429	 0.104909991004457 
430	 0.104234036651405 
431	 0.104414744402818 
432	 0.103928208623185 
433	 0.102845266920607 
434	 0.10276817800226 
435	 0.103108523992922 
436	 0.103303829126931 
437	 0.103228968880107 
438	 0.103918904083311 
439	 0.104594496344451 
440	 0.105217742973845 
441	 0.106095690839877 
442	 0.107084683271146 
443	 0.108324042583962 
444	 0.10969388754728 
445	 0.110633905919119 
446	 0.11180397328743 
447	 0.113171171612579 
448	 0.114505369156705 
449	 0.115640297824667 
450	 0.117011391231909 
451	 0.118530246091634 
452	 0.119686701644629 
453	 0.120982581475229 
454	 0.122161308981086 
455	 0.123108681048179 
456	 0.124414051524267 
457	 0.1254154951586 
458	 0.126212336633862 
459	 0.127182787152843 
460	 0.127985716604856 
461	 0.128731543844661 
462	 0.129515570432373 
463	 0.130359461623199 
464	 0.131049553059035 
465	 0.131750416457084 
466	 0.132613987930627 
467	 0.133301348106931 
468	 0.133921216230711 
469	 0.134494686516176 
470	 0.134969937708551 
471	 0.135389993061393 
472	 0.135892668591512 
473	 0.136495853789591 
474	 0.136895508954023 
475	 0.137350572196195 
476	 0.137816059423265 
477	 0.138156984076231 
478	 0.138595061983992 
479	 0.139088688605743 
480	 0.139586198239289 
481	 0.140055780584346 
482	 0.140544484276599 
483	 0.141017506183133 
484	 0.141427139961155 
485	 0.141773536505936 
486	 0.14204041829866 
487	 0.142336311862092 
488	 0.142841587735066 
489	 0.143120994907256 
490	 0.143459813972375 
491	 0.144028526732839 
492	 0.144406882416002 
493	 0.144751642149918 
494	 0.145128741636384 
495	 0.145549554321146 
496	 0.14589748703788 
497	 0.14621193700103 
498	 0.14657416005942 
499	 0.147113654865281 
500	 0.147486897816024 
501	 0.147823734796185 
502	 0.148298178841114 
503	 0.148606097972057 
504	 0.148926346845564 
505	 0.149323536495469 
506	 0.149738923284341 
507	 0.150042331465921 
508	 0.15039632082506 
509	 0.150878263823988 
510	 0.151199025455225 
511	 0.151367067194308 
512	 0.151584098524976 
513	 0.152086165587876 
514	 0.152352798646125 
515	 0.152677817813415 
516	 0.153193073497813 
517	 0.153611161366999 
518	 0.153913803498798 
519	 0.154159652884357 
520	 0.154449082927785 
521	 0.154892645781593 
522	 0.155337615683455 
523	 0.155691966324811 
524	 0.155947146623928 
525	 0.156250918262644 
526	 0.156600137864036 
527	 0.156949962015085 
528	 0.157244441342778 
529	 0.157585148346841 
530	 0.157957069133651 
531	 0.158277362396026 
532	 0.158634176512223 
533	 0.15903438587036 
534	 0.159441635773155 
535	 0.159751827259013 
536	 0.16003043572852 
537	 0.160351862694386 
538	 0.160765675575904 
539	 0.161125917127107 
540	 0.16148556082305 
541	 0.161858852080082 
542	 0.162184649518306 
543	 0.16257867098647 
544	 0.162988066779867 
545	 0.163347292389127 
546	 0.163740838310386 
547	 0.164133931731975 
548	 0.164523045145398 
549	 0.164934634264829 
550	 0.165396938487672 
551	 0.165843872303102 
552	 0.166252541619754 
553	 0.166760232660066 
554	 0.167264921481312 
555	 0.167754550892481 
556	 0.168265094235108 
557	 0.168821456784939 
558	 0.169368627924238 
559	 0.169899316451634 
560	 0.170511461316572 
561	 0.171071298872344 
562	 0.171616449997506 
563	 0.172231618247325 
564	 0.172913526842246 
565	 0.173556398661173 
566	 0.174165442694588 
567	 0.17487486066702 
568	 0.175636507635626 
569	 0.176411395137022 
570	 0.177184188679678 
571	 0.178021356217194 
572	 0.178874033723435 
573	 0.179743011623957 
574	 0.180649263422072 
575	 0.181400927458521 
576	 0.182192313070309 
577	 0.183140730001595 
578	 0.184071749138211 
579	 0.184979211151975 
580	 0.185906124396919 
581	 0.186914716415902 
582	 0.187982235872595 
583	 0.189059729962281 
584	 0.190119595419019 
585	 0.191172358626236 
586	 0.19219919599157 
587	 0.193251147002613 
588	 0.194356215162068 
589	 0.195355759159764 
590	 0.196383392000102 
591	 0.197475799887776 
592	 0.19857306106674 
593	 0.199630643329788 
594	 0.200656062805882 
595	 0.201692884000452 
596	 0.202854108360046 
597	 0.204051377046995 
598	 0.205225627473626 
599	 0.206337335932807 
600	 0.207331277179363 
601	 0.208336501503411 
602	 0.209380479564406 
603	 0.210272656313299 
604	 0.211143944910301 
605	 0.212047915439521 
606	 0.212990876459279 
607	 0.21387160995785 
608	 0.214715314960822 
609	 0.215558483890466 
610	 0.216440579533554 
611	 0.21724852498184 
612	 0.218005845756086 
613	 0.218753595519773 
614	 0.219480439008344 
615	 0.220172039110003 
616	 0.220809267982171 
617	 0.221375857365583 
618	 0.221957684704921 
619	 0.222500930169027 
620	 0.222988752790008 
621	 0.223531693250123 
622	 0.224047433214732 
623	 0.224502835206335 
624	 0.224904062587658 
625	 0.225380733792381 
626	 0.225824438964024 
627	 0.226196521015102 
628	 0.226574858963718 
629	 0.22698007916457 
630	 0.227392222053874 
631	 0.227779671053571 
632	 0.228124377259531 
633	 0.228440896107397 
634	 0.228767843288342 
635	 0.229152356884138 
636	 0.229445550894638 
637	 0.229755083117534 
638	 0.230141313846852 
639	 0.230428890852467 
640	 0.230782030064067 
641	 0.231156072472922 
642	 0.231437612365328 
643	 0.231784885000827 
644	 0.23212959378222 
645	 0.232451216680993 
646	 0.232830548564082 
647	 0.233160976410794 
648	 0.23348783964835 
649	 0.233868661662807 
650	 0.234210845130083 
651	 0.234572507724245 
652	 0.2349551303709 
653	 0.235312342735409 
654	 0.235715959883663 
655	 0.236090393698268 
656	 0.236403232270608 
657	 0.236789706709787 
658	 0.237225275457181 
659	 0.237656919298491 
660	 0.238031064512092 
661	 0.238439233607738 
662	 0.238881610643285 
663	 0.239346210686044 
664	 0.239818885450173 
665	 0.240234917443419 
666	 0.240673567793001 
667	 0.241197344251151 
668	 0.241604938384496 
669	 0.242064581930715 
670	 0.24260274801587 
671	 0.243117101858711 
672	 0.243574364857873 
673	 0.244078058902369 
674	 0.244669172556098 
675	 0.245180383446211 
676	 0.245724277444328 
677	 0.246267603676596 
678	 0.246743092845993 
679	 0.247295827432492 
680	 0.247880636865953 
681	 0.248479511368139 
682	 0.249134269130835 
683	 0.249724544056435 
684	 0.250297829802554 
685	 0.250916612377213 
686	 0.251520813281313 
687	 0.252147403535051 
688	 0.2527936609358 
689	 0.253429304998147 
690	 0.25406478780802 
691	 0.254672291481544 
692	 0.255267364423772 
693	 0.255967595148397 
694	 0.256652292070182 
695	 0.25732117929462 
696	 0.258001647381459 
697	 0.258599384562588 
698	 0.259292847930592 
699	 0.260076640111602 
700	 0.260742817326389 
701	 0.261387622269555 
702	 0.262056771786686 
703	 0.262747970617351 
704	 0.263337467876698 
705	 0.264028295546686 
706	 0.264744067620015 
707	 0.265305930331321 
708	 0.26601320927738 
709	 0.266709424930635 
710	 0.26732185060008 
711	 0.267967021122171 
712	 0.268631180366879 
713	 0.26925930889457 
714	 0.269821120454558 
715	 0.270427250940542 
716	 0.271035194681533 
717	 0.271624784223752 
718	 0.272194771442593 
719	 0.272756177184806 
720	 0.27327424735251 
721	 0.273740157851936 
722	 0.274199788066507 
723	 0.274715112815705 
724	 0.275236565749472 
725	 0.275684907293469 
726	 0.276051233296328 
727	 0.276459623518927 
728	 0.276883752097615 
729	 0.277165101041988 
730	 0.277501735955549 
731	 0.277824973505456 
732	 0.278066733647109 
733	 0.278268657356949 
734	 0.278530840948814 
735	 0.278764036930146 
736	 0.278844201523974 
737	 0.278968297734868 
738	 0.279127682433464 
739	 0.279262168454063 
740	 0.279278223670408 
741	 0.279278465997766 
742	 0.279274581099864 
743	 0.279248090027974 
744	 0.279152802934441 
745	 0.279042678815654 
746	 0.278919382604242 
747	 0.278757238702831 
748	 0.278523443129822 
749	 0.278328850600499 
750	 0.278178437921 
751	 0.277937817311036 
752	 0.277645803424535 
753	 0.27729765315728 
754	 0.27691595844118 
755	 0.276622912522607 
756	 0.276343872613884 
757	 0.275994876005035 
758	 0.27551666063275 
759	 0.275052445025625 
760	 0.274580175210862 
761	 0.274100459037573 
762	 0.273660025319434 
763	 0.273231474851779 
764	 0.272748940930688 
765	 0.272190804518538 
766	 0.271686851363832 
767	 0.271154025324055 
768	 0.270573629472669 
769	 0.269971840086681 
770	 0.269440532848515 
771	 0.268911850950262 
772	 0.268343434001821 
773	 0.267743444934423 
774	 0.267154997571463 
775	 0.266568042611246 
776	 0.265963887464569 
777	 0.265331855043157 
778	 0.264743894567038 
779	 0.264146453616655 
780	 0.263461187607272 
781	 0.262850177044404 
782	 0.262268694724548 
783	 0.261666799657843 
784	 0.261014199361854 
785	 0.260411860676566 
786	 0.259834222526406 
787	 0.259242812049131 
788	 0.258627606089909 
789	 0.258019821114897 
790	 0.257427531054119 
791	 0.256845817148227 
792	 0.256259716301236 
793	 0.255674944208153 
794	 0.255069890273122 
795	 0.25441219119982 
796	 0.253829283044659 
797	 0.253313222939778 
798	 0.252797167722083 
799	 0.252144684616552 
800	 0.251629664608563 
801	 0.251166412115806 
802	 0.25059934322301 
803	 0.24995623652147 
804	 0.249428650274528 
805	 0.248976885890047 
806	 0.248435134050177 
807	 0.24794979472826 
808	 0.247413370053443 
809	 0.24683184482346 
810	 0.246382224811115 
811	 0.245938077893577 
812	 0.245477054341475 
813	 0.245008087500635 
814	 0.244563769629626 
815	 0.244096325521051 
816	 0.243605054084245 
817	 0.243123510605084 
818	 0.242740939240284 
819	 0.242381337760709 
820	 0.241976701726345 
821	 0.24149253458141 
822	 0.241075595796225 
823	 0.240711791663136 
824	 0.240339967105281 
825	 0.239867830135678 
826	 0.239467478088725 
827	 0.239149266895292 
828	 0.238859757516071 
829	 0.238506088350587 
830	 0.238146946989301 
831	 0.237773190387595 
832	 0.237369571114331 
833	 0.237092158139994 
834	 0.236810854652145 
835	 0.23651036551621 
836	 0.236289652150297 
837	 0.236001105764954 
838	 0.235692332275823 
839	 0.235409870066846 
840	 0.235142533781324 
841	 0.234876661898949 
842	 0.234578173120595 
843	 0.234265297540705 
844	 0.234136084294336 
845	 0.233998789107635 
846	 0.233781738681764 
847	 0.233510148251708 
848	 0.23337494466055 
849	 0.233213615997484 
850	 0.232982747030687 
851	 0.232757288976903 
852	 0.232497003642871 
853	 0.232322635730768 
854	 0.232247383636414 
855	 0.232104990651202 
856	 0.232002755205584 
857	 0.231897403518436 
858	 0.231746178164502 
859	 0.231586660194645 
860	 0.231470830189815 
861	 0.231399945049147 
862	 0.231343340045727 
863	 0.231240735302177 
864	 0.231145578779842 
865	 0.231080927708895 
866	 0.231042321561806 
867	 0.231001753977899 
868	 0.230969005113899 
869	 0.230933346914572 
870	 0.230863581950594 
871	 0.230771772744353 
872	 0.230745393689946 
873	 0.230806158890809 
874	 0.230855152048525 
875	 0.230854089684482 
876	 0.230852482974587 
877	 0.230895608690395 
878	 0.230948567728899 
879	 0.231040675380166 
880	 0.2310761347099 
881	 0.230999400343725 
882	 0.231089576220901 
883	 0.231177701891694 
884	 0.231223156092864 
885	 0.231274398951979 
886	 0.231399790550652 
887	 0.231561193117845 
888	 0.23168382040112 
889	 0.231698209497155 
890	 0.231787741473093 
891	 0.231928421051633 
892	 0.232101244898564 
893	 0.232321247091426 
894	 0.232410986203157 
895	 0.232512113365011 
896	 0.232733814536508 
897	 0.23300870461468 
898	 0.233270554605046 
899	 0.233474058603651 
900	 0.233605534457987 
901	 0.233685876604751 
902	 0.233897147487273 
903	 0.234186703926936 
904	 0.234442404715576 
905	 0.234686871775857 
906	 0.234970352336976 
907	 0.235255311531782 
908	 0.235490630794372 
909	 0.235789253774958 
910	 0.236079283609583 
911	 0.236369555196483 
912	 0.236699668700004 
913	 0.236896664634263 
914	 0.237114599615384 
915	 0.237455415523566 
916	 0.237915213669391 
917	 0.238245306566218 
918	 0.238602796565701 
919	 0.23907184552821 
920	 0.239576062092121 
921	 0.239976041168589 
922	 0.240240242271853 
923	 0.240471940700337 
924	 0.240911711926923 
925	 0.241375131754179 
926	 0.241817560180739 
927	 0.242252367599238 
928	 0.242740255561098 
929	 0.243296928045567 
930	 0.243834068659628 
931	 0.244280492048982 
932	 0.244670826270825 
933	 0.24507228583808 
934	 0.245601878985729 
935	 0.24627770209855 
936	 0.246828073267845 
937	 0.247346582358559 
938	 0.247817748202612 
939	 0.248250207862677 
940	 0.248833446699449 
941	 0.249420541445589 
942	 0.250051689863558 
943	 0.250762047297483 
944	 0.251254828676385 
945	 0.251876895163505 
946	 0.252613406640899 
947	 0.253278885719774 
948	 0.253786461421389 
949	 0.254404877059495 
950	 0.255084373144307 
951	 0.255674092889703 
952	 0.25644114514588 
953	 0.257226513422783 
954	 0.257908041993504 
955	 0.258478475395885 
956	 0.259318669622571 
957	 0.260028571562201 
958	 0.260629280054477 
959	 0.261386269046723 
960	 0.26219472996024 
961	 0.262939908898949 
962	 0.263677970416781 
963	 0.264514528384228 
964	 0.265142457276349 
965	 0.265847023645838 
966	 0.266716759820767 
967	 0.267640231649346 
968	 0.26838763853893 
969	 0.269117143373063 
970	 0.269869750247062 
971	 0.270617694132986 
972	 0.271579834662383 
973	 0.272531656730572 
974	 0.273408396095499 
975	 0.274281278041572 
976	 0.275168897082366 
977	 0.27602286795062 
978	 0.276859101335482 
979	 0.277723447143205 
980	 0.278568949901965 
981	 0.279345182210205 
982	 0.280128807018389 
983	 0.281038898534617 
984	 0.281977367892312 
985	 0.282986416703586 
986	 0.283948580281604 
987	 0.284714268271298 
988	 0.285413231585631 
989	 0.286405133910503 
990	 0.287484110034422 
991	 0.288272020387899 
992	 0.289094856314376 
993	 0.289864776932386 
994	 0.290747863577613 
995	 0.291874305123234 
996	 0.292789751295603 
997	 0.293735063178391 
998	 0.294602934926825 
999	 0.295325334932786 
1000	 0.296473214073427 
1001	 0.300541626619956 
1002	 0.301379532776289 
1003	 0.302283649678016 
1004	 0.303163412934248 
1005	 0.304064923712216 
1006	 0.30495241572779 
1007	 0.30583724695605 
1008	 0.306723411188334 
1009	 0.307582704917927 
1010	 0.308374548933352 
1011	 0.309223774890483 
1012	 0.309999320822119 
1013	 0.310708200418558 
1014	 0.311523830683949 
1015	 0.312341800676681 
1016	 0.313116567090057 
1017	 0.313917543931933 
1018	 0.314734105841799 
1019	 0.31553177769762 
1020	 0.316336927170464 
1021	 0.317167500690425 
1022	 0.317925339368146 
1023	 0.318684136819863 
1024	 0.319490171458104 
1025	 0.320192525694131 
1026	 0.320860200809845 
1027	 0.321570015714458 
1028	 0.322262965705813 
1029	 0.323011729408465 
1030	 0.323820318209311 
1031	 0.324573012129445 
1032	 0.325322882567757 
1033	 0.326031982095429 
1034	 0.326765274409812 
1035	 0.327460961673066 
1036	 0.32815490201499 
1037	 0.328885642771589 
1038	 0.32955768035569 
1039	 0.330233263923068 
1040	 0.330951750831006 
1041	 0.331699630919091 
1042	 0.332440988013155 
1043	 0.333147451031693 
1044	 0.333849710999377 
1045	 0.334557366650536 
1046	 0.335216240195688 
1047	 0.335883035252342 
1048	 0.336571071310878 
1049	 0.337263259255102 
1050	 0.337977107638917 
1051	 0.338668810752685 
1052	 0.339362344393912 
1053	 0.340028948310021 
1054	 0.34069733623713 
1055	 0.341347994066786 
1056	 0.341953257096469 
1057	 0.342607087515017 
1058	 0.34331485343154 
1059	 0.34395217240933 
1060	 0.344573593731396 
1061	 0.34521211460199 
1062	 0.345743979088462 
1063	 0.346272762314649 
1064	 0.346929936028894 
1065	 0.347559042957796 
1066	 0.348175968236273 
1067	 0.348777864250024 
1068	 0.349290856809866 
1069	 0.349801256016261 
1070	 0.350316670514264 
1071	 0.350833715717548 
1072	 0.351383103146187 
1073	 0.35193937868824 
1074	 0.352458100890904 
1075	 0.352995842689322 
1076	 0.353495871263184 
1077	 0.353974307853221 
1078	 0.354514622972438 
1079	 0.355063624095406 
1080	 0.355625498963972 
1081	 0.35607541799266 
1082	 0.356484522163134 
1083	 0.356942230986067 
1084	 0.357368134277679 
1085	 0.357826963269103 
1086	 0.358332966551892 
1087	 0.35883110189585 
1088	 0.359328079044703 
1089	 0.35982327269949 
1090	 0.360325304915375 
1091	 0.360804674512545 
1092	 0.361267595718108 
1093	 0.361763385836763 
1094	 0.362285558450993 
1095	 0.362812081132894 
1096	 0.363312198743319 
1097	 0.363798928433176 
1098	 0.364288613678022 
1099	 0.364743218560231 
1100	 0.365245191712045 
1101	 0.365776010059738 
1102	 0.366295934491937 
1103	 0.366834720885574 
1104	 0.367360816248758 
1105	 0.367870101268225 
1106	 0.368408809010152 
1107	 0.368913440016899 
1108	 0.369436526260832 
1109	 0.369988345273621 
1110	 0.370516082906909 
1111	 0.371067102524539 
1112	 0.371656746440363 
1113	 0.372201989060974 
1114	 0.37272717144895 
1115	 0.373268797535058 
1116	 0.373781444448385 
1117	 0.374342350162566 
1118	 0.374939292839029 
1119	 0.375521506525019 
1120	 0.376145245379538 
1121	 0.37674159743733 
1122	 0.377307984751715 
1123	 0.377905131695629 
1124	 0.378479006916879 
1125	 0.37902919844053 
1126	 0.379607259745404 
1127	 0.380187654783309 
1128	 0.380767517354892 
1129	 0.38136835951596 
1130	 0.381943802560425 
1131	 0.382516422183695 
1132	 0.383078917790856 
1133	 0.383610173056435 
1134	 0.384164530218052 
1135	 0.384739173293545 
1136	 0.38528037683135 
1137	 0.385821402209634 
1138	 0.386366265734439 
1139	 0.386909495850868 
1140	 0.387430258538101 
1141	 0.387974731705351 
1142	 0.388548675777902 
1143	 0.389096702543503 
1144	 0.389641891358661 
1145	 0.390173189307005 
1146	 0.390689759468512 
1147	 0.391199838538947 
1148	 0.391693954325957 
1149	 0.392196895286232 
1150	 0.392706141552273 
1151	 0.393203804389944 
1152	 0.393691365871562 
1153	 0.394186865701423 
1154	 0.394659735841658 
1155	 0.395116222187315 
1156	 0.395569924192668 
1157	 0.3960134115712 
1158	 0.396449504972299 
1159	 0.396864195956266 
1160	 0.397304020850698 
1161	 0.397752467050095 
1162	 0.398198802285524 
1163	 0.398666151707494 
1164	 0.399113986404102 
1165	 0.399549302871057 
1166	 0.399982181082273 
1167	 0.400416010281417 
1168	 0.400848240640586 
1169	 0.401278344733279 
1170	 0.401725673748581 
1171	 0.402124103022838 
1172	 0.402505097925583 
1173	 0.402872631776385 
1174	 0.403199845404609 
1175	 0.403543387045428 
1176	 0.403879918859945 
1177	 0.404226051052571 
1178	 0.404578025271839 
1179	 0.404925939581791 
1180	 0.405283267748072 
1181	 0.405630565187841 
1182	 0.405975553431617 
1183	 0.406306886587736 
1184	 0.406637799009075 
1185	 0.406966103743527 
1186	 0.407290698122164 
1187	 0.407605822858821 
1188	 0.407927083677759 
1189	 0.408247268697907 
1190	 0.408569148098384 
1191	 0.408895882640079 
1192	 0.409218689680963 
1193	 0.409553048820241 
1194	 0.409863842796862 
1195	 0.410156661301609 
1196	 0.410454106189941 
1197	 0.410731458989166 
1198	 0.411020788431644 
1199	 0.411315916202387 
1200	 0.411623317931305 
1201	 0.411920785075124 
1202	 0.412220430495452 
1203	 0.412515076309053 
1204	 0.412813787889887 
1205	 0.413093025774318 
1206	 0.413358200481139 
1207	 0.413629245878701 
1208	 0.413888552221332 
1209	 0.414152607482909 
1210	 0.414429971750894 
1211	 0.414692591651365 
1212	 0.41494348376471 
1213	 0.415195731604358 
1214	 0.415446690987532 
1215	 0.415690974249415 
1216	 0.415931304681489 
1217	 0.416169043600105 
1218	 0.416404611247118 
1219	 0.416638155329197 
1220	 0.416860716515403 
1221	 0.417070883088459 
1222	 0.417297063389572 
1223	 0.417509678765508 
1224	 0.41774844717953 
1225	 0.418028453338976 
1226	 0.418273257652033 
1227	 0.418524907302857 
1228	 0.418751873474052 
1229	 0.418933609691598 
1230	 0.419141481715896 
1231	 0.419351996557763 
1232	 0.419561376383614 
1233	 0.419775162797055 
1234	 0.420006913084969 
1235	 0.420217606924097 
1236	 0.420418333141211 
1237	 0.420619275558885 
1238	 0.420813958046244 
1239	 0.421012892815668 
1240	 0.421213425437676 
1241	 0.421408865731053 
1242	 0.421609415988103 
1243	 0.421796270323626 
1244	 0.421969223628571 
1245	 0.422146691831849 
1246	 0.422316481795704 
1247	 0.422491640845505 
1248	 0.422668755418432 
1249	 0.422848170623128 
1250	 0.423040950082853 
1251	 0.423229480378935 
1252	 0.423401661687959 
1253	 0.423570927023834 
1254	 0.423733147533956 
1255	 0.42386867831514 
1256	 0.424030896110819 
1257	 0.424207691547462 
1258	 0.424376469249718 
1259	 0.424561077149733 
1260	 0.424719897757028 
1261	 0.424863175878782 
1262	 0.425006002463732 
1263	 0.425120289919939 
1264	 0.425260528791906 
1265	 0.425411577957782 
1266	 0.42556745173923 
1267	 0.425743109934432 
1268	 0.425914815765799 
1269	 0.426078177899795 
1270	 0.426239031652846 
1271	 0.42639684975981 
1272	 0.426544069052236 
1273	 0.426702229419602 
1274	 0.426850562442536 
1275	 0.427031013046338 
1276	 0.427234550199603 
1277	 0.427431021754677 
1278	 0.42765843845934 
1279	 0.4278538160624 
1280	 0.42802129801949 
1281	 0.428205575815191 
1282	 0.428392408894272 
1283	 0.428570268092213 
1284	 0.428770216218376 
1285	 0.428936744185358 
1286	 0.429051130011163 
1287	 0.429180934058825 
1288	 0.429282427373261 
1289	 0.429344824565867 
1290	 0.429430098691987 
1291	 0.429520602869627 
1292	 0.42959119892801 
1293	 0.429663259514132 
1294	 0.429706566507187 
1295	 0.429725096380278 
1296	 0.429742472819842 
1297	 0.429747691687619 
1298	 0.429745985448243 
1299	 0.42974487138266 
1300	 0.429716354465776 
1301	 0.429648165714495 
1302	 0.429598567047133 
1303	 0.429548504822814 
1304	 0.429489190029514 
1305	 0.429434692294455 
1306	 0.429389093785631 
1307	 0.429286880988871 
1308	 0.429189950847274 
1309	 0.429109664289423 
1310	 0.429020717315768 
1311	 0.428955077449458 
1312	 0.42891104898692 
1313	 0.428872284452298 
1314	 0.428857071339178 
1315	 0.428814947949043 
1316	 0.428759985970822 
1317	 0.428726359390804 
1318	 0.428675655628386 
1319	 0.428650973044128 
1320	 0.428660742668783 
1321	 0.428667263616809 
1322	 0.4286736198568 
1323	 0.428694236130482 
1324	 0.428722339853853 
1325	 0.42876201994917 
1326	 0.428806117629685 
1327	 0.428847453623771 
1328	 0.428871509713176 
1329	 0.428901842333022 
1330	 0.428947304912339 
1331	 0.428982356724922 
1332	 0.429053408421597 
1333	 0.429153321337379 
1334	 0.429258796638909 
1335	 0.429376964183026 
1336	 0.429510850567284 
1337	 0.429665702632658 
1338	 0.429813759611339 
1339	 0.429979073598652 
1340	 0.430133717179201 
1341	 0.430297038163475 
1342	 0.430435077654912 
1343	 0.430560132457535 
1344	 0.430672053076334 
1345	 0.430783090714242 
1346	 0.430897477878506 
1347	 0.431033601539364 
1348	 0.43117392388679 
1349	 0.431283019559512 
1350	 0.431363450677408 
1351	 0.431453169813839 
1352	 0.431518369616952 
1353	 0.431610559586744 
1354	 0.431722967802173 
1355	 0.431818124688839 
1356	 0.431910022510727 
1357	 0.432003189810513 
1358	 0.432093961263405 
1359	 0.43218494396615 
1360	 0.432272602076415 
1361	 0.43236421423352 
1362	 0.432447169799805 
1363	 0.432544614733148 
1364	 0.432651398497211 
1365	 0.432771531900933 
1366	 0.432907829394448 
1367	 0.433040921593409 
1368	 0.433194390152061 
1369	 0.433307764303198 
1370	 0.433388796804691 
1371	 0.433469352857962 
1372	 0.433532225137386 
1373	 0.433599908285212 
1374	 0.433636392607583 
1375	 0.433669741848085 
1376	 0.433667378455227 
1377	 0.433624373693053 
1378	 0.433580437104483 
1379	 0.433518633947174 
1380	 0.433462497994503 
1381	 0.433387058563169 
1382	 0.433324359140075 
1383	 0.433286941234168 
1384	 0.433211277306388 
1385	 0.433145476479088 
1386	 0.433029194254456 
1387	 0.432876451027025 
1388	 0.432694601645371 
1389	 0.432479202349236 
1390	 0.432237505935668 
1391	 0.431969141207628 
1392	 0.431667215752001 
1393	 0.431315801518636 
1394	 0.430954213481403 
1395	 0.430558247937158 
1396	 0.430146848718458 
1397	 0.429735522344076 
1398	 0.429312779756579 
1399	 0.428883426749415 
1400	 0.428447493991351 
1401	 0.428003271296944 
1402	 0.42755447899557 
1403	 0.427096254333119 
1404	 0.426616182063018 
1405	 0.426157211039812 
1406	 0.425692272698433 
1407	 0.42524551453382 
1408	 0.424815546225139 
1409	 0.424392207083971 
1410	 0.423974620814422 
1411	 0.423566717625933 
1412	 0.423152241397753 
1413	 0.422773021417264 
1414	 0.422444725774796 
1415	 0.422145007589693 
1416	 0.421881121109782 
1417	 0.421642806113893 
1418	 0.421407031499792 
1419	 0.421185675378764 
1420	 0.420986551428177 
1421	 0.420791323067774 
1422	 0.420583036638821 
1423	 0.420376709596246 
1424	 0.420178025976843 
1425	 0.419988581891845 
1426	 0.419781253280624 
1427	 0.419563172436758 
1428	 0.419363979944287 
1429	 0.419154592330841 
1430	 0.418965025589917 
1431	 0.418810257740007 
1432	 0.418634964045089 
1433	 0.418443257316184 
1434	 0.41827059753963 
1435	 0.418092984035855 
1436	 0.417940104835894 
1437	 0.417812845763956 
1438	 0.417684871378366 
1439	 0.417575831625566 
1440	 0.417464034755122 
1441	 0.417323010462377 
1442	 0.417173746731243 
1443	 0.417017138744804 
1444	 0.416852130262159 
1445	 0.416716138203688 
1446	 0.416583702631471 
1447	 0.416438391386477 
1448	 0.416298579547637 
1449	 0.416142312221714 
1450	 0.415959479603941 
1451	 0.41577496574689 
1452	 0.415572508429614 
1453	 0.415389436189965 
1454	 0.415209528710936 
1455	 0.415021520794552 
1456	 0.41484379602539 
1457	 0.414644856734674 
1458	 0.414416006193577 
1459	 0.414215348221673 
1460	 0.414012604276105 
1461	 0.413829148190534 
1462	 0.413663258103783 
1463	 0.41350319153737 
1464	 0.413350297695763 
1465	 0.413214484010399 
1466	 0.413068406374282 
1467	 0.412976829730042 
1468	 0.412915484462667 
1469	 0.412878245213337 
1470	 0.412874411532741 
1471	 0.412913485285804 
1472	 0.41295412468976 
1473	 0.413039069814829 
1474	 0.413154732717791 
1475	 0.413278785777865 
1476	 0.413444807393493 
1477	 0.413633179319962 
1478	 0.413847343353413 
1479	 0.414067395398502 
1480	 0.414295748464872 
1481	 0.414537192741261 
1482	 0.41476491474818 
1483	 0.414994563552337 
1484	 0.415228102698192 
1485	 0.415446700595674 
1486	 0.415692225452633 
1487	 0.415957975853028 
1488	 0.416209997612413 
1489	 0.416487581836293 
1490	 0.416717521511711 
1491	 0.416925921705497 
1492	 0.417130901749187 
1493	 0.41730474835353 
1494	 0.417479927023056 
1495	 0.417660015629613 
1496	 0.417816849855428 
1497	 0.417957538556815 
1498	 0.418092798118422 
1499	 0.418200642367297 
1500	 0.418321624969082 
1501	 0.418443764892649 
1502	 0.418564877576444 
1503	 0.41868463397598 
1504	 0.418818219372079 
1505	 0.418946128658911 
1506	 0.419070714492013 
1507	 0.419205837794197 
1508	 0.419324950409549 
1509	 0.419425134919073 
1510	 0.419516020173092 
1511	 0.41958652050052 
1512	 0.419683509709829 
1513	 0.419827744825799 
1514	 0.419961283979572 
1515	 0.420104816223227 
1516	 0.420257545587059 
1517	 0.420372956351437 
1518	 0.420456575918885 
1519	 0.420546278073719 
1520	 0.420615481361882 
1521	 0.420701328320136 
1522	 0.420789037082177 
1523	 0.420879106424672 
1524	 0.420973163342991 
1525	 0.421073893830752 
1526	 0.421172430865284 
1527	 0.421281154583253 
1528	 0.421412537336169 
1529	 0.421520253544409 
1530	 0.421619238588199 
1531	 0.421721410015599 
1532	 0.42181554717443 
1533	 0.421912270638943 
1534	 0.422020189664472 
1535	 0.422110696520928 
1536	 0.422180131534001 
1537	 0.422262991793609 
1538	 0.422342215355853 
1539	 0.422430161718312 
1540	 0.422534790929785 
1541	 0.422629934002693 
1542	 0.422730313929334 
1543	 0.422814314084176 
1544	 0.422882326762295 
1545	 0.422956213667475 
1546	 0.423019755823429 
1547	 0.423086152963491 
1548	 0.423172366425027 
1549	 0.423258159953371 
1550	 0.423348612730006 
1551	 0.423442213606581 
1552	 0.423530346524848 
1553	 0.423613495018375 
1554	 0.423698512309608 
1555	 0.423783160881036 
1556	 0.423851235842684 
1557	 0.423925662268847 
1558	 0.424005304291702 
1559	 0.424079590723423 
1560	 0.424166117109771 
1561	 0.424266359308912 
1562	 0.424359202694643 
1563	 0.424453965660916 
1564	 0.424545407862671 
1565	 0.424635433690555 
1566	 0.424731705379508 
1567	 0.424829162544424 
1568	 0.424919605112772 
1569	 0.425018642714604 
1570	 0.425097502012792 
1571	 0.42516063920997 
1572	 0.425232279412438 
1573	 0.425304666946284 
1574	 0.425355407875606 
1575	 0.425390644696011 
1576	 0.42543866162868 
1577	 0.425477474162791 
1578	 0.425520618351961 
1579	 0.425576798275389 
1580	 0.425627874512209 
1581	 0.425672227766697 
1582	 0.425714208882003 
1583	 0.425757623429555 
1584	 0.425803643745343 
1585	 0.425831876226064 
1586	 0.425883368969818 
1587	 0.425970546037094 
1588	 0.426023380409425 
1589	 0.426070976159225 
1590	 0.426114280673472 
1591	 0.426121447033133 
1592	 0.426155808057116 
1593	 0.426201903389371 
1594	 0.426256549055418 
1595	 0.42632481585653 
1596	 0.426397204649715 
1597	 0.426488011169347 
1598	 0.426563462428616 
1599	 0.426659679239421 
1600	 0.426713602878383 
1601	 0.426722343954243 
1602	 0.426748243966832 
1603	 0.426753798592867 
1604	 0.426762894539709 
1605	 0.426785531351469 
1606	 0.426806896059172 
1607	 0.426825085782421 
1608	 0.426833789010623 
1609	 0.426854860412155 
1610	 0.426877851725591 
1611	 0.426891915645486 
1612	 0.426896580253188 
1613	 0.42687832707849 
1614	 0.426872065213914 
1615	 0.426875563737498 
1616	 0.426894176190706 
1617	 0.426958257037838 
1618	 0.427010260337726 
1619	 0.427051060212997 
1620	 0.427076777543583 
1621	 0.42708581888021 
1622	 0.427072183677334 
1623	 0.427056739427757 
1624	 0.427017962126684 
1625	 0.427021545824224 
1626	 0.427029225727747 
1627	 0.42704748452772 
1628	 0.427097875068574 
1629	 0.427130835669823 
1630	 0.427154365890307 
1631	 0.427188953483187 
1632	 0.427237450201884 
1633	 0.427267968576239 
1634	 0.427290817672697 
1635	 0.427319022863371 
1636	 0.42734328051649 
1637	 0.427366474660843 
1638	 0.427398480506695 
1639	 0.427410339190814 
1640	 0.427407768269326 
1641	 0.427408768849924 
1642	 0.427397157075634 
1643	 0.427399560049339 
1644	 0.427405605843401 
1645	 0.427417229759073 
1646	 0.427450178603333 
1647	 0.427445385097699 
1648	 0.427418549752581 
1649	 0.427414345515797 
1650	 0.427393650512605 
1651	 0.42739045860693 
1652	 0.427419665346905 
1653	 0.427424981661525 
1654	 0.427418435234454 
1655	 0.427412721926119 
1656	 0.427399841500257 
1657	 0.427398344972871 
1658	 0.427393631122977 
1659	 0.427401082090857 
1660	 0.427425479210689 
1661	 0.427441140738636 
1662	 0.42746845974227 
1663	 0.427468835757813 
1664	 0.427454654002397 
1665	 0.427441075841318 
1666	 0.427402845327404 
1667	 0.427387193135734 
1668	 0.427388993284961 
1669	 0.427374943272783 
1670	 0.427356950314717 
1671	 0.427344432378139 
1672	 0.427326834570558 
1673	 0.427312081595594 
1674	 0.427306826933735 
1675	 0.427294358121138 
1676	 0.427259704810055 
1677	 0.427263914578932 
1678	 0.427297333075763 
1679	 0.427309117611573 
1680	 0.427347104097638 
1681	 0.427344674830638 
1682	 0.427293618603236 
1683	 0.427280772301041 
1684	 0.42727116780514 
1685	 0.427265103093444 
1686	 0.427284506217771 
1687	 0.427279676279514 
1688	 0.427261112244039 
1689	 0.427242114999955 
1690	 0.427203575301408 
1691	 0.427194767074389 
1692	 0.427193105718415 
1693	 0.427200698176573 
1694	 0.427239638323002 
1695	 0.427255156364138 
1696	 0.427278811339627 
1697	 0.427267115871729 
1698	 0.427227242861385 
1699	 0.42719415468758 
1700	 0.427140680606732 
1701	 0.427089369325038 
1702	 0.427036620977675 
1703	 0.426995436329792 
1704	 0.426953721708534 
1705	 0.426907315646362 
1706	 0.426859577942701 
1707	 0.426832840672388 
1708	 0.426808372389931 
1709	 0.426787982790374 
1710	 0.426798274278421 
1711	 0.426791737644686 
1712	 0.426767130568494 
1713	 0.426750541400883 
1714	 0.426761565425227 
1715	 0.426717116669922 
1716	 0.426632451671695 
1717	 0.426576255495682 
1718	 0.426487096356394 
1719	 0.426439088154044 
1720	 0.426443114587767 
1721	 0.426410067386537 
1722	 0.426374122367154 
1723	 0.426328499869268 
1724	 0.426258908936531 
1725	 0.426205342528226 
1726	 0.426153482601703 
1727	 0.426105521317454 
1728	 0.426075465921705 
1729	 0.42601972964605 
1730	 0.425961436943716 
1731	 0.425880818853416 
1732	 0.425771817341552 
1733	 0.425673732971112 
1734	 0.425563141132359 
1735	 0.425461860717352 
1736	 0.425377106528992 
1737	 0.425263655582618 
1738	 0.425134698812175 
1739	 0.425014204631048 
1740	 0.424869543853249 
1741	 0.424763866271063 
1742	 0.424686942491033 
1743	 0.424589863634735 
1744	 0.424502104630791 
1745	 0.424404933485624 
1746	 0.424286058427636 
1747	 0.424222271909633 
1748	 0.424154510984686 
1749	 0.424080124035817 
1750	 0.423994024430798 
1751	 0.423877338176088 
1752	 0.423758855463595 
1753	 0.423643682881457 
1754	 0.423523094085857 
1755	 0.423420317569663 
1756	 0.423317076582528 
1757	 0.423213210904511 
1758	 0.423134819543044 
1759	 0.423031972148954 
1760	 0.422918737338745 
1761	 0.422824954825195 
1762	 0.422731031702708 
1763	 0.422657116544612 
1764	 0.422600226831923 
1765	 0.422574567448858 
1766	 0.422562259190009 
1767	 0.42253893009226 
1768	 0.422518389728254 
1769	 0.422462477891499 
1770	 0.422371235588855 
1771	 0.422262417887819 
1772	 0.422120789958619 
1773	 0.421965172997085 
1774	 0.421844823822577 
1775	 0.421737235052579 
1776	 0.421654403935104 
1777	 0.421642449985611 
1778	 0.421588947123306 
1779	 0.421530058551654 
1780	 0.421517565591379 
1781	 0.421444215515442 
1782	 0.42137664936209 
1783	 0.421310774493772 
1784	 0.421253563758484 
1785	 0.4212147864178 
1786	 0.421144128910266 
1787	 0.421056622801203 
1788	 0.420992154859692 
1789	 0.420918933063816 
1790	 0.420860599954904 
1791	 0.420830664655405 
1792	 0.420784331735118 
1793	 0.420738835232538 
1794	 0.420671527669783 
1795	 0.420596877515478 
1796	 0.420519013134092 
1797	 0.420402227092908 
1798	 0.420312340495918 
1799	 0.420243270585698 
1800	 0.420164566496801 
1801	 0.421684293232272 
1802	 0.421718008857163 
1803	 0.421748999125531 
1804	 0.421764249657353 
1805	 0.421791442723653 
1806	 0.421791310942202 
1807	 0.421801350231417 
1808	 0.42179208377495 
1809	 0.421785539097961 
1810	 0.421745616799945 
1811	 0.421694407225296 
1812	 0.421612436184955 
1813	 0.421488670772083 
1814	 0.421380210796443 
1815	 0.421253847180281 
1816	 0.421113905189083 
1817	 0.420995697858756 
1818	 0.42087864917042 
1819	 0.420777467426814 
1820	 0.420705728366993 
1821	 0.42060533322277 
1822	 0.420487005571569 
1823	 0.420387397002868 
1824	 0.420264269067677 
1825	 0.420108738172881 
1826	 0.419955575963067 
1827	 0.419763245557332 
1828	 0.419524732403125 
1829	 0.419232212479251 
1830	 0.418942374667669 
1831	 0.418619803735133 
1832	 0.418278175342149 
1833	 0.417949040284086 
1834	 0.417621892582226 
1835	 0.417265076792007 
1836	 0.416902677693294 
1837	 0.416537941802125 
1838	 0.416173255252834 
1839	 0.415847858754248 
1840	 0.415551660349423 
1841	 0.415267253190313 
1842	 0.414994250099042 
1843	 0.414753874673184 
1844	 0.414522677941817 
1845	 0.4142996572184 
1846	 0.414092339792101 
1847	 0.413899641737704 
1848	 0.413710674175733 
1849	 0.4135701580747 
1850	 0.413467851648148 
1851	 0.413414453600171 
1852	 0.41337092496859 
1853	 0.413362963939699 
1854	 0.413344142706356 
1855	 0.413344107389778 
1856	 0.41338808373455 
1857	 0.413446162596217 
1858	 0.413484680757194 
1859	 0.41348176396757 
1860	 0.413461790355362 
1861	 0.4134115952388 
1862	 0.413312686199353 
1863	 0.413226334001144 
1864	 0.413140775611051 
1865	 0.413042844483595 
1866	 0.412927512068795 
1867	 0.412793791687885 
1868	 0.412692597424171 
1869	 0.412543864442895 
1870	 0.412376838294617 
1871	 0.41218301444634 
1872	 0.411977711496395 
1873	 0.411707708359567 
1874	 0.411428450612057 
1875	 0.411115812280638 
1876	 0.410746295874173 
1877	 0.410322130417473 
1878	 0.409821950539263 
1879	 0.409254771621148 
1880	 0.408615063993544 
1881	 0.407907523392677 
1882	 0.407126586658428 
1883	 0.406284175460006 
1884	 0.405338823026264 
1885	 0.404321971497327 
1886	 0.403227214323728 
1887	 0.402050956066711 
1888	 0.400844015367483 
1889	 0.399577071497859 
1890	 0.3982639052049 
1891	 0.39689243575821 
1892	 0.39543638434887 
1893	 0.393966494967331 
1894	 0.392463855642121 
1895	 0.390899695828899 
1896	 0.389278465017992 
1897	 0.387659328969642 
1898	 0.385998826706517 
1899	 0.38435126928165 
1900	 0.382759594693678 
1901	 0.381194992780408 
1902	 0.379667516449452 
1903	 0.378172364744357 
1904	 0.376730296686624 
1905	 0.375338056071281 
1906	 0.373969332711328 
1907	 0.372640576414219 
1908	 0.371338613205433 
1909	 0.370093278291605 
1910	 0.368878014489759 
1911	 0.36769892320654 
1912	 0.366554920808169 
1913	 0.365445221689121 
1914	 0.3643346735671 
1915	 0.363306921882781 
1916	 0.362332306226061 
1917	 0.361406611389676 
1918	 0.360554900004059 
1919	 0.359772350023414 
1920	 0.359039004854238 
1921	 0.358347140085976 
1922	 0.357700424790728 
1923	 0.357089853308074 
1924	 0.356531361205485 
1925	 0.356025279148057 
1926	 0.355574662388387 
1927	 0.355175564843376 
1928	 0.354809896401415 
1929	 0.354512821295045 
1930	 0.354249008356543 
1931	 0.354048826937988 
1932	 0.353893556316188 
1933	 0.353767054071567 
1934	 0.353693819971992 
1935	 0.353665772964115 
1936	 0.353674960728693 
1937	 0.35373934703109 
1938	 0.353874181467198 
1939	 0.35401907541553 
1940	 0.354212235231216 
1941	 0.354410063506071 
1942	 0.354620737620216 
1943	 0.354860860687949 
1944	 0.3551071055835 
1945	 0.35537985986177 
1946	 0.355654423519222 
1947	 0.355943720843273 
1948	 0.356241054566816 
1949	 0.356551590612312 
1950	 0.356855984177337 
1951	 0.35717122285203 
1952	 0.357485496894267 
1953	 0.35778759333007 
1954	 0.358085068215762 
1955	 0.358361720488388 
1956	 0.358627943456427 
1957	 0.358920431136569 
1958	 0.359211874339353 
1959	 0.359522266470617 
1960	 0.359861409880883 
1961	 0.360196572179108 
1962	 0.360548927954733 
1963	 0.360880513055887 
1964	 0.361207752641471 
1965	 0.361535720200461 
1966	 0.361843065894885 
1967	 0.362156596824821 
1968	 0.362484539760469 
1969	 0.362814095984799 
1970	 0.363161982233346 
1971	 0.363546658172822 
1972	 0.363894171538421 
1973	 0.364225883518292 
1974	 0.364581446727795 
1975	 0.364932130154273 
1976	 0.365273941779164 
1977	 0.365675145857007 
1978	 0.366067664765942 
1979	 0.366419917125165 
1980	 0.366784318862748 
1981	 0.367132863885404 
1982	 0.367450420081714 
1983	 0.367786898856229 
1984	 0.368116886796806 
1985	 0.368470602997551 
1986	 0.368840129049153 
1987	 0.36920743016318 
1988	 0.369592164657502 
1989	 0.369973294278013 
1990	 0.370350655073116 
1991	 0.370739327807497 
1992	 0.371127175770988 
1993	 0.37153465508033 
1994	 0.371920008652025 
1995	 0.372309098044179 
1996	 0.372660596487532 
1997	 0.372979508011916 
1998	 0.373313018656209 
1999	 0.373603336890395 
2000	 0.373939612462284 
2001	 0.374317356739176 
2002	 0.374678322050586 
2003	 0.375043778141193 
2004	 0.375420444102615 
2005	 0.375790645903862 
2006	 0.376152039593217 
2007	 0.376523796436903 
2008	 0.376897182668839 
2009	 0.377280161011702 
2010	 0.377680651941038 
2011	 0.378062185698163 
2012	 0.378445121597822 
2013	 0.378824298636897 
2014	 0.37919609385085 
2015	 0.37955191299986 
2016	 0.379914542180051 
2017	 0.380282017552499 
2018	 0.380649101709486 
2019	 0.3810141437106 
2020	 0.381378843813373 
2021	 0.381763894527663 
2022	 0.382113555046657 
2023	 0.382451706120461 
2024	 0.382772780032748 
2025	 0.383042690064213 
2026	 0.383345712928723 
2027	 0.383663811132772 
2028	 0.383965697961135 
2029	 0.384272197468116 
2030	 0.384600611459753 
2031	 0.384902776477128 
2032	 0.385174776940345 
2033	 0.385477820258023 
2034	 0.385788726241724 
2035	 0.386100214491524 
2036	 0.386433622740446 
2037	 0.386747404517372 
2038	 0.387066420453964 
2039	 0.387358404548168 
2040	 0.387632809312261 
2041	 0.387894680334497 
2042	 0.38814104417559 
2043	 0.388390301419214 
2044	 0.388624854379188 
2045	 0.388850916147119 
2046	 0.389075137309122 
2047	 0.389288762492636 
2048	 0.38949693626368 
2049	 0.389705913456616 
2050	 0.389907943837522 
2051	 0.390079489788511 
2052	 0.39028008014173 
2053	 0.390502035644012 
2054	 0.390712767966277 
2055	 0.390933713066929 
2056	 0.39115516460311 
2057	 0.391355221691982 
2058	 0.391537242602686 
2059	 0.391717382063948 
2060	 0.391884164618518 
2061	 0.392056246176914 
2062	 0.392224637822837 
2063	 0.392391208407976 
2064	 0.392560617250975 
2065	 0.392722494046035 
2066	 0.392866525801151 
2067	 0.393027555510081 
2068	 0.393199720403095 
2069	 0.393364505197025 
2070	 0.393526193671453 
2071	 0.393694451965405 
2072	 0.393856517144072 
2073	 0.394009680578769 
2074	 0.394162802250977 
2075	 0.394317720080764 
2076	 0.394471082686649 
2077	 0.394617157176769 
2078	 0.394765602090257 
2079	 0.394909970454371 
2080	 0.39506743108797 
2081	 0.395247692576108 
2082	 0.395397639773487 
2083	 0.395545284779236 
2084	 0.395680519411083 
2085	 0.395814876325658 
2086	 0.395923573169628 
2087	 0.396047255012963 
2088	 0.396179769430769 
2089	 0.396312442979089 
2090	 0.39644903350151 
2091	 0.396567188424001 
2092	 0.396686066716246 
2093	 0.396796459296813 
2094	 0.396885071473064 
2095	 0.396977012991433 
2096	 0.397070866775024 
2097	 0.397162326277649 
2098	 0.397242650560555 
2099	 0.397333109086861 
2100	 0.397408274460271 
2101	 0.397477711284121 
2102	 0.397550232553113 
2103	 0.397592564541805 
2104	 0.397691851056242 
2105	 0.397815214385279 
2106	 0.397953404761844 
2107	 0.39813129761451 
2108	 0.398301391322111 
2109	 0.39848718799419 
2110	 0.398664374800515 
2111	 0.398862232951843 
2112	 0.399030713174959 
2113	 0.399176122254765 
2114	 0.399320526779014 
2115	 0.399465260982756 
2116	 0.399578214833279 
2117	 0.399748498214958 
2118	 0.399948397772552 
2119	 0.400138832911557 
2120	 0.400357022161579 
2121	 0.400561904959455 
2122	 0.400757774666343 
2123	 0.400959781230911 
2124	 0.401192532556123 
2125	 0.401377714069771 
2126	 0.401558094667649 
2127	 0.401699342477651 
2128	 0.40178460329701 
2129	 0.401875047045445 
2130	 0.401942493631315 
2131	 0.402009410799273 
2132	 0.402058912671089 
2133	 0.40210842083441 
2134	 0.402126258149733 
2135	 0.402118519008257 
2136	 0.402101641704498 
2137	 0.402070117202115 
2138	 0.402018895229642 
2139	 0.401963966311781 
2140	 0.401866168981632 
2141	 0.401727149328302 
2142	 0.401585834969136 
2143	 0.401394974374607 
2144	 0.401232314058048 
2145	 0.401087640511427 
2146	 0.400924370610651 
2147	 0.400771764883241 
2148	 0.400599575262853 
2149	 0.400403929947923 
2150	 0.400196391963739 
2151	 0.399947481621529 
2152	 0.399662390774505 
2153	 0.399374248697185 
2154	 0.399046065545155 
2155	 0.398731154850886 
2156	 0.398416822707322 
2157	 0.398094961223335 
2158	 0.397778357786837 
2159	 0.397432783204852 
2160	 0.397074145226411 
2161	 0.396701680500566 
2162	 0.396303832092956 
2163	 0.395896596327374 
2164	 0.395462926210179 
2165	 0.395041010830812 
2166	 0.394631433142722 
2167	 0.39421914780734 
2168	 0.393812721413372 
2169	 0.393429821603156 
2170	 0.393027437668244 
2171	 0.392621052705007 
2172	 0.392196242359027 
2173	 0.391764154753272 
2174	 0.391321998932522 
2175	 0.390849003826949 
2176	 0.390392358862385 
2177	 0.389936733914745 
2178	 0.389486974508653 
2179	 0.389039791948353 
2180	 0.388597384909579 
2181	 0.388161083781757 
2182	 0.387726637119727 
2183	 0.387309455440938 
2184	 0.386862272294111 
2185	 0.386435700202983 
2186	 0.386003552093868 
2187	 0.385597931168176 
2188	 0.385216772234491 
2189	 0.38481659752922 
2190	 0.384429172810936 
2191	 0.384027322511165 
2192	 0.383598613497765 
2193	 0.383193027740828 
2194	 0.382788106527773 
2195	 0.382400790096259 
2196	 0.382026974555793 
2197	 0.381659762568935 
2198	 0.381280421305615 
2199	 0.380954961272436 
2200	 0.380687753396029 
2201	 0.380393190136409 
2202	 0.380110902415926 
2203	 0.379841918560948 
2204	 0.379592492801552 
2205	 0.379338481252314 
2206	 0.379075187984109 
2207	 0.378828317639524 
2208	 0.378606684272335 
2209	 0.378359780820498 
2210	 0.378159661770567 
2211	 0.378030069545921 
2212	 0.377871620063777 
2213	 0.377687278007836 
2214	 0.377549498631278 
2215	 0.377455423837954 
2216	 0.377346410433253 
2217	 0.377283618433526 
2218	 0.377163241940617 
2219	 0.377014783154906 
2220	 0.376847809888183 
2221	 0.376623334948386 
2222	 0.376427897826049 
2223	 0.376257868726664 
2224	 0.376042701008032 
2225	 0.375798281974193 
2226	 0.375544712008611 
2227	 0.375262003649827 
2228	 0.374921954084679 
2229	 0.374606327786187 
2230	 0.374301347822573 
2231	 0.373962302621444 
2232	 0.373615379939545 
2233	 0.373230287871664 
2234	 0.372789792626719 
2235	 0.372383948236459 
2236	 0.37197758264665 
2237	 0.371550488437341 
2238	 0.371137998826671 
2239	 0.370703683551451 
2240	 0.370239587559435 
2241	 0.369760031556883 
2242	 0.369274369382544 
2243	 0.368771773848857 
2244	 0.368242366239907 
2245	 0.367703925332856 
2246	 0.367155255483309 
2247	 0.366579801871103 
2248	 0.365997663313962 
2249	 0.36538552099131 
2250	 0.36479292178122 
2251	 0.364187277320826 
2252	 0.363621807226208 
2253	 0.363061667753299 
2254	 0.362532496930297 
2255	 0.362020103260838 
2256	 0.361557568030548 
2257	 0.361103899592058 
2258	 0.3607369820083 
2259	 0.360434339016531 
2260	 0.360178155025099 
2261	 0.35998591396597 
2262	 0.359841094484173 
2263	 0.359740752417966 
2264	 0.359704172017418 
2265	 0.359743464782124 
2266	 0.35981190956196 
2267	 0.359933032687782 
2268	 0.360096061380467 
2269	 0.360313020479753 
2270	 0.360553684283517 
2271	 0.360815795069027 
2272	 0.361105600666081 
2273	 0.361422660106442 
2274	 0.361782412534983 
2275	 0.362166185096476 
2276	 0.362615784002739 
2277	 0.363043524261931 
2278	 0.363480734760475 
2279	 0.363907714470449 
2280	 0.36432386688932 
2281	 0.364780064334012 
2282	 0.365275433700067 
2283	 0.365729815205859 
2284	 0.366217005886121 
2285	 0.366644668656882 
2286	 0.366986060704487 
2287	 0.367381580188378 
2288	 0.36777474256859 
2289	 0.368178569228757 
2290	 0.368618199541104 
2291	 0.369038287915456 
2292	 0.369474225920378 
2293	 0.369876710535254 
2294	 0.3702649665804 
2295	 0.370619497800002 
2296	 0.370935755221364 
2297	 0.371222630820991 
2298	 0.371545351924594 
2299	 0.371868338379673 
2300	 0.372184980098318 
2301	 0.372570319912571 
2302	 0.3728986721026 
2303	 0.373216753135858 
2304	 0.373548354838021 
2305	 0.373810645652235 
2306	 0.374073305928577 
2307	 0.374297181648161 
2308	 0.374560269593077 
2309	 0.374847639181383 
2310	 0.375076532441098 
2311	 0.375311961906801 
2312	 0.375490469841364 
2313	 0.375594396044018 
2314	 0.375707358466145 
2315	 0.375801638421414 
2316	 0.375900188493401 
2317	 0.375964269129472 
2318	 0.376058023565742 
2319	 0.376172491744838 
2320	 0.376262849552407 
2321	 0.376381330001018 
2322	 0.376451768635319 
2323	 0.376452683473439 
2324	 0.376518142049569 
2325	 0.376587943009875 
2326	 0.376658219658889 
2327	 0.376776615741082 
2328	 0.376864653395236 
2329	 0.376920080179432 
2330	 0.376961280695529 
2331	 0.37701435892813 
2332	 0.377067660624859 
2333	 0.377099409811287 
2334	 0.377106750912308 
2335	 0.377102425646728 
2336	 0.377103036449423 
2337	 0.377084125000061 
2338	 0.377039721439483 
2339	 0.376918266901099 
2340	 0.376781402203656 
2341	 0.376658966287542 
2342	 0.37648851606588 
2343	 0.376330898425034 
2344	 0.376151750982993 
2345	 0.375959568388474 
2346	 0.375732242179874 
2347	 0.375525710907397 
2348	 0.375356163788205 
2349	 0.37510437370024 
2350	 0.374811392039893 
2351	 0.374517579362988 
2352	 0.374139675659073 
2353	 0.373817867264858 
2354	 0.373516642287428 
2355	 0.373243970836503 
2356	 0.373042534360531 
2357	 0.372743279134473 
2358	 0.372406363391084 
2359	 0.372084873661099 
2360	 0.371701238497096 
2361	 0.371349742012298 
2362	 0.371096766313522 
2363	 0.370708009419316 
2364	 0.370205987232485 
2365	 0.369750780119418 
2366	 0.369248025364034 
2367	 0.36877288877629 
2368	 0.368296229690433 
2369	 0.367881968407523 
2370	 0.367535506636259 
2371	 0.367113608921065 
2372	 0.36667507384587 
2373	 0.366255971381653 
2374	 0.365748925350298 
2375	 0.36520103587898 
2376	 0.3646743625312 
2377	 0.364152889697102 
2378	 0.363637339614139 
2379	 0.363051149982485 
2380	 0.362454936005061 
2381	 0.361901504277832 
2382	 0.361278055586486 
2383	 0.360758211523189 
2384	 0.360299647734015 
2385	 0.359788075579344 
2386	 0.35930893079666 
2387	 0.358752039504324 
2388	 0.358200927313641 
2389	 0.357647974122205 
2390	 0.357031343841103 
2391	 0.356463627230965 
2392	 0.355890825147755 
2393	 0.355313896364416 
2394	 0.354797668018731 
2395	 0.35427576148312 
2396	 0.353725739316436 
2397	 0.353177433650723 
2398	 0.352617297601134 
2399	 0.351982024991985 
2400	 0.35131502172549 
2401	 0.350705736177993 
2402	 0.350144874137121 
2403	 0.349637549093239 
2404	 0.349108814563747 
2405	 0.348596319426271 
2406	 0.348048300215345 
2407	 0.347418475448831 
2408	 0.346946171599391 
2409	 0.346503043517027 
2410	 0.345972051217623 
2411	 0.345531001187015 
2412	 0.345115262837635 
2413	 0.344631816844284 
2414	 0.344201890193564 
2415	 0.343736392613011 
2416	 0.343217481196492 
2417	 0.342576205651349 
2418	 0.342101368385871 
2419	 0.341693105070089 
2420	 0.341212564823354 
2421	 0.340777705948826 
2422	 0.340311177635181 
2423	 0.339759149767743 
2424	 0.33930134626446 
2425	 0.338920388239934 
2426	 0.338452315983141 
2427	 0.337959557898807 
2428	 0.337468805147624 
2429	 0.33693535399341 
2430	 0.336513585078403 
2431	 0.336131360012891 
2432	 0.335776278636689 
2433	 0.3355607037183 
2434	 0.335128765500196 
2435	 0.33458750595642 
2436	 0.33410673009859 
2437	 0.333566901813515 
2438	 0.333014623565072 
2439	 0.332467399253452 
2440	 0.331942644596624 
2441	 0.331321902265731 
2442	 0.330827014656415 
2443	 0.33054249484388 
2444	 0.33009435012458 
2445	 0.329559381434456 
2446	 0.329109544010141 
2447	 0.32860955341701 
2448	 0.328073596498404 
2449	 0.327646069612911 
2450	 0.327080456825226 
2451	 0.326369333234217 
2452	 0.325831793231338 
2453	 0.325280806705873 
2454	 0.3247887250193 
2455	 0.324438183926943 
2456	 0.323932708294921 
2457	 0.323398061094708 
2458	 0.322898015184226 
2459	 0.322270570335882 
2460	 0.321799664646572 
2461	 0.321482962675294 
2462	 0.321062575897242 
2463	 0.320660563849795 
2464	 0.320251635391093 
2465	 0.319792576471212 
2466	 0.319370542125757 
2467	 0.318993960830062 
2468	 0.318595265018294 
2469	 0.318113852147332 
2470	 0.317954596229617 
2471	 0.317650017215217 
2472	 0.317285306680614 
2473	 0.317014965586626 
2474	 0.316565849326816 
2475	 0.316184552093122 
2476	 0.315814872674456 
2477	 0.315284653399039 
2478	 0.314746211997419 
2479	 0.314266771627995 
2480	 0.313918585234054 
2481	 0.313587850614018 
2482	 0.313302981421482 
2483	 0.312996719697317 
2484	 0.312492793451843 
2485	 0.31181385959311 
2486	 0.310864530736293 
2487	 0.309837686749652 
2488	 0.309000980612919 
2489	 0.308373322460816 
2490	 0.308096199506296 
2491	 0.307980869217357 
2492	 0.307603884493644 
2493	 0.307214211771539 
2494	 0.306795991610815 
2495	 0.306257373027103 
2496	 0.305916036424154 
2497	 0.305345845730286 
2498	 0.304686064514394 
2499	 0.304356745560277 
2500	 0.304023806173484 
