Wavelength	LMW800008.asd
350	 5.89819427819883E-02 
351	 6.57731159268344E-02 
352	 6.71876927007971E-02 
353	 6.06823500808276E-02 
354	 6.03744533072189E-02 
355	 5.96873619233313E-02 
356	 5.76357533493958E-02 
357	 5.59403291611118E-02 
358	 0.06150257178595 
359	 6.07821931271401E-02 
360	 5.64463425673786E-02 
361	 6.01244936465115E-02 
362	 5.69112627376416E-02 
363	 5.45225231148909E-02 
364	 5.67556493489278E-02 
365	 5.72459494817943E-02 
366	 5.78126796567003E-02 
367	 5.82291467780524E-02 
368	 5.85762272002269E-02 
369	 6.28608530395251E-02 
370	 6.00262761465981E-02 
371	 5.41345386166628E-02 
372	 5.82037724646196E-02 
373	 5.98802252829246E-02 
374	 6.00541967282914E-02 
375	 6.06015168283664E-02 
376	 6.22709698042178E-02 
377	 5.94383686396005E-02 
378	 5.74945427807589E-02 
379	 6.14269065497976E-02 
380	 5.95392235692424E-02 
381	 5.89624748879883E-02 
382	 6.15495245229056E-02 
383	 6.43522544281198E-02 
384	 6.25883584466469E-02 
385	 6.08516111301166E-02 
386	 6.20187997096524E-02 
387	 6.32189492972752E-02 
388	 6.36908473360054E-02 
389	 6.31174169427549E-02 
390	 6.19375402853904E-02 
391	 6.25308235613865E-02 
392	 6.36280797271862E-02 
393	 6.40911926129187E-02 
394	 6.32982287429208E-02 
395	 6.44594052599802E-02 
396	 6.54131754224754E-02 
397	 6.48709322448716E-02 
398	 6.54455428646233E-02 
399	 6.49399941049462E-02 
400	 6.48951481595547E-02 
401	 6.70595707889912E-02 
402	 6.64603928845237E-02 
403	 0.066360881395107 
404	 6.73084243590772E-02 
405	 6.67330194120141E-02 
406	 6.74490046637475E-02 
407	 6.81677768259567E-02 
408	 6.76536984292528E-02 
409	 6.66688107456933E-02 
410	 6.65533089324501E-02 
411	 6.73946361758561E-02 
412	 6.85015618136557E-02 
413	 6.87959501614955E-02 
414	 0.068326717798663 
415	 6.76500589399283E-02 
416	 6.77768121959619E-02 
417	 6.77363320201386E-02 
418	 6.76069233853005E-02 
419	 6.77091633561961E-02 
420	 6.83928724049371E-02 
421	 6.83896141845087E-02 
422	 6.80497666399646E-02 
423	 6.85857217771513E-02 
424	 6.82891155427935E-02 
425	 6.80398520761262E-02 
426	 6.83035798254661E-02 
427	 0.068235030387946 
428	 6.79420240247306E-02 
429	 6.76377768567327E-02 
430	 6.75085072050289E-02 
431	 6.72906280501191E-02 
432	 6.72825398277758E-02 
433	 6.74901023776123E-02 
434	 6.76239716117567E-02 
435	 6.76234970499129E-02 
436	 6.75115727983564E-02 
437	 6.73369974024001E-02 
438	 6.71068605676819E-02 
439	 6.70976847070558E-02 
440	 6.74055697891257E-02 
441	 6.79146527996147E-02 
442	 6.76838846837199E-02 
443	 6.75141505734431E-02 
444	 6.77490153259306E-02 
445	 6.77943583175731E-02 
446	 6.78479430222068E-02 
447	 6.78616267152753E-02 
448	 6.78046542152949E-02 
449	 6.79538510474506E-02 
450	 6.82390349644764E-02 
451	 6.85705388781194E-02 
452	 6.88373936704499E-02 
453	 6.86018696102172E-02 
454	 6.84753901001729E-02 
455	 6.88191479074565E-02 
456	 6.89706051656895E-02 
457	 6.89090477052287E-02 
458	 6.87651561178434E-02 
459	 6.87670354442346E-02 
460	 6.91506978540252E-02 
461	 6.92249180963758E-02 
462	 6.89032392521187E-02 
463	 6.90420906245115E-02 
464	 6.92095141115442E-02 
465	 6.93370335713218E-02 
466	 6.94624334555268E-02 
467	 6.97128280021955E-02 
468	 0.069677133281944 
469	 6.94904400322036E-02 
470	 6.96845839142613E-02 
471	 6.96114735575451E-02 
472	 0.069474767686626 
473	 6.94755187362535E-02 
474	 0.069463289867679 
475	 6.95148151619716E-02 
476	 6.95981279379167E-02 
477	 6.96327852797115E-02 
478	 6.95362651978887E-02 
479	 6.95555940240964E-02 
480	 6.97477212601475E-02 
481	 6.98789978541106E-02 
482	 6.98441230610272E-02 
483	 6.98239106822474E-02 
484	 6.99621802388073E-02 
485	 6.98774859221515E-02 
486	 6.98832951207173E-02 
487	 6.99036661668197E-02 
488	 6.95796589608135E-02 
489	 6.96705488054431E-02 
490	 6.98976324199158E-02 
491	 6.99407341478938E-02 
492	 0.069814780605438 
493	 6.98491770597955E-02 
494	 6.99619094188381E-02 
495	 6.99120571371968E-02 
496	 6.99333979294646E-02 
497	 6.99076057831144E-02 
498	 6.98276146602054E-02 
499	 0.069904623998472 
500	 6.98349508703735E-02 
501	 6.97548028053139E-02 
502	 6.98452103991554E-02 
503	 0.06988685360847 
504	 6.99091938275989E-02 
505	 6.99206308469926E-02 
506	 0.069901792888853 
507	 6.97869604214502E-02 
508	 6.97092833881937E-02 
509	 6.97513264395523E-02 
510	 6.97772794749934E-02 
511	 6.96966923763827E-02 
512	 6.96008522236243E-02 
513	 6.96514637036387E-02 
514	 0.069647662438258 
515	 6.96845311997919E-02 
516	 6.97881418837839E-02 
517	 6.98129908467929E-02 
518	 6.98241515174405E-02 
519	 6.98178384831303E-02 
520	 6.97919606004911E-02 
521	 6.98635664658208E-02 
522	 6.98784045964191E-02 
523	 6.98241522347553E-02 
524	 6.98478251605359E-02 
525	 6.97854260105389E-02 
526	 6.97161417279094E-02 
527	 6.97296444033919E-02 
528	 6.97761825277578E-02 
529	 6.98487299580957E-02 
530	 6.99023455444183E-02 
531	 6.98778868038126E-02 
532	 6.98332632275665E-02 
533	 6.98674741913968E-02 
534	 6.99909650776077E-02 
535	 7.00296614127299E-02 
536	 7.00263779836572E-02 
537	 7.00203907610329E-02 
538	 7.00451810921967E-02 
539	 7.00586825251302E-02 
540	 7.00931168219838E-02 
541	 7.01653752747548E-02 
542	 7.02677786199551E-02 
543	 7.02958171540327E-02 
544	 7.02771880082566E-02 
545	 7.02735917631818E-02 
546	 7.03092328230522E-02 
547	 7.03682288252234E-02 
548	 7.04227969955314E-02 
549	 7.04407730959877E-02 
550	 7.04782194942406E-02 
551	 7.05170837000628E-02 
552	 7.05537665962197E-02 
553	 7.06724174977132E-02 
554	 7.07155779894204E-02 
555	 7.07035662742451E-02 
556	 7.07516359490781E-02 
557	 7.08988539477169E-02 
558	 7.10176989556277E-02 
559	 7.10680610648383E-02 
560	 7.11990997706837E-02 
561	 7.12786048551122E-02 
562	 7.13603494309239E-02 
563	 7.15255808879972E-02 
564	 7.16410532866947E-02 
565	 7.17600097456831E-02 
566	 7.19019098987567E-02 
567	 7.20375607703878E-02 
568	 0.072249580224708 
569	 7.24594717648392E-02 
570	 7.26043907414427E-02 
571	 7.28038727587279E-02 
572	 7.30441208185806E-02 
573	 7.33090187654678E-02 
574	 7.35736359099594E-02 
575	 7.37258765626569E-02 
576	 7.39394702902649E-02 
577	 7.42829660733232E-02 
578	 0.074488631145997 
579	 7.47567344737542E-02 
580	 7.50878150261904E-02 
581	 7.54149186178929E-02 
582	 7.58214708085917E-02 
583	 7.62334388681364E-02 
584	 7.66168958911005E-02 
585	 0.077015154911574 
586	 7.74133663177358E-02 
587	 7.78156085462657E-02 
588	 7.82357772111386E-02 
589	 7.87081551008805E-02 
590	 7.92218721495785E-02 
591	 7.97169425151434E-02 
592	 8.01039901996996E-02 
593	 8.05770364355305E-02 
594	 0.08110168025309 
595	 8.16157361040738E-02 
596	 0.08211238213714 
597	 8.26448089414557E-02 
598	 8.31920704800951E-02 
599	 8.37005841377536E-02 
600	 8.42084106682997E-02 
601	 8.46963019387801E-02 
602	 8.51649583091343E-02 
603	 0.085663664111181 
604	 8.61707207024102E-02 
605	 8.66732458518693E-02 
606	 8.71662208784117E-02 
607	 8.76803439699277E-02 
608	 8.81624359843902E-02 
609	 8.86105839254577E-02 
610	 8.90861979456828E-02 
611	 8.95623986180295E-02 
612	 9.00152749404407E-02 
613	 9.04259698509612E-02 
614	 9.07960235235599E-02 
615	 9.11539791220152E-02 
616	 9.15105860403478E-02 
617	 9.18621746239668E-02 
618	 9.22226529474573E-02 
619	 9.25445171990199E-02 
620	 9.28084564172065E-02 
621	 9.30640472544115E-02 
622	 9.33586006926121E-02 
623	 9.36666207418835E-02 
624	 9.39393057770318E-02 
625	 9.42174566162686E-02 
626	 9.44817877979115E-02 
627	 9.47160886449411E-02 
628	 9.49133554663961E-02 
629	 0.095152026879826 
630	 9.53966768617646E-02 
631	 9.55991623303624E-02 
632	 9.57957792039662E-02 
633	 0.095986171534215 
634	 9.61909378833644E-02 
635	 0.096441058202841 
636	 9.66451856389022E-02 
637	 9.68133927425047E-02 
638	 9.69732265800881E-02 
639	 9.71438315993668E-02 
640	 9.73317024195614E-02 
641	 9.75350595557781E-02 
642	 0.097746829161083 
643	 9.79705618106497E-02 
644	 9.81669836455658E-02 
645	 9.83412754455707E-02 
646	 0.098568531793058 
647	 9.87580031499012E-02 
648	 9.89313752995551E-02 
649	 9.91303893185947E-02 
650	 9.93297310957437E-02 
651	 9.95514013368427E-02 
652	 9.97873134827825E-02 
653	 0.100005462341748 
654	 0.100247498500349 
655	 0.100474069995053 
656	 0.100664936361999 
657	 0.100876085563668 
658	 0.101139533921485 
659	 0.101417626449793 
660	 0.101648546757334 
661	 0.101888754203102 
662	 0.102165823560653 
663	 0.102473675844036 
664	 0.102763569508651 
665	 0.103015769402674 
666	 0.103290926161341 
667	 0.103629696943228 
668	 0.103876718367534 
669	 0.104180597468576 
670	 0.104540543593413 
671	 0.104830943517815 
672	 0.105130437083461 
673	 0.105459061803395 
674	 0.105815644272827 
675	 0.106178511053785 
676	 0.106509539288021 
677	 0.106834102250381 
678	 0.107200439734914 
679	 0.107588491631976 
680	 0.107973061370802 
681	 0.108353096455551 
682	 0.10876061745358 
683	 0.109158679534626 
684	 0.10955692020372 
685	 0.109975060418086 
686	 0.110423929477242 
687	 0.110874412190856 
688	 0.111330696171357 
689	 0.111814865998074 
690	 0.112257444643772 
691	 0.11266761571005 
692	 0.113083928916889 
693	 0.113583523907886 
694	 0.114067308796259 
695	 0.114554182040761 
696	 0.115085440930427 
697	 0.115567338763632 
698	 0.116074936466288 
699	 0.11662346957026 
700	 0.117155036741407 
701	 0.117656609000964 
702	 0.118166507763167 
703	 0.11870598167656 
704	 0.119215696357955 
705	 0.119708606635632 
706	 0.120221014461197 
707	 0.120785899172189 
708	 0.12129839445729 
709	 0.121834144765976 
710	 0.122408971076342 
711	 0.122925800200541 
712	 0.123461011166815 
713	 0.123998185506213 
714	 0.124505047607409 
715	 0.124977400710151 
716	 0.125514029711209 
717	 0.126087305109791 
718	 0.126582596487232 
719	 0.127049917891996 
720	 0.127516245724132 
721	 0.127988302606866 
722	 0.128438306207874 
723	 0.128896294954729 
724	 0.129347396317926 
725	 0.129769694438659 
726	 0.13018730037136 
727	 0.130586073772034 
728	 0.130952197377708 
729	 0.131276871368346 
730	 0.131627076551533 
731	 0.131962918514409 
732	 0.132258927160747 
733	 0.132578567378025 
734	 0.132851951667408 
735	 0.13308160461276 
736	 0.133301488563251 
737	 0.133536498253975 
738	 0.133729737925907 
739	 0.133877537270816 
740	 0.134038651222093 
741	 0.134165738999609 
742	 0.13425609372152 
743	 0.134313007488758 
744	 0.134323617232788 
745	 0.134345449056605 
746	 0.134369232734895 
747	 0.134354287940299 
748	 0.13429346590382 
749	 0.134248150387512 
750	 0.134209754475347 
751	 0.134081243680022 
752	 0.133966387910933 
753	 0.133860589373084 
754	 0.133733010214785 
755	 0.13355089915342 
756	 0.133374741468708 
757	 0.133189058583449 
758	 0.132950036801814 
759	 0.132718117658095 
760	 0.132479487966215 
761	 0.132223127184851 
762	 0.131950290864704 
763	 0.131685606681025 
764	 0.131414387118191 
765	 0.131121655141533 
766	 0.130820655120062 
767	 0.130501144371421 
768	 0.130171190095216 
769	 0.129847742420501 
770	 0.129544863777607 
771	 0.129216604800817 
772	 0.128843553613539 
773	 0.128445879724675 
774	 0.128101646998847 
775	 0.127773682007141 
776	 0.127417987073599 
777	 0.127048432830308 
778	 0.126703282048411 
779	 0.126345353555537 
780	 0.125925587794184 
781	 0.125557939030145 
782	 0.125212162742731 
783	 0.124853776824739 
784	 0.124461758536665 
785	 0.124121579898543 
786	 0.123799248245648 
787	 0.123447501297553 
788	 0.123036182637066 
789	 0.122680083079372 
790	 0.122361716312696 
791	 0.12202164029643 
792	 0.121686811155994 
793	 0.121337686995843 
794	 0.120985110918098 
795	 0.120662615058809 
796	 0.120307051706047 
797	 0.11996686264483 
798	 0.119658818446389 
799	 0.11930801555231 
800	 0.119002284084069 
801	 0.118707534400395 
802	 0.118375144073552 
803	 0.118045071267079 
804	 0.117783176880454 
805	 0.117544028631207 
806	 0.117229842636506 
807	 0.116946043502865 
808	 0.116646207930719 
809	 0.116339610841511 
810	 0.116121981118163 
811	 0.115856615471721 
812	 0.115599111103508 
813	 0.115397327200154 
814	 0.115161143770288 
815	 0.114894774068269 
816	 0.114628397349087 
817	 0.114399159931189 
818	 0.114204339057583 
819	 0.113994227435297 
820	 0.113767428887706 
821	 0.11356513142871 
822	 0.113387695395271 
823	 0.113191649072905 
824	 0.112972542851804 
825	 0.112800198781185 
826	 0.112621245014733 
827	 0.112471685662629 
828	 0.112367240512043 
829	 0.112185059961708 
830	 0.111989708230161 
831	 0.111811647016864 
832	 0.111661591471158 
833	 0.111540600160959 
834	 0.111433155030653 
835	 0.11132548432002 
836	 0.111207534967665 
837	 0.111067613181584 
838	 0.110938185249615 
839	 0.110828594031086 
840	 0.110696262671316 
841	 0.110605327074952 
842	 0.110517864196959 
843	 0.110404298914418 
844	 0.110353040988958 
845	 0.110322558820399 
846	 0.110267158382824 
847	 0.110165588645018 
848	 0.110139105699407 
849	 0.110096412469301 
850	 0.110016766327136 
851	 0.109951977201923 
852	 0.109924337840105 
853	 0.109903786405958 
854	 0.10987055236854 
855	 0.10983305241796 
856	 0.109825535076547 
857	 0.109818235859012 
858	 0.109793856738717 
859	 0.109811734627673 
860	 0.109795411881921 
861	 0.109775762715754 
862	 0.10979866632037 
863	 0.109795258589435 
864	 0.109795416296369 
865	 0.109831334341572 
866	 0.109914938260459 
867	 0.109929171777312 
868	 0.109944689871294 
869	 0.109995381748828 
870	 0.110056538456186 
871	 0.110091046779406 
872	 0.11014632450672 
873	 0.110246971980601 
874	 0.110357997959534 
875	 0.110420431389801 
876	 0.110474444412456 
877	 0.110561825062212 
878	 0.110652848047626 
879	 0.110786530220358 
880	 0.11090865748628 
881	 0.110975775178698 
882	 0.111128260585199 
883	 0.111267265054136 
884	 0.111371341994946 
885	 0.111468633870106 
886	 0.111566734195975 
887	 0.111740177494982 
888	 0.111939734835163 
889	 0.112031167347587 
890	 0.112145807757012 
891	 0.11231301440175 
892	 0.1125230560736 
893	 0.112732666514731 
894	 0.112863867462916 
895	 0.113018845239689 
896	 0.113245004932858 
897	 0.113426456734987 
898	 0.113626651665265 
899	 0.113848301588557 
900	 0.114068627207038 
901	 0.114234049147275 
902	 0.11443998713846 
903	 0.114683271103797 
904	 0.114929980161179 
905	 0.115174555674529 
906	 0.115452591354761 
907	 0.115769069111454 
908	 0.116089876690992 
909	 0.116279975745552 
910	 0.116492255961208 
911	 0.116778253818404 
912	 0.117100735541023 
913	 0.117417610346897 
914	 0.117702816272521 
915	 0.117986700046156 
916	 0.11833370232094 
917	 0.118654664323306 
918	 0.118980885278569 
919	 0.119340247060223 
920	 0.119729596613047 
921	 0.12006271655397 
922	 0.120375137802522 
923	 0.120711050537807 
924	 0.121089554159929 
925	 0.121449896699539 
926	 0.121842290292206 
927	 0.122286628024829 
928	 0.122704730515608 
929	 0.123128836746081 
930	 0.123525217565685 
931	 0.12390119025593 
932	 0.124392617787674 
933	 0.124872848804202 
934	 0.125329341810731 
935	 0.125770245368172 
936	 0.126150718415737 
937	 0.126593256863881 
938	 0.127061106884301 
939	 0.127507669190689 
940	 0.128060286055523 
941	 0.128593050984366 
942	 0.129126199960087 
943	 0.12970184220521 
944	 0.130195414198558 
945	 0.130714170938849 
946	 0.131304693214872 
947	 0.131934676577926 
948	 0.132397992934239 
949	 0.132895504584554 
950	 0.13347188747033 
951	 0.134092120071276 
952	 0.134837204297089 
953	 0.135389827833893 
954	 0.135846584425457 
955	 0.136492154850757 
956	 0.137193627364974 
957	 0.137821544146855 
958	 0.138425303699298 
959	 0.139139909936334 
960	 0.139897541444665 
961	 0.140592964211791 
962	 0.141222177874207 
963	 0.141853374269364 
964	 0.142521885587584 
965	 0.143231674671394 
966	 0.143967378751046 
967	 0.144710944754631 
968	 0.145502554697317 
969	 0.146162676219713 
970	 0.146770154497568 
971	 0.147549983924781 
972	 0.14843756098929 
973	 0.149266803982671 
974	 0.150052861760198 
975	 0.150905378135175 
976	 0.151653503978579 
977	 0.152479493371148 
978	 0.15330771550217 
979	 0.15395591720269 
980	 0.154716831670491 
981	 0.155551868622212 
982	 0.156375661390155 
983	 0.157135185759311 
984	 0.158022107915864 
985	 0.158943504066661 
986	 0.159764112214468 
987	 0.160435368486321 
988	 0.161351988636118 
989	 0.162332941233339 
990	 0.163223801143476 
991	 0.16400007461648 
992	 0.165057423049144 
993	 0.165898579598913 
994	 0.166648816569334 
995	 0.167591611149247 
996	 0.168323005232093 
997	 0.169287966957831 
998	 0.170257055276883 
999	 0.17095691113028 
1000	 0.171963217760755 
1001	 0.174145847218817 
1002	 0.17501043026379 
1003	 0.175828265899132 
1004	 0.176707181608673 
1005	 0.177677240766664 
1006	 0.178562483657195 
1007	 0.179411625179704 
1008	 0.180319356371103 
1009	 0.181156495052298 
1010	 0.181933136104986 
1011	 0.182804629436454 
1012	 0.183706361401874 
1013	 0.184581186838918 
1014	 0.185402902817154 
1015	 0.186236725201363 
1016	 0.187076634734106 
1017	 0.187893013727118 
1018	 0.1886942024054 
1019	 0.189570799637572 
1020	 0.190380821893119 
1021	 0.191107053500727 
1022	 0.191883258733287 
1023	 0.192623046102813 
1024	 0.193389700643267 
1025	 0.194157106086237 
1026	 0.194886403457852 
1027	 0.195685754416004 
1028	 0.196467946385209 
1029	 0.197218945433771 
1030	 0.197964376221 
1031	 0.198722898309404 
1032	 0.199461385171922 
1033	 0.200207812348664 
1034	 0.200978706180619 
1035	 0.201758128388251 
1036	 0.202480577027135 
1037	 0.203175922558558 
1038	 0.203865518071337 
1039	 0.204538579142829 
1040	 0.205241855548054 
1041	 0.205966821789656 
1042	 0.206699532987527 
1043	 0.207459974776323 
1044	 0.208180431257121 
1045	 0.208898480816085 
1046	 0.209576660742216 
1047	 0.210261608199702 
1048	 0.210947867164995 
1049	 0.211675106612116 
1050	 0.212420140314289 
1051	 0.213154480732551 
1052	 0.213886327868158 
1053	 0.214638519499865 
1054	 0.215371027226574 
1055	 0.216060597406222 
1056	 0.216793371746508 
1057	 0.21749932657722 
1058	 0.218154281050238 
1059	 0.218853584418748 
1060	 0.219572594967962 
1061	 0.220288190557744 
1062	 0.22100438289191 
1063	 0.221764284465911 
1064	 0.222556486612586 
1065	 0.223283670509662 
1066	 0.223995242599506 
1067	 0.224717407605236 
1068	 0.225381931982823 
1069	 0.226064370929937 
1070	 0.226768226721568 
1071	 0.227482770378846 
1072	 0.228197489909178 
1073	 0.228936194451006 
1074	 0.229654473336375 
1075	 0.230353114972463 
1076	 0.231065209221605 
1077	 0.231803809430438 
1078	 0.232517871482878 
1079	 0.23321491109788 
1080	 0.233926573841081 
1081	 0.23460514588435 
1082	 0.235286310950057 
1083	 0.235992660614635 
1084	 0.236720881688352 
1085	 0.237441049941785 
1086	 0.238171638536137 
1087	 0.23888354143503 
1088	 0.23959045396251 
1089	 0.240292523274585 
1090	 0.240961595638266 
1091	 0.24163745951154 
1092	 0.242314497385024 
1093	 0.243005688219357 
1094	 0.243727337233217 
1095	 0.244466645669181 
1096	 0.245189018840989 
1097	 0.245890715353194 
1098	 0.246603061499483 
1099	 0.247313223325639 
1100	 0.248012480260652 
1101	 0.248703685248957 
1102	 0.249412227276305 
1103	 0.2501216445548 
1104	 0.250819910849553 
1105	 0.251547119719262 
1106	 0.252311292460788 
1107	 0.253047970247284 
1108	 0.253788899155849 
1109	 0.254519129907643 
1110	 0.25523068690991 
1111	 0.255969994785198 
1112	 0.256705963995524 
1113	 0.25746393333881 
1114	 0.258272491229679 
1115	 0.259035941625253 
1116	 0.259786885671358 
1117	 0.260542870936125 
1118	 0.261291879121493 
1119	 0.262005541758944 
1120	 0.262779282320876 
1121	 0.263556263145053 
1122	 0.264321929049549 
1123	 0.26510791830277 
1124	 0.265877561457785 
1125	 0.266632243390258 
1126	 0.267405512999742 
1127	 0.268172473149612 
1128	 0.268959744408644 
1129	 0.269783741220096 
1130	 0.270564017335333 
1131	 0.271341251040981 
1132	 0.272108237000626 
1133	 0.27283122541345 
1134	 0.273578141787585 
1135	 0.274337578116684 
1136	 0.275092422985896 
1137	 0.275846148466115 
1138	 0.276605216336604 
1139	 0.277357499424884 
1140	 0.27810060335645 
1141	 0.278855968374216 
1142	 0.279619847172214 
1143	 0.280370569587648 
1144	 0.281135526128411 
1145	 0.281865045114683 
1146	 0.282544473469252 
1147	 0.283271331607767 
1148	 0.284001272666572 
1149	 0.284737486855419 
1150	 0.285505565092093 
1151	 0.286280173944914 
1152	 0.28701672313267 
1153	 0.287728274039009 
1154	 0.288432594121796 
1155	 0.289108939334727 
1156	 0.289806824190145 
1157	 0.29051159620476 
1158	 0.291197761789038 
1159	 0.291879135986158 
1160	 0.292568709942404 
1161	 0.293244311978087 
1162	 0.293926446725865 
1163	 0.294630570580866 
1164	 0.295316542963559 
1165	 0.295987183300132 
1166	 0.296668377046017 
1167	 0.297341816656167 
1168	 0.298015618338761 
1169	 0.298650167710332 
1170	 0.299260572741164 
1171	 0.299873196759833 
1172	 0.300451946583947 
1173	 0.301054627726825 
1174	 0.301669968590231 
1175	 0.302281435796379 
1176	 0.302907050842453 
1177	 0.303507050723859 
1178	 0.304092671339923 
1179	 0.304683051983974 
1180	 0.305251458552561 
1181	 0.305834367780907 
1182	 0.306427605265427 
1183	 0.307032772609092 
1184	 0.307621789514621 
1185	 0.30822020707833 
1186	 0.308785460455643 
1187	 0.309331845588078 
1188	 0.309876863857648 
1189	 0.310405755408488 
1190	 0.310926584611804 
1191	 0.311448750171742 
1192	 0.31195391405986 
1193	 0.312435137538147 
1194	 0.312922489091028 
1195	 0.31340523032107 
1196	 0.313884219943598 
1197	 0.314367977255534 
1198	 0.314836834914771 
1199	 0.315296922689516 
1200	 0.315751167013284 
1201	 0.316195002952197 
1202	 0.316619677428061 
1203	 0.317058380743742 
1204	 0.317504573162698 
1205	 0.317930984657961 
1206	 0.318354043855687 
1207	 0.31877097547195 
1208	 0.319173488871083 
1209	 0.319573486571838 
1210	 0.319982199964243 
1211	 0.32036941761174 
1212	 0.320737684035292 
1213	 0.321103017154843 
1214	 0.321459117149418 
1215	 0.321807331085692 
1216	 0.322148502255619 
1217	 0.322482044297968 
1218	 0.322815063145939 
1219	 0.323138970968796 
1220	 0.323466617641284 
1221	 0.323801485253946 
1222	 0.324120191046481 
1223	 0.324439440194475 
1224	 0.324738715394288 
1225	 0.325011694057856 
1226	 0.325299138283406 
1227	 0.325584370915518 
1228	 0.325863967773906 
1229	 0.326155054895937 
1230	 0.326430870639483 
1231	 0.326688525207372 
1232	 0.32694744181262 
1233	 0.327202764659911 
1234	 0.327455366968984 
1235	 0.327700478138832 
1236	 0.327936325226272 
1237	 0.328181518006986 
1238	 0.328432276573954 
1239	 0.328666602200148 
1240	 0.32889967190732 
1241	 0.329128821881968 
1242	 0.329350419106846 
1243	 0.329559097116975 
1244	 0.329761522547166 
1245	 0.32996339056392 
1246	 0.330153393987058 
1247	 0.330338572657459 
1248	 0.330523387540663 
1249	 0.33070670508631 
1250	 0.330886597041752 
1251	 0.331049357891019 
1252	 0.331217600790515 
1253	 0.33138970786881 
1254	 0.33155435762498 
1255	 0.331704351538214 
1256	 0.331872772383035 
1257	 0.332055529276398 
1258	 0.332220894201389 
1259	 0.332397306127397 
1260	 0.332548978252839 
1261	 0.332680310991056 
1262	 0.33280599281258 
1263	 0.332902408459852 
1264	 0.333022357382993 
1265	 0.33315372203052 
1266	 0.333274626488281 
1267	 0.333406898082146 
1268	 0.333534039416179 
1269	 0.333641300994597 
1270	 0.333721981299849 
1271	 0.333823065664823 
1272	 0.33391086878006 
1273	 0.334032628897204 
1274	 0.334174310899505 
1275	 0.334313234292678 
1276	 0.334474762322123 
1277	 0.334623606364011 
1278	 0.334762672111171 
1279	 0.334914127639487 
1280	 0.335067513406978 
1281	 0.3352276990269 
1282	 0.335404561781096 
1283	 0.33557122491723 
1284	 0.335736533695114 
1285	 0.335905760432551 
1286	 0.336064082787876 
1287	 0.3362009345839 
1288	 0.336353473382662 
1289	 0.336506224392153 
1290	 0.336658472734805 
1291	 0.336815484633415 
1292	 0.33696661904015 
1293	 0.337123788019377 
1294	 0.337255523479836 
1295	 0.337373389882974 
1296	 0.337493028800682 
1297	 0.337588027910527 
1298	 0.337697280775494 
1299	 0.337830551421946 
1300	 0.337936521040406 
1301	 0.338034025833102 
1302	 0.338118027012443 
1303	 0.338182013674222 
1304	 0.338236970742036 
1305	 0.338294466159032 
1306	 0.338356817927631 
1307	 0.33841881407251 
1308	 0.338437134932743 
1309	 0.338452352998873 
1310	 0.338442928563444 
1311	 0.33844695899882 
1312	 0.33844462562183 
1313	 0.338445912490432 
1314	 0.338440586384537 
1315	 0.338446296832152 
1316	 0.338445160134276 
1317	 0.338471144890998 
1318	 0.338537192916218 
1319	 0.338569897153518 
1320	 0.33860770923854 
1321	 0.338628404956955 
1322	 0.338616672216427 
1323	 0.338615335355568 
1324	 0.33863704152168 
1325	 0.338636559122153 
1326	 0.338634782533094 
1327	 0.338642471710711 
1328	 0.338622791770261 
1329	 0.338611649918008 
1330	 0.338612321910748 
1331	 0.338619649861077 
1332	 0.338625025442162 
1333	 0.338644020261583 
1334	 0.338651236226349 
1335	 0.338636304597335 
1336	 0.338652301369487 
1337	 0.338685694041542 
1338	 0.338711479706504 
1339	 0.338757365008905 
1340	 0.338789925457406 
1341	 0.338810255733528 
1342	 0.338834111130821 
1343	 0.338864275765625 
1344	 0.338877911196753 
1345	 0.338891839398769 
1346	 0.338896508562976 
1347	 0.338916327748527 
1348	 0.338947007285044 
1349	 0.338955967014995 
1350	 0.338942607904539 
1351	 0.338918646089011 
1352	 0.338847159725235 
1353	 0.338827936009189 
1354	 0.33882786262331 
1355	 0.338822352696868 
1356	 0.338840894208346 
1357	 0.338834074768089 
1358	 0.338796146990891 
1359	 0.338797614538449 
1360	 0.338809902599582 
1361	 0.338826428741663 
1362	 0.338867604628335 
1363	 0.33890163462962 
1364	 0.338930619572162 
1365	 0.33896606469527 
1366	 0.339009168666619 
1367	 0.339054089176106 
1368	 0.339102580276995 
1369	 0.339144585889858 
1370	 0.3391651827899 
1371	 0.339173150379479 
1372	 0.339165438228764 
1373	 0.339139036601355 
1374	 0.339108719340661 
1375	 0.339086267398511 
1376	 0.339019629230908 
1377	 0.338930630735809 
1378	 0.338821370338197 
1379	 0.338660236134465 
1380	 0.338535457600586 
1381	 0.338399893099665 
1382	 0.338287050116157 
1383	 0.338205667816816 
1384	 0.338106261280874 
1385	 0.338034929080723 
1386	 0.337911930228688 
1387	 0.337770434993491 
1388	 0.337603644911919 
1389	 0.337395413910051 
1390	 0.337179635218585 
1391	 0.336963706856866 
1392	 0.336705927753894 
1393	 0.336419260559853 
1394	 0.336129723139284 
1395	 0.33580022022128 
1396	 0.335447918499614 
1397	 0.33510543379241 
1398	 0.33475679628557 
1399	 0.334397988604281 
1400	 0.33403912981002 
1401	 0.333669806310595 
1402	 0.333280334753496 
1403	 0.332898161061523 
1404	 0.332504343671043 
1405	 0.332133969530444 
1406	 0.331779742646129 
1407	 0.33141687882642 
1408	 0.331060739865392 
1409	 0.330707212955204 
1410	 0.330340282303819 
1411	 0.329993810896256 
1412	 0.329651976407731 
1413	 0.329334152976117 
1414	 0.329053388971829 
1415	 0.328768803605543 
1416	 0.328490394696304 
1417	 0.328233003454868 
1418	 0.327964277549368 
1419	 0.327707279325646 
1420	 0.327505851585352 
1421	 0.327297700230082 
1422	 0.327090232662361 
1423	 0.326918858152677 
1424	 0.326750250006534 
1425	 0.326590169524336 
1426	 0.326440026704138 
1427	 0.326307576808682 
1428	 0.326170130061716 
1429	 0.326028560190767 
1430	 0.325905152019069 
1431	 0.325788462422682 
1432	 0.325688929516615 
1433	 0.325602934232206 
1434	 0.325529259899068 
1435	 0.325474962212752 
1436	 0.325421577991285 
1437	 0.325377539993146 
1438	 0.325336479002311 
1439	 0.325307537492481 
1440	 0.325270105372328 
1441	 0.325211924398481 
1442	 0.325178256714706 
1443	 0.325140456062231 
1444	 0.325092526062959 
1445	 0.325073988613453 
1446	 0.325063171070969 
1447	 0.325043967947925 
1448	 0.325042222924998 
1449	 0.325045247589905 
1450	 0.325037255462486 
1451	 0.325052908611887 
1452	 0.32507482789088 
1453	 0.325116649377022 
1454	 0.325179400199597 
1455	 0.325249223213609 
1456	 0.325349661590604 
1457	 0.32541597821028 
1458	 0.325473940229608 
1459	 0.325534389369155 
1460	 0.325570990798426 
1461	 0.325626076393429 
1462	 0.325695261585556 
1463	 0.32576586738696 
1464	 0.3258405856963 
1465	 0.325915429956099 
1466	 0.326001822640387 
1467	 0.326079512318377 
1468	 0.326141509089694 
1469	 0.326220400975103 
1470	 0.326307004435439 
1471	 0.326392621198463 
1472	 0.326481492120232 
1473	 0.326578798724019 
1474	 0.326689162292621 
1475	 0.3268114985039 
1476	 0.326933547232249 
1477	 0.327063513435005 
1478	 0.327205381888488 
1479	 0.327332091879105 
1480	 0.327460902635014 
1481	 0.327599545352448 
1482	 0.327707178072741 
1483	 0.327777762792355 
1484	 0.327883433668841 
1485	 0.327981786761958 
1486	 0.328100394889029 
1487	 0.328236270235274 
1488	 0.328381724458373 
1489	 0.32854964097473 
1490	 0.328699172473684 
1491	 0.32886675028682 
1492	 0.329003878389134 
1493	 0.329111699110663 
1494	 0.329229247200232 
1495	 0.329336168310113 
1496	 0.329446051084891 
1497	 0.329553718240031 
1498	 0.32966666441699 
1499	 0.329787137922093 
1500	 0.32989874843565 
1501	 0.330009850565636 
1502	 0.330117978958325 
1503	 0.33021700880516 
1504	 0.33031742744657 
1505	 0.330425413906097 
1506	 0.330528941923387 
1507	 0.330622932121216 
1508	 0.330708654670396 
1509	 0.330798709583751 
1510	 0.330892369559624 
1511	 0.330980583408811 
1512	 0.331084217371724 
1513	 0.331196176846002 
1514	 0.331291838626701 
1515	 0.331390115464946 
1516	 0.331487558304538 
1517	 0.331570725034151 
1518	 0.331634644602201 
1519	 0.331711261950379 
1520	 0.331788482735498 
1521	 0.331858913070835 
1522	 0.331922125686492 
1523	 0.332002119240163 
1524	 0.332080646758136 
1525	 0.332173683992696 
1526	 0.332292273943103 
1527	 0.332386982159553 
1528	 0.33247919882449 
1529	 0.332562858270831 
1530	 0.332635299033515 
1531	 0.332707674214733 
1532	 0.33277728604909 
1533	 0.332842754860482 
1534	 0.33289648393472 
1535	 0.332963811730791 
1536	 0.333033581277339 
1537	 0.333101891519622 
1538	 0.333180721523989 
1539	 0.333249464517137 
1540	 0.333305042610784 
1541	 0.333376258030227 
1542	 0.333464749110679 
1543	 0.333531728744125 
1544	 0.333594917007773 
1545	 0.333654077383612 
1546	 0.333693502349192 
1547	 0.333735044636002 
1548	 0.333796629784047 
1549	 0.333859101182102 
1550	 0.333903495086495 
1551	 0.333955415345681 
1552	 0.334004873046443 
1553	 0.334047210310118 
1554	 0.33410988870175 
1555	 0.33416960069927 
1556	 0.334224952616319 
1557	 0.334280807971852 
1558	 0.334316155911137 
1559	 0.334355192863132 
1560	 0.33439912329765 
1561	 0.334428326425375 
1562	 0.334486643369592 
1563	 0.334574903947016 
1564	 0.33463527938905 
1565	 0.334700313317199 
1566	 0.334759897638532 
1567	 0.3347996402083 
1568	 0.334849059615548 
1569	 0.334907498410937 
1570	 0.33495146276504 
1571	 0.334993808554334 
1572	 0.335026684587077 
1573	 0.335046857347442 
1574	 0.335074169260205 
1575	 0.335090561242184 
1576	 0.335119250699054 
1577	 0.335169463168111 
1578	 0.335189119335511 
1579	 0.335195415665447 
1580	 0.335208119891599 
1581	 0.335194786840323 
1582	 0.335211083853144 
1583	 0.335248929643073 
1584	 0.335284581638023 
1585	 0.335329532472506 
1586	 0.335372364615597 
1587	 0.335423140329312 
1588	 0.335466142461462 
1589	 0.335511303506153 
1590	 0.3355470438834 
1591	 0.335573513113239 
1592	 0.335598041799439 
1593	 0.335620275617276 
1594	 0.335632645680294 
1595	 0.335631627640103 
1596	 0.335638804918932 
1597	 0.335638504097099 
1598	 0.335644584896311 
1599	 0.335660852733366 
1600	 0.335677057261955 
1601	 0.335689839642741 
1602	 0.335710151800845 
1603	 0.335742600731653 
1604	 0.335766165621289 
1605	 0.335780963842556 
1606	 0.335810752395053 
1607	 0.33585366706276 
1608	 0.335882873201025 
1609	 0.335916237478695 
1610	 0.335945668673917 
1611	 0.335930774363889 
1612	 0.33591981756482 
1613	 0.335920185273913 
1614	 0.335914112134225 
1615	 0.335918974858702 
1616	 0.335913252468134 
1617	 0.335910498820713 
1618	 0.335914707215965 
1619	 0.335907142449014 
1620	 0.335909886696927 
1621	 0.335909916925554 
1622	 0.335904257712184 
1623	 0.335894036781737 
1624	 0.335884369864549 
1625	 0.335883527465451 
1626	 0.335871997007438 
1627	 0.335881479595741 
1628	 0.335917873741475 
1629	 0.335930290826188 
1630	 0.335938058511246 
1631	 0.335942913626865 
1632	 0.335937830144248 
1633	 0.335942329697712 
1634	 0.335951487806478 
1635	 0.335954995115238 
1636	 0.335961576617263 
1637	 0.335956813067215 
1638	 0.335943812434962 
1639	 0.335931766149703 
1640	 0.335910006137545 
1641	 0.335902789022247 
1642	 0.335904806151188 
1643	 0.335894633146467 
1644	 0.335879002729768 
1645	 0.335880409507397 
1646	 0.335885791496411 
1647	 0.335883387032405 
1648	 0.335886412171975 
1649	 0.335900473999912 
1650	 0.335903938266955 
1651	 0.335924765892897 
1652	 0.335992142493473 
1653	 0.33599961004598 
1654	 0.335979095396755 
1655	 0.335961820382502 
1656	 0.335911985882325 
1657	 0.335885102220072 
1658	 0.335873047088336 
1659	 0.335847683606727 
1660	 0.335824173917335 
1661	 0.335786559568392 
1662	 0.335735763083213 
1663	 0.335688882136151 
1664	 0.335623638293226 
1665	 0.335586835719677 
1666	 0.3355620230102 
1667	 0.335543437718299 
1668	 0.335547575054292 
1669	 0.335538172098262 
1670	 0.335530041939768 
1671	 0.335515720907498 
1672	 0.335489298147162 
1673	 0.335479740535793 
1674	 0.33547221877422 
1675	 0.335471424685337 
1676	 0.335487927978471 
1677	 0.335493376340802 
1678	 0.335494380855179 
1679	 0.335500359847072 
1680	 0.335519397497342 
1681	 0.335508435654291 
1682	 0.335486578774514 
1683	 0.335459513583779 
1684	 0.335389787336998 
1685	 0.335369944406847 
1686	 0.335383448013444 
1687	 0.335374266208227 
1688	 0.335383925339272 
1689	 0.335370268104276 
1690	 0.335315027381778 
1691	 0.335303822795634 
1692	 0.33531781742525 
1693	 0.335314844835923 
1694	 0.335326123752872 
1695	 0.335325993619497 
1696	 0.335306644692515 
1697	 0.335296003078263 
1698	 0.335295861223535 
1699	 0.335283609014038 
1700	 0.335258655538339 
1701	 0.335243712873456 
1702	 0.335238084924677 
1703	 0.335212117162944 
1704	 0.335193286962513 
1705	 0.335142544767746 
1706	 0.335041442800573 
1707	 0.334992776741064 
1708	 0.334953554156873 
1709	 0.334911038745086 
1710	 0.334889278558777 
1711	 0.334869887753304 
1712	 0.334839467768771 
1713	 0.334824739199315 
1714	 0.334845049239896 
1715	 0.334835747508651 
1716	 0.334800696684294 
1717	 0.334798470136862 
1718	 0.334817895874177 
1719	 0.334800819993271 
1720	 0.334785424714432 
1721	 0.334759057007279 
1722	 0.334700237077465 
1723	 0.334654011672649 
1724	 0.334621765473055 
1725	 0.334571210488932 
1726	 0.334502568134116 
1727	 0.334438986486751 
1728	 0.33436752675045 
1729	 0.33431086600525 
1730	 0.334257085734332 
1731	 0.334207077048718 
1732	 0.334183369359297 
1733	 0.334122991870808 
1734	 0.334039871888446 
1735	 0.333964606277046 
1736	 0.333869193962708 
1737	 0.333795919764996 
1738	 0.333733935986169 
1739	 0.333680683489869 
1740	 0.333634624994241 
1741	 0.333595044784841 
1742	 0.33357637504822 
1743	 0.333536189849985 
1744	 0.333494128611987 
1745	 0.333437765711995 
1746	 0.333356642215016 
1747	 0.33330025040566 
1748	 0.333253370740849 
1749	 0.333189934099644 
1750	 0.333143085501029 
1751	 0.333067243870769 
1752	 0.333002766851189 
1753	 0.332935223419466 
1754	 0.332847002300812 
1755	 0.332808889079788 
1756	 0.332739212911317 
1757	 0.33266461236326 
1758	 0.332610787620255 
1759	 0.332524972003497 
1760	 0.332459185153472 
1761	 0.332422371991926 
1762	 0.332386090339355 
1763	 0.332338216943723 
1764	 0.332287171048623 
1765	 0.332245941383184 
1766	 0.332230270816927 
1767	 0.332223433511369 
1768	 0.332185713514799 
1769	 0.332143344730341 
1770	 0.332070167695246 
1771	 0.332006845366591 
1772	 0.331976927982811 
1773	 0.331897993193673 
1774	 0.331845401951985 
1775	 0.331795358147743 
1776	 0.331714502768989 
1777	 0.331683295562363 
1778	 0.331644982057973 
1779	 0.331583485450499 
1780	 0.331559455875498 
1781	 0.331541909985745 
1782	 0.33151273293001 
1783	 0.331501259753743 
1784	 0.331495563668135 
1785	 0.331509030026172 
1786	 0.331488793704643 
1787	 0.331451988078547 
1788	 0.331419300398145 
1789	 0.331355932924456 
1790	 0.331325692360946 
1791	 0.33132752137065 
1792	 0.331312085689527 
1793	 0.331284864981733 
1794	 0.331281139478583 
1795	 0.33131293852489 
1796	 0.331291907120726 
1797	 0.331248384568355 
1798	 0.33121025370896 
1799	 0.331125964351136 
1800	 0.33109370222672 
1801	 0.328942844840676 
1802	 0.329026288479233 
1803	 0.329130734874151 
1804	 0.32923586686821 
1805	 0.329329356941303 
1806	 0.32943220403787 
1807	 0.329538227179283 
1808	 0.329638862578147 
1809	 0.329773760605622 
1810	 0.32985542965051 
1811	 0.329918658386644 
1812	 0.329950285613124 
1813	 0.329971301276309 
1814	 0.329974250879745 
1815	 0.329941424487123 
1816	 0.329915325344101 
1817	 0.329898294761119 
1818	 0.329848612601498 
1819	 0.329857846728717 
1820	 0.329922012144386 
1821	 0.32994535209167 
1822	 0.329951680866556 
1823	 0.329945301090078 
1824	 0.329891600742772 
1825	 0.329854254452888 
1826	 0.329858982404335 
1827	 0.329874741852467 
1828	 0.329879188032257 
1829	 0.329904245489258 
1830	 0.329894720654461 
1831	 0.329871470010908 
1832	 0.32982881950615 
1833	 0.329757829874555 
1834	 0.32970910637859 
1835	 0.329673603544911 
1836	 0.329647357641166 
1837	 0.32966388395885 
1838	 0.329683826820961 
1839	 0.329706472666306 
1840	 0.329744297327325 
1841	 0.329773150396355 
1842	 0.329796759183548 
1843	 0.32982336895644 
1844	 0.3297975552756 
1845	 0.329776880931834 
1846	 0.329738041281041 
1847	 0.329652989053465 
1848	 0.329584966350589 
1849	 0.329515590045308 
1850	 0.329469962694439 
1851	 0.329431046500708 
1852	 0.329424802802559 
1853	 0.32942374261191 
1854	 0.329418152277265 
1855	 0.329398354963251 
1856	 0.329349029409684 
1857	 0.329284982177741 
1858	 0.329209412095599 
1859	 0.329103299060103 
1860	 0.328972765287327 
1861	 0.328829751167519 
1862	 0.328643553974754 
1863	 0.328396210747982 
1864	 0.328127849320806 
1865	 0.327858661577636 
1866	 0.327559800126789 
1867	 0.327257509854485 
1868	 0.326960065972418 
1869	 0.326624591762999 
1870	 0.326272739791748 
1871	 0.325925273222118 
1872	 0.325585988249922 
1873	 0.325239081466956 
1874	 0.324873016146719 
1875	 0.324491286011474 
1876	 0.324057099136895 
1877	 0.323572813320123 
1878	 0.323023106075386 
1879	 0.322421616640983 
1880	 0.321769922579036 
1881	 0.321071713316648 
1882	 0.320312693389085 
1883	 0.319513230173069 
1884	 0.318610875464574 
1885	 0.317665453182813 
1886	 0.316663487775339 
1887	 0.315570886766738 
1888	 0.314456214121655 
1889	 0.313274449739303 
1890	 0.312039135621736 
1891	 0.310794076345925 
1892	 0.309508810110141 
1893	 0.308206392106699 
1894	 0.306889579314806 
1895	 0.305540127180169 
1896	 0.304145677808773 
1897	 0.302721291210302 
1898	 0.3012810468527 
1899	 0.299865875355465 
1900	 0.298483557595234 
1901	 0.2971235720016 
1902	 0.295809209183195 
1903	 0.294541004831635 
1904	 0.293305786700762 
1905	 0.292095160567693 
1906	 0.290954046691941 
1907	 0.289849426041209 
1908	 0.288748808790393 
1909	 0.287712983072139 
1910	 0.286703387950192 
1911	 0.28572165969251 
1912	 0.284804569294577 
1913	 0.283928442767616 
1914	 0.283089328906849 
1915	 0.282294887360761 
1916	 0.281546793502386 
1917	 0.28084664457168 
1918	 0.280198452203475 
1919	 0.279575251635033 
1920	 0.279009759452567 
1921	 0.278508862534321 
1922	 0.278033949379488 
1923	 0.2776321404977 
1924	 0.277270135364685 
1925	 0.276960878851366 
1926	 0.27669173333033 
1927	 0.276468402938441 
1928	 0.276282583347647 
1929	 0.276160492678821 
1930	 0.276077353458385 
1931	 0.276014648020269 
1932	 0.275983398080233 
1933	 0.275959523141404 
1934	 0.275949423379421 
1935	 0.275982936937538 
1936	 0.27605885480386 
1937	 0.276145687789596 
1938	 0.276261119075774 
1939	 0.276396328731554 
1940	 0.276554051527254 
1941	 0.276721009884705 
1942	 0.276899373155256 
1943	 0.277117263518537 
1944	 0.27735739960006 
1945	 0.277587721984829 
1946	 0.277851800123862 
1947	 0.278162749036239 
1948	 0.278456136310085 
1949	 0.278760595989619 
1950	 0.279062327838731 
1951	 0.279370287214936 
1952	 0.279659767298537 
1953	 0.279961505129603 
1954	 0.280277289577112 
1955	 0.280580080090663 
1956	 0.280868536276684 
1957	 0.281188271167037 
1958	 0.281511254956616 
1959	 0.281852040537717 
1960	 0.282234830554979 
1961	 0.282600987662346 
1962	 0.282960322607967 
1963	 0.283323551534285 
1964	 0.283699734350554 
1965	 0.284057140916786 
1966	 0.28440593110974 
1967	 0.284762569115466 
1968	 0.285128054914987 
1969	 0.285493970038168 
1970	 0.285861512398699 
1971	 0.286242248447675 
1972	 0.286620617365503 
1973	 0.286995049451597 
1974	 0.287367788179644 
1975	 0.287730065683416 
1976	 0.288119275363056 
1977	 0.288526379337048 
1978	 0.288929824117225 
1979	 0.289332901305083 
1980	 0.289743518421453 
1981	 0.290140629337402 
1982	 0.29051750288557 
1983	 0.290893349425434 
1984	 0.2912646859921 
1985	 0.29164170579212 
1986	 0.292001994075149 
1987	 0.292379849355728 
1988	 0.292769053258671 
1989	 0.293174384090628 
1990	 0.293573865934934 
1991	 0.293962965466836 
1992	 0.29436385765819 
1993	 0.29477900701512 
1994	 0.295174589857981 
1995	 0.295565151556239 
1996	 0.295957468225793 
1997	 0.296340220305088 
1998	 0.296721019632258 
1999	 0.297117282818896 
2000	 0.297491845005665 
2001	 0.29784912370532 
2002	 0.298196509842745 
2003	 0.298568981037983 
2004	 0.298910456865678 
2005	 0.299259630862617 
2006	 0.299606546575054 
2007	 0.299974876144852 
2008	 0.300340830427045 
2009	 0.300716569195574 
2010	 0.301140478049616 
2011	 0.3015132220254 
2012	 0.301854817361504 
2013	 0.302204573225251 
2014	 0.302537255300955 
2015	 0.302863765855654 
2016	 0.30319541761586 
2017	 0.303557920624686 
2018	 0.303922695320594 
2019	 0.304307021884728 
2020	 0.304665392168097 
2021	 0.305032410820799 
2022	 0.305381069984341 
2023	 0.305700804638029 
2024	 0.306036629967212 
2025	 0.306385026132235 
2026	 0.306715441552697 
2027	 0.307045702980503 
2028	 0.307350477721641 
2029	 0.307666247755993 
2030	 0.307975642218241 
2031	 0.30828498886085 
2032	 0.308590787825988 
2033	 0.30890869700432 
2034	 0.309214651695432 
2035	 0.3095438976535 
2036	 0.309917315237719 
2037	 0.310248302858897 
2038	 0.31058604818618 
2039	 0.310893153662275 
2040	 0.311165586844788 
2041	 0.311424627498392 
2042	 0.311671683021578 
2043	 0.311928582496397 
2044	 0.31219249369251 
2045	 0.312460378631993 
2046	 0.312729121599563 
2047	 0.313009568152734 
2048	 0.313276723661948 
2049	 0.313542041446839 
2050	 0.313799463983809 
2051	 0.31404111332392 
2052	 0.314296855709214 
2053	 0.314553071790807 
2054	 0.314809560009651 
2055	 0.315075493121678 
2056	 0.315346004914633 
2057	 0.315594684808615 
2058	 0.315831024083945 
2059	 0.316070640308457 
2060	 0.316295510566211 
2061	 0.31653047718127 
2062	 0.316774941590012 
2063	 0.317007668195508 
2064	 0.317239544390261 
2065	 0.317465431169083 
2066	 0.31766542276877 
2067	 0.317894923356287 
2068	 0.318159494879646 
2069	 0.318379158436604 
2070	 0.318618566178636 
2071	 0.318878425146083 
2072	 0.31911948938774 
2073	 0.319347599245101 
2074	 0.319577673353234 
2075	 0.319804371670504 
2076	 0.320035290714168 
2077	 0.320261564432712 
2078	 0.320490592577747 
2079	 0.320730935583281 
2080	 0.320962311922675 
2081	 0.321200394097268 
2082	 0.321414905653632 
2083	 0.321616095669804 
2084	 0.321802700880819 
2085	 0.322004975634839 
2086	 0.322187789016684 
2087	 0.32240070829952 
2088	 0.322645684914042 
2089	 0.32286699077686 
2090	 0.323092117287855 
2091	 0.323302782704108 
2092	 0.323492320583814 
2093	 0.323699798237562 
2094	 0.323908014691034 
2095	 0.32411812143938 
2096	 0.324348689726278 
2097	 0.324559465207151 
2098	 0.324759645781871 
2099	 0.324956812327653 
2100	 0.325143821700888 
2101	 0.325312784991063 
2102	 0.325500610134494 
2103	 0.325683310671944 
2104	 0.325882486505602 
2105	 0.32608265327101 
2106	 0.32631267437737 
2107	 0.326572393465811 
2108	 0.326818672852732 
2109	 0.327088329750259 
2110	 0.327346610916258 
2111	 0.327593172833379 
2112	 0.327838179160689 
2113	 0.328096146464093 
2114	 0.328340208025663 
2115	 0.328552401279394 
2116	 0.328731467930195 
2117	 0.328940618714158 
2118	 0.329135199363771 
2119	 0.329340921092861 
2120	 0.329561983104462 
2121	 0.329789748211558 
2122	 0.330031631870254 
2123	 0.330243271585423 
2124	 0.330456447549076 
2125	 0.330664962066142 
2126	 0.33085943836118 
2127	 0.331031588720601 
2128	 0.331210996300359 
2129	 0.331362304150697 
2130	 0.331472643398774 
2131	 0.331571469073775 
2132	 0.331665179560446 
2133	 0.331747826022267 
2134	 0.331829354621406 
2135	 0.331901445003796 
2136	 0.33196681119739 
2137	 0.332038996986146 
2138	 0.332083050584511 
2139	 0.332116657491972 
2140	 0.332123128904962 
2141	 0.332093864080508 
2142	 0.332071393715726 
2143	 0.332015714062851 
2144	 0.331984333229726 
2145	 0.33197432914142 
2146	 0.331949531381784 
2147	 0.331949297713368 
2148	 0.331911515679799 
2149	 0.331851578331779 
2150	 0.331773717605072 
2151	 0.331673125003897 
2152	 0.331536957314039 
2153	 0.331403154546254 
2154	 0.3312353635717 
2155	 0.331100016590759 
2156	 0.330977157057551 
2157	 0.330843198085042 
2158	 0.330738134708877 
2159	 0.3305939813935 
2160	 0.330423036462301 
2161	 0.330243114071185 
2162	 0.33002736645017 
2163	 0.329828789793581 
2164	 0.329631275254613 
2165	 0.32943504323216 
2166	 0.329224549486972 
2167	 0.329012194153678 
2168	 0.328808273789147 
2169	 0.328591748062313 
2170	 0.328385439959382 
2171	 0.328207348029222 
2172	 0.327994671268772 
2173	 0.327766005542992 
2174	 0.327531511956947 
2175	 0.327255343211596 
2176	 0.327028089931155 
2177	 0.326813545980832 
2178	 0.32660999332892 
2179	 0.326451262405268 
2180	 0.326273533252364 
2181	 0.326092365101125 
2182	 0.325907485205888 
2183	 0.325702715669997 
2184	 0.325527812646363 
2185	 0.325340869422515 
2186	 0.3251482935754 
2187	 0.324962324664012 
2188	 0.324769294380463 
2189	 0.324610112194176 
2190	 0.324475152601977 
2191	 0.324325967309189 
2192	 0.324208055361659 
2193	 0.324054364303965 
2194	 0.323857574774539 
2195	 0.323695092546712 
2196	 0.323534874481008 
2197	 0.323382611937347 
2198	 0.323240826272002 
2199	 0.323112919601634 
2200	 0.322987487231327 
2201	 0.322878860159303 
2202	 0.322788499323775 
2203	 0.32272815687726 
2204	 0.322629646496343 
2205	 0.322533190377225 
2206	 0.322416209244911 
2207	 0.322252376338205 
2208	 0.322148821837994 
2209	 0.322064355009174 
2210	 0.32197929358486 
2211	 0.321928314223125 
2212	 0.321860084060927 
2213	 0.321769325945014 
2214	 0.321707106442563 
2215	 0.32166606932788 
2216	 0.321619128430765 
2217	 0.321585154972995 
2218	 0.321546602964444 
2219	 0.321508621140897 
2220	 0.321462090145582 
2221	 0.321404651729155 
2222	 0.321359486325439 
2223	 0.321303098334873 
2224	 0.321258166991538 
2225	 0.321222793850417 
2226	 0.321208612744643 
2227	 0.321162682223403 
2228	 0.321118515945525 
2229	 0.321055352864474 
2230	 0.320957894881364 
2231	 0.320886858547023 
2232	 0.320837433800357 
2233	 0.320746490748085 
2234	 0.320627329245388 
2235	 0.320535293746104 
2236	 0.320415591779312 
2237	 0.320328751171658 
2238	 0.320280574046245 
2239	 0.320231701130548 
2240	 0.320187973615094 
2241	 0.320151011366837 
2242	 0.320140786342431 
2243	 0.320112469521612 
2244	 0.320062933529104 
2245	 0.320038387519278 
2246	 0.320022933784083 
2247	 0.320005055177017 
2248	 0.319987734204889 
2249	 0.319999759654614 
2250	 0.319951626824483 
2251	 0.319859864807161 
2252	 0.319809878994271 
2253	 0.319736047291064 
2254	 0.319711447269426 
2255	 0.31972900849697 
2256	 0.319737634378841 
2257	 0.319758702389536 
2258	 0.319784715338992 
2259	 0.319845640943324 
2260	 0.319860368086911 
2261	 0.319852852811427 
2262	 0.319853184511845 
2263	 0.319811999351006 
2264	 0.319804370566594 
2265	 0.319838371033432 
2266	 0.31984899823018 
2267	 0.319869126944339 
2268	 0.319868942816307 
2269	 0.319851648638622 
2270	 0.31981910581715 
2271	 0.319794513594282 
2272	 0.319734393808761 
2273	 0.319698078978769 
2274	 0.319637339313024 
2275	 0.31959243954302 
2276	 0.319548697230041 
2277	 0.319518613941268 
2278	 0.31949704830242 
2279	 0.319482111347777 
2280	 0.319481782028096 
2281	 0.319467116816121 
2282	 0.319461473102429 
2283	 0.319429300536249 
2284	 0.319386515096854 
2285	 0.31932863986594 
2286	 0.3192303584374 
2287	 0.319168873881289 
2288	 0.319076418367408 
2289	 0.319051927326126 
2290	 0.319119964325823 
2291	 0.319123294968209 
2292	 0.319148014357451 
2293	 0.319148918366524 
2294	 0.319066092927296 
2295	 0.319041546490093 
2296	 0.319052670598861 
2297	 0.319063487661953 
2298	 0.319081994164957 
2299	 0.319048018589356 
2300	 0.318995543639894 
2301	 0.318916093413604 
2302	 0.318824790669961 
2303	 0.318771617919436 
2304	 0.318706084527299 
2305	 0.318667072626692 
2306	 0.318645854774555 
2307	 0.318654107221185 
2308	 0.318641528448581 
2309	 0.318667785225018 
2310	 0.318622297125871 
2311	 0.318539114819753 
2312	 0.318448460797427 
2313	 0.318297513722345 
2314	 0.318179918557773 
2315	 0.31806626996038 
2316	 0.317967230372971 
2317	 0.317874446567449 
2318	 0.317794951434437 
2319	 0.317746287981064 
2320	 0.317662228303229 
2321	 0.317553852903401 
2322	 0.317481702028708 
2323	 0.317404533904307 
2324	 0.317343794869378 
2325	 0.317376469743851 
2326	 0.317306916823678 
2327	 0.317186377763126 
2328	 0.317027176141656 
2329	 0.31688391765724 
2330	 0.316736704443998 
2331	 0.316665502063382 
2332	 0.316639078646031 
2333	 0.316559614181285 
2334	 0.316477065908597 
2335	 0.316400874702363 
2336	 0.316305048033031 
2337	 0.316191817257667 
2338	 0.316056902342628 
2339	 0.315886801448843 
2340	 0.315732056056211 
2341	 0.315639795607142 
2342	 0.315506229635086 
2343	 0.315332080356976 
2344	 0.315168146618594 
2345	 0.314971761227945 
2346	 0.31471309135833 
2347	 0.314470971237399 
2348	 0.314230952215395 
2349	 0.314001411558385 
2350	 0.313772053492182 
2351	 0.313529560494757 
2352	 0.313302695873079 
2353	 0.313025426620221 
2354	 0.312667663678003 
2355	 0.312391158740079 
2356	 0.312134206698554 
2357	 0.311894506727431 
2358	 0.311724892395895 
2359	 0.311501893544935 
2360	 0.311278895208824 
2361	 0.311031234668311 
2362	 0.310735251713177 
2363	 0.31046518539106 
2364	 0.310163254640578 
2365	 0.309882098774378 
2366	 0.309666244311104 
2367	 0.309385591394776 
2368	 0.309083987538401 
2369	 0.308804145385356 
2370	 0.308514838907204 
2371	 0.308158923196983 
2372	 0.307873405233816 
2373	 0.307542111567424 
2374	 0.307249392925846 
2375	 0.306976016513059 
2376	 0.306685474274162 
2377	 0.306422067170762 
2378	 0.306135171880302 
2379	 0.305813692151711 
2380	 0.305483923630526 
2381	 0.305184711226967 
2382	 0.304830493035484 
2383	 0.304491295324586 
2384	 0.304174998970558 
2385	 0.303859244922843 
2386	 0.303619060316028 
2387	 0.303313274209611 
2388	 0.303041358679547 
2389	 0.30275683818256 
2390	 0.302381329863011 
2391	 0.30209097811362 
2392	 0.301751365845388 
2393	 0.301373447333945 
2394	 0.301037500996076 
2395	 0.300686885351708 
2396	 0.300326992925938 
2397	 0.299994193140926 
2398	 0.299656724198274 
2399	 0.299229295406297 
2400	 0.298942162518422 
2401	 0.29865386302397 
2402	 0.298274502851757 
2403	 0.298136927185609 
2404	 0.297911719431478 
2405	 0.297595943796859 
2406	 0.297401444497961 
2407	 0.29707279834996 
2408	 0.296717117492078 
2409	 0.296426052720632 
2410	 0.296115285720406 
2411	 0.295786380165537 
2412	 0.295515041217542 
2413	 0.295263796370267 
2414	 0.294965552865534 
2415	 0.294677513560048 
2416	 0.294349756507699 
2417	 0.293941384910233 
2418	 0.293594794392416 
2419	 0.293228534043578 
2420	 0.29293512555038 
2421	 0.292769486897126 
2422	 0.292464247603011 
2423	 0.292101843141724 
2424	 0.291784516826513 
2425	 0.291347564465402 
2426	 0.291013354070367 
2427	 0.290835715585186 
2428	 0.290620211099105 
2429	 0.290425642794749 
2430	 0.29018757112936 
2431	 0.289905486413436 
2432	 0.289634225152661 
2433	 0.28936374971554 
2434	 0.289074763812999 
2435	 0.288798352449383 
2436	 0.288491843120168 
2437	 0.288102803980915 
2438	 0.2877757982795 
2439	 0.287526473013415 
2440	 0.287184950653029 
2441	 0.286835945731575 
2442	 0.28650708840372 
2443	 0.286073617279648 
2444	 0.285675960990101 
2445	 0.285333900583002 
2446	 0.284969054451906 
2447	 0.284595787369691 
2448	 0.284241741657955 
2449	 0.283890811412726 
2450	 0.283556200920638 
2451	 0.283241206141912 
2452	 0.282929976290701 
2453	 0.282703522768433 
2454	 0.282349005485125 
2455	 0.281850682669159 
2456	 0.281436935840979 
2457	 0.280954348272325 
2458	 0.280543594161276 
2459	 0.280277435627656 
2460	 0.279964941764458 
2461	 0.279665979498414 
2462	 0.279421925120978 
2463	 0.279137558631851 
2464	 0.278900407598135 
2465	 0.278793672857719 
2466	 0.278503428813326 
2467	 0.278127731506834 
2468	 0.277846315498592 
2469	 0.277432586673738 
2470	 0.277151929011917 
2471	 0.276997019318469 
2472	 0.276674085542956 
2473	 0.276469390320621 
2474	 0.276371764690797 
2475	 0.276110651906566 
2476	 0.275772117594575 
2477	 0.275501451153599 
2478	 0.275026008846944 
2479	 0.274501576086357 
2480	 0.274132101895665 
2481	 0.273707453809328 
2482	 0.273524390228362 
2483	 0.273289612851582 
2484	 0.272887330145649 
2485	 0.272575392235298 
2486	 0.272073412998347 
2487	 0.271767472559482 
2488	 0.271615410718453 
2489	 0.271380680956575 
2490	 0.271178885911746 
2491	 0.270956292171519 
2492	 0.270787011620034 
2493	 0.270538608957274 
2494	 0.270281582460929 
2495	 0.26995115388106 
2496	 0.269529337401512 
2497	 0.26924036338695 
2498	 0.268840189949706 
2499	 0.268535811944398 
2500	 0.268433540594361 
