Wavelength	LMW800010.asd
350	 5.42961694521444E-02 
351	 5.43062593426669E-02 
352	 5.00532305212026E-02 
353	 4.50237050921456E-02 
354	 4.71922330324296E-02 
355	 5.20589925679917E-02 
356	 5.38063205065861E-02 
357	 5.01191479035192E-02 
358	 0.053701375300207 
359	 5.19451258145187E-02 
360	 4.80771172882962E-02 
361	 5.35480788654297E-02 
362	 4.68317607180104E-02 
363	 0.043359182471375 
364	 4.90325719378784E-02 
365	 4.82017264511904E-02 
366	 4.97716489566812E-02 
367	 5.10582571554698E-02 
368	 4.86718249096598E-02 
369	 4.83379272087186E-02 
370	 0.049391756513275 
371	 4.99519501497972E-02 
372	 4.80948651163618E-02 
373	 4.99385026910388E-02 
374	 5.29619462626446E-02 
375	 5.41444167018979E-02 
376	 5.14851750602496E-02 
377	 4.98506803971551E-02 
378	 5.09704061125835E-02 
379	 5.40468855252819E-02 
380	 0.05285164541299 
381	 0.052083595632861 
382	 5.29840779014068E-02 
383	 5.37590467893882E-02 
384	 5.23825385933442E-02 
385	 5.22554205664196E-02 
386	 5.44748647666857E-02 
387	 5.43261404170177E-02 
388	 5.44888763534554E-02 
389	 5.41613647502299E-02 
390	 5.23820716755931E-02 
391	 5.23082144758876E-02 
392	 5.31128829340022E-02 
393	 5.45360736345576E-02 
394	 5.68118403551469E-02 
395	 5.77214139030591E-02 
396	 5.72484830744745E-02 
397	 5.63877237200061E-02 
398	 0.057646347657038 
399	 5.67481312973901E-02 
400	 5.61552146710056E-02 
401	 0.059153899534714 
402	 5.90746178926714E-02 
403	 5.83091670721837E-02 
404	 5.81133956467505E-02 
405	 0.057992547366304 
406	 5.79714181613048E-02 
407	 5.84753610356109E-02 
408	 0.059346146139107 
409	 5.87350384740457E-02 
410	 5.78815898853159E-02 
411	 5.79943320942275E-02 
412	 5.96848205435603E-02 
413	 5.98065682535825E-02 
414	 5.93016546946937E-02 
415	 5.89699103529681E-02 
416	 0.058901363636481 
417	 5.89887545670492E-02 
418	 5.91133348973266E-02 
419	 5.91772348679096E-02 
420	 5.92467386443731E-02 
421	 5.85418340118078E-02 
422	 5.79038648831734E-02 
423	 5.88782524157699E-02 
424	 5.86065371370469E-02 
425	 5.82107613257674E-02 
426	 0.058483279745746 
427	 5.87748399999455E-02 
428	 5.81934768700566E-02 
429	 5.74750029380659E-02 
430	 5.76025049417047E-02 
431	 5.78353112018689E-02 
432	 5.80398373387265E-02 
433	 5.81478532056328E-02 
434	 5.81334871424437E-02 
435	 5.81986172330571E-02 
436	 5.83199546798477E-02 
437	 5.83949474270283E-02 
438	 5.81989705937301E-02 
439	 5.82657256299513E-02 
440	 5.85222548723175E-02 
441	 5.85958222484915E-02 
442	 5.83827055433676E-02 
443	 0.058408194324144 
444	 5.87255471825628E-02 
445	 5.85905520870157E-02 
446	 5.87331291553329E-02 
447	 5.89696510802741E-02 
448	 5.89985153127202E-02 
449	 5.91830550285458E-02 
450	 5.93792222510861E-02 
451	 0.059533509537124 
452	 5.96765783169816E-02 
453	 5.97002353078184E-02 
454	 5.96482279364078E-02 
455	 5.96082713630282E-02 
456	 5.97041757066288E-02 
457	 5.98643671534538E-02 
458	 6.00349376765438E-02 
459	 0.060156439833913 
460	 6.01125860694421E-02 
461	 5.99422632908445E-02 
462	 5.98368062462687E-02 
463	 6.01824144064093E-02 
464	 6.02996707865076E-02 
465	 6.03095144537326E-02 
466	 6.04752018269703E-02 
467	 0.060666630177128 
468	 6.07997146116777E-02 
469	 6.08279247403105E-02 
470	 0.060743970087453 
471	 6.05868467731717E-02 
472	 6.05843120140135E-02 
473	 6.08045996820207E-02 
474	 6.09058877018552E-02 
475	 6.09061049610722E-02 
476	 6.08042493514335E-02 
477	 6.06479638614345E-02 
478	 6.07581166394945E-02 
479	 6.09733896656127E-02 
480	 6.11322362581724E-02 
481	 0.061132745766503 
482	 6.12973271179196E-02 
483	 6.14336156745475E-02 
484	 6.13245751802465E-02 
485	 6.12568748050314E-02 
486	 6.12184097002549E-02 
487	 0.061184522155136 
488	 0.061134780250759 
489	 6.12412075277216E-02 
490	 6.13653863579725E-02 
491	 6.13940969277083E-02 
492	 0.061411819224772 
493	 6.13883966777879E-02 
494	 0.061353173977578 
495	 6.13604771630949E-02 
496	 6.14452634377396E-02 
497	 6.14556625098221E-02 
498	 6.13624102299572E-02 
499	 6.13386815569756E-02 
500	 6.13215570246445E-02 
501	 6.13058151961386E-02 
502	 6.12987313803603E-02 
503	 6.13015605027676E-02 
504	 6.13071014549476E-02 
505	 6.13286730950586E-02 
506	 6.13916928349043E-02 
507	 6.13405829393472E-02 
508	 0.06128619234424 
509	 6.13095600685061E-02 
510	 6.12778356453691E-02 
511	 6.11545011252034E-02 
512	 6.10620400005181E-02 
513	 6.11673446336098E-02 
514	 0.061203071043322 
515	 6.11460808333026E-02 
516	 6.10786772673156E-02 
517	 6.12206450069646E-02 
518	 6.12860130022133E-02 
519	 6.12240393869235E-02 
520	 6.11034540263671E-02 
521	 6.11471871810652E-02 
522	 6.12236855937402E-02 
523	 6.12672460059731E-02 
524	 6.13035795353728E-02 
525	 6.12968074490589E-02 
526	 6.12827603193504E-02 
527	 6.12912587813594E-02 
528	 6.12838400517872E-02 
529	 6.12442704191922E-02 
530	 6.12306830419608E-02 
531	 6.13310115961899E-02 
532	 6.13696854089694E-02 
533	 6.14073827602673E-02 
534	 6.14849686938086E-02 
535	 6.15384113157789E-02 
536	 0.061497834177868 
537	 6.14683188374966E-02 
538	 6.15732680387278E-02 
539	 6.15286280931475E-02 
540	 6.14928490435024E-02 
541	 6.15615043106854E-02 
542	 6.17052677010419E-02 
543	 6.17309565083027E-02 
544	 6.17191087190566E-02 
545	 6.17821968867545E-02 
546	 6.18191670251206E-02 
547	 6.18467772330428E-02 
548	 6.18865739820973E-02 
549	 0.061959002607405 
550	 0.062027337950456 
551	 6.20954358204388E-02 
552	 6.21695305794676E-02 
553	 6.22435756822261E-02 
554	 6.22982203018113E-02 
555	 0.062339325814989 
556	 6.23891410235638E-02 
557	 6.24754272320882E-02 
558	 6.25847843231235E-02 
559	 6.27054118581454E-02 
560	 6.28429017866856E-02 
561	 6.29223734816688E-02 
562	 6.29856561196058E-02 
563	 6.31115780169691E-02 
564	 6.33352880416785E-02 
565	 6.35028036275175E-02 
566	 6.35973204320788E-02 
567	 6.37653241845485E-02 
568	 6.40096029748268E-02 
569	 6.42707140376047E-02 
570	 6.44934247462335E-02 
571	 6.46938185378533E-02 
572	 6.49451579467503E-02 
573	 6.52501651007929E-02 
574	 6.55579626090662E-02 
575	 6.58481332062262E-02 
576	 6.61383341733037E-02 
577	 6.64477092575294E-02 
578	 6.67830764781395E-02 
579	 6.71349929387255E-02 
580	 6.75179511793135E-02 
581	 6.79475803391555E-02 
582	 6.83729263864826E-02 
583	 6.88006651802216E-02 
584	 6.92394996361672E-02 
585	 0.06969336394861 
586	 7.02016068068198E-02 
587	 7.07283810836504E-02 
588	 7.12373410057964E-02 
589	 7.18039150468717E-02 
590	 7.23563729257957E-02 
591	 7.28946529656405E-02 
592	 7.34836627703162E-02 
593	 7.40155263371892E-02 
594	 7.45401938159889E-02 
595	 7.51108034978223E-02 
596	 7.57101473046668E-02 
597	 7.63135099041088E-02 
598	 7.69057475617608E-02 
599	 7.74847802275888E-02 
600	 7.80880477258326E-02 
601	 7.86720584821247E-02 
602	 7.92062061563742E-02 
603	 7.96977469783419E-02 
604	 8.01911101478188E-02 
605	 8.06973919942999E-02 
606	 8.12092420880008E-02 
607	 8.17013233567993E-02 
608	 8.21771883610432E-02 
609	 8.26468415640089E-02 
610	 8.31254523142923E-02 
611	 8.35659018507308E-02 
612	 8.40053684882401E-02 
613	 8.44575717195164E-02 
614	 8.47878167098751E-02 
615	 0.085114135124559 
616	 8.54678931179618E-02 
617	 8.58129142532674E-02 
618	 8.61161028384111E-02 
619	 8.63682840346732E-02 
620	 8.65960311933231E-02 
621	 8.68968839120716E-02 
622	 8.71638726617676E-02 
623	 0.087377308159455 
624	 8.75642499454908E-02 
625	 8.78052595842321E-02 
626	 8.80342742682778E-02 
627	 8.82191967750387E-02 
628	 8.83879533262649E-02 
629	 8.86080955433324E-02 
630	 8.88287863250743E-02 
631	 8.89917265833396E-02 
632	 8.91514136844876E-02 
633	 8.92913566287906E-02 
634	 8.94388830794814E-02 
635	 8.96506135091443E-02 
636	 8.98440675020105E-02 
637	 0.090018727212403 
638	 9.01786580556767E-02 
639	 9.02931281943446E-02 
640	 9.04438433885505E-02 
641	 9.06287184157483E-02 
642	 0.090807221602363 
643	 9.09878738118755E-02 
644	 9.11687951595457E-02 
645	 9.13604241654122E-02 
646	 0.091594415371971 
647	 0.091738457346517 
648	 9.18846124462682E-02 
649	 0.092135540149702 
650	 9.23395317065081E-02 
651	 9.25413592490024E-02 
652	 0.092758253656513 
653	 9.29786136921637E-02 
654	 0.093188089082027 
655	 9.34049069539933E-02 
656	 9.36383741778822E-02 
657	 9.38515432467176E-02 
658	 9.41363189854016E-02 
659	 9.44360105358484E-02 
660	 9.46445955775446E-02 
661	 9.48773202396683E-02 
662	 9.51694614746349E-02 
663	 9.55039140427639E-02 
664	 9.58026913326866E-02 
665	 9.60405739043881E-02 
666	 9.62892965289691E-02 
667	 0.096614488654283 
668	 9.69172220370138E-02 
669	 9.72733332789601E-02 
670	 9.76518545008466E-02 
671	 9.79407336563809E-02 
672	 9.82872906217832E-02 
673	 9.86790927251256E-02 
674	 9.90782167554242E-02 
675	 0.099460194179229 
676	 9.98070980182666E-02 
677	 0.100141970919969 
678	 0.10051104993108 
679	 0.100966585062093 
680	 0.101424022096562 
681	 0.101848683395614 
682	 0.102287848296591 
683	 0.102718502263444 
684	 0.103167002676465 
685	 0.103652600287221 
686	 0.104124147680454 
687	 0.104622807353002 
688	 0.105136008490067 
689	 0.105614152967128 
690	 0.10604891114518 
691	 0.106523190313885 
692	 0.107076053135068 
693	 0.10764281597907 
694	 0.108165491284388 
695	 0.108682323008913 
696	 0.109253031483365 
697	 0.109816269394113 
698	 0.110386632054801 
699	 0.110977093152442 
700	 0.111591633759524 
701	 0.112165905957878 
702	 0.112739064360427 
703	 0.113345101652869 
704	 0.113939518612066 
705	 0.114521123533361 
706	 0.115106936426309 
707	 0.115718184563899 
708	 0.116320525604419 
709	 0.116932720542641 
710	 0.117559364715558 
711	 0.118178752075387 
712	 0.11875886706226 
713	 0.119331829489691 
714	 0.119937359461906 
715	 0.120567857377084 
716	 0.121181995578668 
717	 0.121760414806107 
718	 0.12230524791182 
719	 0.12286169686821 
720	 0.123404835996916 
721	 0.123924995787768 
722	 0.124462450922073 
723	 0.125006774432819 
724	 0.125527877685321 
725	 0.126002357099432 
726	 0.126476979928454 
727	 0.126927396144104 
728	 0.127359416775569 
729	 0.127805347929648 
730	 0.128224618312271 
731	 0.128595374896697 
732	 0.128919423501946 
733	 0.129241075277219 
734	 0.129576618636956 
735	 0.129878279832722 
736	 0.130095580663894 
737	 0.130349254471026 
738	 0.1305570144099 
739	 0.130706740754003 
740	 0.13087638219867 
741	 0.131032556004828 
742	 0.131150294324755 
743	 0.13121881811558 
744	 0.131263017954854 
745	 0.131257237606183 
746	 0.131232535820534 
747	 0.13123039889516 
748	 0.131161861278833 
749	 0.13108326951933 
750	 0.131001615974363 
751	 0.130851021759104 
752	 0.130702229960336 
753	 0.130544841620422 
754	 0.130358445745698 
755	 0.13014833855615 
756	 0.129945712618464 
757	 0.129714693173888 
758	 0.129406535537891 
759	 0.129151442824866 
760	 0.128866550321876 
761	 0.12852346846368 
762	 0.128185980602301 
763	 0.127870115231628 
764	 0.127545114100102 
765	 0.127182050314457 
766	 0.126788587748687 
767	 0.126426563296997 
768	 0.126064777376524 
769	 0.125639769861635 
770	 0.125237373992792 
771	 0.124831961073837 
772	 0.124417847951271 
773	 0.124023471308966 
774	 0.123604691402163 
775	 0.123179126041354 
776	 0.122765254961529 
777	 0.122346276078137 
778	 0.121910154930176 
779	 0.121471344038366 
780	 0.121050097650323 
781	 0.120617908734523 
782	 0.120180369835814 
783	 0.119734018643808 
784	 0.119267770663258 
785	 0.118856908943874 
786	 0.118452723753992 
787	 0.118012854890593 
788	 0.117561461696785 
789	 0.117169305093732 
790	 0.116792688769287 
791	 0.116364348612994 
792	 0.115955293965184 
793	 0.115560690295508 
794	 0.115170325878364 
795	 0.114775948237403 
796	 0.114410566026444 
797	 0.114042030138937 
798	 0.113651537150786 
799	 0.113261054442567 
800	 0.11290916450596 
801	 0.112576569139635 
802	 0.112228278144747 
803	 0.111845178704354 
804	 0.111507421553587 
805	 0.111203127827225 
806	 0.110868772301608 
807	 0.110548807286292 
808	 0.110214016691973 
809	 0.109870494233524 
810	 0.109575799635669 
811	 0.109325393257755 
812	 0.109064117234004 
813	 0.108758498423326 
814	 0.108463805802968 
815	 0.108179582379295 
816	 0.107906806643993 
817	 0.107647650765031 
818	 0.107416809153187 
819	 0.107199638434142 
820	 0.106981693292594 
821	 0.106751418045067 
822	 0.106504179200724 
823	 0.106275926305204 
824	 0.106071653468729 
825	 0.105836541849465 
826	 0.105639480096645 
827	 0.10546512086287 
828	 0.105281859961301 
829	 0.105084774945673 
830	 0.104883204210791 
831	 0.104706278304787 
832	 0.104577653682868 
833	 0.104434135683902 
834	 0.104302630182736 
835	 0.104176493772796 
836	 0.104017423326282 
837	 0.103872965253703 
838	 0.103765575881502 
839	 0.103680543775806 
840	 0.103549872344618 
841	 0.103435645166474 
842	 0.103313515772111 
843	 0.103172620914785 
844	 0.103122448783689 
845	 0.103054123407697 
846	 0.102972016458209 
847	 0.102923247790215 
848	 0.102864332346824 
849	 0.102804603914383 
850	 0.102743193766501 
851	 0.102670976168128 
852	 0.102612705337927 
853	 0.102551866038057 
854	 0.102503812877108 
855	 0.102535033989684 
856	 0.102589155988416 
857	 0.102589719607773 
858	 0.102519102450594 
859	 0.102512830809741 
860	 0.102522610325948 
861	 0.102533352175357 
862	 0.102546190572404 
863	 0.102595076140692 
864	 0.102608140776394 
865	 0.102616838627811 
866	 0.102694331193356 
867	 0.102704475192308 
868	 0.102768133120649 
869	 0.102882208876218 
870	 0.102909767984958 
871	 0.102985457914632 
872	 0.103073918564721 
873	 0.10314628180228 
874	 0.103228550928641 
875	 0.103328384248326 
876	 0.103424459304236 
877	 0.103507672313157 
878	 0.103617839166929 
879	 0.103770297379728 
880	 0.103908164531376 
881	 0.103988173661592 
882	 0.104132958992341 
883	 0.104295036062067 
884	 0.104438458593063 
885	 0.104555194823444 
886	 0.10474698949346 
887	 0.104936408532992 
888	 0.105077916877762 
889	 0.105184654763183 
890	 0.105428507789472 
891	 0.105658917154966 
892	 0.105825780771614 
893	 0.106052208953337 
894	 0.106256095588384 
895	 0.106451063005562 
896	 0.106663207250503 
897	 0.106906813003365 
898	 0.107166548892766 
899	 0.107408511361753 
900	 0.107624423782848 
901	 0.107879548158188 
902	 0.108170658373074 
903	 0.10846834884382 
904	 0.108744925744098 
905	 0.109020829022155 
906	 0.109318797288984 
907	 0.109624720700949 
908	 0.109918400664961 
909	 0.110249603233857 
910	 0.11057435752334 
911	 0.110893797607332 
912	 0.111243592386618 
913	 0.111665822618727 
914	 0.11202093666158 
915	 0.11231929462096 
916	 0.112697129945298 
917	 0.112999150012124 
918	 0.113376481214541 
919	 0.113858163279715 
920	 0.114292999622235 
921	 0.114676821631389 
922	 0.115088666925547 
923	 0.115564846953447 
924	 0.116053778325209 
925	 0.116485454417885 
926	 0.116943312696795 
927	 0.11744619541487 
928	 0.117833679218086 
929	 0.118359367355935 
930	 0.118919054152763 
931	 0.119404937335833 
932	 0.119924887893368 
933	 0.120473889508855 
934	 0.121013802035959 
935	 0.121523722358124 
936	 0.122065494668993 
937	 0.122577835046052 
938	 0.123110432216893 
939	 0.12372308878447 
940	 0.124382820408867 
941	 0.12504012153201 
942	 0.125716989315182 
943	 0.126428876050255 
944	 0.127033526147617 
945	 0.127701690876823 
946	 0.128427685836969 
947	 0.129114425515812 
948	 0.12967251706552 
949	 0.130395331193457 
950	 0.131158836132421 
951	 0.131734808196335 
952	 0.13254606644655 
953	 0.133373442158368 
954	 0.13410857620896 
955	 0.134769237539013 
956	 0.135552303353617 
957	 0.136381935376166 
958	 0.13721269406357 
959	 0.138028428087361 
960	 0.138796418146522 
961	 0.139585053873582 
962	 0.14044243754915 
963	 0.141367106226727 
964	 0.14222137698301 
965	 0.143084022590754 
966	 0.14399316089523 
967	 0.144944082301183 
968	 0.145922997516152 
969	 0.146841424717696 
970	 0.147703200747504 
971	 0.148590644163206 
972	 0.149629964552655 
973	 0.150653567058819 
974	 0.151602149708451 
975	 0.152532790469979 
976	 0.153590905008843 
977	 0.154601644093834 
978	 0.155578329188743 
979	 0.156639979667534 
980	 0.157679271675562 
981	 0.158642711161028 
982	 0.159586877198719 
983	 0.160613174110655 
984	 0.161665702152518 
985	 0.162843901805869 
986	 0.16398117838865 
987	 0.164891769132393 
988	 0.166078916547754 
989	 0.1672082689631 
990	 0.168243309335231 
991	 0.16931638644144 
992	 0.170463707350827 
993	 0.171514618407376 
994	 0.172606864041041 
995	 0.173892909782493 
996	 0.174982265896675 
997	 0.176160825225344 
998	 0.17730473147865 
999	 0.178295872732753 
1000	 0.179647886435177 
1001	 0.18220877571625 
1002	 0.183330250116383 
1003	 0.184417281252729 
1004	 0.185505675188084 
1005	 0.186704360972552 
1006	 0.187794452938366 
1007	 0.188781394002964 
1008	 0.189783601152911 
1009	 0.190878650672063 
1010	 0.191938154466766 
1011	 0.19303266767301 
1012	 0.194151391128881 
1013	 0.195243460390681 
1014	 0.196188118300988 
1015	 0.197079639839695 
1016	 0.198072919665373 
1017	 0.199057926621077 
1018	 0.199996543406609 
1019	 0.201024413651402 
1020	 0.202134721948655 
1021	 0.203179033082378 
1022	 0.204225946064695 
1023	 0.205214114210623 
1024	 0.206165921175497 
1025	 0.207127929678095 
1026	 0.208036862453493 
1027	 0.208926127401018 
1028	 0.209838864263649 
1029	 0.210746521116429 
1030	 0.211659309712032 
1031	 0.2125849943482 
1032	 0.213562459753411 
1033	 0.214526914039138 
1034	 0.215413796025205 
1035	 0.216294587025363 
1036	 0.21721520900188 
1037	 0.218112968914977 
1038	 0.219035591448622 
1039	 0.219977289723665 
1040	 0.220843877315071 
1041	 0.221690497633402 
1042	 0.222560045730487 
1043	 0.22343614570351 
1044	 0.224325893926868 
1045	 0.225236904593472 
1046	 0.226169097076283 
1047	 0.227076316011146 
1048	 0.227956025315732 
1049	 0.228821608788717 
1050	 0.22965496842713 
1051	 0.230529566955543 
1052	 0.231476515142423 
1053	 0.232400661551168 
1054	 0.233279233272633 
1055	 0.234126248332111 
1056	 0.234980849014987 
1057	 0.235827827917919 
1058	 0.236674988922419 
1059	 0.237501545904539 
1060	 0.238349477528845 
1061	 0.239105218608392 
1062	 0.23981454568418 
1063	 0.240589025607051 
1064	 0.241397683648073 
1065	 0.242224061613768 
1066	 0.243074022803942 
1067	 0.243877378745989 
1068	 0.244688819267721 
1069	 0.245487065351544 
1070	 0.246253903359945 
1071	 0.246984945714151 
1072	 0.247770062320134 
1073	 0.24855629862312 
1074	 0.24931585838071 
1075	 0.250092139871766 
1076	 0.25083978178399 
1077	 0.251578529514585 
1078	 0.252284187734658 
1079	 0.253008599766969 
1080	 0.253765926905425 
1081	 0.254490666614273 
1082	 0.255222765841883 
1083	 0.255940782677042 
1084	 0.256638487767698 
1085	 0.257365106529374 
1086	 0.258088627457776 
1087	 0.258817165227637 
1088	 0.259567522542463 
1089	 0.260296176628704 
1090	 0.261048843406895 
1091	 0.261810563421451 
1092	 0.262548591587664 
1093	 0.263359642826371 
1094	 0.264140016595441 
1095	 0.264864532602006 
1096	 0.265615856295622 
1097	 0.266382685993961 
1098	 0.267192780820129 
1099	 0.268045998223628 
1100	 0.268886152359751 
1101	 0.269763965107617 
1102	 0.270616656865546 
1103	 0.271456589457148 
1104	 0.272286479067105 
1105	 0.273104687619337 
1106	 0.27397531407932 
1107	 0.274879826072758 
1108	 0.275796436872393 
1109	 0.276748631536997 
1110	 0.277685259023907 
1111	 0.27858863282572 
1112	 0.279425456638447 
1113	 0.280340719900318 
1114	 0.281265942247582 
1115	 0.282215530224127 
1116	 0.283228711562763 
1117	 0.284207528747448 
1118	 0.285175879322818 
1119	 0.286146638200345 
1120	 0.287129854610301 
1121	 0.288118190954849 
1122	 0.289105907301716 
1123	 0.290102629359412 
1124	 0.291109963643142 
1125	 0.292120972458935 
1126	 0.293134660725571 
1127	 0.294163715522601 
1128	 0.29517902068977 
1129	 0.296188351713475 
1130	 0.297195230000846 
1131	 0.298199514289291 
1132	 0.299212339796285 
1133	 0.300227338551425 
1134	 0.301231651069532 
1135	 0.302251353495894 
1136	 0.303235008326532 
1137	 0.304199576481223 
1138	 0.305169397387761 
1139	 0.306152482190955 
1140	 0.307139043417889 
1141	 0.308127903629656 
1142	 0.30914179071875 
1143	 0.310120461211917 
1144	 0.311078375697943 
1145	 0.312034296499574 
1146	 0.312978494123988 
1147	 0.313919259540529 
1148	 0.314861689970535 
1149	 0.315792935006419 
1150	 0.316720742818738 
1151	 0.317626466137793 
1152	 0.318529998683388 
1153	 0.319423878710674 
1154	 0.320310980612068 
1155	 0.321196549754277 
1156	 0.322058957733704 
1157	 0.322906403794575 
1158	 0.323750056630404 
1159	 0.324575511997697 
1160	 0.325404270095432 
1161	 0.326237787109086 
1162	 0.327055348304606 
1163	 0.327872833988538 
1164	 0.328670995137343 
1165	 0.329446911979275 
1166	 0.330229480604931 
1167	 0.331013742860447 
1168	 0.331769960684247 
1169	 0.332517851448507 
1170	 0.333260976809443 
1171	 0.333993247105596 
1172	 0.334703768482195 
1173	 0.335416330722167 
1174	 0.336129970474503 
1175	 0.336834789637711 
1176	 0.337538997275553 
1177	 0.338226629994603 
1178	 0.338905582556139 
1179	 0.339574170292466 
1180	 0.340231819814853 
1181	 0.340874234599731 
1182	 0.341495690060438 
1183	 0.342128263728934 
1184	 0.342753611787768 
1185	 0.343372939910662 
1186	 0.343978509606953 
1187	 0.344583708762755 
1188	 0.345179266556409 
1189	 0.345757638915207 
1190	 0.346333911813038 
1191	 0.346917995114729 
1192	 0.347478870714512 
1193	 0.34802465404247 
1194	 0.348559228980442 
1195	 0.349070416159285 
1196	 0.349589292012648 
1197	 0.350100575318115 
1198	 0.350612071293263 
1199	 0.351123892378642 
1200	 0.351648535075739 
1201	 0.352142294452114 
1202	 0.35262424819928 
1203	 0.353098812845011 
1204	 0.353557071810503 
1205	 0.354011641970099 
1206	 0.354463414703942 
1207	 0.354903703201205 
1208	 0.355329427583407 
1209	 0.355755384314968 
1210	 0.35617649883525 
1211	 0.356593008603474 
1212	 0.357020639197558 
1213	 0.357418681023346 
1214	 0.357793671356097 
1215	 0.358168752831834 
1216	 0.358533630428658 
1217	 0.358873753879441 
1218	 0.359230519071539 
1219	 0.359600379191488 
1220	 0.359945482007302 
1221	 0.360284304339744 
1222	 0.360612123591933 
1223	 0.36091849259622 
1224	 0.361234801943097 
1225	 0.361553144842544 
1226	 0.361862070816735 
1227	 0.362174204299048 
1228	 0.362472643894589 
1229	 0.362749351973164 
1230	 0.363037665848182 
1231	 0.363337896471725 
1232	 0.363617883125559 
1233	 0.363890196879566 
1234	 0.364163368235653 
1235	 0.36442284066836 
1236	 0.364651202659683 
1237	 0.364913048706305 
1238	 0.365204959684337 
1239	 0.365450836282331 
1240	 0.365689421909152 
1241	 0.365918414526849 
1242	 0.366100399683895 
1243	 0.366316266363061 
1244	 0.366558773520511 
1245	 0.366782522956161 
1246	 0.367008014908848 
1247	 0.367225055195828 
1248	 0.367429656099126 
1249	 0.367635676032865 
1250	 0.367831598006381 
1251	 0.368028097271011 
1252	 0.368203226817965 
1253	 0.368365128688527 
1254	 0.368516883776397 
1255	 0.368635838811229 
1256	 0.368792110268359 
1257	 0.368956912967987 
1258	 0.369120318947011 
1259	 0.369310443364059 
1260	 0.36948038010653 
1261	 0.369646623715016 
1262	 0.369793004612908 
1263	 0.369923784474591 
1264	 0.370053757165342 
1265	 0.370160893351652 
1266	 0.370277060850034 
1267	 0.370396411086743 
1268	 0.370516020036863 
1269	 0.370645547089107 
1270	 0.370775233233529 
1271	 0.370918262637328 
1272	 0.371065281276004 
1273	 0.371236923060669 
1274	 0.371432876029252 
1275	 0.371615326693445 
1276	 0.371812433759436 
1277	 0.372006976240949 
1278	 0.37218189751017 
1279	 0.372378370602607 
1280	 0.372608398209141 
1281	 0.372812200651721 
1282	 0.37302077570792 
1283	 0.373211828202683 
1284	 0.373398886801421 
1285	 0.373555155760163 
1286	 0.373670369195722 
1287	 0.373777683402558 
1288	 0.373874418921215 
1289	 0.373939573028378 
1290	 0.37400343983877 
1291	 0.374067752559607 
1292	 0.374112530800304 
1293	 0.374149541032693 
1294	 0.374145372553811 
1295	 0.374124344454122 
1296	 0.374079780273323 
1297	 0.373970119666269 
1298	 0.3738948670021 
1299	 0.373836551874703 
1300	 0.373750317543955 
1301	 0.373665175907745 
1302	 0.373558671975731 
1303	 0.373419559471467 
1304	 0.37328112714817 
1305	 0.373152774583995 
1306	 0.37300960894183 
1307	 0.372856927533807 
1308	 0.372693710514046 
1309	 0.372528922587166 
1310	 0.372332109370824 
1311	 0.372192539103568 
1312	 0.37207581955444 
1313	 0.371959148480807 
1314	 0.371871642121243 
1315	 0.371775455118133 
1316	 0.371654758586305 
1317	 0.371588689281149 
1318	 0.37156992267862 
1319	 0.371522556690427 
1320	 0.371491060931684 
1321	 0.371458664792905 
1322	 0.371398158717215 
1323	 0.371357065007573 
1324	 0.37137938982622 
1325	 0.371423046528548 
1326	 0.371475381025613 
1327	 0.371548122557643 
1328	 0.371614574087158 
1329	 0.371676964714056 
1330	 0.371760067306452 
1331	 0.371852026537722 
1332	 0.371965772238298 
1333	 0.372097109407254 
1334	 0.372234656487278 
1335	 0.372386123551588 
1336	 0.372555569356132 
1337	 0.372732973198439 
1338	 0.372919084040202 
1339	 0.373135718548669 
1340	 0.37333547280446 
1341	 0.373535498740979 
1342	 0.37373786775141 
1343	 0.373949769070486 
1344	 0.374131014616352 
1345	 0.374327009017325 
1346	 0.374523635642315 
1347	 0.374713253157974 
1348	 0.374909714948396 
1349	 0.375098476753143 
1350	 0.375276897253575 
1351	 0.375461323333024 
1352	 0.375640230841658 
1353	 0.375833208864482 
1354	 0.376038015798046 
1355	 0.376230444646427 
1356	 0.37642651621471 
1357	 0.376613730240723 
1358	 0.376790601299325 
1359	 0.376974896120168 
1360	 0.377142853206474 
1361	 0.377341415263249 
1362	 0.37757205659556 
1363	 0.3777727662436 
1364	 0.377983417935439 
1365	 0.378183465101179 
1366	 0.378353507342896 
1367	 0.37853182241716 
1368	 0.378737648073678 
1369	 0.378920221474907 
1370	 0.37909491640186 
1371	 0.379253595886995 
1372	 0.379364238123798 
1373	 0.37946942954163 
1374	 0.379559632901549 
1375	 0.37962731637518 
1376	 0.379680882098366 
1377	 0.379735188053167 
1378	 0.379749155475236 
1379	 0.379725694821693 
1380	 0.379710228714748 
1381	 0.379670720867833 
1382	 0.379632512614633 
1383	 0.379608952517893 
1384	 0.379549296079172 
1385	 0.379484482402974 
1386	 0.379380271145444 
1387	 0.379244796481111 
1388	 0.379084061711287 
1389	 0.378905319715298 
1390	 0.378679561699353 
1391	 0.378423349357358 
1392	 0.378133668427157 
1393	 0.377781331636063 
1394	 0.377421050298938 
1395	 0.377022088362627 
1396	 0.376590726189491 
1397	 0.37614625063786 
1398	 0.37567184516243 
1399	 0.375189620761105 
1400	 0.374699516139373 
1401	 0.374178316420639 
1402	 0.373637088177073 
1403	 0.373078380832663 
1404	 0.37247148263897 
1405	 0.371903313282292 
1406	 0.371343287874208 
1407	 0.370773189128263 
1408	 0.370213608748359 
1409	 0.369643601045676 
1410	 0.369042093458553 
1411	 0.368478085354141 
1412	 0.367912293725284 
1413	 0.367389020617707 
1414	 0.366925562884983 
1415	 0.366461275936723 
1416	 0.366013463696561 
1417	 0.365588341760829 
1418	 0.365149559660979 
1419	 0.364728887932776 
1420	 0.364361130161676 
1421	 0.364014018614854 
1422	 0.363684304714607 
1423	 0.363373500505435 
1424	 0.363070355682533 
1425	 0.362774763597165 
1426	 0.362502094098613 
1427	 0.36224013782144 
1428	 0.362003573702485 
1429	 0.361789923624739 
1430	 0.3615901586539 
1431	 0.361414567673517 
1432	 0.361244995403289 
1433	 0.361088970591871 
1434	 0.360941731565495 
1435	 0.360800544836602 
1436	 0.360681371177334 
1437	 0.36058274197438 
1438	 0.360482595079032 
1439	 0.360401622152516 
1440	 0.360315568229355 
1441	 0.360210375237574 
1442	 0.360124813136305 
1443	 0.360029387210367 
1444	 0.359937256179977 
1445	 0.359888892593551 
1446	 0.359846122758771 
1447	 0.359812950921483 
1448	 0.359789619234396 
1449	 0.359746410686732 
1450	 0.359722005766003 
1451	 0.359724651087188 
1452	 0.359741260174764 
1453	 0.359791019100307 
1454	 0.359875623367519 
1455	 0.359959224413037 
1456	 0.360073646902473 
1457	 0.360176038941893 
1458	 0.360279052531934 
1459	 0.360385855554508 
1460	 0.360501645899607 
1461	 0.360604238551286 
1462	 0.360710338706326 
1463	 0.360802559629315 
1464	 0.360879309417881 
1465	 0.360953556678516 
1466	 0.361013367500558 
1467	 0.361091669243638 
1468	 0.36116942306785 
1469	 0.361253057354609 
1470	 0.36135615198493 
1471	 0.361441822392853 
1472	 0.361525799113432 
1473	 0.361643893794135 
1474	 0.361755605087389 
1475	 0.361858725933134 
1476	 0.361967501743256 
1477	 0.362074011673894 
1478	 0.362203237495082 
1479	 0.362328166300898 
1480	 0.362446223407191 
1481	 0.362582340982849 
1482	 0.362703708401045 
1483	 0.362808299135002 
1484	 0.362940086263861 
1485	 0.363079201857579 
1486	 0.363218159353356 
1487	 0.363371796575936 
1488	 0.363521665112849 
1489	 0.363672535103793 
1490	 0.363817394061936 
1491	 0.363968501326392 
1492	 0.364109262858762 
1493	 0.364236954333579 
1494	 0.364367492178804 
1495	 0.364494346382061 
1496	 0.364624930441755 
1497	 0.364756879438591 
1498	 0.364888040577172 
1499	 0.365026280672885 
1500	 0.365150715283914 
1501	 0.365263885107703 
1502	 0.365379206686426 
1503	 0.365480568221512 
1504	 0.365599712393341 
1505	 0.365728582437753 
1506	 0.365863298264064 
1507	 0.366003102735572 
1508	 0.366126467416227 
1509	 0.366233365585787 
1510	 0.366331022288011 
1511	 0.366415290676134 
1512	 0.366507604300461 
1513	 0.366613418038474 
1514	 0.366710222646761 
1515	 0.366821809271698 
1516	 0.366921029211799 
1517	 0.366998623068551 
1518	 0.367056185814519 
1519	 0.367126506773875 
1520	 0.367179895617923 
1521	 0.367246274813206 
1522	 0.367320559430761 
1523	 0.367396027841419 
1524	 0.367474480252715 
1525	 0.367553249447762 
1526	 0.367637677476559 
1527	 0.367720626014581 
1528	 0.367793990670328 
1529	 0.367882810293404 
1530	 0.367990409836444 
1531	 0.368084701367374 
1532	 0.368177895624439 
1533	 0.368270381680714 
1534	 0.368361899213375 
1535	 0.368442181699794 
1536	 0.368519826770583 
1537	 0.36859557534855 
1538	 0.368648439820753 
1539	 0.368720161841875 
1540	 0.368814465091644 
1541	 0.36888823918028 
1542	 0.368964721982633 
1543	 0.369032755454678 
1544	 0.369081879369479 
1545	 0.369130850388622 
1546	 0.369174605113633 
1547	 0.369214829818167 
1548	 0.36926734984398 
1549	 0.369333917468907 
1550	 0.369413836514108 
1551	 0.369481178044024 
1552	 0.369542324517341 
1553	 0.369592622223858 
1554	 0.36964153324201 
1555	 0.369702665887229 
1556	 0.369768708210081 
1557	 0.369823672413416 
1558	 0.369868424552072 
1559	 0.369932654272796 
1560	 0.369988618760674 
1561	 0.370037188161239 
1562	 0.37009384588513 
1563	 0.370147508882371 
1564	 0.370218348935903 
1565	 0.370299900228661 
1566	 0.370387482237412 
1567	 0.370498328056666 
1568	 0.370584368857108 
1569	 0.37066211527158 
1570	 0.370733030604124 
1571	 0.370799253869879 
1572	 0.370856094163479 
1573	 0.37090820888025 
1574	 0.370949324076277 
1575	 0.37096159880267 
1576	 0.371000530097532 
1577	 0.371053741962146 
1578	 0.371087454572346 
1579	 0.371130676177825 
1580	 0.371160850630847 
1581	 0.37116667425717 
1582	 0.371181697007703 
1583	 0.371189149120177 
1584	 0.371214939606483 
1585	 0.371236874010866 
1586	 0.371282787100033 
1587	 0.371362289633236 
1588	 0.371428537050453 
1589	 0.37151511006933 
1590	 0.37157303832649 
1591	 0.37162206286105 
1592	 0.371654839153791 
1593	 0.371651597756868 
1594	 0.371668973965568 
1595	 0.371671385973316 
1596	 0.371697541789046 
1597	 0.371746669139633 
1598	 0.37179608368556 
1599	 0.371877008248611 
1600	 0.371929561057661 
1601	 0.371969203509656 
1602	 0.372004992999965 
1603	 0.372023833102476 
1604	 0.372038409451197 
1605	 0.372041768662135 
1606	 0.37205651494349 
1607	 0.372081486447268 
1608	 0.372083277630277 
1609	 0.372093786455479 
1610	 0.372113711465467 
1611	 0.372104225007534 
1612	 0.372107211824454 
1613	 0.372111225283544 
1614	 0.372098247164841 
1615	 0.372103434484056 
1616	 0.372109868699459 
1617	 0.372131632618777 
1618	 0.372169159455435 
1619	 0.372187190627551 
1620	 0.372202791875384 
1621	 0.37220712100548 
1622	 0.37218925160366 
1623	 0.372200408829403 
1624	 0.372220592398023 
1625	 0.372232301357806 
1626	 0.372250930914838 
1627	 0.372269660600315 
1628	 0.372286053628219 
1629	 0.372293002995861 
1630	 0.37230935197188 
1631	 0.3723029445059 
1632	 0.372268176051012 
1633	 0.372256161318865 
1634	 0.372245584043818 
1635	 0.372238850566729 
1636	 0.372241450164215 
1637	 0.372236706359486 
1638	 0.372229257103995 
1639	 0.372223703461449 
1640	 0.372212594236028 
1641	 0.372216955408284 
1642	 0.372231266764414 
1643	 0.372239594748453 
1644	 0.372252973598209 
1645	 0.372268099687892 
1646	 0.372284056550504 
1647	 0.372291615812606 
1648	 0.372309057319775 
1649	 0.372304114290893 
1650	 0.372274958735429 
1651	 0.372260402601514 
1652	 0.372250059031557 
1653	 0.372221423048585 
1654	 0.372183423225918 
1655	 0.372154198584641 
1656	 0.372110180231671 
1657	 0.372080884242157 
1658	 0.372075124501469 
1659	 0.372046387137456 
1660	 0.372008549867402 
1661	 0.37196919550381 
1662	 0.371913449404944 
1663	 0.371878212569741 
1664	 0.371839605071813 
1665	 0.371827122582948 
1666	 0.37183913751932 
1667	 0.371847632941092 
1668	 0.37188206440388 
1669	 0.371887619569732 
1670	 0.371884859546568 
1671	 0.371873801418916 
1672	 0.371834462618352 
1673	 0.371824067225366 
1674	 0.371821823764116 
1675	 0.371821103566953 
1676	 0.371843435388838 
1677	 0.371841524679469 
1678	 0.371827643159378 
1679	 0.371814016342632 
1680	 0.371799293362031 
1681	 0.371766797288103 
1682	 0.371715414899294 
1683	 0.37168083978592 
1684	 0.37163194047267 
1685	 0.371603621905723 
1686	 0.371594002100527 
1687	 0.371589993760475 
1688	 0.371605654748594 
1689	 0.3715978913265 
1690	 0.371587388321082 
1691	 0.371579549981949 
1692	 0.371556815737961 
1693	 0.371537642607094 
1694	 0.37153039361399 
1695	 0.37151503220643 
1696	 0.371486493345068 
1697	 0.371466511963628 
1698	 0.371442765471658 
1699	 0.371439878897851 
1700	 0.371453634981407 
1701	 0.371453446699714 
1702	 0.371480070712535 
1703	 0.371461107841305 
1704	 0.371406906678753 
1705	 0.37136068986604 
1706	 0.371298166573245 
1707	 0.371236427945097 
1708	 0.37117375442377 
1709	 0.371103417986293 
1710	 0.370995953901818 
1711	 0.370954749457959 
1712	 0.37095041826141 
1713	 0.370933863008461 
1714	 0.370967794499819 
1715	 0.370950815541423 
1716	 0.3708785435233 
1717	 0.370861389827134 
1718	 0.370868690823047 
1719	 0.370848935942255 
1720	 0.370845017633803 
1721	 0.370827756530559 
1722	 0.370774951624766 
1723	 0.370749225870568 
1724	 0.370747169062589 
1725	 0.370722908839909 
1726	 0.370683788026363 
1727	 0.370667681602176 
1728	 0.370667804336213 
1729	 0.370639098952014 
1730	 0.370624870381791 
1731	 0.370559018005201 
1732	 0.370452042140588 
1733	 0.370340451866723 
1734	 0.370194580721055 
1735	 0.370074126326606 
1736	 0.369943145063185 
1737	 0.369832093506457 
1738	 0.369738738403814 
1739	 0.369644956873141 
1740	 0.369547159353251 
1741	 0.369479425564853 
1742	 0.369438819585939 
1743	 0.369382998882946 
1744	 0.369339674483368 
1745	 0.369281717885027 
1746	 0.369205263468579 
1747	 0.369130196685652 
1748	 0.369097716087769 
1749	 0.369094398301347 
1750	 0.369072360073861 
1751	 0.369037364122961 
1752	 0.368983263506246 
1753	 0.36890485727512 
1754	 0.368815031619669 
1755	 0.368750584080486 
1756	 0.36870715419077 
1757	 0.368653373305162 
1758	 0.368610306933116 
1759	 0.368551498193986 
1760	 0.368476791220281 
1761	 0.368424740654589 
1762	 0.368336837212535 
1763	 0.368224712809111 
1764	 0.36814900123163 
1765	 0.36806245313088 
1766	 0.36799329219674 
1767	 0.367974867166383 
1768	 0.367932401943058 
1769	 0.367881999455091 
1770	 0.367858342456205 
1771	 0.367835791430643 
1772	 0.367801459740559 
1773	 0.367761909993524 
1774	 0.367706893559383 
1775	 0.367614708879361 
1776	 0.367542289740991 
1777	 0.367515751199805 
1778	 0.367512513137414 
1779	 0.36755271401958 
1780	 0.367590933170313 
1781	 0.367585171828187 
1782	 0.367548161058123 
1783	 0.367461475860968 
1784	 0.367413285813218 
1785	 0.367390214426171 
1786	 0.367348304364863 
1787	 0.367291794326 
1788	 0.36726454007031 
1789	 0.367241048218433 
1790	 0.367225368627557 
1791	 0.367247874124133 
1792	 0.367253563941649 
1793	 0.367259200540297 
1794	 0.367242322700002 
1795	 0.367207894175852 
1796	 0.367178428488769 
1797	 0.367106489970222 
1798	 0.367098014851712 
1799	 0.367134617965245 
1800	 0.367169480992481 
1801	 0.36008680525549 
1802	 0.360195608601465 
1803	 0.360333143516966 
1804	 0.360492557493664 
1805	 0.360668088975038 
1806	 0.360853414557404 
1807	 0.361024842820165 
1808	 0.361159258581873 
1809	 0.361276506563327 
1810	 0.361364944827659 
1811	 0.361425657873046 
1812	 0.361458163301203 
1813	 0.36148317224421 
1814	 0.361483941885314 
1815	 0.361471484937837 
1816	 0.361471626065353 
1817	 0.361494157890242 
1818	 0.3615233765622 
1819	 0.3615616883307 
1820	 0.361626084805818 
1821	 0.361687618598959 
1822	 0.361718218071854 
1823	 0.361748754474553 
1824	 0.361751981845513 
1825	 0.361759910633195 
1826	 0.361785928909149 
1827	 0.361792717522577 
1828	 0.361801432638108 
1829	 0.361821741228603 
1830	 0.361809448709039 
1831	 0.361771743263146 
1832	 0.361760353949826 
1833	 0.361716580297289 
1834	 0.361669000054223 
1835	 0.361623709228767 
1836	 0.361589715907734 
1837	 0.361557482877384 
1838	 0.361545067251783 
1839	 0.361556706336669 
1840	 0.361615483435525 
1841	 0.3616201837534 
1842	 0.361626796740163 
1843	 0.361653706680118 
1844	 0.361621916400403 
1845	 0.361590951740282 
1846	 0.361582502793901 
1847	 0.36155074435465 
1848	 0.361502714065056 
1849	 0.361477617380951 
1850	 0.361463266178586 
1851	 0.361457904975856 
1852	 0.361438534418502 
1853	 0.361423442033511 
1854	 0.361421615875226 
1855	 0.361396090246109 
1856	 0.361346808235698 
1857	 0.36129518164441 
1858	 0.361202359047388 
1859	 0.361047881936446 
1860	 0.360874787901849 
1861	 0.360669293708192 
1862	 0.360441790797206 
1863	 0.360194974043596 
1864	 0.359959797187944 
1865	 0.359712164015693 
1866	 0.359435541148346 
1867	 0.359143027525709 
1868	 0.358832926965677 
1869	 0.358525951378965 
1870	 0.358202597333072 
1871	 0.357865875512862 
1872	 0.357520627657726 
1873	 0.357182274160632 
1874	 0.356811806230472 
1875	 0.356424963673377 
1876	 0.355990455496092 
1877	 0.355483861507693 
1878	 0.354917824985008 
1879	 0.354291124481146 
1880	 0.353626799347067 
1881	 0.35293317647764 
1882	 0.352178369818067 
1883	 0.351382166657438 
1884	 0.350496562533101 
1885	 0.349567747997629 
1886	 0.348540666044319 
1887	 0.347423047928204 
1888	 0.346299821313175 
1889	 0.345082518170038 
1890	 0.343809088518808 
1891	 0.342492807709922 
1892	 0.341108650818124 
1893	 0.339670730010942 
1894	 0.33818712709721 
1895	 0.336652831364639 
1896	 0.335049928903798 
1897	 0.33343235264523 
1898	 0.331752533363294 
1899	 0.330076932377704 
1900	 0.328415163205381 
1901	 0.326717031494678 
1902	 0.325091935147172 
1903	 0.323529216644062 
1904	 0.321970844334196 
1905	 0.32041558482493 
1906	 0.318950657363832 
1907	 0.317506859369998 
1908	 0.316088461123074 
1909	 0.314771215685084 
1910	 0.313485298456489 
1911	 0.312262433820229 
1912	 0.311104764458819 
1913	 0.309992232584217 
1914	 0.308919050752706 
1915	 0.307923631313137 
1916	 0.30698555375166 
1917	 0.306107023673922 
1918	 0.305304813935849 
1919	 0.304565862882862 
1920	 0.303911697935381 
1921	 0.303320525898771 
1922	 0.302758789382918 
1923	 0.302266146110577 
1924	 0.301823728556834 
1925	 0.301416263074212 
1926	 0.301076439532054 
1927	 0.300810743343195 
1928	 0.30058772824983 
1929	 0.30038782201953 
1930	 0.300238167002182 
1931	 0.300123916862802 
1932	 0.300041541307105 
1933	 0.299989864667337 
1934	 0.299957506026923 
1935	 0.299944844005428 
1936	 0.29994075789918 
1937	 0.299968501056763 
1938	 0.300028181888263 
1939	 0.300104482014056 
1940	 0.300193250488822 
1941	 0.300316176657984 
1942	 0.300476079572876 
1943	 0.300675609012475 
1944	 0.30090573094801 
1945	 0.30117158421872 
1946	 0.301429791788085 
1947	 0.301690273814785 
1948	 0.301971090355704 
1949	 0.302276086028031 
1950	 0.302570039775375 
1951	 0.302868816494102 
1952	 0.303183904822884 
1953	 0.303488536564929 
1954	 0.303803723144117 
1955	 0.304116355276915 
1956	 0.304422971581153 
1957	 0.304745147878146 
1958	 0.305060122788807 
1959	 0.305393070355655 
1960	 0.305742089162469 
1961	 0.30610256462113 
1962	 0.30648350944884 
1963	 0.306857057450875 
1964	 0.307240172626841 
1965	 0.307632767567248 
1966	 0.307997814488834 
1967	 0.308347489600584 
1968	 0.308710377728839 
1969	 0.309054944335541 
1970	 0.309433433228838 
1971	 0.309845557032538 
1972	 0.310233288600361 
1973	 0.310624742744279 
1974	 0.311021003290642 
1975	 0.311400929354884 
1976	 0.311792376602223 
1977	 0.312236504061062 
1978	 0.312651250315569 
1979	 0.313047163486482 
1980	 0.313459354976993 
1981	 0.313875597211921 
1982	 0.314283533674165 
1983	 0.314694552571584 
1984	 0.315121785744964 
1985	 0.315542475046594 
1986	 0.315949798451103 
1987	 0.316361680430318 
1988	 0.31677249417493 
1989	 0.317211475393183 
1990	 0.317631832009173 
1991	 0.318036741596888 
1992	 0.31845013587759 
1993	 0.318866884719118 
1994	 0.319281597111991 
1995	 0.319693757312976 
1996	 0.320108098532568 
1997	 0.32052103484116 
1998	 0.320941923632339 
1999	 0.321364857612398 
2000	 0.321791583067616 
2001	 0.322239831045763 
2002	 0.322666933842049 
2003	 0.323084803696642 
2004	 0.323495887829736 
2005	 0.323892336971921 
2006	 0.324268811892908 
2007	 0.324651536461728 
2008	 0.325018784888114 
2009	 0.325398396975585 
2010	 0.325788773849483 
2011	 0.326167539244893 
2012	 0.326544558394002 
2013	 0.32692170063829 
2014	 0.327286909092526 
2015	 0.327652481008877 
2016	 0.328038810098019 
2017	 0.328443505794413 
2018	 0.328857642139472 
2019	 0.329314630931993 
2020	 0.329717715148148 
2021	 0.330107518436331 
2022	 0.330494393370215 
2023	 0.330848610733258 
2024	 0.331218126728987 
2025	 0.331589965164192 
2026	 0.331967748081718 
2027	 0.332356945733641 
2028	 0.33273058124531 
2029	 0.333099089848388 
2030	 0.333474967155291 
2031	 0.333832209042488 
2032	 0.334158762365462 
2033	 0.334517470833065 
2034	 0.334880765535756 
2035	 0.335253823816801 
2036	 0.335657749717102 
2037	 0.336029961351993 
2038	 0.336408540816018 
2039	 0.33675690726299 
2040	 0.337068732728689 
2041	 0.337392934083596 
2042	 0.33769442686745 
2043	 0.33798146259389 
2044	 0.338257364316115 
2045	 0.338511844203955 
2046	 0.338781416426244 
2047	 0.339034767221461 
2048	 0.339311103124485 
2049	 0.339620834257064 
2050	 0.339898144792869 
2051	 0.340165687266195 
2052	 0.340433606514868 
2053	 0.340673438209887 
2054	 0.340935182027214 
2055	 0.341213855889333 
2056	 0.341495766421318 
2057	 0.341763334384175 
2058	 0.342038691481592 
2059	 0.342290879413432 
2060	 0.342525132126111 
2061	 0.342755358987289 
2062	 0.342962044281601 
2063	 0.343191805321572 
2064	 0.343426739522179 
2065	 0.343658745630278 
2066	 0.343903205720018 
2067	 0.344141286166988 
2068	 0.344385845880923 
2069	 0.344601825444646 
2070	 0.344823030473434 
2071	 0.345038472722324 
2072	 0.34526969239982 
2073	 0.345499880300694 
2074	 0.345732155291866 
2075	 0.345971419681608 
2076	 0.346219516978409 
2077	 0.346478766028137 
2078	 0.346717542153356 
2079	 0.346956896557092 
2080	 0.34719975880074 
2081	 0.347430158171497 
2082	 0.347656888718315 
2083	 0.347891415384888 
2084	 0.348125776170116 
2085	 0.348349705946052 
2086	 0.348549690291591 
2087	 0.348771238984538 
2088	 0.348996941444912 
2089	 0.349233586299741 
2090	 0.349486504541871 
2091	 0.349725039594046 
2092	 0.349974627284143 
2093	 0.350206713905043 
2094	 0.350417751309664 
2095	 0.350635677663515 
2096	 0.350848211496895 
2097	 0.351063795715819 
2098	 0.35129148770061 
2099	 0.351496233070054 
2100	 0.35171438867586 
2101	 0.351939096069444 
2102	 0.352152506569512 
2103	 0.352356571267498 
2104	 0.352576684474756 
2105	 0.352780794342296 
2106	 0.353021630702371 
2107	 0.353298049780734 
2108	 0.35356171134976 
2109	 0.353848562938715 
2110	 0.354118954557478 
2111	 0.354378529093375 
2112	 0.354635952244523 
2113	 0.354895119964413 
2114	 0.355147464736845 
2115	 0.355374682433061 
2116	 0.355582570493461 
2117	 0.355800453435722 
2118	 0.355994166660508 
2119	 0.356214198816001 
2120	 0.356455124858392 
2121	 0.356684850196366 
2122	 0.356921927867064 
2123	 0.35714464010919 
2124	 0.35735506277542 
2125	 0.357573565701026 
2126	 0.357802896936492 
2127	 0.358006797372995 
2128	 0.358209255317502 
2129	 0.358395612580432 
2130	 0.358560815623067 
2131	 0.358711109192987 
2132	 0.358845596980327 
2133	 0.358965476982125 
2134	 0.359081676031137 
2135	 0.359189021095328 
2136	 0.359268050249763 
2137	 0.359334971894265 
2138	 0.359390840840831 
2139	 0.359417258406937 
2140	 0.359437159232489 
2141	 0.359458748063999 
2142	 0.359457194679193 
2143	 0.359427630017575 
2144	 0.359394388544161 
2145	 0.359351182399245 
2146	 0.359297521854284 
2147	 0.359242314310586 
2148	 0.359163308177729 
2149	 0.359059369431211 
2150	 0.358934075847739 
2151	 0.358800927026324 
2152	 0.358621445406802 
2153	 0.358486361135764 
2154	 0.358362494238946 
2155	 0.358242387425045 
2156	 0.358159938686705 
2157	 0.358034102454498 
2158	 0.357898236851745 
2159	 0.357741446144778 
2160	 0.357548209772245 
2161	 0.35736239722797 
2162	 0.357164153657298 
2163	 0.356970545937164 
2164	 0.356801399772191 
2165	 0.356586933660052 
2166	 0.356369295691107 
2167	 0.356132947327017 
2168	 0.355912950895426 
2169	 0.355673133480576 
2170	 0.35546487914003 
2171	 0.355291550606102 
2172	 0.355090101000545 
2173	 0.35488777765825 
2174	 0.354677043769339 
2175	 0.354453275416976 
2176	 0.354230801911614 
2177	 0.353994270429761 
2178	 0.353776466921086 
2179	 0.35354919272346 
2180	 0.353350948459809 
2181	 0.353185662034695 
2182	 0.353017369680166 
2183	 0.352872699184708 
2184	 0.352722202344414 
2185	 0.352550620751738 
2186	 0.352359013289184 
2187	 0.352186664135663 
2188	 0.352006146856526 
2189	 0.351833525725433 
2190	 0.351692189555505 
2191	 0.35151306582077 
2192	 0.351288624082052 
2193	 0.351113116199778 
2194	 0.35092963538706 
2195	 0.350781260788098 
2196	 0.35068658280029 
2197	 0.35057844974102 
2198	 0.350475200651158 
2199	 0.350382690327257 
2200	 0.35029789465355 
2201	 0.350219657191241 
2202	 0.350154024080381 
2203	 0.350094766792636 
2204	 0.35003193883128 
2205	 0.349972481851134 
2206	 0.349908099255253 
2207	 0.349833519001269 
2208	 0.349783503521551 
2209	 0.349744317162733 
2210	 0.349703220068764 
2211	 0.349692767250792 
2212	 0.349641942780392 
2213	 0.349546680756136 
2214	 0.349498543364548 
2215	 0.349462222333751 
2216	 0.34941978046298 
2217	 0.349410980135826 
2218	 0.349379962984479 
2219	 0.349306488863044 
2220	 0.349267372088083 
2221	 0.349244230064083 
2222	 0.349229117204583 
2223	 0.349218394910385 
2224	 0.349204867397663 
2225	 0.349210089230152 
2226	 0.349236575551816 
2227	 0.34921206849295 
2228	 0.349182083463792 
2229	 0.349150334334147 
2230	 0.349068855308131 
2231	 0.349027523599861 
2232	 0.349016638584411 
2233	 0.348996653851479 
2234	 0.34897137798534 
2235	 0.348959297024625 
2236	 0.348986064628941 
2237	 0.348959283716359 
2238	 0.348899695987488 
2239	 0.348853922814656 
2240	 0.348773323211882 
2241	 0.348716976519057 
2242	 0.348691981339088 
2243	 0.348654772392939 
2244	 0.348609790228846 
2245	 0.348573443545995 
2246	 0.348534264188277 
2247	 0.348502496780787 
2248	 0.348462615757856 
2249	 0.348420615578011 
2250	 0.348377650184879 
2251	 0.348330619893421 
2252	 0.348285618569886 
2253	 0.348233163967382 
2254	 0.348206624945203 
2255	 0.348182959855549 
2256	 0.348176782531255 
2257	 0.348205570618353 
2258	 0.348215101042273 
2259	 0.348238743464009 
2260	 0.348232601386476 
2261	 0.348190979507754 
2262	 0.348180028491492 
2263	 0.348149391302515 
2264	 0.348155934634291 
2265	 0.348198111685649 
2266	 0.3482522260005 
2267	 0.348355661461107 
2268	 0.348416776389566 
2269	 0.348499054446404 
2270	 0.348519908485233 
2271	 0.348505649762666 
2272	 0.348516066577109 
2273	 0.348480329191696 
2274	 0.348421236880859 
2275	 0.348389165434794 
2276	 0.348344475571639 
2277	 0.348307345768237 
2278	 0.348295569563096 
2279	 0.348268824119139 
2280	 0.348214971559858 
2281	 0.348193767041174 
2282	 0.348205190699693 
2283	 0.348188863975485 
2284	 0.348178167073462 
2285	 0.348147043818162 
2286	 0.34809567951297 
2287	 0.348037558498751 
2288	 0.347941136118688 
2289	 0.347890623830234 
2290	 0.347860721799994 
2291	 0.347823878422613 
2292	 0.347809000915852 
2293	 0.347803849215614 
2294	 0.347790737512568 
2295	 0.347782412345958 
2296	 0.347801951708741 
2297	 0.347802686134456 
2298	 0.34782155124871 
2299	 0.347849766464586 
2300	 0.347835930971963 
2301	 0.347839407077198 
2302	 0.347824491444357 
2303	 0.347734603311409 
2304	 0.347676713327672 
2305	 0.347667050107314 
2306	 0.347616633840513 
2307	 0.347547253692853 
2308	 0.347490791168387 
2309	 0.347437406160587 
2310	 0.34735984975221 
2311	 0.347280821927852 
2312	 0.347191492206017 
2313	 0.347074263380258 
2314	 0.34695551778614 
2315	 0.346824928137607 
2316	 0.346709153450346 
2317	 0.346588170793353 
2318	 0.34648102832051 
2319	 0.346382144239102 
2320	 0.34629928301356 
2321	 0.346228371776012 
2322	 0.346164393767116 
2323	 0.346111754242201 
2324	 0.34608082655597 
2325	 0.346101360748347 
2326	 0.346055802069943 
2327	 0.346008414489057 
2328	 0.345916997927032 
2329	 0.345790762620936 
2330	 0.345644596897654 
2331	 0.345548032835306 
2332	 0.345540753068552 
2333	 0.345545071111543 
2334	 0.345500706829417 
2335	 0.345440357748456 
2336	 0.345373068733531 
2337	 0.345280512762684 
2338	 0.345222508331995 
2339	 0.345134941184997 
2340	 0.344970893175057 
2341	 0.344813685327179 
2342	 0.344650468022535 
2343	 0.344459721778903 
2344	 0.344283543227625 
2345	 0.344091124977874 
2346	 0.343842350843535 
2347	 0.343645547440826 
2348	 0.34349343828309 
2349	 0.343321797750302 
2350	 0.343179532926779 
2351	 0.342993532943644 
2352	 0.342776391985067 
2353	 0.342530434461895 
2354	 0.342226052220481 
2355	 0.341970795164704 
2356	 0.341721904424164 
2357	 0.341496168791762 
2358	 0.341312894843371 
2359	 0.341094557193345 
2360	 0.340873822167713 
2361	 0.340628827439018 
2362	 0.340359292558264 
2363	 0.340106248016045 
2364	 0.339870401484446 
2365	 0.33958433427899 
2366	 0.33925716752097 
2367	 0.338942919511339 
2368	 0.338565160505202 
2369	 0.338264148556715 
2370	 0.338000929624544 
2371	 0.337793467291482 
2372	 0.337607869728029 
2373	 0.337341963295741 
2374	 0.337064483122565 
2375	 0.336788559617504 
2376	 0.336456012673173 
2377	 0.336111741437073 
2378	 0.335771706138768 
2379	 0.335381676445065 
2380	 0.334989143133105 
2381	 0.334679526108317 
2382	 0.334367949535087 
2383	 0.334088130869019 
2384	 0.333873634851017 
2385	 0.33361845623526 
2386	 0.333294089020205 
2387	 0.332949690857218 
2388	 0.332637394189175 
2389	 0.332331755142038 
2390	 0.332057945492229 
2391	 0.331877032716691 
2392	 0.331655030851982 
2393	 0.331388499345481 
2394	 0.331185948712203 
2395	 0.330942185841748 
2396	 0.330655350075841 
2397	 0.330272138651544 
2398	 0.329858597100337 
2399	 0.329436056436002 
2400	 0.328933752888315 
2401	 0.328623419588258 
2402	 0.328317480169341 
2403	 0.327955677029775 
2404	 0.327692862134428 
2405	 0.327372292288215 
2406	 0.327041786486126 
2407	 0.326690112500714 
2408	 0.326326495466468 
2409	 0.325989657307368 
2410	 0.325641858621656 
2411	 0.325318798219694 
2412	 0.325085645857864 
2413	 0.324839602681685 
2414	 0.324517468160831 
2415	 0.324150113936794 
2416	 0.323757148177174 
2417	 0.323221836578415 
2418	 0.322818276368929 
2419	 0.322494677713108 
2420	 0.322163995220733 
2421	 0.321879252998645 
2422	 0.321564550843493 
2423	 0.321243877203223 
2424	 0.320878790528412 
2425	 0.320459186522693 
2426	 0.320099211017654 
2427	 0.319749370659164 
2428	 0.319385528358797 
2429	 0.319003328655876 
2430	 0.318767834790439 
2431	 0.318626957405318 
2432	 0.318382897238064 
2433	 0.31825035807498 
2434	 0.318017748736981 
2435	 0.317636448400609 
2436	 0.317275772442158 
2437	 0.316927664095687 
2438	 0.316494646741106 
2439	 0.315915214651676 
2440	 0.315461523050332 
2441	 0.315046609281315 
2442	 0.314724485234192 
2443	 0.314534098244392 
2444	 0.314290145771256 
2445	 0.314080262918983 
2446	 0.31380252726685 
2447	 0.3134793939231 
2448	 0.313036924938172 
2449	 0.312521478811809 
2450	 0.312064754466442 
2451	 0.311499320267291 
2452	 0.311113813710956 
2453	 0.310848579370802 
2454	 0.310540590869479 
2455	 0.31036031700729 
2456	 0.309970554376919 
2457	 0.309455264345456 
2458	 0.30906832650953 
2459	 0.308544293598277 
2460	 0.308243286027299 
2461	 0.308202341989776 
2462	 0.307942730696689 
2463	 0.307650368730627 
2464	 0.307279287817774 
2465	 0.3068412183323 
2466	 0.306436285218512 
2467	 0.305972082650663 
2468	 0.305647715340504 
2469	 0.305342406740999 
2470	 0.305031283897961 
2471	 0.304771297960489 
2472	 0.30450833162772 
2473	 0.304241435407002 
2474	 0.304125955517588 
2475	 0.304045656936605 
2476	 0.303654348385613 
2477	 0.303249408021463 
2478	 0.302782476204163 
2479	 0.30224080573878 
2480	 0.302009970708672 
2481	 0.301819035816713 
2482	 0.301695268297261 
2483	 0.301623891279129 
2484	 0.30134187148057 
2485	 0.301053820268525 
2486	 0.300634432481618 
2487	 0.300231456397965 
2488	 0.300076229348286 
2489	 0.299817430617629 
2490	 0.299582502323946 
2491	 0.299253567782342 
2492	 0.298768018346341 
2493	 0.29855175444804 
2494	 0.298288199565594 
2495	 0.29806452251605 
2496	 0.297991948975623 
2497	 0.297637194942825 
2498	 0.297303332730911 
2499	 0.297080810143773 
2500	 0.296794623573215 
