Wavelength	MM1000011.asd
350	 4.94030246561879E-02 
351	 4.88194485685791E-02 
352	 4.06395734610727E-02 
353	 3.36434099099369E-02 
354	 4.41040626573492E-02 
355	 4.94254586817128E-02 
356	 4.74880067058894E-02 
357	 4.29707046551424E-02 
358	 0.042950373900744 
359	 4.72227748076664E-02 
360	 5.15748434092613E-02 
361	 4.98100418667598E-02 
362	 0.046774311339715 
363	 4.36704125324653E-02 
364	 4.17816434467425E-02 
365	 4.31869003112716E-02 
366	 4.60413781341301E-02 
367	 4.78802451900957E-02 
368	 4.76663883034752E-02 
369	 5.09268672962444E-02 
370	 5.02729525393088E-02 
371	 4.79851101032877E-02 
372	 5.17965173680996E-02 
373	 4.85411863601965E-02 
374	 0.046141107191151 
375	 4.87605035130331E-02 
376	 4.98057735616069E-02 
377	 4.79966910037298E-02 
378	 4.61616071066092E-02 
379	 4.73481168865455E-02 
380	 4.94533691303059E-02 
381	 4.93922598848368E-02 
382	 0.048566062083549 
383	 5.11539970994413E-02 
384	 5.10722866240047E-02 
385	 4.93071687138524E-02 
386	 4.82321670578309E-02 
387	 5.10661951818819E-02 
388	 5.23949770716697E-02 
389	 5.17661460309685E-02 
390	 5.06424204907753E-02 
391	 5.08969502377778E-02 
392	 5.11149158633543E-02 
393	 5.15626241900761E-02 
394	 5.38080959823231E-02 
395	 5.47708252536064E-02 
396	 5.38371602332978E-02 
397	 0.052209181466811 
398	 5.41255508831597E-02 
399	 5.48822875434804E-02 
400	 5.45067817045354E-02 
401	 5.46857980289187E-02 
402	 5.59773769606706E-02 
403	 5.61806487176624E-02 
404	 5.50729343264276E-02 
405	 5.45285866706891E-02 
406	 5.50516723613309E-02 
407	 5.65191946476604E-02 
408	 5.80865831787804E-02 
409	 0.057475472775371 
410	 5.68935229904686E-02 
411	 5.67477493507357E-02 
412	 5.66540978966794E-02 
413	 5.73309098643061E-02 
414	 5.75797889951733E-02 
415	 0.057044069723418 
416	 5.65833221011957E-02 
417	 5.68891225573927E-02 
418	 5.73667598096534E-02 
419	 5.73291722442132E-02 
420	 5.69355281708077E-02 
421	 5.66127756782615E-02 
422	 5.68996505689206E-02 
423	 5.81496304529377E-02 
424	 5.80910514405403E-02 
425	 5.77522132251968E-02 
426	 0.057789407008482 
427	 0.057344569431326 
428	 5.71373420057195E-02 
429	 5.71794408479754E-02 
430	 5.72508630767402E-02 
431	 0.057226430668853 
432	 5.70530116566064E-02 
433	 5.69573089619715E-02 
434	 5.73809494583989E-02 
435	 5.74941383482557E-02 
436	 5.74011557234823E-02 
437	 5.72580986612653E-02 
438	 5.67185936508023E-02 
439	 5.69527072205456E-02 
440	 5.75496086202573E-02 
441	 5.74177989127853E-02 
442	 5.69897392731755E-02 
443	 5.68848144912481E-02 
444	 5.71468349643035E-02 
445	 5.69428412282028E-02 
446	 5.69951015876013E-02 
447	 5.72666418514086E-02 
448	 5.74921488104429E-02 
449	 5.73983326114552E-02 
450	 5.74652174250835E-02 
451	 5.76710689488118E-02 
452	 5.75756172159198E-02 
453	 5.74586725662803E-02 
454	 5.73936923338332E-02 
455	 5.73858317990826E-02 
456	 5.73597908462072E-02 
457	 5.73974996054344E-02 
458	 5.74964853599662E-02 
459	 5.75963037871729E-02 
460	 5.75507939914772E-02 
461	 5.73825204443515E-02 
462	 0.057195376954342 
463	 0.057176623772067 
464	 5.72360993471823E-02 
465	 5.72793641139991E-02 
466	 5.72567983039088E-02 
467	 5.73147028351897E-02 
468	 5.73309670087212E-02 
469	 5.73050638961549E-02 
470	 5.73313038698808E-02 
471	 5.73220406441122E-02 
472	 0.057187658115698 
473	 0.057006050973042 
474	 0.057304240126671 
475	 0.057206648472035 
476	 0.056997332474006 
477	 5.73278057062009E-02 
478	 5.75143764231609E-02 
479	 5.73113420538551E-02 
480	 5.69177115105005E-02 
481	 5.70702968452872E-02 
482	 5.73651610887783E-02 
483	 5.75336202153803E-02 
484	 5.74263932154678E-02 
485	 0.057218831499278 
486	 5.70293436594091E-02 
487	 5.69426883011587E-02 
488	 5.70078470423231E-02 
489	 5.72447160619154E-02 
490	 5.73464023519526E-02 
491	 0.057188941796667 
492	 5.72339970452929E-02 
493	 5.70757443864395E-02 
494	 5.68839802083565E-02 
495	 5.70097816656609E-02 
496	 5.69772712940769E-02 
497	 5.69512168309008E-02 
498	 5.70427772851813E-02 
499	 5.72024230470982E-02 
500	 5.72094095189296E-02 
501	 5.71448548317544E-02 
502	 5.71220215146678E-02 
503	 5.69208108899603E-02 
504	 5.68091444850535E-02 
505	 5.69288032326204E-02 
506	 5.72654468987571E-02 
507	 5.72496577994475E-02 
508	 0.057114528870987 
509	 5.71327174390661E-02 
510	 5.72499967412061E-02 
511	 5.72198509406643E-02 
512	 5.71034712086129E-02 
513	 5.71063963802908E-02 
514	 5.70597702474098E-02 
515	 5.70682763106444E-02 
516	 5.71696793264811E-02 
517	 0.057252255973738 
518	 5.72075455060765E-02 
519	 5.71480317043271E-02 
520	 5.72161427553487E-02 
521	 5.72713775877789E-02 
522	 5.73317133234557E-02 
523	 0.057400551308064 
524	 5.74571450638577E-02 
525	 5.74519156777104E-02 
526	 5.74010779862753E-02 
527	 0.057362466602838 
528	 5.74861778808999E-02 
529	 5.75117812460554E-02 
530	 5.74955300915243E-02 
531	 5.76658711976013E-02 
532	 5.76171616890235E-02 
533	 5.75782702920477E-02 
534	 5.77028683053014E-02 
535	 5.78183623369255E-02 
536	 5.78479783990355E-02 
537	 5.78320138936808E-02 
538	 5.78596067549754E-02 
539	 5.79366393155494E-02 
540	 5.80309098923748E-02 
541	 5.81243745907241E-02 
542	 5.82241112378658E-02 
543	 5.82663107507368E-02 
544	 5.83336113597182E-02 
545	 5.84902060217736E-02 
546	 5.85614449766738E-02 
547	 5.86180528448346E-02 
548	 5.87079226120565E-02 
549	 5.88487714147376E-02 
550	 5.89716858488038E-02 
551	 5.90823110813932E-02 
552	 5.91992303165396E-02 
553	 5.93420415036314E-02 
554	 0.059418286600296 
555	 5.95185778243902E-02 
556	 5.97976401171706E-02 
557	 0.060036164434296 
558	 6.02787752762302E-02 
559	 6.05647658169111E-02 
560	 6.08747195678542E-02 
561	 6.11400107983496E-02 
562	 6.13847294068091E-02 
563	 6.16603829794621E-02 
564	 6.19696348034236E-02 
565	 6.22097868272264E-02 
566	 6.24287176920163E-02 
567	 6.28418854833615E-02 
568	 6.32871222132562E-02 
569	 6.37402531409593E-02 
570	 6.42169924742498E-02 
571	 6.47594420683821E-02 
572	 6.53229171242758E-02 
573	 6.58957182351279E-02 
574	 6.64869549703326E-02 
575	 6.70428373994704E-02 
576	 6.76639392059436E-02 
577	 6.83586326694888E-02 
578	 6.88644340583548E-02 
579	 6.94393869840321E-02 
580	 7.01382215210528E-02 
581	 7.09166546160995E-02 
582	 7.16831005819268E-02 
583	 0.072468084913744 
584	 7.33068641052242E-02 
585	 7.42295556628741E-02 
586	 7.51560232847138E-02 
587	 7.60139733766077E-02 
588	 7.68104385418404E-02 
589	 7.78703883435126E-02 
590	 7.89129834654876E-02 
591	 7.98859214127029E-02 
592	 8.09615739262722E-02 
593	 8.20128828111535E-02 
594	 8.30901096929636E-02 
595	 8.42049644509142E-02 
596	 8.51804181725979E-02 
597	 8.61024456815486E-02 
598	 8.69882946772287E-02 
599	 8.78393622085832E-02 
600	 8.88132005796754E-02 
601	 8.97502256416376E-02 
602	 9.05656343764799E-02 
603	 9.13717522685065E-02 
604	 9.22636661919394E-02 
605	 9.31538072289994E-02 
606	 9.39302861702575E-02 
607	 0.094781896317608 
608	 9.56032164787036E-02 
609	 9.63667027417783E-02 
610	 9.71515465844187E-02 
611	 9.78844851103288E-02 
612	 9.85394800461701E-02 
613	 9.91126426287058E-02 
614	 9.96289830580802E-02 
615	 0.100151258186162 
616	 0.100670843476789 
617	 0.101135167970027 
618	 0.101666091641607 
619	 0.102147881583706 
620	 0.102520852478157 
621	 0.1029122668206 
622	 0.103319375648756 
623	 0.103697095289484 
624	 0.104003139725147 
625	 0.1043713859499 
626	 0.104701843473384 
627	 0.104980538794755 
628	 0.105330321982538 
629	 0.105662603750578 
630	 0.105955539309968 
631	 0.106215428734957 
632	 0.10648065542778 
633	 0.106733858463324 
634	 0.106983575461968 
635	 0.107258930637861 
636	 0.107547406033029 
637	 0.107833775418062 
638	 0.108102735300799 
639	 0.108336065557408 
640	 0.10859093712774 
641	 0.108876478160149 
642	 0.109175463131833 
643	 0.10947219645425 
644	 0.109777482534796 
645	 0.110074826118035 
646	 0.11030026138972 
647	 0.110613994108004 
648	 0.110961611640561 
649	 0.111259029936092 
650	 0.111589591112633 
651	 0.111925046910375 
652	 0.112256559258672 
653	 0.112594753141836 
654	 0.112937951850778 
655	 0.113281667614192 
656	 0.113626926484025 
657	 0.113984390671803 
658	 0.114386218769654 
659	 0.114811222921819 
660	 0.115213205689633 
661	 0.115583794524107 
662	 0.1159908798446 
663	 0.116432309593215 
664	 0.116791900948645 
665	 0.117238020244499 
666	 0.117743062653323 
667	 0.118234674939951 
668	 0.118708842400488 
669	 0.119182710888212 
670	 0.119681919721018 
671	 0.120231300538099 
672	 0.120772678391708 
673	 0.121283783183457 
674	 0.121776253534657 
675	 0.122320974466814 
676	 0.122909160310362 
677	 0.123527697927964 
678	 0.12415209154582 
679	 0.124711374796397 
680	 0.125318001209393 
681	 0.125988905602415 
682	 0.126597277064899 
683	 0.127282217986198 
684	 0.127959061266212 
685	 0.128561060614564 
686	 0.1293010655016 
687	 0.130056035606878 
688	 0.130774128844158 
689	 0.131463449218736 
690	 0.132181598257441 
691	 0.132899565964845 
692	 0.133621160153675 
693	 0.134456510768915 
694	 0.135225141436704 
695	 0.135958766357188 
696	 0.136752460377902 
697	 0.137576721961922 
698	 0.138380229631786 
699	 0.139171302114266 
700	 0.140019999837938 
701	 0.140860887991669 
702	 0.141699866204855 
703	 0.142550415037511 
704	 0.143406279531623 
705	 0.144239976049981 
706	 0.145086437222178 
707	 0.145992904520098 
708	 0.146831226626326 
709	 0.147625707016052 
710	 0.148434109839495 
711	 0.149341122869554 
712	 0.150152902799991 
713	 0.150929026636978 
714	 0.151764922396925 
715	 0.152592046383212 
716	 0.153398477238795 
717	 0.154200973728365 
718	 0.155030431217627 
719	 0.155839564734187 
720	 0.156581048730142 
721	 0.157269833139423 
722	 0.158042060010556 
723	 0.158780314225788 
724	 0.159482252530138 
725	 0.160171733283274 
726	 0.160789776833843 
727	 0.161393672505952 
728	 0.161990888466949 
729	 0.162538102400583 
730	 0.163060180388711 
731	 0.163567857001828 
732	 0.164059702464056 
733	 0.164515995896004 
734	 0.164919225273838 
735	 0.16529742954513 
736	 0.1656790810439 
737	 0.1659620448814 
738	 0.166252439940078 
739	 0.166545379779486 
740	 0.166705248171127 
741	 0.16688949361178 
742	 0.167059763736007 
743	 0.167165752544326 
744	 0.16724351492224 
745	 0.167273765741096 
746	 0.16727923391715 
747	 0.167288959331012 
748	 0.167235563496193 
749	 0.167109061110724 
750	 0.166953239301581 
751	 0.16686521393518 
752	 0.166672941847846 
753	 0.166441273551895 
754	 0.166235815681779 
755	 0.165955375583585 
756	 0.165646746316356 
757	 0.165332048452652 
758	 0.165013382209232 
759	 0.164640413575234 
760	 0.164264875115226 
761	 0.163905284042683 
762	 0.163527067841913 
763	 0.163046886468062 
764	 0.162554239790003 
765	 0.162119895523795 
766	 0.161630822109291 
767	 0.161129322239134 
768	 0.160614917044879 
769	 0.160072956188565 
770	 0.159547642970443 
771	 0.159017420477601 
772	 0.158463276337589 
773	 0.157878918197882 
774	 0.15731778158293 
775	 0.156767040720014 
776	 0.156207120895103 
777	 0.155647914167744 
778	 0.155067981329753 
779	 0.154485741541972 
780	 0.153930642358906 
781	 0.153385354756671 
782	 0.152787889837681 
783	 0.152159789491396 
784	 0.151609338624109 
785	 0.151069632123543 
786	 0.150521492722517 
787	 0.149958706577883 
788	 0.149377623896241 
789	 0.148829075461774 
790	 0.148295861742088 
791	 0.14774447726656 
792	 0.147215468834502 
793	 0.146648602799381 
794	 0.146072081560551 
795	 0.145581394288078 
796	 0.145046434368038 
797	 0.144518774100504 
798	 0.144031543687753 
799	 0.143531751874582 
800	 0.143043762853225 
801	 0.142565291832612 
802	 0.142086322039505 
803	 0.14159612590651 
804	 0.141132540206822 
805	 0.140680108643562 
806	 0.140201012566301 
807	 0.139767651375168 
808	 0.13935084240659 
809	 0.138923909529201 
810	 0.138478672175606 
811	 0.138063093290686 
812	 0.137669394555732 
813	 0.137283986826942 
814	 0.136918716848447 
815	 0.136545800393996 
816	 0.13617261627739 
817	 0.135812750680641 
818	 0.135420014666505 
819	 0.135075170751402 
820	 0.134772089464379 
821	 0.134432085672612 
822	 0.134109731796872 
823	 0.133819278075111 
824	 0.133549649622984 
825	 0.133259777201031 
826	 0.132961339944326 
827	 0.132665960877075 
828	 0.132387025675427 
829	 0.132137853354175 
830	 0.131911805217945 
831	 0.13169854194036 
832	 0.131483764505314 
833	 0.131240636742209 
834	 0.131022310617124 
835	 0.13083093110286 
836	 0.130619529842706 
837	 0.130421845144222 
838	 0.130259253402857 
839	 0.130108885661316 
840	 0.129876871365823 
841	 0.129694908627077 
842	 0.129606262861161 
843	 0.129583784425787 
844	 0.129481150655422 
845	 0.129334013182205 
846	 0.129190747234496 
847	 0.129092930974638 
848	 0.12899638878871 
849	 0.128882626391612 
850	 0.128769421676639 
851	 0.128699404710055 
852	 0.128647893789928 
853	 0.128615055956189 
854	 0.128592787143374 
855	 0.128558074936933 
856	 0.128521764489029 
857	 0.12849153650693 
858	 0.12847445945007 
859	 0.128478664077378 
860	 0.128484405024212 
861	 0.128486046345927 
862	 0.128489501324391 
863	 0.12851707205489 
864	 0.128595518940422 
865	 0.128689993324246 
866	 0.128737697397351 
867	 0.128762917228967 
868	 0.128835875373921 
869	 0.128954231790485 
870	 0.129042301987149 
871	 0.129136726901499 
872	 0.129207797395956 
873	 0.129259936730182 
874	 0.129364274408925 
875	 0.129505278371822 
876	 0.1296476506213 
877	 0.129776277503458 
878	 0.129940834680589 
879	 0.130154465621398 
880	 0.130355122618872 
881	 0.13049065561214 
882	 0.130662996361745 
883	 0.130874286262493 
884	 0.131092257271326 
885	 0.131282827931267 
886	 0.131525595128412 
887	 0.131786113423619 
888	 0.132024741859769 
889	 0.132217992840797 
890	 0.132460129939542 
891	 0.132708560211315 
892	 0.132971787627883 
893	 0.133331135903753 
894	 0.133575959805682 
895	 0.133825853879487 
896	 0.13415372284934 
897	 0.134428224798347 
898	 0.134818655520265 
899	 0.13520626694832 
900	 0.135502897990132 
901	 0.135906104549445 
902	 0.136278716023724 
903	 0.136639560855339 
904	 0.13702599787463 
905	 0.137334276086187 
906	 0.137688509213346 
907	 0.138089467819774 
908	 0.138503767361692 
909	 0.139077365131216 
910	 0.139572221719424 
911	 0.139973444488338 
912	 0.140418582874584 
913	 0.140881676361408 
914	 0.141363262309523 
915	 0.141861564709836 
916	 0.142371694282543 
917	 0.142881549966142 
918	 0.143361997728778 
919	 0.143856719821983 
920	 0.144472043335318 
921	 0.145023374630188 
922	 0.145594001939176 
923	 0.146222629396809 
924	 0.14681881584544 
925	 0.147384758005072 
926	 0.147970321624963 
927	 0.148589559206909 
928	 0.149169428004833 
929	 0.149849392261908 
930	 0.150569889245661 
931	 0.151246504197612 
932	 0.151861489984774 
933	 0.152602291448426 
934	 0.153406205759692 
935	 0.154155977138674 
936	 0.154804570739325 
937	 0.155581356769128 
938	 0.156356835776104 
939	 0.157011343240583 
940	 0.157914730460618 
941	 0.158706161655325 
942	 0.159466252323591 
943	 0.160379512147126 
944	 0.161290684497601 
945	 0.162180447024457 
946	 0.163006895206507 
947	 0.163773566072724 
948	 0.164705447229387 
949	 0.165561436782696 
950	 0.166407696951782 
951	 0.16742783459416 
952	 0.168504120928054 
953	 0.169527335411076 
954	 0.170432436503233 
955	 0.171256004136708 
956	 0.172356430702541 
957	 0.173416027013796 
958	 0.174364987599755 
959	 0.175337656628529 
960	 0.176524999033606 
961	 0.177614189818599 
962	 0.178632219111127 
963	 0.179789780885052 
964	 0.180836981909656 
965	 0.181955479559106 
966	 0.183091269760092 
967	 0.184073973337211 
968	 0.185126220753716 
969	 0.186321627206742 
970	 0.187588677477477 
971	 0.188782773831865 
972	 0.189934938000695 
973	 0.191125335575007 
974	 0.192329261919708 
975	 0.19348743507716 
976	 0.194804848582833 
977	 0.196027883198688 
978	 0.197144103264258 
979	 0.198328225709379 
980	 0.199708028403638 
981	 0.201007091350754 
982	 0.202222057366183 
983	 0.203496451183401 
984	 0.204649515172935 
985	 0.205942201659938 
986	 0.20729365629703 
987	 0.208497716103711 
988	 0.209845107174609 
989	 0.211132205927815 
990	 0.212360617807948 
991	 0.213636941085863 
992	 0.214952624309877 
993	 0.216222340742898 
994	 0.217510144559861 
995	 0.218874167590018 
996	 0.220064549948682 
997	 0.221335803736168 
998	 0.222729305247968 
999	 0.224133737295435 
1000	 0.225276134322046 
1001	 0.221813918681413 
1002	 0.223012273744861 
1003	 0.224225105243535 
1004	 0.225423534701445 
1005	 0.226693056010013 
1006	 0.227887249505582 
1007	 0.229032208696028 
1008	 0.230147153477433 
1009	 0.23125286920941 
1010	 0.232365076895139 
1011	 0.233482523550851 
1012	 0.234609383574499 
1013	 0.23576231506892 
1014	 0.236911556488757 
1015	 0.23805892056746 
1016	 0.239183412895276 
1017	 0.240295588565521 
1018	 0.24139672792388 
1019	 0.242493778634556 
1020	 0.243512841900027 
1021	 0.244483383342336 
1022	 0.245468890401729 
1023	 0.246441994912127 
1024	 0.247420186814944 
1025	 0.248438673763226 
1026	 0.249416832324172 
1027	 0.250402704336515 
1028	 0.251434957864296 
1029	 0.252443773719626 
1030	 0.253455866187045 
1031	 0.254422104486516 
1032	 0.255358559754679 
1033	 0.256236075468602 
1034	 0.257120599279583 
1035	 0.258001424060422 
1036	 0.258909031300557 
1037	 0.259846544489552 
1038	 0.260734068806397 
1039	 0.261606970173215 
1040	 0.262465988455858 
1041	 0.263260190272942 
1042	 0.264113775724137 
1043	 0.264990731221666 
1044	 0.265837371108227 
1045	 0.266660975124832 
1046	 0.267531976299897 
1047	 0.268396622750313 
1048	 0.269234667893698 
1049	 0.270086760071472 
1050	 0.270908545463513 
1051	 0.271697533026534 
1052	 0.272543168227744 
1053	 0.27340142966484 
1054	 0.274253532364146 
1055	 0.275111942611008 
1056	 0.275882854353818 
1057	 0.276670216821159 
1058	 0.277431102984382 
1059	 0.278203196232663 
1060	 0.278958696998674 
1061	 0.27977137730128 
1062	 0.280561594205277 
1063	 0.281331626414564 
1064	 0.282092592767255 
1065	 0.282794427595993 
1066	 0.283461583524612 
1067	 0.284132899226565 
1068	 0.284859356522574 
1069	 0.285568373514543 
1070	 0.286253381930682 
1071	 0.286920327705748 
1072	 0.287623607354795 
1073	 0.288327085099135 
1074	 0.289013271212602 
1075	 0.289717856763337 
1076	 0.290399677031937 
1077	 0.291070288380567 
1078	 0.291712118553278 
1079	 0.292412347619622 
1080	 0.293106894165993 
1081	 0.293696359123021 
1082	 0.29431105727638 
1083	 0.294970979015513 
1084	 0.29563152991249 
1085	 0.296300289591498 
1086	 0.297036343189881 
1087	 0.297708298835628 
1088	 0.298338411014017 
1089	 0.298981642836374 
1090	 0.299587159203773 
1091	 0.300221018666262 
1092	 0.300908572810292 
1093	 0.301545521983686 
1094	 0.302194192736535 
1095	 0.30286956498381 
1096	 0.303523039674015 
1097	 0.304173360220306 
1098	 0.304806723724804 
1099	 0.305422903727129 
1100	 0.306075448055189 
1101	 0.306708058988153 
1102	 0.307382309237027 
1103	 0.308112997403437 
1104	 0.308842625666284 
1105	 0.309512523776289 
1106	 0.310164430810125 
1107	 0.310872720047355 
1108	 0.311593436879804 
1109	 0.312315812285671 
1110	 0.313063089987311 
1111	 0.313787737042995 
1112	 0.314477035916862 
1113	 0.315181267969785 
1114	 0.315885913680364 
1115	 0.3166155198169 
1116	 0.317346325160736 
1117	 0.318083043044916 
1118	 0.318845956509432 
1119	 0.319610581513903 
1120	 0.320358587012293 
1121	 0.321090053146094 
1122	 0.321805640116087 
1123	 0.322530032637066 
1124	 0.323268196255201 
1125	 0.324013580671816 
1126	 0.324744277576936 
1127	 0.32549411428826 
1128	 0.326217776269712 
1129	 0.326912770837021 
1130	 0.327609132652246 
1131	 0.328277677153217 
1132	 0.328982544766428 
1133	 0.329733542500316 
1134	 0.330431144131864 
1135	 0.331121750049705 
1136	 0.331805540276829 
1137	 0.332463081043239 
1138	 0.333090144642811 
1139	 0.333758712478781 
1140	 0.334470687958865 
1141	 0.335145510858882 
1142	 0.335814078094515 
1143	 0.336475942879698 
1144	 0.337135119778057 
1145	 0.337771159425654 
1146	 0.338406767472495 
1147	 0.339010424627761 
1148	 0.339562252249552 
1149	 0.340144863977189 
1150	 0.340723844847346 
1151	 0.341309011201479 
1152	 0.341901048531774 
1153	 0.342483471167665 
1154	 0.343053538511421 
1155	 0.343607444310386 
1156	 0.344156612049763 
1157	 0.344704949090615 
1158	 0.345238042997585 
1159	 0.345754017272008 
1160	 0.346271826222022 
1161	 0.34678834527283 
1162	 0.347294115997532 
1163	 0.347788201961893 
1164	 0.348284230622792 
1165	 0.348779057245687 
1166	 0.349263957681138 
1167	 0.349746192835847 
1168	 0.350246724299245 
1169	 0.350721804280988 
1170	 0.351191137774041 
1171	 0.351642872625472 
1172	 0.352071591185062 
1173	 0.352513276159087 
1174	 0.352963925329608 
1175	 0.353385868808602 
1176	 0.35380094084345 
1177	 0.354208096715491 
1178	 0.354567157051023 
1179	 0.35496543560932 
1180	 0.355415503078017 
1181	 0.35581614918984 
1182	 0.356205031870859 
1183	 0.35659018690915 
1184	 0.356955927041801 
1185	 0.357279203155129 
1186	 0.357625572706501 
1187	 0.357975650148761 
1188	 0.358327835234177 
1189	 0.358684687888615 
1190	 0.359026011022897 
1191	 0.359370961101613 
1192	 0.359703699069885 
1193	 0.360009453923206 
1194	 0.360330414713589 
1195	 0.360678734048201 
1196	 0.360987997291662 
1197	 0.361266858729443 
1198	 0.36156152530933 
1199	 0.361851781536617 
1200	 0.362124953983347 
1201	 0.362396790054437 
1202	 0.362683978978943 
1203	 0.362947397592739 
1204	 0.363177242962446 
1205	 0.363430732648844 
1206	 0.363705028278859 
1207	 0.363949165962684 
1208	 0.364174211863379 
1209	 0.364412829748107 
1210	 0.364650273814965 
1211	 0.364874469310638 
1212	 0.36509982392895 
1213	 0.365324638162018 
1214	 0.365532419926686 
1215	 0.365742284960546 
1216	 0.365954122894027 
1217	 0.366185766463029 
1218	 0.366380319661816 
1219	 0.366550691880696 
1220	 0.366736825508415 
1221	 0.366913863101136 
1222	 0.36709309654779 
1223	 0.367287031753184 
1224	 0.36746211431307 
1225	 0.367607797340187 
1226	 0.367782988418739 
1227	 0.367982327533412 
1228	 0.368155509008333 
1229	 0.36832827779676 
1230	 0.368501407066819 
1231	 0.368665164241759 
1232	 0.368813785645721 
1233	 0.368956656031496 
1234	 0.369100896802292 
1235	 0.369248724346891 
1236	 0.36938309358028 
1237	 0.369520859758641 
1238	 0.36967431890193 
1239	 0.369812087156197 
1240	 0.369936067588427 
1241	 0.370057620567951 
1242	 0.370177123288916 
1243	 0.370297165934006 
1244	 0.370408262906761 
1245	 0.370518627054278 
1246	 0.370632570173148 
1247	 0.370744868942452 
1248	 0.370853710868208 
1249	 0.370954117520475 
1250	 0.371072308598981 
1251	 0.371188165989999 
1252	 0.371307152872765 
1253	 0.371432065562127 
1254	 0.371552083928098 
1255	 0.37167458322389 
1256	 0.371789551027543 
1257	 0.37190359723831 
1258	 0.372008594056165 
1259	 0.372108827593808 
1260	 0.372199624583358 
1261	 0.372270559186914 
1262	 0.372357363707761 
1263	 0.372443161839706 
1264	 0.372533893718237 
1265	 0.372645332335832 
1266	 0.372740969809549 
1267	 0.372832758656633 
1268	 0.372909911971297 
1269	 0.372997081599587 
1270	 0.373079803988359 
1271	 0.37315936090752 
1272	 0.373240190725125 
1273	 0.373326420275091 
1274	 0.373401567127092 
1275	 0.373497738881101 
1276	 0.373607416081073 
1277	 0.373720763759013 
1278	 0.373846403293495 
1279	 0.373970174840479 
1280	 0.37411190921432 
1281	 0.374232745065051 
1282	 0.374343240358474 
1283	 0.374450575770452 
1284	 0.374546476691326 
1285	 0.374639787183516 
1286	 0.374738234628676 
1287	 0.374828005450096 
1288	 0.37488867119496 
1289	 0.374927325030707 
1290	 0.374967788269683 
1291	 0.374984882316181 
1292	 0.375011143118165 
1293	 0.375043568568887 
1294	 0.375065415961868 
1295	 0.375071776687735 
1296	 0.375092749661789 
1297	 0.375135520144316 
1298	 0.37514179655739 
1299	 0.375136725113927 
1300	 0.375122593650721 
1301	 0.375076258351573 
1302	 0.375036079998144 
1303	 0.374991121201617 
1304	 0.374960815092849 
1305	 0.374910079062203 
1306	 0.374852911518549 
1307	 0.374809118605128 
1308	 0.374747460252873 
1309	 0.374690514598024 
1310	 0.374634025806316 
1311	 0.374577453614485 
1312	 0.374519465883988 
1313	 0.37446214996178 
1314	 0.374390767770972 
1315	 0.374345485379916 
1316	 0.374310670933431 
1317	 0.374280063485713 
1318	 0.374276036543282 
1319	 0.374263056893208 
1320	 0.374242400956454 
1321	 0.374227877756253 
1322	 0.374225329934741 
1323	 0.374203801974154 
1324	 0.374181214216975 
1325	 0.374188673799391 
1326	 0.374197056618009 
1327	 0.374217376826844 
1328	 0.374247281014996 
1329	 0.374276111359878 
1330	 0.374324187261149 
1331	 0.374376033593388 
1332	 0.374446701248085 
1333	 0.374549759953259 
1334	 0.374628369448549 
1335	 0.374704055091424 
1336	 0.374784826026743 
1337	 0.374848957042407 
1338	 0.374938678464782 
1339	 0.37503936155983 
1340	 0.375155100695791 
1341	 0.375297595593603 
1342	 0.375425971160343 
1343	 0.375564808639961 
1344	 0.375696812544442 
1345	 0.375803345073243 
1346	 0.375911637884663 
1347	 0.376004449648659 
1348	 0.376093119234608 
1349	 0.376197514923643 
1350	 0.37630252530353 
1351	 0.37642098820522 
1352	 0.376556191717161 
1353	 0.37668770640056 
1354	 0.376829563202229 
1355	 0.376963279309781 
1356	 0.377105270163263 
1357	 0.377225532614927 
1358	 0.37732164008371 
1359	 0.377439114963738 
1360	 0.377554731539626 
1361	 0.377673012652668 
1362	 0.377824925117647 
1363	 0.377934821411615 
1364	 0.378020664756925 
1365	 0.37810523046217 
1366	 0.378171791653668 
1367	 0.378224712142791 
1368	 0.378296503780176 
1369	 0.378368488838202 
1370	 0.378437497017011 
1371	 0.378497651147105 
1372	 0.37856662245646 
1373	 0.378630943797804 
1374	 0.378670326062228 
1375	 0.378704826970765 
1376	 0.378721965174997 
1377	 0.378708112299324 
1378	 0.378699594153137 
1379	 0.378688494489292 
1380	 0.378669146121303 
1381	 0.37863617486315 
1382	 0.378609066189019 
1383	 0.378596744357836 
1384	 0.378549835357863 
1385	 0.378486147451444 
1386	 0.378418581454522 
1387	 0.37832959980238 
1388	 0.378232148608627 
1389	 0.378135087503238 
1390	 0.378030177526554 
1391	 0.377886116250652 
1392	 0.377743555895471 
1393	 0.377600287576384 
1394	 0.377418232604318 
1395	 0.377211823566601 
1396	 0.376989022571309 
1397	 0.376764324560967 
1398	 0.376511400122707 
1399	 0.376274152835169 
1400	 0.376046370969999 
1401	 0.375808750507702 
1402	 0.375567768533914 
1403	 0.375322354057496 
1404	 0.375072610176574 
1405	 0.374819021947385 
1406	 0.374558893643262 
1407	 0.37429744972496 
1408	 0.37402432491968 
1409	 0.373765986845763 
1410	 0.373497127439977 
1411	 0.373256496140661 
1412	 0.373023420897554 
1413	 0.372831061233959 
1414	 0.372643505487485 
1415	 0.372473336705762 
1416	 0.372347847891332 
1417	 0.372238148992483 
1418	 0.372141858577439 
1419	 0.372060870444216 
1420	 0.371968221719208 
1421	 0.371878575328405 
1422	 0.37180366881796 
1423	 0.371724609699933 
1424	 0.371641471796109 
1425	 0.3715542281358 
1426	 0.371470106406086 
1427	 0.37137292973571 
1428	 0.371307203283322 
1429	 0.371261981472614 
1430	 0.371207225209461 
1431	 0.371160779052463 
1432	 0.371120285679255 
1433	 0.371070837730979 
1434	 0.371039047017001 
1435	 0.371033188708422 
1436	 0.371016556719163 
1437	 0.371002845251719 
1438	 0.370988616908138 
1439	 0.370969203842804 
1440	 0.37095194577831 
1441	 0.370964099211058 
1442	 0.370960366552021 
1443	 0.370953433269818 
1444	 0.370956889924273 
1445	 0.370933701127199 
1446	 0.370917829057517 
1447	 0.3709244467956 
1448	 0.370933550408796 
1449	 0.370951893366943 
1450	 0.370976898534584 
1451	 0.370995046980104 
1452	 0.371006705361958 
1453	 0.371030232606597 
1454	 0.371056032755936 
1455	 0.371088705739744 
1456	 0.371139934092683 
1457	 0.371168195747685 
1458	 0.371185194163517 
1459	 0.371210055550279 
1460	 0.371221961099853 
1461	 0.371249938595683 
1462	 0.371288231248593 
1463	 0.37133293153645 
1464	 0.371379105229489 
1465	 0.371440578158411 
1466	 0.371528759392348 
1467	 0.371595636936291 
1468	 0.371657218461841 
1469	 0.371724044004546 
1470	 0.371777973727798 
1471	 0.371847192110858 
1472	 0.371923170466337 
1473	 0.372011438274603 
1474	 0.372104741416228 
1475	 0.372195251428878 
1476	 0.37229573498181 
1477	 0.372384854937803 
1478	 0.37246619952791 
1479	 0.372561984591031 
1480	 0.372653685039497 
1481	 0.372756299725443 
1482	 0.372857552064968 
1483	 0.372970503027278 
1484	 0.373056081202498 
1485	 0.37312411499219 
1486	 0.373211385509277 
1487	 0.373277764138737 
1488	 0.373383719812666 
1489	 0.373523902131625 
1490	 0.373653736743751 
1491	 0.373798782141976 
1492	 0.373940940308064 
1493	 0.374092755732306 
1494	 0.374226920233038 
1495	 0.374354714272426 
1496	 0.374477232629006 
1497	 0.374579900323498 
1498	 0.374692843864569 
1499	 0.374821877457552 
1500	 0.374933034072376 
1501	 0.375036449350311 
1502	 0.37513285498963 
1503	 0.375220124644145 
1504	 0.375293229291356 
1505	 0.375371736328067 
1506	 0.375454450747914 
1507	 0.375523779384359 
1508	 0.375584505519301 
1509	 0.375637339145887 
1510	 0.375700403154518 
1511	 0.375784035063628 
1512	 0.375873244151244 
1513	 0.375966955627435 
1514	 0.376051374371661 
1515	 0.376118655012283 
1516	 0.376174295964368 
1517	 0.376234936106571 
1518	 0.376288753434267 
1519	 0.376348621444341 
1520	 0.376408652644994 
1521	 0.376473044365364 
1522	 0.376539091095697 
1523	 0.376610833667557 
1524	 0.376693869411841 
1525	 0.376769958343649 
1526	 0.376850727428255 
1527	 0.376912284045669 
1528	 0.376957456662581 
1529	 0.377011502345696 
1530	 0.377048934610595 
1531	 0.377113474239856 
1532	 0.377201582066383 
1533	 0.377280176794879 
1534	 0.377371675304546 
1535	 0.37744811585776 
1536	 0.377515254787667 
1537	 0.37757956663573 
1538	 0.377642796761873 
1539	 0.377696638917837 
1540	 0.37772809778954 
1541	 0.377778954705739 
1542	 0.377845212921853 
1543	 0.377894920183078 
1544	 0.377938868772449 
1545	 0.377993188134155 
1546	 0.378045923538676 
1547	 0.378085281329635 
1548	 0.378133803498362 
1549	 0.37821154179113 
1550	 0.378270518294339 
1551	 0.378308404846812 
1552	 0.378361021447939 
1553	 0.378422795269626 
1554	 0.378493472270277 
1555	 0.378555825461899 
1556	 0.378597057031932 
1557	 0.378627831557598 
1558	 0.378644400435225 
1559	 0.378661593677117 
1560	 0.378685979113346 
1561	 0.378710912534977 
1562	 0.378758445731557 
1563	 0.378816198799506 
1564	 0.378879049919323 
1565	 0.37897023789216 
1566	 0.379035240016547 
1567	 0.379092057937331 
1568	 0.379139576703078 
1569	 0.379182776532867 
1570	 0.379213681394803 
1571	 0.379219958736277 
1572	 0.379253283147625 
1573	 0.379285553303343 
1574	 0.379327645113952 
1575	 0.379398178421911 
1576	 0.379444597731815 
1577	 0.379478264489038 
1578	 0.37951876859771 
1579	 0.379553612283408 
1580	 0.37959081030409 
1581	 0.379625205793469 
1582	 0.379678462440224 
1583	 0.379740937271013 
1584	 0.379802722886714 
1585	 0.37987902096323 
1586	 0.379947362559327 
1587	 0.380018831936725 
1588	 0.380076653639248 
1589	 0.380132292113231 
1590	 0.380182662885288 
1591	 0.380215888509129 
1592	 0.380249958592042 
1593	 0.380270460905265 
1594	 0.380310637080571 
1595	 0.380366229940061 
1596	 0.380408675065339 
1597	 0.380461200533546 
1598	 0.380509949308629 
1599	 0.380553533378183 
1600	 0.380580069995841 
1601	 0.380600509910888 
1602	 0.380615928739472 
1603	 0.380591975037149 
1604	 0.380602879785458 
1605	 0.380643492498336 
1606	 0.380673034403877 
1607	 0.380720455163675 
1608	 0.380749104613293 
1609	 0.380775049581355 
1610	 0.380794083146708 
1611	 0.380837710893096 
1612	 0.380898994755843 
1613	 0.380950405801653 
1614	 0.381013900506189 
1615	 0.381042923480547 
1616	 0.381065174457225 
1617	 0.381088528142267 
1618	 0.381092902290435 
1619	 0.381120307703368 
1620	 0.381138128322904 
1621	 0.381157485830341 
1622	 0.381181228195431 
1623	 0.381193474292624 
1624	 0.38119488461804 
1625	 0.381214316222558 
1626	 0.381229217068019 
1627	 0.381265763456204 
1628	 0.381312187171903 
1629	 0.381380455471979 
1630	 0.381480344976392 
1631	 0.381546498254807 
1632	 0.38161939733812 
1633	 0.381682322588516 
1634	 0.38172255178989 
1635	 0.381765674681029 
1636	 0.381823539834775 
1637	 0.381850649737899 
1638	 0.381850717596435 
1639	 0.381858404764607 
1640	 0.381852086364664 
1641	 0.381860480986536 
1642	 0.381867529240406 
1643	 0.381889466548702 
1644	 0.381920805195683 
1645	 0.381961699157451 
1646	 0.382022574134736 
1647	 0.382062988179067 
1648	 0.382109550520125 
1649	 0.382138008834695 
1650	 0.382135553010616 
1651	 0.382166739773255 
1652	 0.382205177804214 
1653	 0.382247470378672 
1654	 0.382318264853902 
1655	 0.382357162081405 
1656	 0.382380028844472 
1657	 0.382407046052236 
1658	 0.382422731270655 
1659	 0.382442635184831 
1660	 0.382462816393404 
1661	 0.382487307634312 
1662	 0.382513935293212 
1663	 0.382535135545755 
1664	 0.38256386594961 
1665	 0.382578129358722 
1666	 0.382570578795087 
1667	 0.382586127378745 
1668	 0.382607398206175 
1669	 0.382628798634849 
1670	 0.382660106945422 
1671	 0.382692171505614 
1672	 0.382716099039471 
1673	 0.382757655134217 
1674	 0.382821032699415 
1675	 0.382868600247159 
1676	 0.382919485497056 
1677	 0.382962227882275 
1678	 0.382995133050033 
1679	 0.383027581327266 
1680	 0.383066055939169 
1681	 0.383083338454516 
1682	 0.383075713239147 
1683	 0.383091963673429 
1684	 0.383107558139405 
1685	 0.38312379999489 
1686	 0.383167695413412 
1687	 0.383175577416483 
1688	 0.383144297237297 
1689	 0.383150613900317 
1690	 0.383155435022664 
1691	 0.383178015425333 
1692	 0.383247096022258 
1693	 0.383267186252588 
1694	 0.383257656335254 
1695	 0.383272678845455 
1696	 0.383274805456697 
1697	 0.383292997678056 
1698	 0.383347708872673 
1699	 0.383368381617205 
1700	 0.383365538154548 
1701	 0.383378610851685 
1702	 0.383379054408808 
1703	 0.383403622272481 
1704	 0.383456609006876 
1705	 0.383484827760217 
1706	 0.383510482610673 
1707	 0.383538287340343 
1708	 0.383544068045976 
1709	 0.383580937708717 
1710	 0.383652913791643 
1711	 0.383689624486257 
1712	 0.38372943123701 
1713	 0.383751787718434 
1714	 0.383745402633683 
1715	 0.383745508711239 
1716	 0.383730737008736 
1717	 0.383737259756984 
1718	 0.383761530236391 
1719	 0.383760295659129 
1720	 0.383765538778772 
1721	 0.383757305932848 
1722	 0.383715383892871 
1723	 0.383692996842804 
1724	 0.383675001800753 
1725	 0.383668740051947 
1726	 0.383672631721068 
1727	 0.383668554157595 
1728	 0.383672328587905 
1729	 0.38367165006235 
1730	 0.38366635136709 
1731	 0.383651373520506 
1732	 0.38363933784109 
1733	 0.383618360025165 
1734	 0.383588418616736 
1735	 0.383534562256232 
1736	 0.383466985366666 
1737	 0.383406909857768 
1738	 0.38331915898469 
1739	 0.383259268114539 
1740	 0.38321817391766 
1741	 0.383178502733577 
1742	 0.38314393538899 
1743	 0.383108907853956 
1744	 0.383083966539009 
1745	 0.383058936944326 
1746	 0.383029841200838 
1747	 0.383014907418429 
1748	 0.382987391766069 
1749	 0.382978573417971 
1750	 0.382974305567313 
1751	 0.382929190950189 
1752	 0.382865726868524 
1753	 0.382739087686783 
1754	 0.382629291671753 
1755	 0.382570047569571 
1756	 0.382533349069034 
1757	 0.382565871497991 
1758	 0.382577533910152 
1759	 0.382540534894314 
1760	 0.382538077045301 
1761	 0.382548820863751 
1762	 0.382528515590016 
1763	 0.382535052410129 
1764	 0.38252820757042 
1765	 0.38247824373587 
1766	 0.382428503611506 
1767	 0.382383385911324 
1768	 0.382367644772042 
1769	 0.382337426797984 
1770	 0.382326207596802 
1771	 0.382363307466273 
1772	 0.382362171765922 
1773	 0.382373049066785 
1774	 0.382416275787127 
1775	 0.382428748656667 
1776	 0.38243190446846 
1777	 0.382421051473406 
1778	 0.382371063334511 
1779	 0.382287428787795 
1780	 0.382212204722832 
1781	 0.382164930115216 
1782	 0.382150352784517 
1783	 0.382213169202488 
1784	 0.382248407449166 
1785	 0.382316106454358 
1786	 0.382340041639558 
1787	 0.38232328009765 
1788	 0.382310821093074 
1789	 0.382282862579795 
1790	 0.382254345355133 
1791	 0.382214588373523 
1792	 0.382186855753435 
1793	 0.382143448606762 
1794	 0.382130860933505 
1795	 0.382145652554461 
1796	 0.38217649655409 
1797	 0.382239232483549 
1798	 0.38228610032027 
1799	 0.382343959023763 
1800	 0.382383954549964 
1801	 0.379322714754173 
1802	 0.379349600888065 
1803	 0.379386568914202 
1804	 0.379414675938372 
1805	 0.379450775280482 
1806	 0.379502347952279 
1807	 0.379523861510738 
1808	 0.379542388989497 
1809	 0.379555233298021 
1810	 0.379554583387592 
1811	 0.379522613798404 
1812	 0.379536501609958 
1813	 0.37953353841163 
1814	 0.379495745744938 
1815	 0.379492162558399 
1816	 0.379497503886952 
1817	 0.379505304857266 
1818	 0.379539640116942 
1819	 0.379548744506079 
1820	 0.379565562822746 
1821	 0.379528639793065 
1822	 0.379495568666402 
1823	 0.37948983232051 
1824	 0.379484358844828 
1825	 0.379520058044864 
1826	 0.379577939397313 
1827	 0.37963257930733 
1828	 0.379678609608691 
1829	 0.379750612335272 
1830	 0.379775716679477 
1831	 0.379779603211047 
1832	 0.379760374952307 
1833	 0.379716983261234 
1834	 0.379679181675803 
1835	 0.379659948471995 
1836	 0.379637444744182 
1837	 0.379674478164858 
1838	 0.37970543850142 
1839	 0.379712497618213 
1840	 0.379717829837211 
1841	 0.379733085675814 
1842	 0.379679403629026 
1843	 0.379615537434856 
1844	 0.379581357519298 
1845	 0.379525704891555 
1846	 0.379476082850151 
1847	 0.379451586017495 
1848	 0.379409956496512 
1849	 0.379359520518847 
1850	 0.379324272645298 
1851	 0.379304209476772 
1852	 0.37928010096393 
1853	 0.379250148259905 
1854	 0.379208794279305 
1855	 0.379156145591787 
1856	 0.379096709301427 
1857	 0.379032395387415 
1858	 0.378980009829043 
1859	 0.378932187262927 
1860	 0.378862929952254 
1861	 0.37879076346315 
1862	 0.378677055465498 
1863	 0.378531481223791 
1864	 0.378376280873537 
1865	 0.378173439271958 
1866	 0.377958859283662 
1867	 0.377767204407408 
1868	 0.37751869564553 
1869	 0.37726698189734 
1870	 0.377064017700264 
1871	 0.37683167676261 
1872	 0.376578317057143 
1873	 0.376357122794383 
1874	 0.376129370483407 
1875	 0.375833694389953 
1876	 0.375539681798771 
1877	 0.375202513945478 
1878	 0.374819872102569 
1879	 0.374385478461767 
1880	 0.373896777950924 
1881	 0.3733541031581 
1882	 0.372773442774259 
1883	 0.372145595760145 
1884	 0.371465918287402 
1885	 0.370735715092049 
1886	 0.369920228401564 
1887	 0.369047854738245 
1888	 0.368163416275657 
1889	 0.367250210734034 
1890	 0.366316650676752 
1891	 0.365352409100689 
1892	 0.364346317890903 
1893	 0.363321912053658 
1894	 0.362278559857609 
1895	 0.361205939789336 
1896	 0.360072180689375 
1897	 0.358936770087925 
1898	 0.357749087993874 
1899	 0.356565256069936 
1900	 0.355413018560257 
1901	 0.354235162452296 
1902	 0.353070250924691 
1903	 0.351891892478019 
1904	 0.350753478322281 
1905	 0.349611929333612 
1906	 0.348541051713781 
1907	 0.347497783111174 
1908	 0.346498666197809 
1909	 0.345559036665993 
1910	 0.344649726051809 
1911	 0.343812121875753 
1912	 0.343047457883812 
1913	 0.342298215743792 
1914	 0.341587043450366 
1915	 0.340910765679257 
1916	 0.340268803695251 
1917	 0.339652021431377 
1918	 0.339066113954583 
1919	 0.338533800068717 
1920	 0.338063556001047 
1921	 0.337613304295613 
1922	 0.337202849927245 
1923	 0.336837181565383 
1924	 0.336491779739403 
1925	 0.336143770779857 
1926	 0.335872784711617 
1927	 0.335656684881785 
1928	 0.335469743658926 
1929	 0.335334525425388 
1930	 0.335224580038532 
1931	 0.335119668336534 
1932	 0.33507725039879 
1933	 0.335035214090226 
1934	 0.335011548107854 
1935	 0.335029865845818 
1936	 0.335084643205163 
1937	 0.335142941912635 
1938	 0.335240504397351 
1939	 0.335342327337405 
1940	 0.335453389903041 
1941	 0.335563624772278 
1942	 0.335717048400747 
1943	 0.335896699974948 
1944	 0.336071284419375 
1945	 0.33625904027206 
1946	 0.336443212026547 
1947	 0.33661332038017 
1948	 0.336808567828682 
1949	 0.337020928570667 
1950	 0.33723665815114 
1951	 0.337470761833364 
1952	 0.33769223548526 
1953	 0.337915096023843 
1954	 0.338154444472166 
1955	 0.338406621526621 
1956	 0.338685730491086 
1957	 0.33895308045824 
1958	 0.339226869873629 
1959	 0.339500844930017 
1960	 0.339756798723427 
1961	 0.340043363078815 
1962	 0.340366555319672 
1963	 0.3406767824302 
1964	 0.340982106380287 
1965	 0.341316242703343 
1966	 0.341640639445766 
1967	 0.341929107538335 
1968	 0.342268009330396 
1969	 0.342637484661732 
1970	 0.342989018323891 
1971	 0.343371385439363 
1972	 0.343728434982462 
1973	 0.344045845052688 
1974	 0.344397847245944 
1975	 0.344760778267606 
1976	 0.345126911961563 
1977	 0.345501100565781 
1978	 0.345888190956355 
1979	 0.346261368816407 
1980	 0.346612619352562 
1981	 0.346985753012538 
1982	 0.347359058249337 
1983	 0.347746800781268 
1984	 0.348158628871369 
1985	 0.348557364297433 
1986	 0.348968209593901 
1987	 0.349364519612316 
1988	 0.349757709632187 
1989	 0.350125539097675 
1990	 0.350508733362548 
1991	 0.350877673646608 
1992	 0.351236943142473 
1993	 0.351582886136152 
1994	 0.351942377776147 
1995	 0.352284220383942 
1996	 0.3526497781782 
1997	 0.353050138703713 
1998	 0.353426136512725 
1999	 0.353795156072642 
2000	 0.354168446074048 
2001	 0.35453530938453 
2002	 0.354894005338208 
2003	 0.355280953739325 
2004	 0.355658583633842 
2005	 0.356042971826628 
2006	 0.356440565595267 
2007	 0.356819926172243 
2008	 0.357199625543442 
2009	 0.357566298301664 
2010	 0.357915873613032 
2011	 0.358269415349553 
2012	 0.358610448162174 
2013	 0.358962092457368 
2014	 0.3593042157072 
2015	 0.359667116463207 
2016	 0.360078194360939 
2017	 0.360463091294694 
2018	 0.360839134368351 
2019	 0.361234827956375 
2020	 0.361596816476246 
2021	 0.361913185135319 
2022	 0.362254256249032 
2023	 0.362602799359489 
2024	 0.362941261543266 
2025	 0.363272328943786 
2026	 0.363608135548433 
2027	 0.363957170148731 
2028	 0.364276668121624 
2029	 0.364591766307464 
2030	 0.364907354834193 
2031	 0.365206462559551 
2032	 0.365474811833037 
2033	 0.365766287160113 
2034	 0.366062326163282 
2035	 0.366356098286302 
2036	 0.366655282169967 
2037	 0.366951807661864 
2038	 0.367263182335681 
2039	 0.367541255903458 
2040	 0.367801798979231 
2041	 0.368061883121536 
2042	 0.368301631857101 
2043	 0.368519126253743 
2044	 0.36873538011569 
2045	 0.368941773222294 
2046	 0.369154019736536 
2047	 0.369352378991201 
2048	 0.369563948799169 
2049	 0.36978995920017 
2050	 0.370006657700828 
2051	 0.370219504269293 
2052	 0.370433743877471 
2053	 0.370642019914861 
2054	 0.370858990462029 
2055	 0.371090071314339 
2056	 0.37130572751891 
2057	 0.371521914477933 
2058	 0.371739337234654 
2059	 0.371955292248284 
2060	 0.372159354405899 
2061	 0.372378749777902 
2062	 0.372613414547178 
2063	 0.372834365753393 
2064	 0.37306893612505 
2065	 0.373273899328432 
2066	 0.373441477571206 
2067	 0.373633844472127 
2068	 0.373816842840541 
2069	 0.374011650543925 
2070	 0.374213817311346 
2071	 0.374439762030179 
2072	 0.374648250219189 
2073	 0.374852245139709 
2074	 0.375056238170647 
2075	 0.375256896759655 
2076	 0.375462015393228 
2077	 0.375678803318916 
2078	 0.375871646880253 
2079	 0.376046362935861 
2080	 0.376237912600408 
2081	 0.376422135828337 
2082	 0.376608554612814 
2083	 0.376819767810398 
2084	 0.377006925504993 
2085	 0.377200110631158 
2086	 0.377384151357517 
2087	 0.377569187640801 
2088	 0.377755607423896 
2089	 0.377942748272294 
2090	 0.378125657102547 
2091	 0.378307125619257 
2092	 0.378500555555443 
2093	 0.378676372647839 
2094	 0.378838217233129 
2095	 0.379000553487303 
2096	 0.379139091588519 
2097	 0.379300236443097 
2098	 0.379471516050466 
2099	 0.379646518106744 
2100	 0.379825101012278 
2101	 0.380011052003603 
2102	 0.380216813970086 
2103	 0.380425732550371 
2104	 0.380648427869326 
2105	 0.380898606059359 
2106	 0.381146405055856 
2107	 0.381409817506942 
2108	 0.381653390195391 
2109	 0.381883413121795 
2110	 0.382134761522886 
2111	 0.382383189582232 
2112	 0.382636328244007 
2113	 0.382926146621608 
2114	 0.383194193358272 
2115	 0.38344291518651 
2116	 0.383671805389926 
2117	 0.383901517312512 
2118	 0.384116867426842 
2119	 0.384335266221432 
2120	 0.384552845759993 
2121	 0.384762093856284 
2122	 0.384967634695577 
2123	 0.385164454654438 
2124	 0.385365606078264 
2125	 0.385537307156664 
2126	 0.385667428734294 
2127	 0.385828960206551 
2128	 0.386003266034633 
2129	 0.386151546875274 
2130	 0.386312370044117 
2131	 0.386469607490483 
2132	 0.386567585805697 
2133	 0.386601353604115 
2134	 0.386668661848923 
2135	 0.386715626698465 
2136	 0.386770771495956 
2137	 0.386859845236693 
2138	 0.386888312146482 
2139	 0.386889492808039 
2140	 0.38687240797761 
2141	 0.386801294682005 
2142	 0.386750884534005 
2143	 0.386715001559531 
2144	 0.386644379296518 
2145	 0.38657284734355 
2146	 0.386468159748714 
2147	 0.386307586996522 
2148	 0.386157032188028 
2149	 0.386002456240311 
2150	 0.385838886095539 
2151	 0.385662322915652 
2152	 0.385481301078019 
2153	 0.38529279466564 
2154	 0.385084850598724 
2155	 0.384881924968806 
2156	 0.384685334042737 
2157	 0.384475161081832 
2158	 0.384254418737161 
2159	 0.384028821929163 
2160	 0.383804983400874 
2161	 0.383561977526702 
2162	 0.383280724081306 
2163	 0.383031061232063 
2164	 0.382793753630787 
2165	 0.382552251915529 
2166	 0.382292725050631 
2167	 0.382045840050054 
2168	 0.381781682185327 
2169	 0.381483643534217 
2170	 0.381204307515845 
2171	 0.380922388027686 
2172	 0.380668531561824 
2173	 0.380421109251844 
2174	 0.380180838922999 
2175	 0.379987869245354 
2176	 0.379756731197332 
2177	 0.379503127486021 
2178	 0.379250435150541 
2179	 0.378985232743187 
2180	 0.378722841894933 
2181	 0.378452706426918 
2182	 0.378191050063234 
2183	 0.37793792097147 
2184	 0.377679344832706 
2185	 0.377414269786554 
2186	 0.377140639585243 
2187	 0.376894318299796 
2188	 0.376647116506625 
2189	 0.376413673622355 
2190	 0.376199342078393 
2191	 0.375994142848695 
2192	 0.375802305918269 
2193	 0.375602087684272 
2194	 0.375410219908345 
2195	 0.375229436935712 
2196	 0.375040123365846 
2197	 0.374863699823415 
2198	 0.374708455440386 
2199	 0.374557747946381 
2200	 0.374396309137679 
2201	 0.374260735306822 
2202	 0.374159274690134 
2203	 0.374045530190868 
2204	 0.373950763060353 
2205	 0.373868905718297 
2206	 0.373808285227365 
2207	 0.37376757948298 
2208	 0.373720545995349 
2209	 0.37367295688605 
2210	 0.3736658124888 
2211	 0.373676166187726 
2212	 0.373690519559725 
2213	 0.373758778822804 
2214	 0.373790754985434 
2215	 0.373795714778081 
2216	 0.373811601069761 
2217	 0.373837021124354 
2218	 0.37384795619871 
2219	 0.373839410164097 
2220	 0.37385030210174 
2221	 0.373883699291406 
2222	 0.373880194809965 
2223	 0.373882106514839 
2224	 0.373891254618722 
2225	 0.373876642679731 
2226	 0.373828596618686 
2227	 0.373813025692695 
2228	 0.373821603726729 
2229	 0.37377539887101 
2230	 0.37371164899261 
2231	 0.373650449761492 
2232	 0.373538697699047 
2233	 0.373475627507458 
2234	 0.373436874398505 
2235	 0.373402370142546 
2236	 0.373392830733868 
2237	 0.37336477893908 
2238	 0.373331971134977 
2239	 0.373315954077844 
2240	 0.373296081068496 
2241	 0.373281711930144 
2242	 0.373299454614453 
2243	 0.373292023846349 
2244	 0.373247482690612 
2245	 0.373229689006882 
2246	 0.373247272067545 
2247	 0.373292475809907 
2248	 0.373341524294578 
2249	 0.373452996563225 
2250	 0.373488464289255 
2251	 0.373476639776695 
2252	 0.373507005135851 
2253	 0.37353916538538 
2254	 0.373557549197015 
2255	 0.373610337257959 
2256	 0.373606946707342 
2257	 0.373558052825611 
2258	 0.373511089487778 
2259	 0.373416659551728 
2260	 0.373370510345892 
2261	 0.37331743791772 
2262	 0.373306105268039 
2263	 0.373368970236626 
2264	 0.373386676705008 
2265	 0.37338600414335 
2266	 0.373413587304033 
2267	 0.373442464620815 
2268	 0.373467463608535 
2269	 0.373524274063904 
2270	 0.373565047682697 
2271	 0.373548282866276 
2272	 0.37360131523073 
2273	 0.373666062932868 
2274	 0.373729738065921 
2275	 0.373798559482822 
2276	 0.37390751897015 
2277	 0.373928993001234 
2278	 0.373907478652361 
2279	 0.373899797259184 
2280	 0.373816583736362 
2281	 0.373832930890456 
2282	 0.373902481288646 
2283	 0.373979056965178 
2284	 0.37414164778362 
2285	 0.374213229204162 
2286	 0.374236716943345 
2287	 0.374287433513714 
2288	 0.374297220257794 
2289	 0.374331035048708 
2290	 0.374406522400156 
2291	 0.374458901508218 
2292	 0.374473741232596 
2293	 0.374542938545959 
2294	 0.374650478174488 
2295	 0.374747391596383 
2296	 0.374907160909623 
2297	 0.374982714922136 
2298	 0.375027926225387 
2299	 0.37505162822176 
2300	 0.375032302861121 
2301	 0.375078823795935 
2302	 0.375140560840431 
2303	 0.375178219907663 
2304	 0.375201593861985 
2305	 0.375149530679375 
2306	 0.375138835419745 
2307	 0.375106065041479 
2308	 0.375101905629664 
2309	 0.375136885851569 
2310	 0.375143138069273 
2311	 0.375129829319746 
2312	 0.375111849002948 
2313	 0.375088201955464 
2314	 0.37507862010799 
2315	 0.375060509712746 
2316	 0.375061547343256 
2317	 0.375075006806591 
2318	 0.375093644240553 
2319	 0.375098170077637 
2320	 0.375160433336456 
2321	 0.375313997879586 
2322	 0.375376725356682 
2323	 0.375455630345818 
2324	 0.375465238038923 
2325	 0.375332128989735 
2326	 0.375286843334397 
2327	 0.375237458048853 
2328	 0.37524492064746 
2329	 0.375289569989317 
2330	 0.375269531649687 
2331	 0.375272668803461 
2332	 0.375296250396908 
2333	 0.375304569786256 
2334	 0.375414071049175 
2335	 0.375499454006138 
2336	 0.375568081285542 
2337	 0.375716192674559 
2338	 0.375768246604304 
2339	 0.375786358263938 
2340	 0.375791634223418 
2341	 0.375692066776935 
2342	 0.375604101346252 
2343	 0.375542806334854 
2344	 0.375460174046867 
2345	 0.375404348368837 
2346	 0.375367890785477 
2347	 0.375354639206382 
2348	 0.375395995489843 
2349	 0.375347944219159 
2350	 0.375290812770115 
2351	 0.375197471213463 
2352	 0.375008316680717 
2353	 0.37486041616555 
2354	 0.374749326926963 
2355	 0.374567229482349 
2356	 0.37430119119074 
2357	 0.374159500283946 
2358	 0.374042355888921 
2359	 0.37392344428822 
2360	 0.373910525702156 
2361	 0.373804979952381 
2362	 0.373607122430598 
2363	 0.373470824367663 
2364	 0.373353449006537 
2365	 0.373241074004932 
2366	 0.373209404377025 
2367	 0.373073332756856 
2368	 0.372821205412156 
2369	 0.372642433447987 
2370	 0.372488641346017 
2371	 0.372245076505298 
2372	 0.371973042972576 
2373	 0.371775136254446 
2374	 0.371457958634469 
2375	 0.371090680234143 
2376	 0.370907803828484 
2377	 0.370682800788072 
2378	 0.370428768505597 
2379	 0.370282156191989 
2380	 0.370039290904598 
2381	 0.369856799564509 
2382	 0.369707658704722 
2383	 0.36951973862023 
2384	 0.369386734180675 
2385	 0.369178201583655 
2386	 0.368946024651399 
2387	 0.368691880732088 
2388	 0.368446551476125 
2389	 0.368268206629119 
2390	 0.368075768066016 
2391	 0.367899877811444 
2392	 0.367638150415588 
2393	 0.367336335635065 
2394	 0.36710784668735 
2395	 0.366899354084028 
2396	 0.366752040479012 
2397	 0.36655172260052 
2398	 0.366263972708169 
2399	 0.365979392870997 
2400	 0.365683119162013 
2401	 0.365426784238373 
2402	 0.365197597575204 
2403	 0.36492890568886 
2404	 0.364623209922504 
2405	 0.364295875398072 
2406	 0.364020651881505 
2407	 0.363764825479716 
2408	 0.363468858396567 
2409	 0.363217094741816 
2410	 0.363011291198384 
2411	 0.362832887843159 
2412	 0.362667580927245 
2413	 0.362514366089146 
2414	 0.362193170121327 
2415	 0.361752912358313 
2416	 0.361400340668752 
2417	 0.360953927178757 
2418	 0.360653906647808 
2419	 0.360537840187654 
2420	 0.360332938737766 
2421	 0.360189332079615 
2422	 0.359916714651213 
2423	 0.359564870447578 
2424	 0.359222215932742 
2425	 0.358763948132466 
2426	 0.358419580426706 
2427	 0.358151708154996 
2428	 0.357773204435509 
2429	 0.357385744780816 
2430	 0.357016518808461 
2431	 0.356537995589931 
2432	 0.356251751476846 
2433	 0.356115338948392 
2434	 0.355892966271389 
2435	 0.355755813387923 
2436	 0.355518044369194 
2437	 0.355182146822279 
2438	 0.354862105467509 
2439	 0.354559168012158 
2440	 0.354173518939238 
2441	 0.353686938824161 
2442	 0.353307799309635 
2443	 0.352891715035781 
2444	 0.352610990478048 
2445	 0.352490462793415 
2446	 0.352206420129316 
2447	 0.351927096757516 
2448	 0.351670478702273 
2449	 0.351320661013297 
2450	 0.351009957697343 
2451	 0.350740366014678 
2452	 0.350416508573 
2453	 0.350127665257819 
2454	 0.3497982309768 
2455	 0.34940180337766 
2456	 0.349132265807336 
2457	 0.348835384579697 
2458	 0.348558122580275 
2459	 0.348483821516792 
2460	 0.348212987864518 
2461	 0.347776456246747 
2462	 0.347358682271101 
2463	 0.346915768135765 
2464	 0.346513447819179 
2465	 0.346021959493578 
2466	 0.345707075373751 
2467	 0.345478456067065 
2468	 0.345146353571285 
2469	 0.34496237747717 
2470	 0.344631687740071 
2471	 0.344299468798113 
2472	 0.34404464754289 
2473	 0.343700660365006 
2474	 0.343422047294621 
2475	 0.343293161056817 
2476	 0.343074783306004 
2477	 0.342767216125092 
2478	 0.342440263077056 
2479	 0.342069522414823 
2480	 0.341903407679049 
2481	 0.341783887156959 
2482	 0.341463914267787 
2483	 0.341035182003761 
2484	 0.340526783331087 
2485	 0.340178468880881 
2486	 0.340113147415323 
2487	 0.340121744581514 
2488	 0.339980509138443 
2489	 0.339695489679768 
2490	 0.339302284362775 
2491	 0.338850817531372 
2492	 0.33861765875349 
2493	 0.3383387522046 
2494	 0.337881704128234 
2495	 0.337577221816415 
2496	 0.337196688906079 
2497	 0.336981617492736 
2498	 0.337024487279487 
2499	 0.336886709100986 
2500	 0.336888143032717 
