Wavelength	MM100003.asd
350	 2.98165352732731E-02 
351	 3.05111024431766E-02 
352	 3.04422038589919E-02 
353	 0.030860718471708 
354	 3.25478397589946E-02 
355	 3.21509041790499E-02 
356	 2.98197693410581E-02 
357	 2.80139423320821E-02 
358	 3.45059250608288E-02 
359	 3.37351186347545E-02 
360	 0.029121832980758 
361	 3.45291588062747E-02 
362	 0.032674394802753 
363	 3.12280520037261E-02 
364	 3.36861449108216E-02 
365	 3.24070408519587E-02 
366	 3.02956562704321E-02 
367	 2.92686421662342E-02 
368	 0.03066126777947 
369	 0.03511564963455 
370	 3.45211232166852E-02 
371	 3.10343736044151E-02 
372	 3.29495615209822E-02 
373	 3.13502008040826E-02 
374	 3.11621196199631E-02 
375	 3.46710203824699E-02 
376	 0.036833591814015 
377	 3.71472711020686E-02 
378	 3.73683883906056E-02 
379	 3.86955682167193E-02 
380	 3.62261857115041E-02 
381	 0.034537178003362 
382	 3.55465237636321E-02 
383	 0.038441285389482 
384	 3.82441664976528E-02 
385	 3.76466718064948E-02 
386	 3.86324086761698E-02 
387	 3.97675705702006E-02 
388	 3.94938859570358E-02 
389	 0.039026615520937 
390	 3.96494218258692E-02 
391	 3.77528808831323E-02 
392	 3.88514098569845E-02 
393	 4.25541525664104E-02 
394	 4.34269742854879E-02 
395	 4.32633607134726E-02 
396	 4.37104659839375E-02 
397	 4.51394788336084E-02 
398	 0.045213827612123 
399	 4.53999682761765E-02 
400	 4.58558567175714E-02 
401	 4.62435576473477E-02 
402	 4.60657494740438E-02 
403	 4.70629628706145E-02 
404	 0.048504442803823 
405	 4.72804496140743E-02 
406	 4.78542472431393E-02 
407	 4.92559865450595E-02 
408	 4.98249153270796E-02 
409	 4.88441925350421E-02 
410	 4.85120365188919E-02 
411	 4.93593492174706E-02 
412	 5.07853003973755E-02 
413	 5.06775525083717E-02 
414	 0.050479621354815 
415	 5.07882410049609E-02 
416	 5.07002251821976E-02 
417	 5.05945349064076E-02 
418	 5.09396156100145E-02 
419	 5.17342442759975E-02 
420	 5.13625123177956E-02 
421	 5.08916734720036E-02 
422	 5.09773923992313E-02 
423	 5.17972647891777E-02 
424	 5.18525958950108E-02 
425	 5.15545578789255E-02 
426	 0.051354485051603 
427	 5.12917246017274E-02 
428	 5.12332065716218E-02 
429	 5.09281033152563E-02 
430	 5.03339090052236E-02 
431	 5.06106824762514E-02 
432	 5.06376988646507E-02 
433	 5.02274656340323E-02 
434	 5.01611106394531E-02 
435	 5.01782924633203E-02 
436	 0.05011726288634 
437	 4.99544851242272E-02 
438	 5.00086430679826E-02 
439	 4.98956600198674E-02 
440	 4.98734917843915E-02 
441	 5.03839381407905E-02 
442	 5.06024329667997E-02 
443	 5.06378662941291E-02 
444	 5.06511412965179E-02 
445	 5.07111439270872E-02 
446	 5.10538519065381E-02 
447	 5.13902034718916E-02 
448	 5.14399797646224E-02 
449	 5.16608999136523E-02 
450	 5.18553480828056E-02 
451	 0.051990047874886 
452	 5.21742089096492E-02 
453	 5.21818471063278E-02 
454	 0.052210623314122 
455	 5.24054673940023E-02 
456	 5.26317376071381E-02 
457	 5.26678074387269E-02 
458	 5.26917463333694E-02 
459	 5.29776545336374E-02 
460	 5.29915946703917E-02 
461	 5.28404819816115E-02 
462	 5.28532842571325E-02 
463	 5.36002638921506E-02 
464	 5.37213299949942E-02 
465	 5.34707122170515E-02 
466	 5.34469569741822E-02 
467	 5.36230471142728E-02 
468	 5.37284692060932E-02 
469	 5.36819924922764E-02 
470	 5.35729190310823E-02 
471	 5.34988709181337E-02 
472	 5.34623514861507E-02 
473	 5.34754777675149E-02 
474	 5.36306672971714E-02 
475	 5.38689047477539E-02 
476	 5.39471661577798E-02 
477	 5.36570763035076E-02 
478	 5.36233378706751E-02 
479	 5.36654515744523E-02 
480	 5.36744369995879E-02 
481	 5.37423170146459E-02 
482	 5.39212850741217E-02 
483	 5.39817431284054E-02 
484	 0.053795918768262 
485	 5.39816235983777E-02 
486	 5.39946337152133E-02 
487	 5.37991150783664E-02 
488	 0.053787198043547 
489	 5.37532983714804E-02 
490	 5.38335165740247E-02 
491	 5.40550716485413E-02 
492	 5.40480042209836E-02 
493	 5.40310857530286E-02 
494	 5.40207405414096E-02 
495	 5.39693437455779E-02 
496	 5.40759317206731E-02 
497	 5.41402289058648E-02 
498	 5.41204105259934E-02 
499	 5.42743600415799E-02 
500	 5.41911948324567E-02 
501	 5.40253511457594E-02 
502	 5.40431344667639E-02 
503	 5.42246135922132E-02 
504	 5.43230200194817E-02 
505	 5.42887139687531E-02 
506	 5.42592318635732E-02 
507	 5.42549994240411E-02 
508	 5.43374162273773E-02 
509	 5.44775236689137E-02 
510	 5.43891504707432E-02 
511	 5.43492301745946E-02 
512	 5.43958644696957E-02 
513	 0.054439495699487 
514	 0.054492311674403 
515	 5.45094114089396E-02 
516	 5.45097450606362E-02 
517	 5.46382389150588E-02 
518	 5.46801686692254E-02 
519	 5.46077187066849E-02 
520	 5.44960862122603E-02 
521	 5.45731836803855E-02 
522	 5.47146746692332E-02 
523	 5.47999345456137E-02 
524	 5.47406359158692E-02 
525	 5.46843021499524E-02 
526	 5.47230229280446E-02 
527	 5.48599977646067E-02 
528	 5.48844710642477E-02 
529	 5.48520657447757E-02 
530	 5.48757910196226E-02 
531	 5.50721415668015E-02 
532	 0.055125827712603 
533	 5.51560247606619E-02 
534	 5.52506019051533E-02 
535	 5.52876209207603E-02 
536	 5.54134572902781E-02 
537	 5.55523352591284E-02 
538	 5.55780174006307E-02 
539	 5.56652059660699E-02 
540	 5.57471898471409E-02 
541	 5.58002599400024E-02 
542	 5.58823318061213E-02 
543	 0.055967146896955 
544	 5.60679782670824E-02 
545	 5.62009374391123E-02 
546	 5.63571408520577E-02 
547	 5.65095871169909E-02 
548	 5.66625937642654E-02 
549	 5.68462835148339E-02 
550	 5.70481247031404E-02 
551	 5.72489149930708E-02 
552	 5.74438722700339E-02 
553	 5.76704963706402E-02 
554	 5.78845180635612E-02 
555	 5.81112247830915E-02 
556	 5.84040874885597E-02 
557	 5.87177247289507E-02 
558	 5.90236285000156E-02 
559	 5.93414353386557E-02 
560	 5.97786229310059E-02 
561	 6.01680968723204E-02 
562	 6.05361443183556E-02 
563	 6.09666076207865E-02 
564	 6.14571575802344E-02 
565	 6.19428432021321E-02 
566	 6.24246305020283E-02 
567	 6.29808242637443E-02 
568	 6.35694429203074E-02 
569	 6.42049577717763E-02 
570	 6.48914459201871E-02 
571	 6.55590777751412E-02 
572	 6.62463246080765E-02 
573	 6.69990051626358E-02 
574	 6.78461268893565E-02 
575	 6.85554447612311E-02 
576	 6.92902155001662E-02 
577	 7.01608077467384E-02 
578	 7.10239211828195E-02 
579	 7.19277772793742E-02 
580	 7.28936491250815E-02 
581	 7.39258784195336E-02 
582	 7.49652830928388E-02 
583	 7.60598954287517E-02 
584	 7.71924199957107E-02 
585	 7.82428709360041E-02 
586	 7.93046827914857E-02 
587	 8.04197385644237E-02 
588	 8.15881264122453E-02 
589	 8.27047788635341E-02 
590	 8.38575167271869E-02 
591	 8.50517613009506E-02 
592	 8.62169090726135E-02 
593	 8.73729262680114E-02 
594	 8.85039882191784E-02 
595	 0.089615385148273 
596	 9.07951666325508E-02 
597	 9.19418224021213E-02 
598	 0.093071149548669 
599	 9.42492907306392E-02 
600	 9.53391257712154E-02 
601	 9.63684361069922E-02 
602	 9.73704330381045E-02 
603	 9.83550397242255E-02 
604	 9.93208205901913E-02 
605	 0.100262213657316 
606	 0.101179478213673 
607	 0.102118995356137 
608	 0.103003570897966 
609	 0.103827310582576 
610	 0.104673225283303 
611	 0.105462987708622 
612	 0.10622730623889 
613	 0.106978941591257 
614	 0.10758825928987 
615	 0.108165602977443 
616	 0.108748867160982 
617	 0.109319966280359 
618	 0.109884873697544 
619	 0.110409265055714 
620	 0.110872271503724 
621	 0.111278688862856 
622	 0.111723153558551 
623	 0.112191123286129 
624	 0.11262255977458 
625	 0.113005772859561 
626	 0.113365196049935 
627	 0.113716499404185 
628	 0.114058326223606 
629	 0.114452629894283 
630	 0.114831075871604 
631	 0.115130687077588 
632	 0.115461129698662 
633	 0.115738806638258 
634	 0.116000737015432 
635	 0.116373687294142 
636	 0.116721320748544 
637	 0.117055073315454 
638	 0.117385298890571 
639	 0.117648375070559 
640	 0.117919817747793 
641	 0.118235122695888 
642	 0.118598204185404 
643	 0.118938632981765 
644	 0.119274842633243 
645	 0.119621502484538 
646	 0.11997410135479 
647	 0.120325593694746 
648	 0.12067295860568 
649	 0.121012879949645 
650	 0.121326233289826 
651	 0.12168457489617 
652	 0.122074230704298 
653	 0.122413316280319 
654	 0.122815021000031 
655	 0.123195590086662 
656	 0.123521327106062 
657	 0.123971994108499 
658	 0.124457382520838 
659	 0.12490000885582 
660	 0.125255204476898 
661	 0.12570160906347 
662	 0.126196725078026 
663	 0.126687881509294 
664	 0.127140396616044 
665	 0.12759949063656 
666	 0.128091804579003 
667	 0.128618250342428 
668	 0.129093016400377 
669	 0.129610505663184 
670	 0.13017071051945 
671	 0.130694416383181 
672	 0.131253345931781 
673	 0.131842405290106 
674	 0.132436032071252 
675	 0.132987988220943 
676	 0.133570976825378 
677	 0.134175787542808 
678	 0.13477280287214 
679	 0.135470448693638 
680	 0.136119329265111 
681	 0.136703543561649 
682	 0.137408531941058 
683	 0.13810052822533 
684	 0.138761004753438 
685	 0.139418246770346 
686	 0.140157596269065 
687	 0.140904282160698 
688	 0.14163484680683 
689	 0.14236461576535 
690	 0.143082583915094 
691	 0.143788900864898 
692	 0.144509229947551 
693	 0.145326210311496 
694	 0.146104351253256 
695	 0.146866003108025 
696	 0.147672835876072 
697	 0.148445035163462 
698	 0.149245780164764 
699	 0.150085502545415 
700	 0.150910461818896 
701	 0.151713685938514 
702	 0.152507697119968 
703	 0.153307161449443 
704	 0.154116827866573 
705	 0.154927594098406 
706	 0.155750289046927 
707	 0.15659242590148 
708	 0.157348414142807 
709	 0.158129237450337 
710	 0.158978773881564 
711	 0.159814461946596 
712	 0.160610793740114 
713	 0.161372995233032 
714	 0.162128023345468 
715	 0.162932560510657 
716	 0.163720954389985 
717	 0.16447577642281 
718	 0.165215493658285 
719	 0.165926569214275 
720	 0.16660838922531 
721	 0.167268639298454 
722	 0.167926294043585 
723	 0.168577878324899 
724	 0.169241014569918 
725	 0.16991513300307 
726	 0.170480261603844 
727	 0.171015722817599 
728	 0.171556416443906 
729	 0.172085111225917 
730	 0.172622542756555 
731	 0.173089902997663 
732	 0.17346365736216 
733	 0.173896339128379 
734	 0.174269570536969 
735	 0.17459905666101 
736	 0.174944630527212 
737	 0.175285111619214 
738	 0.175552721652903 
739	 0.175747868253936 
740	 0.175946802986434 
741	 0.176120871593521 
742	 0.176270533045221 
743	 0.176394912977213 
744	 0.176479989311481 
745	 0.176492267580824 
746	 0.176489230902745 
747	 0.176541214037884 
748	 0.176476104468352 
749	 0.176389364570901 
750	 0.176315208755714 
751	 0.17618623806752 
752	 0.176045993740926 
753	 0.175871249825227 
754	 0.175651577181754 
755	 0.175459718491194 
756	 0.175231567668061 
757	 0.174962768630052 
758	 0.174676926741457 
759	 0.174351215652537 
760	 0.174003714657398 
761	 0.173656754129723 
762	 0.173331207390464 
763	 0.172980341558055 
764	 0.1725871455542 
765	 0.172158020036208 
766	 0.171738767874918 
767	 0.17130918472934 
768	 0.170863717254835 
769	 0.170407302792985 
770	 0.1699737591601 
771	 0.169496719015516 
772	 0.168972121139103 
773	 0.168478678594392 
774	 0.168007008796457 
775	 0.167521010958272 
776	 0.167002310987211 
777	 0.166500790423682 
778	 0.166000981269459 
779	 0.165470046280914 
780	 0.164888041866443 
781	 0.164361004185182 
782	 0.1638942595666 
783	 0.163421096166983 
784	 0.162822572765163 
785	 0.162301753068275 
786	 0.161796673834855 
787	 0.161247539679798 
788	 0.160723201165009 
789	 0.160230586266183 
790	 0.15973560201711 
791	 0.159197380758903 
792	 0.158635627529045 
793	 0.158123559905808 
794	 0.157653315741028 
795	 0.15715079869855 
796	 0.156661794064607 
797	 0.156185608579523 
798	 0.155691977217221 
799	 0.155102494999289 
800	 0.154623774064647 
801	 0.154224567683086 
802	 0.153800711492367 
803	 0.153285483777008 
804	 0.15281022026628 
805	 0.152399449401512 
806	 0.152000482295062 
807	 0.151561981492687 
808	 0.151107560797005 
809	 0.150660006154538 
810	 0.150225596550279 
811	 0.149852432170769 
812	 0.149469101902891 
813	 0.149042620403495 
814	 0.14873149365356 
815	 0.148327382115315 
816	 0.147877088521472 
817	 0.147517703068879 
818	 0.147240466422789 
819	 0.146944389382101 
820	 0.146588217839964 
821	 0.146198122415641 
822	 0.145867351376241 
823	 0.14557605748459 
824	 0.145285494818101 
825	 0.14496050350201 
826	 0.14462431902376 
827	 0.144362550708565 
828	 0.144201337117457 
829	 0.143936216204963 
830	 0.143623892852692 
831	 0.143316981345724 
832	 0.143062446093143 
833	 0.142872247653573 
834	 0.142687018947992 
835	 0.14248163576773 
836	 0.142270698297315 
837	 0.142061996650795 
838	 0.141850964569274 
839	 0.141648839000126 
840	 0.141497488741465 
841	 0.141350334490473 
842	 0.141160259530775 
843	 0.140930472299557 
844	 0.140813311068306 
845	 0.140716147633898 
846	 0.140610908340973 
847	 0.140503184553848 
848	 0.140399786885827 
849	 0.140321827111563 
850	 0.140251928166486 
851	 0.140143888066336 
852	 0.140006619920978 
853	 0.139927336054805 
854	 0.139902785843983 
855	 0.139789678599202 
856	 0.139808441156385 
857	 0.139835468281019 
858	 0.139760239012886 
859	 0.139714676800335 
860	 0.139690141969693 
861	 0.139689149546335 
862	 0.139710609229919 
863	 0.139745565168605 
864	 0.139761101061823 
865	 0.139780707660183 
866	 0.139849989563999 
867	 0.139903493542819 
868	 0.139958253101688 
869	 0.140010746318696 
870	 0.140034432538912 
871	 0.140075353053759 
872	 0.1401685855262 
873	 0.140307621698839 
874	 0.140426707476738 
875	 0.140554637207734 
876	 0.140650720447499 
877	 0.140717553060616 
878	 0.140912808928477 
879	 0.141099374687181 
880	 0.141247281476751 
881	 0.141387489642598 
882	 0.141634002172785 
883	 0.141821664104139 
884	 0.141935028669842 
885	 0.142064252296153 
886	 0.142341850388855 
887	 0.142565825286841 
888	 0.142716388293873 
889	 0.142939936389904 
890	 0.143172551778992 
891	 0.143432897098463 
892	 0.143726296749655 
893	 0.144028138031665 
894	 0.144267605627079 
895	 0.144498895086584 
896	 0.144777781841852 
897	 0.145112899950724 
898	 0.145436396345403 
899	 0.145734217188091 
900	 0.146022277345415 
901	 0.146345928318343 
902	 0.146690812396258 
903	 0.147059743584457 
904	 0.147445603427803 
905	 0.14778677885843 
906	 0.148168905752277 
907	 0.148595061795011 
908	 0.149020621397411 
909	 0.149399150992027 
910	 0.149772333981066 
911	 0.150188329997143 
912	 0.150670144800996 
913	 0.151087827113164 
914	 0.151528439422052 
915	 0.152016033760409 
916	 0.152501409288364 
917	 0.152951788661383 
918	 0.153450453801545 
919	 0.154006855785124 
920	 0.154529065238538 
921	 0.155021689490788 
922	 0.155538329085522 
923	 0.156090438819177 
924	 0.156617283213237 
925	 0.157127854498708 
926	 0.157717077102771 
927	 0.158384119236852 
928	 0.158926485758431 
929	 0.159570788083861 
930	 0.160208318204849 
931	 0.160767120023355 
932	 0.161464408633203 
933	 0.16208560941262 
934	 0.162689052092229 
935	 0.163370386852172 
936	 0.164095263914861 
937	 0.164757255605895 
938	 0.165394525990036 
939	 0.166083059751652 
940	 0.166839220177603 
941	 0.167535555116825 
942	 0.168263298879833 
943	 0.169122327632814 
944	 0.169884775653317 
945	 0.170596915356503 
946	 0.171350420964779 
947	 0.172190088081864 
948	 0.172879645486434 
949	 0.173633622935926 
950	 0.174436032588697 
951	 0.175188316162692 
952	 0.176048947790699 
953	 0.17695960960687 
954	 0.177818101730574 
955	 0.178566621664804 
956	 0.179462419674448 
957	 0.180383728513055 
958	 0.181230660767029 
959	 0.181989472818414 
960	 0.182922452825542 
961	 0.18385790537141 
962	 0.184725182971022 
963	 0.185559145354589 
964	 0.186460459566571 
965	 0.187406949409051 
966	 0.188372467731097 
967	 0.189336230938858 
968	 0.190267612138294 
969	 0.191251058749724 
970	 0.192230251050386 
971	 0.193090356974807 
972	 0.194010276380437 
973	 0.194966599441814 
974	 0.195966175281021 
975	 0.19701795343017 
976	 0.197984650556634 
977	 0.198899299890924 
978	 0.199885828283836 
979	 0.201030281030041 
980	 0.201970548017751 
981	 0.202764901880408 
982	 0.203627150854976 
983	 0.204751136156896 
984	 0.205845301421131 
985	 0.206801173976422 
986	 0.207646665527129 
987	 0.208500623971669 
988	 0.209484202054446 
989	 0.210563827820451 
990	 0.211583397948002 
991	 0.212438824818896 
992	 0.213516072697752 
993	 0.214405059324036 
994	 0.215274347974399 
995	 0.216388603255475 
996	 0.217223989817586 
997	 0.218119449989392 
998	 0.219070277131383 
999	 0.219967728361939 
1000	 0.220871403475558 
1001	 0.224772905249311 
1002	 0.225683941748432 
1003	 0.22658898415292 
1004	 0.227452818567436 
1005	 0.228341479812181 
1006	 0.229198057822764 
1007	 0.229989452113243 
1008	 0.23077744745693 
1009	 0.23163819581903 
1010	 0.232401672508644 
1011	 0.233163058738011 
1012	 0.233965462991049 
1013	 0.234730995057937 
1014	 0.235466776192106 
1015	 0.236141412578662 
1016	 0.23680756105368 
1017	 0.237515103111028 
1018	 0.238228370862302 
1019	 0.238949459212551 
1020	 0.239699114599102 
1021	 0.240436032506543 
1022	 0.241074637766026 
1023	 0.241703982662071 
1024	 0.242368258809283 
1025	 0.2429725038763 
1026	 0.243542416676971 
1027	 0.244134011912381 
1028	 0.244707981431029 
1029	 0.245239509731598 
1030	 0.245845258076434 
1031	 0.246454606983514 
1032	 0.24709506398843 
1033	 0.247654784101518 
1034	 0.248262139602142 
1035	 0.248837124913722 
1036	 0.249319060398915 
1037	 0.249847378869349 
1038	 0.250407336813187 
1039	 0.250942894302484 
1040	 0.251459695597946 
1041	 0.252004694643352 
1042	 0.252562822524597 
1043	 0.253079479156983 
1044	 0.253613240089915 
1045	 0.25417636064384 
1046	 0.254757835250582 
1047	 0.255301620991357 
1048	 0.255825093513719 
1049	 0.256331212185447 
1050	 0.256834123623429 
1051	 0.257309344044084 
1052	 0.257797113965861 
1053	 0.258367577373317 
1054	 0.25887632477937 
1055	 0.259313513009468 
1056	 0.259803856003946 
1057	 0.260286440259964 
1058	 0.260748412657434 
1059	 0.261217605999926 
1060	 0.26171811726185 
1061	 0.26217332774632 
1062	 0.26261218722269 
1063	 0.263041345260138 
1064	 0.263468512190423 
1065	 0.263922990706338 
1066	 0.264395539979562 
1067	 0.264798246031282 
1068	 0.265157810211139 
1069	 0.265521025500776 
1070	 0.265894397577518 
1071	 0.266219104864078 
1072	 0.266612891832111 
1073	 0.267096107052551 
1074	 0.26750250484443 
1075	 0.267896024025494 
1076	 0.268247923384085 
1077	 0.268603963611919 
1078	 0.268903301704399 
1079	 0.269178700922252 
1080	 0.269493136660092 
1081	 0.269794885243081 
1082	 0.270084548589097 
1083	 0.270402720381455 
1084	 0.270783289274875 
1085	 0.271078602902786 
1086	 0.271329746646353 
1087	 0.271609843281286 
1088	 0.271876566602638 
1089	 0.272108603770221 
1090	 0.27239213776421 
1091	 0.272671255505623 
1092	 0.272919940518695 
1093	 0.273212940368231 
1094	 0.27351163180745 
1095	 0.273805505715015 
1096	 0.274139939994246 
1097	 0.27447307956978 
1098	 0.274777678988624 
1099	 0.275084985046722 
1100	 0.275383521968647 
1101	 0.275645055164613 
1102	 0.275920181801415 
1103	 0.276212521140796 
1104	 0.276482240957926 
1105	 0.276728102769624 
1106	 0.276984861664421 
1107	 0.277275174361701 
1108	 0.277595213028771 
1109	 0.277915398736854 
1110	 0.278219340649893 
1111	 0.278522405777553 
1112	 0.278798487025076 
1113	 0.27909377013222 
1114	 0.279411710153904 
1115	 0.279715395130408 
1116	 0.2800028442517 
1117	 0.280296267089458 
1118	 0.280581032352599 
1119	 0.280885548244487 
1120	 0.281198792161385 
1121	 0.281542448670381 
1122	 0.281866924496211 
1123	 0.282159947677134 
1124	 0.282473254689908 
1125	 0.282772933035759 
1126	 0.283088949227776 
1127	 0.283436124141382 
1128	 0.283751941456133 
1129	 0.284053641033986 
1130	 0.28434578931749 
1131	 0.284632993973821 
1132	 0.284906338544151 
1133	 0.285160602303806 
1134	 0.285424813183992 
1135	 0.285686326213994 
1136	 0.285935625884208 
1137	 0.286195956979258 
1138	 0.286435924770727 
1139	 0.286691065952252 
1140	 0.286950919902792 
1141	 0.287198219202445 
1142	 0.287454046406208 
1143	 0.287692765190694 
1144	 0.287912197314105 
1145	 0.288131417548915 
1146	 0.288343765526149 
1147	 0.288556746769597 
1148	 0.288769544684066 
1149	 0.288973841120823 
1150	 0.289173647772759 
1151	 0.289373559237301 
1152	 0.289562434481052 
1153	 0.289743911757758 
1154	 0.289930273754889 
1155	 0.290115240741664 
1156	 0.290298976964895 
1157	 0.290498260946183 
1158	 0.290665165636273 
1159	 0.290807270481128 
1160	 0.290965071746108 
1161	 0.291102311890563 
1162	 0.291259365004922 
1163	 0.291437018773506 
1164	 0.29161037987934 
1165	 0.291793032638237 
1166	 0.291967077328128 
1167	 0.292132966085732 
1168	 0.292311477386796 
1169	 0.292462814787391 
1170	 0.292598354430381 
1171	 0.292733820079732 
1172	 0.292854767483651 
1173	 0.292980678205812 
1174	 0.293095443923818 
1175	 0.293232639733251 
1176	 0.293394494078724 
1177	 0.293525565089673 
1178	 0.29366148081321 
1179	 0.293784536027457 
1180	 0.293877134771833 
1181	 0.293974938511745 
1182	 0.294070251978124 
1183	 0.29416799960179 
1184	 0.294273726871021 
1185	 0.294379830277395 
1186	 0.294481862767846 
1187	 0.294596618311742 
1188	 0.294695973660835 
1189	 0.294772590696263 
1190	 0.294871364488704 
1191	 0.294980735421109 
1192	 0.295084832904946 
1193	 0.295208970171345 
1194	 0.295305417985991 
1195	 0.295372858372656 
1196	 0.295458772076454 
1197	 0.295543525349052 
1198	 0.295624294178353 
1199	 0.295707259314028 
1200	 0.29580301546189 
1201	 0.295890493927976 
1202	 0.295959231751171 
1203	 0.296057396720245 
1204	 0.296182968607689 
1205	 0.296279676337979 
1206	 0.296383410814827 
1207	 0.29646707574356 
1208	 0.296510515618809 
1209	 0.296588842056626 
1210	 0.296686768387394 
1211	 0.296767628575463 
1212	 0.296853608711761 
1213	 0.296938210445108 
1214	 0.297010454080815 
1215	 0.297082262622788 
1216	 0.297154883057184 
1217	 0.297238047805123 
1218	 0.297306799386253 
1219	 0.297362560410464 
1220	 0.297426703223822 
1221	 0.297487840838944 
1222	 0.297557295438798 
1223	 0.297638401498013 
1224	 0.297704974886898 
1225	 0.297775920545978 
1226	 0.297833209660949 
1227	 0.297871282415136 
1228	 0.29791572044377 
1229	 0.297948530323115 
1230	 0.297995840655509 
1231	 0.298056885032065 
1232	 0.298110399914507 
1233	 0.298164504425375 
1234	 0.298228893714943 
1235	 0.298275821352184 
1236	 0.298305584642036 
1237	 0.298353350057729 
1238	 0.298409528522091 
1239	 0.298450465086936 
1240	 0.298484357924191 
1241	 0.29853191430834 
1242	 0.298573203424928 
1243	 0.298621227183364 
1244	 0.29869677761188 
1245	 0.29874948044822 
1246	 0.298782276365724 
1247	 0.298824740785481 
1248	 0.298861246600977 
1249	 0.298908734296763 
1250	 0.298954471372537 
1251	 0.298987407560927 
1252	 0.299016763035334 
1253	 0.299027186868887 
1254	 0.299061474774938 
1255	 0.29910896301148 
1256	 0.299140145185856 
1257	 0.299177332157126 
1258	 0.299207626490951 
1259	 0.299220775787768 
1260	 0.299240404643384 
1261	 0.299273134781749 
1262	 0.299288614211583 
1263	 0.299287948793742 
1264	 0.299293572072235 
1265	 0.299290187504448 
1266	 0.299294200090638 
1267	 0.299302855359257 
1268	 0.299315088640463 
1269	 0.299328176048323 
1270	 0.299334276615471 
1271	 0.29937071909483 
1272	 0.299421340400276 
1273	 0.299472500404435 
1274	 0.29954174422537 
1275	 0.299613082315829 
1276	 0.299680983059135 
1277	 0.299766267910105 
1278	 0.299884397664201 
1279	 0.299974023153786 
1280	 0.300049810838669 
1281	 0.300137459879984 
1282	 0.300215925025336 
1283	 0.300301093172105 
1284	 0.300410423831147 
1285	 0.300504906549535 
1286	 0.300566364738506 
1287	 0.300642623930712 
1288	 0.300680818235069 
1289	 0.300680584973579 
1290	 0.300709379023629 
1291	 0.300731940004168 
1292	 0.300752973473957 
1293	 0.300799859154343 
1294	 0.300803265618768 
1295	 0.300780890014736 
1296	 0.300753327292732 
1297	 0.300696823747907 
1298	 0.300652893739072 
1299	 0.300618858348747 
1300	 0.300560881689345 
1301	 0.300496196546187 
1302	 0.300417874743734 
1303	 0.300317048749997 
1304	 0.300213049151319 
1305	 0.300093885077031 
1306	 0.29998902066532 
1307	 0.299881413394886 
1308	 0.299739533495498 
1309	 0.299597143686661 
1310	 0.299431905740247 
1311	 0.299302293240009 
1312	 0.29917738371945 
1313	 0.299054576658272 
1314	 0.298964263475253 
1315	 0.298844650310982 
1316	 0.298688763651497 
1317	 0.298571806370707 
1318	 0.298471576540107 
1319	 0.298366498698789 
1320	 0.2982840400726 
1321	 0.298190924712366 
1322	 0.298094163667982 
1323	 0.2979842277852 
1324	 0.297881938344052 
1325	 0.297771873886005 
1326	 0.297666731969306 
1327	 0.297589823927951 
1328	 0.297522138006315 
1329	 0.297473770212503 
1330	 0.297414593435374 
1331	 0.297348089019243 
1332	 0.297300456137635 
1333	 0.297268047186931 
1334	 0.297222256692441 
1335	 0.297171452896917 
1336	 0.297147841720592 
1337	 0.297123925050023 
1338	 0.297107343310636 
1339	 0.297132444195219 
1340	 0.297127813364682 
1341	 0.297106558232391 
1342	 0.297087111273806 
1343	 0.297065163332826 
1344	 0.297028346949515 
1345	 0.29700957068885 
1346	 0.296990389623292 
1347	 0.296960454114909 
1348	 0.29694908299268 
1349	 0.296926092725133 
1350	 0.29688411763874 
1351	 0.296848757945225 
1352	 0.296811612430478 
1353	 0.296776174353077 
1354	 0.29673492084463 
1355	 0.296703215476522 
1356	 0.296683260662111 
1357	 0.296650656749682 
1358	 0.296613508843479 
1359	 0.296586310727827 
1360	 0.296546473733185 
1361	 0.296523231713801 
1362	 0.296526267349116 
1363	 0.296513236393954 
1364	 0.296502422871373 
1365	 0.296486515119491 
1366	 0.296473858107138 
1367	 0.296432347091136 
1368	 0.296398381370557 
1369	 0.296364155148336 
1370	 0.296309310338789 
1371	 0.296244545675398 
1372	 0.296145278152195 
1373	 0.296025575373821 
1374	 0.295876361434824 
1375	 0.295699523721176 
1376	 0.295492990502586 
1377	 0.29525929184248 
1378	 0.294999590996134 
1379	 0.294714423132671 
1380	 0.294398537671511 
1381	 0.2940470878469 
1382	 0.293681520926716 
1383	 0.293292523176156 
1384	 0.292880856919994 
1385	 0.292476735999691 
1386	 0.292011353924049 
1387	 0.291509653783584 
1388	 0.290964453259763 
1389	 0.290384499708674 
1390	 0.289740194715388 
1391	 0.289055584910769 
1392	 0.288338450277214 
1393	 0.287562825770187 
1394	 0.286765867829391 
1395	 0.285935170083427 
1396	 0.285095858121328 
1397	 0.284261547308308 
1398	 0.28341494963065 
1399	 0.282570428844027 
1400	 0.281733484868124 
1401	 0.280877820729265 
1402	 0.280000909507838 
1403	 0.279145182807945 
1404	 0.278262823739936 
1405	 0.277448466384969 
1406	 0.276663477260233 
1407	 0.275904358955902 
1408	 0.275192307829861 
1409	 0.274490468035258 
1410	 0.273796801961264 
1411	 0.273142353044593 
1412	 0.272506180409982 
1413	 0.271910119137928 
1414	 0.271385995506637 
1415	 0.270900280077834 
1416	 0.270466378771785 
1417	 0.27007106596075 
1418	 0.269688095770066 
1419	 0.269319721502141 
1420	 0.268973557606763 
1421	 0.268659839161496 
1422	 0.268364134865742 
1423	 0.268089022626629 
1424	 0.267826374969713 
1425	 0.267593094819455 
1426	 0.267349060184337 
1427	 0.267099356265102 
1428	 0.266882626703432 
1429	 0.266675657767058 
1430	 0.266487382300359 
1431	 0.266334375873284 
1432	 0.266171729920985 
1433	 0.266005043636159 
1434	 0.265860791901507 
1435	 0.265717229430829 
1436	 0.265606057866058 
1437	 0.265534372816766 
1438	 0.265454212839666 
1439	 0.265388777597128 
1440	 0.265330019545593 
1441	 0.265254190141626 
1442	 0.265177886698176 
1443	 0.265107740366093 
1444	 0.265047614608803 
1445	 0.265015393117419 
1446	 0.264992377527697 
1447	 0.264991089816863 
1448	 0.264983950964525 
1449	 0.264954836808671 
1450	 0.264924027115424 
1451	 0.264903382554077 
1452	 0.264871820382235 
1453	 0.26487284833629 
1454	 0.264890768807196 
1455	 0.264918922302446 
1456	 0.264975053462507 
1457	 0.265012163970253 
1458	 0.265053007839064 
1459	 0.265093972124108 
1460	 0.265108721822704 
1461	 0.265163783165522 
1462	 0.2652373652275 
1463	 0.265323991202733 
1464	 0.265435402709191 
1465	 0.265553961565754 
1466	 0.265684740765905 
1467	 0.265826789138981 
1468	 0.265978352658397 
1469	 0.266146592548363 
1470	 0.266334908816589 
1471	 0.266516159407833 
1472	 0.266713841768265 
1473	 0.266948713081434 
1474	 0.267168356171253 
1475	 0.267395023931915 
1476	 0.26763882869503 
1477	 0.267867845178843 
1478	 0.26812167047221 
1479	 0.268385845948077 
1480	 0.268651889669173 
1481	 0.268924879126261 
1482	 0.269185726874599 
1483	 0.26943719978305 
1484	 0.269704691504357 
1485	 0.269972497715651 
1486	 0.270245966764517 
1487	 0.270537299138781 
1488	 0.270811855420864 
1489	 0.271077335093489 
1490	 0.2713465703779 
1491	 0.271616848158205 
1492	 0.271881817062622 
1493	 0.272145190055564 
1494	 0.272403768669426 
1495	 0.272652791724353 
1496	 0.272910625464942 
1497	 0.273174828290587 
1498	 0.27343012746986 
1499	 0.273688649417079 
1500	 0.273934362211339 
1501	 0.274172294947454 
1502	 0.27440423694648 
1503	 0.274624535917851 
1504	 0.274844515151174 
1505	 0.275068695312401 
1506	 0.275290997823209 
1507	 0.275519152491388 
1508	 0.275748835541529 
1509	 0.275979839761993 
1510	 0.276199552040667 
1511	 0.276404752346131 
1512	 0.276618406938496 
1513	 0.276840045650206 
1514	 0.277046672780041 
1515	 0.27726888713237 
1516	 0.277506455877307 
1517	 0.277716687777578 
1518	 0.277910125839207 
1519	 0.278109394057371 
1520	 0.278303726084339 
1521	 0.278483091873077 
1522	 0.278658427368938 
1523	 0.278829992536971 
1524	 0.278974449308485 
1525	 0.279147052778318 
1526	 0.279334085719665 
1527	 0.279516947825196 
1528	 0.279711472314231 
1529	 0.279898013945575 
1530	 0.280083098586618 
1531	 0.280263062637212 
1532	 0.280443315183477 
1533	 0.28061455231611 
1534	 0.280783596270564 
1535	 0.280936208031989 
1536	 0.281071481630926 
1537	 0.281209879781488 
1538	 0.28133511538586 
1539	 0.281465233949601 
1540	 0.281596624286036 
1541	 0.281732541291013 
1542	 0.281876867935726 
1543	 0.282009578222993 
1544	 0.282141120932713 
1545	 0.282267220732479 
1546	 0.282385429822766 
1547	 0.282492434617653 
1548	 0.282607574218729 
1549	 0.282725747349633 
1550	 0.282837769867657 
1551	 0.282955264988949 
1552	 0.283064279019928 
1553	 0.283167110255714 
1554	 0.283273087014986 
1555	 0.283378463405843 
1556	 0.283490488368038 
1557	 0.283605291008289 
1558	 0.283716202447865 
1559	 0.28382975854207 
1560	 0.283937030043705 
1561	 0.284039521585723 
1562	 0.284143565437121 
1563	 0.284243158514039 
1564	 0.284347737844739 
1565	 0.284458194343374 
1566	 0.284562358556389 
1567	 0.28465805651611 
1568	 0.284771302866513 
1569	 0.284897365736085 
1570	 0.285003725442 
1571	 0.285124425867872 
1572	 0.285212896211045 
1573	 0.285274215021502 
1574	 0.285331051272994 
1575	 0.285359370757116 
1576	 0.285418217057389 
1577	 0.285483455817389 
1578	 0.285541946184383 
1579	 0.285620574797939 
1580	 0.285677937999695 
1581	 0.285713105618847 
1582	 0.285757746347818 
1583	 0.285798850666851 
1584	 0.285847828315972 
1585	 0.285902562157115 
1586	 0.285952012084417 
1587	 0.286002317204508 
1588	 0.286055999618564 
1589	 0.286108528403921 
1590	 0.286158647716164 
1591	 0.286211283648423 
1592	 0.28626380419937 
1593	 0.286312519126946 
1594	 0.286364023797236 
1595	 0.286419342415415 
1596	 0.286474801024494 
1597	 0.28652700118289 
1598	 0.286582334420872 
1599	 0.286647354519406 
1600	 0.286703326038352 
1601	 0.28675316346764 
1602	 0.286806922566822 
1603	 0.286860205839559 
1604	 0.286906732847581 
1605	 0.286952729005843 
1606	 0.28699903263215 
1607	 0.287030841958627 
1608	 0.287078939480362 
1609	 0.287135072969627 
1610	 0.287183212130629 
1611	 0.287226741896221 
1612	 0.287252786120819 
1613	 0.28725208131944 
1614	 0.287248800239179 
1615	 0.287261703573893 
1616	 0.287273263599736 
1617	 0.287313425395802 
1618	 0.287382194091009 
1619	 0.28742046990314 
1620	 0.287446783215807 
1621	 0.28746922792463 
1622	 0.287473405052893 
1623	 0.287481813887052 
1624	 0.287486884885616 
1625	 0.287503958053233 
1626	 0.287513953272101 
1627	 0.287545165144333 
1628	 0.2876019644761 
1629	 0.287636760567573 
1630	 0.287675198629516 
1631	 0.287696492434947 
1632	 0.287696558502931 
1633	 0.287720903708115 
1634	 0.287753068576919 
1635	 0.28776927681756 
1636	 0.287791865857247 
1637	 0.287803184778763 
1638	 0.287786134745464 
1639	 0.287801400952718 
1640	 0.287831316434024 
1641	 0.287862422138278 
1642	 0.287912024974768 
1643	 0.287939373419347 
1644	 0.287959456307523 
1645	 0.287982215479838 
1646	 0.28799835951198 
1647	 0.288011317829995 
1648	 0.28803032128261 
1649	 0.288034584205034 
1650	 0.288022460271025 
1651	 0.288016127648558 
1652	 0.288005858805018 
1653	 0.28799889363867 
1654	 0.287989133392696 
1655	 0.28798669347547 
1656	 0.287994594764567 
1657	 0.287988118479898 
1658	 0.287982501613506 
1659	 0.287966963667443 
1660	 0.287931430478299 
1661	 0.287913713498979 
1662	 0.287896839865858 
1663	 0.287888945612405 
1664	 0.287893207455118 
1665	 0.287893878831395 
1666	 0.287903891025466 
1667	 0.287899711863524 
1668	 0.287901488391539 
1669	 0.287873813417197 
1670	 0.287810253990097 
1671	 0.287778663084997 
1672	 0.287740459860744 
1673	 0.287714876200356 
1674	 0.287715300023126 
1675	 0.287705516060341 
1676	 0.287688903789649 
1677	 0.287678831824971 
1678	 0.28767340928598 
1679	 0.287674741802492 
1680	 0.287683061135975 
1681	 0.287683905967777 
1682	 0.287695980346291 
1683	 0.28768959042172 
1684	 0.287663917334781 
1685	 0.287649249447198 
1686	 0.287633583200803 
1687	 0.287613563283318 
1688	 0.28759616437666 
1689	 0.287573771794879 
1690	 0.28753616539715 
1691	 0.287519558713785 
1692	 0.287510621949477 
1693	 0.287505937883762 
1694	 0.287525420278806 
1695	 0.287515551299998 
1696	 0.287500234406098 
1697	 0.28747039936791 
1698	 0.287411074069661 
1699	 0.287371470589345 
1700	 0.287332909713535 
1701	 0.287294870154846 
1702	 0.287266079584262 
1703	 0.287228341649605 
1704	 0.287180428324943 
1705	 0.287143408334794 
1706	 0.287111747507222 
1707	 0.287074724503036 
1708	 0.287038460477709 
1709	 0.287005734260586 
1710	 0.286972880150708 
1711	 0.286935017876629 
1712	 0.286910977768404 
1713	 0.286858644573025 
1714	 0.286773685741552 
1715	 0.286720191083208 
1716	 0.286667522765724 
1717	 0.286615795266503 
1718	 0.286592869650585 
1719	 0.286538641149256 
1720	 0.286463941193699 
1721	 0.286390161661216 
1722	 0.286293491664406 
1723	 0.286227836017659 
1724	 0.28617497383792 
1725	 0.286116467813758 
1726	 0.286081514307216 
1727	 0.286024576896274 
1728	 0.285945885289021 
1729	 0.285878129457288 
1730	 0.285822849688584 
1731	 0.285737710053753 
1732	 0.285641912852217 
1733	 0.285541420534671 
1734	 0.285414266708054 
1735	 0.285305689337072 
1736	 0.285199363317333 
1737	 0.285096906183323 
1738	 0.285002441233529 
1739	 0.284897046732174 
1740	 0.28479772058608 
1741	 0.284683859963906 
1742	 0.284554755233248 
1743	 0.284436364878298 
1744	 0.284304369852513 
1745	 0.284199874257826 
1746	 0.284114894878665 
1747	 0.284023147457991 
1748	 0.283945041878737 
1749	 0.283837526620125 
1750	 0.28372370962951 
1751	 0.283601639162504 
1752	 0.283461140941214 
1753	 0.283334347383438 
1754	 0.283196815353052 
1755	 0.283063963592955 
1756	 0.282946797062367 
1757	 0.282834435259098 
1758	 0.28275238688791 
1759	 0.282676751359946 
1760	 0.282581130131892 
1761	 0.282458759518628 
1762	 0.282320296644088 
1763	 0.282192757030442 
1764	 0.282073898674859 
1765	 0.281973740125744 
1766	 0.281892454933936 
1767	 0.281803698581124 
1768	 0.281721877976639 
1769	 0.281640651556194 
1770	 0.28153363003425 
1771	 0.281447619103032 
1772	 0.281365111605966 
1773	 0.281279902422758 
1774	 0.281225329148794 
1775	 0.281123459487145 
1776	 0.280993961652608 
1777	 0.280901157536757 
1778	 0.280805274372701 
1779	 0.28074501994962 
1780	 0.280718689672221 
1781	 0.280678997955167 
1782	 0.280640101968246 
1783	 0.28056832848313 
1784	 0.280515135903755 
1785	 0.280456472993599 
1786	 0.280403498195132 
1787	 0.28036504731488 
1788	 0.280327613281511 
1789	 0.280286350118135 
1790	 0.280259440088724 
1791	 0.280254043330376 
1792	 0.2802366222015 
1793	 0.280223893706447 
1794	 0.280200822800752 
1795	 0.280182154138118 
1796	 0.280131860954561 
1797	 0.280035315918662 
1798	 0.279985627236364 
1799	 0.279925535767179 
1800	 0.279896456219313 
1801	 0.279902561313688 
1802	 0.279948146922338 
1803	 0.280009852368472 
1804	 0.280122942351403 
1805	 0.280234983065779 
1806	 0.280344678757637 
1807	 0.280468369414177 
1808	 0.280556935703661 
1809	 0.28065080624611 
1810	 0.280690810383891 
1811	 0.280685476239474 
1812	 0.28067606962607 
1813	 0.280651893002147 
1814	 0.280655938297417 
1815	 0.280674902137267 
1816	 0.280670456448521 
1817	 0.280666360106141 
1818	 0.280657222990972 
1819	 0.280641523793564 
1820	 0.280617907919002 
1821	 0.28060025330946 
1822	 0.280581908814073 
1823	 0.28054300608877 
1824	 0.280522590740312 
1825	 0.280503788957638 
1826	 0.280478087859427 
1827	 0.280452634740982 
1828	 0.280402865243887 
1829	 0.280327405981925 
1830	 0.280267094624007 
1831	 0.280207501172927 
1832	 0.28012436353147 
1833	 0.280036992357358 
1834	 0.279937813772869 
1835	 0.279818906224366 
1836	 0.279732653103355 
1837	 0.279664653874572 
1838	 0.279593524626735 
1839	 0.279530700278236 
1840	 0.279492019928045 
1841	 0.27941022242406 
1842	 0.279301612503799 
1843	 0.279207685938714 
1844	 0.279065372150587 
1845	 0.278887747238713 
1846	 0.278731283831595 
1847	 0.278564883271235 
1848	 0.278370091253995 
1849	 0.278173740862184 
1850	 0.277969222345428 
1851	 0.277743814788835 
1852	 0.277528821686189 
1853	 0.277337404985239 
1854	 0.277097785270757 
1855	 0.27685616760736 
1856	 0.276583840713021 
1857	 0.276262422434977 
1858	 0.275933877804918 
1859	 0.27555451420594 
1860	 0.275113590337992 
1861	 0.274620886156357 
1862	 0.274052983273623 
1863	 0.273429494527847 
1864	 0.272780917127843 
1865	 0.272105615669236 
1866	 0.271377938663967 
1867	 0.270604195145823 
1868	 0.269797159485242 
1869	 0.268928391994935 
1870	 0.268010053781091 
1871	 0.267013453975331 
1872	 0.265968978624832 
1873	 0.264843695411863 
1874	 0.263641738924724 
1875	 0.262352308256668 
1876	 0.26097467742031 
1877	 0.25951278042249 
1878	 0.257941264171225 
1879	 0.25628301825281 
1880	 0.254528782902357 
1881	 0.252681340843193 
1882	 0.250732716830666 
1883	 0.248699360572728 
1884	 0.246514464536833 
1885	 0.244242809271143 
1886	 0.241901588711192 
1887	 0.239432159249515 
1888	 0.236917626357436 
1889	 0.234348888497644 
1890	 0.231725226353964 
1891	 0.229118816389026 
1892	 0.226449484246138 
1893	 0.223848451745551 
1894	 0.221252458249881 
1895	 0.218712897444719 
1896	 0.216188686094421 
1897	 0.213718608887735 
1898	 0.211295107378979 
1899	 0.208955672307481 
1900	 0.206742098333181 
1901	 0.204634118233744 
1902	 0.202650298069716 
1903	 0.200812832609029 
1904	 0.19906022316645 
1905	 0.19739824808438 
1906	 0.195879891806662 
1907	 0.194469057667894 
1908	 0.193144827461415 
1909	 0.191930583201713 
1910	 0.190787804444594 
1911	 0.189748520784258 
1912	 0.188786975319996 
1913	 0.187882920134868 
1914	 0.187063218059783 
1915	 0.1862954026533 
1916	 0.18558343906086 
1917	 0.184930309393118 
1918	 0.184351796103152 
1919	 0.183817813638521 
1920	 0.183361335139854 
1921	 0.182951406847806 
1922	 0.182579594481357 
1923	 0.182282129011584 
1924	 0.182022116486938 
1925	 0.181815001009345 
1926	 0.181641915096745 
1927	 0.181520378931187 
1928	 0.181420349824848 
1929	 0.181357505962914 
1930	 0.181333108413785 
1931	 0.181342876202516 
1932	 0.181395913062652 
1933	 0.181481029026635 
1934	 0.181596353048271 
1935	 0.181749200863581 
1936	 0.1819466334572 
1937	 0.182157076098605 
1938	 0.182398463309541 
1939	 0.182663412592983 
1940	 0.182950335539703 
1941	 0.183255583316385 
1942	 0.183593716184041 
1943	 0.183962356679641 
1944	 0.184334106781485 
1945	 0.184733061168661 
1946	 0.185143905791252 
1947	 0.185572429569261 
1948	 0.186005036452036 
1949	 0.186448201777474 
1950	 0.186909456488763 
1951	 0.187380412333851 
1952	 0.187868785155362 
1953	 0.188374661974411 
1954	 0.188901821325304 
1955	 0.189428267420139 
1956	 0.189964037035886 
1957	 0.190509901172468 
1958	 0.191064887072482 
1959	 0.191628149728322 
1960	 0.192205199002026 
1961	 0.192784045824282 
1962	 0.193376118327007 
1963	 0.193967339561529 
1964	 0.194553288620703 
1965	 0.195155141254224 
1966	 0.195771136018273 
1967	 0.196375549469793 
1968	 0.197004953738033 
1969	 0.19766473623216 
1970	 0.198297931008238 
1971	 0.198935124812151 
1972	 0.19957013038003 
1973	 0.200185870764567 
1974	 0.200812564993141 
1975	 0.20145217055128 
1976	 0.202089839260009 
1977	 0.202696970250204 
1978	 0.203310400962621 
1979	 0.203927919023563 
1980	 0.204549093153333 
1981	 0.205165484951268 
1982	 0.205783244146311 
1983	 0.206413764001409 
1984	 0.207041136430252 
1985	 0.207671622786022 
1986	 0.208327794166607 
1987	 0.208970149284034 
1988	 0.209602575419642 
1989	 0.21023464255422 
1990	 0.210863886380855 
1991	 0.211504513773639 
1992	 0.212137105667372 
1993	 0.212771737851613 
1994	 0.213397177647852 
1995	 0.214018271752086 
1996	 0.214632732319255 
1997	 0.215235243292007 
1998	 0.215839093828159 
1999	 0.216445394663426 
2000	 0.217044297259618 
2001	 0.21763461301451 
2002	 0.218232020731394 
2003	 0.218823385348305 
2004	 0.219398940716469 
2005	 0.219972263130269 
2006	 0.220538575906577 
2007	 0.221106914421053 
2008	 0.221651159093109 
2009	 0.222235367068205 
2010	 0.222865519882565 
2011	 0.223445158841821 
2012	 0.224035239013313 
2013	 0.224594203555706 
2014	 0.225109203925797 
2015	 0.225608153234357 
2016	 0.226107086684321 
2017	 0.22664689287048 
2018	 0.227181628849678 
2019	 0.227729098498676 
2020	 0.228267010831999 
2021	 0.228820695859614 
2022	 0.229347508942423 
2023	 0.229867827391666 
2024	 0.230370864688339 
2025	 0.230854225296853 
2026	 0.231332392000644 
2027	 0.231803756432569 
2028	 0.232244673318381 
2029	 0.232701763601661 
2030	 0.233154952980957 
2031	 0.233614558133276 
2032	 0.234076160676848 
2033	 0.234540399957386 
2034	 0.235010981726179 
2035	 0.235472644064157 
2036	 0.235935329699917 
2037	 0.236393728727282 
2038	 0.236857506080176 
2039	 0.237298827972422 
2040	 0.237725089870186 
2041	 0.238149082545625 
2042	 0.238556248899493 
2043	 0.238969184854708 
2044	 0.239381910058024 
2045	 0.239805022342568 
2046	 0.240210783726678 
2047	 0.240603895276876 
2048	 0.241004266755593 
2049	 0.241423413037568 
2050	 0.241799686479895 
2051	 0.242149705339619 
2052	 0.242505494586439 
2053	 0.242824438868598 
2054	 0.243161351280621 
2055	 0.243505807296955 
2056	 0.243869504350554 
2057	 0.24422099839034 
2058	 0.244566401664552 
2059	 0.244920188159414 
2060	 0.24528006522488 
2061	 0.24563658735727 
2062	 0.245992277372501 
2063	 0.246353385771338 
2064	 0.246722113819779 
2065	 0.247080777004339 
2066	 0.247449550708449 
2067	 0.247799525473105 
2068	 0.248140222909953 
2069	 0.248462208245373 
2070	 0.248783312982416 
2071	 0.249099839332057 
2072	 0.249395667610771 
2073	 0.249664136963574 
2074	 0.249961808787762 
2075	 0.250255974851205 
2076	 0.25055173642534 
2077	 0.250870257043806 
2078	 0.25117459833146 
2079	 0.251451749867538 
2080	 0.25175499909016 
2081	 0.252092844992185 
2082	 0.252397956783514 
2083	 0.252702953197091 
2084	 0.252992009747651 
2085	 0.253271819296106 
2086	 0.253515546940754 
2087	 0.253793407945641 
2088	 0.254085244461279 
2089	 0.254367219865101 
2090	 0.254650053932175 
2091	 0.254936980754684 
2092	 0.255224170996846 
2093	 0.255508380875891 
2094	 0.255802233003233 
2095	 0.25608655649194 
2096	 0.256356343937807 
2097	 0.256632051725365 
2098	 0.256912180732645 
2099	 0.257189301007342 
2100	 0.257454224480108 
2101	 0.2577143362481 
2102	 0.257974407393971 
2103	 0.258222835576925 
2104	 0.258476765593179 
2105	 0.258727041570082 
2106	 0.258992324235075 
2107	 0.259256408459487 
2108	 0.259533344604431 
2109	 0.259839011253188 
2110	 0.260128685521869 
2111	 0.260414693827528 
2112	 0.260701322100872 
2113	 0.261001924233288 
2114	 0.261272887993256 
2115	 0.261532736917667 
2116	 0.261784812785244 
2117	 0.262029009741685 
2118	 0.262236909470323 
2119	 0.262482957170396 
2120	 0.262750858423808 
2121	 0.263001699936359 
2122	 0.263263115002345 
2123	 0.263510121618983 
2124	 0.263752929518942 
2125	 0.263974746154654 
2126	 0.264174911986387 
2127	 0.264383776646215 
2128	 0.264590852490019 
2129	 0.26477690018698 
2130	 0.264958872088006 
2131	 0.265144336782273 
2132	 0.265287783438664 
2133	 0.265389973428102 
2134	 0.265505715976578 
2135	 0.265613740847196 
2136	 0.265700782160194 
2137	 0.265779635358612 
2138	 0.265842495887839 
2139	 0.265876669516213 
2140	 0.265914766945763 
2141	 0.265951185109643 
2142	 0.265972751904685 
2143	 0.26595366468695 
2144	 0.26597785157824 
2145	 0.266046569998942 
2146	 0.266068622042087 
2147	 0.266091924668528 
2148	 0.266114242230864 
2149	 0.266099013315809 
2150	 0.266029040815952 
2151	 0.265974505054893 
2152	 0.265916823822475 
2153	 0.26584775892395 
2154	 0.265763869663105 
2155	 0.265671749605865 
2156	 0.265570901181699 
2157	 0.265469955239385 
2158	 0.265369065407921 
2159	 0.265241692684408 
2160	 0.265095665609046 
2161	 0.264954505525247 
2162	 0.264792395276001 
2163	 0.264631376984254 
2164	 0.26446872359369 
2165	 0.264324527714206 
2166	 0.264159812489522 
2167	 0.26396805053391 
2168	 0.263818041409725 
2169	 0.263694272139815 
2170	 0.263538654851464 
2171	 0.263400102894413 
2172	 0.263229122536624 
2173	 0.26300741030364 
2174	 0.262822546648617 
2175	 0.262645673633686 
2176	 0.262467601518464 
2177	 0.262296586924995 
2178	 0.262130190303347 
2179	 0.261961055528476 
2180	 0.261798807740863 
2181	 0.261656070412419 
2182	 0.261503030156023 
2183	 0.261343954896411 
2184	 0.261192594955549 
2185	 0.261023986722309 
2186	 0.260839854997916 
2187	 0.260668324130984 
2188	 0.260484899915587 
2189	 0.260323585920649 
2190	 0.260172147679424 
2191	 0.260034665732418 
2192	 0.25992519424884 
2193	 0.259793165600898 
2194	 0.259656457160896 
2195	 0.259529542806842 
2196	 0.259393201509755 
2197	 0.259265276264257 
2198	 0.259152711308648 
2199	 0.259042128579734 
2200	 0.258930107619512 
2201	 0.258819891347355 
2202	 0.258710744778476 
2203	 0.258613716120608 
2204	 0.258527937517205 
2205	 0.258443371418946 
2206	 0.258376756240616 
2207	 0.258326337154701 
2208	 0.258289503701443 
2209	 0.258253398454377 
2210	 0.258257434673522 
2211	 0.25830485842796 
2212	 0.258333245690508 
2213	 0.258387148729682 
2214	 0.258422589121106 
2215	 0.258450239160344 
2216	 0.258470769971636 
2217	 0.258488072334468 
2218	 0.25849690320965 
2219	 0.258479723837211 
2220	 0.258481657245877 
2221	 0.258477700692994 
2222	 0.258508048815077 
2223	 0.258527133260429 
2224	 0.258519482127792 
2225	 0.258499915243449 
2226	 0.258453138562083 
2227	 0.258418619936183 
2228	 0.258379485348645 
2229	 0.258340690383161 
2230	 0.258305712246931 
2231	 0.258258548877729 
2232	 0.258202869408513 
2233	 0.258141806565851 
2234	 0.258079880170368 
2235	 0.258001864874255 
2236	 0.25790022972379 
2237	 0.257816169648 
2238	 0.257729902224017 
2239	 0.257643507073607 
2240	 0.257562309864927 
2241	 0.257489679694734 
2242	 0.257422508588882 
2243	 0.257345214034532 
2244	 0.257271375651682 
2245	 0.257202801627392 
2246	 0.257119407552145 
2247	 0.257009385862932 
2248	 0.256910883830744 
2249	 0.256813549897803 
2250	 0.256705731000932 
2251	 0.256579701606327 
2252	 0.256490662652858 
2253	 0.256413295905348 
2254	 0.25633503213996 
2255	 0.256295007311375 
2256	 0.256208229623801 
2257	 0.256081437189014 
2258	 0.255985341331473 
2259	 0.255882700993321 
2260	 0.255791666405657 
2261	 0.255710509763742 
2262	 0.25564840608832 
2263	 0.255590972945232 
2264	 0.255549694276161 
2265	 0.255536842598041 
2266	 0.25552683702049 
2267	 0.255552440245259 
2268	 0.255537020790382 
2269	 0.255507177492774 
2270	 0.255470192966344 
2271	 0.25543867411622 
2272	 0.255371201192984 
2273	 0.255300401100463 
2274	 0.255276601167895 
2275	 0.255223461050053 
2276	 0.255132597549559 
2277	 0.255096092479957 
2278	 0.255104248108535 
2279	 0.255052028172055 
2280	 0.25500452801746 
2281	 0.25493168091815 
2282	 0.254800001154398 
2283	 0.254710008473911 
2284	 0.254624074234515 
2285	 0.254557825322108 
2286	 0.254503377020349 
2287	 0.254456116374412 
2288	 0.254447573830592 
2289	 0.254401327458732 
2290	 0.254361894681347 
2291	 0.254289468810886 
2292	 0.254152692953579 
2293	 0.254061228840859 
2294	 0.253951051708353 
2295	 0.253878776813835 
2296	 0.253849064484749 
2297	 0.253846161574505 
2298	 0.253791246338388 
2299	 0.253750054617795 
2300	 0.253729954564834 
2301	 0.253671625495472 
2302	 0.25365031524482 
2303	 0.253640949437423 
2304	 0.253569393100846 
2305	 0.253508653114618 
2306	 0.253431473773956 
2307	 0.253351527543885 
2308	 0.253225677587259 
2309	 0.253054259054866 
2310	 0.252919280139392 
2311	 0.252757294781483 
2312	 0.252634539540636 
2313	 0.25256491381864 
2314	 0.252459279326579 
2315	 0.252345249883278 
2316	 0.252222508685104 
2317	 0.252081820784272 
2318	 0.251958516760206 
2319	 0.251826402509511 
2320	 0.251720111139274 
2321	 0.251610784624223 
2322	 0.251541903514613 
2323	 0.251558986547955 
2324	 0.251498786208699 
2325	 0.251442573806877 
2326	 0.251357782510434 
2327	 0.251223093306814 
2328	 0.25103223097936 
2329	 0.250914104467046 
2330	 0.250819441707484 
2331	 0.250734627367161 
2332	 0.250638826168056 
2333	 0.250533962876967 
2334	 0.25040561281943 
2335	 0.25023544259659 
2336	 0.250079440736323 
2337	 0.249911259598833 
2338	 0.249727786003142 
2339	 0.249593807083442 
2340	 0.249455607147718 
2341	 0.249329617472337 
2342	 0.249217904515661 
2343	 0.249028896301865 
2344	 0.248841848347367 
2345	 0.248622358701867 
2346	 0.248318845257853 
2347	 0.248081326431207 
2348	 0.247872811158323 
2349	 0.247657160142793 
2350	 0.247491107957082 
2351	 0.247244939320155 
2352	 0.246922521247336 
2353	 0.246662314358627 
2354	 0.246377456314959 
2355	 0.246144105588837 
2356	 0.245994047130963 
2357	 0.245797848155822 
2358	 0.24559436795456 
2359	 0.245361478992717 
2360	 0.245106136887664 
2361	 0.244863849032887 
2362	 0.244625231162692 
2363	 0.244366059871992 
2364	 0.244106838774699 
2365	 0.243814875888795 
2366	 0.243465335389225 
2367	 0.243150830318198 
2368	 0.242834349131108 
2369	 0.242547759777189 
2370	 0.242329600812462 
2371	 0.242010962537727 
2372	 0.241648375912711 
2373	 0.241308550517874 
2374	 0.240985385940423 
2375	 0.240664635864187 
2376	 0.240355021320858 
2377	 0.240064360096204 
2378	 0.23967096169589 
2379	 0.239258236913582 
2380	 0.238913353211388 
2381	 0.238587308271511 
2382	 0.238332274994246 
2383	 0.238081364190555 
2384	 0.237779803381268 
2385	 0.237520520632587 
2386	 0.237235470571374 
2387	 0.23688990409745 
2388	 0.236562699252296 
2389	 0.236205797498888 
2390	 0.23584635243512 
2391	 0.235503177238127 
2392	 0.235096763930339 
2393	 0.234722741556113 
2394	 0.234341611538772 
2395	 0.233910585734487 
2396	 0.233687711478762 
2397	 0.233425014776642 
2398	 0.232962399719535 
2399	 0.232540420936446 
2400	 0.232020946826168 
2401	 0.231485576019791 
2402	 0.23111293988115 
2403	 0.230850901254392 
2404	 0.230576250073368 
2405	 0.230304323676661 
2406	 0.230027056264663 
2407	 0.22962895742097 
2408	 0.229305152112423 
2409	 0.228972838331221 
2410	 0.228566016586009 
2411	 0.228220616812989 
2412	 0.227791330735222 
2413	 0.227309089868969 
2414	 0.226903576604782 
2415	 0.226524182348221 
2416	 0.226112416365921 
2417	 0.225708781102145 
2418	 0.225283159830054 
2419	 0.224806099282176 
2420	 0.224352453663203 
2421	 0.223921492708068 
2422	 0.223538545771625 
2423	 0.223168909022655 
2424	 0.222823630951054 
2425	 0.22253771598181 
2426	 0.222095048282243 
2427	 0.221586734573846 
2428	 0.221139015032088 
2429	 0.220618290845038 
2430	 0.220235695013067 
2431	 0.219956799520263 
2432	 0.219620005366191 
2433	 0.219332930408513 
2434	 0.218967656382572 
2435	 0.218580595507384 
2436	 0.218229577993077 
2437	 0.217839035499884 
2438	 0.217393084133491 
2439	 0.216926957134666 
2440	 0.216412621985167 
2441	 0.215827160483282 
2442	 0.215362471404501 
2443	 0.214960021987911 
2444	 0.214563981335233 
2445	 0.214161266471842 
2446	 0.213774254225949 
2447	 0.213445282523458 
2448	 0.213016456862276 
2449	 0.212633468799961 
2450	 0.212213786299224 
2451	 0.211610217305051 
2452	 0.211185392733993 
2453	 0.210887779480072 
2454	 0.210422367495898 
2455	 0.209963022309105 
2456	 0.209485548692239 
2457	 0.20885874236977 
2458	 0.208409648814214 
2459	 0.208105452013531 
2460	 0.207689484139213 
2461	 0.207256300202039 
2462	 0.206790617661189 
2463	 0.206196208350443 
2464	 0.205840379770184 
2465	 0.20574876761557 
2466	 0.205382757658 
2467	 0.204939463751036 
2468	 0.204539486876438 
2469	 0.203933866517611 
2470	 0.203623657303157 
2471	 0.203342082573045 
2472	 0.202920971564698 
2473	 0.202461146083929 
2474	 0.201997319064736 
2475	 0.201549023117141 
2476	 0.201125074885196 
2477	 0.200719048105418 
2478	 0.200232424989144 
2479	 0.199843554766149 
2480	 0.199530797149767 
2481	 0.199088068504798 
2482	 0.198773549932289 
2483	 0.198443130909248 
2484	 0.197975979484666 
2485	 0.197632259113736 
2486	 0.197208562353436 
2487	 0.196851233011577 
2488	 0.196615428026363 
2489	 0.196326262061836 
2490	 0.196106941899094 
2491	 0.195834063491257 
2492	 0.195505971429833 
2493	 0.195055923132545 
2494	 0.194729790700975 
2495	 0.19446125257595 
2496	 0.194003926627601 
2497	 0.193853700173627 
2498	 0.193433016594838 
2499	 0.192631412882923 
2500	 0.192266287073251 
