Wavelength	MM100005.asd
350	 3.96159719626745E-02 
351	 3.77975979881476E-02 
352	 3.62227307660652E-02 
353	 3.26793395865218E-02 
354	 3.38941258412519E-02 
355	 3.74435428941203E-02 
356	 3.78136256264926E-02 
357	 0.032688387754424 
358	 3.47679611487416E-02 
359	 3.45293123975187E-02 
360	 0.032340419749255 
361	 3.43203028813055E-02 
362	 3.10820572116235E-02 
363	 3.30483840649366E-02 
364	 3.99263501914356E-02 
365	 3.04140950429765E-02 
366	 2.98763605994671E-02 
367	 3.48957024860297E-02 
368	 3.63435088234032E-02 
369	 3.63960280351143E-02 
370	 3.45926588538155E-02 
371	 3.32538618468362E-02 
372	 3.57186238881503E-02 
373	 3.41456140524098E-02 
374	 3.32061679707907E-02 
375	 3.51953704647677E-02 
376	 3.57057809200786E-02 
377	 3.33040738733017E-02 
378	 3.16818163699473E-02 
379	 3.43810986795201E-02 
380	 3.74589525039377E-02 
381	 3.72513601104547E-02 
382	 3.59435573485981E-02 
383	 3.93417818937369E-02 
384	 4.06720266483006E-02 
385	 3.95924828029127E-02 
386	 3.78404405425052E-02 
387	 3.92157984600469E-02 
388	 4.06277876605196E-02 
389	 4.07663774645312E-02 
390	 3.96736791701982E-02 
391	 4.06353820786022E-02 
392	 4.15652200239996E-02 
393	 4.17602058697777E-02 
394	 0.041937532446949 
395	 4.23533052141086E-02 
396	 4.36087584467124E-02 
397	 4.53087127290281E-02 
398	 4.46942230544121E-02 
399	 4.55591746016993E-02 
400	 4.70960389249126E-02 
401	 4.71971666767871E-02 
402	 4.67422714963502E-02 
403	 4.64851380470176E-02 
404	 4.67672669482254E-02 
405	 4.75021011386762E-02 
406	 4.83319260015116E-02 
407	 4.92907249829516E-02 
408	 0.050177155306784 
409	 4.98531185218963E-02 
410	 5.00406299953005E-02 
411	 5.02360025321406E-02 
412	 4.93585872394467E-02 
413	 0.050374002995493 
414	 0.050957895658863 
415	 5.04291347151325E-02 
416	 5.07574843912809E-02 
417	 5.10141593226156E-02 
418	 5.11878596577311E-02 
419	 0.051392185583403 
420	 5.14826545703124E-02 
421	 5.12431067805213E-02 
422	 5.10693834939541E-02 
423	 5.15918464374897E-02 
424	 5.14892496450888E-02 
425	 5.12175293454115E-02 
426	 5.11714161502378E-02 
427	 5.12237367310004E-02 
428	 5.12027496827303E-02 
429	 5.09699563444779E-02 
430	 5.05525500367283E-02 
431	 0.050666369148186 
432	 0.050675889851738 
433	 5.04357665649979E-02 
434	 5.03187231080085E-02 
435	 5.00654246197109E-02 
436	 4.99688700771464E-02 
437	 5.01365182850786E-02 
438	 4.99069558866456E-02 
439	 4.98419964578929E-02 
440	 5.00302038974392E-02 
441	 5.02899166201661E-02 
442	 5.03249144092045E-02 
443	 5.05529190277413E-02 
444	 5.09441953930028E-02 
445	 5.06687664255753E-02 
446	 5.09217589825188E-02 
447	 5.14085875384818E-02 
448	 5.15336515946164E-02 
449	 5.13299991198757E-02 
450	 5.16050999019392E-02 
451	 5.21961968381641E-02 
452	 5.21627194931264E-02 
453	 5.22373145189699E-02 
454	 5.23329067787052E-02 
455	 0.052375721923405 
456	 5.26962721718579E-02 
457	 0.052944224659731 
458	 5.29892709066241E-02 
459	 5.28630106796688E-02 
460	 5.29716686738308E-02 
461	 0.052925307019988 
462	 5.27459356524803E-02 
463	 5.31355605705707E-02 
464	 5.32337552365516E-02 
465	 5.32057910379194E-02 
466	 5.33546941795322E-02 
467	 5.33228012063248E-02 
468	 0.053211045258793 
469	 5.31867863007173E-02 
470	 5.34295443344831E-02 
471	 5.36007020990273E-02 
472	 5.36598956249436E-02 
473	 0.053635496352921 
474	 0.053573060634453 
475	 5.34788778165637E-02 
476	 5.34240668186527E-02 
477	 0.053470840329025 
478	 5.34048602627911E-02 
479	 0.053473625144539 
480	 0.053680553195336 
481	 5.36386802641527E-02 
482	 5.37693976655814E-02 
483	 0.053930716540921 
484	 5.39007702717303E-02 
485	 5.37732389625116E-02 
486	 5.37564102772817E-02 
487	 5.38276619924199E-02 
488	 5.37870650588728E-02 
489	 5.38981339823143E-02 
490	 5.39426279359621E-02 
491	 5.38267599437716E-02 
492	 5.39969562106996E-02 
493	 5.38867852057841E-02 
494	 5.36881849619901E-02 
495	 5.38759187843418E-02 
496	 5.41534313646749E-02 
497	 5.41521646930626E-02 
498	 5.39259986775724E-02 
499	 5.41583763262528E-02 
500	 5.42071231919182E-02 
501	 5.41689418928171E-02 
502	 5.42566839097549E-02 
503	 5.41962124015228E-02 
504	 5.41158062304949E-02 
505	 5.41255993156374E-02 
506	 5.42905230160067E-02 
507	 5.43290835227044E-02 
508	 5.43310804208964E-02 
509	 5.43987377213524E-02 
510	 5.44815483412082E-02 
511	 0.054383506185773 
512	 0.054243713966356 
513	 5.43295425523373E-02 
514	 5.42671388326055E-02 
515	 5.42360691549848E-02 
516	 5.43480236297926E-02 
517	 5.45186518080084E-02 
518	 5.44579612095783E-02 
519	 5.43329869352564E-02 
520	 5.44016259265776E-02 
521	 5.45030826766118E-02 
522	 5.45510589314002E-02 
523	 5.45616588008303E-02 
524	 5.46501663210817E-02 
525	 5.46773477709476E-02 
526	 0.054666787903121 
527	 5.46703625253428E-02 
528	 5.47077420083635E-02 
529	 5.47392448563218E-02 
530	 5.47822792956695E-02 
531	 5.48854739717775E-02 
532	 5.49945515877095E-02 
533	 0.055097479968589 
534	 5.51818212466169E-02 
535	 5.52110521724457E-02 
536	 5.52654471229456E-02 
537	 5.53728877779211E-02 
538	 5.55188482344149E-02 
539	 5.55809201109695E-02 
540	 0.055604200309203 
541	 5.56553947576601E-02 
542	 5.58111998845946E-02 
543	 5.59391393874239E-02 
544	 5.60410948123193E-02 
545	 5.61573668985763E-02 
546	 5.63217373315153E-02 
547	 0.05646420637609 
548	 5.66077574265782E-02 
549	 5.68468040680722E-02 
550	 5.70315244230659E-02 
551	 5.71746005745106E-02 
552	 5.73316720123364E-02 
553	 5.75939009472791E-02 
554	 5.78214939851373E-02 
555	 5.80440967050322E-02 
556	 5.83641979791898E-02 
557	 5.86662277932931E-02 
558	 5.89765957112622E-02 
559	 5.93298358403676E-02 
560	 5.97542319779904E-02 
561	 6.01226995853311E-02 
562	 6.04719902496241E-02 
563	 6.08972042037514E-02 
564	 6.14692105302918E-02 
565	 6.19653558534291E-02 
566	 6.23950228142185E-02 
567	 6.30391409343798E-02 
568	 6.36469115288898E-02 
569	 6.42534590162169E-02 
570	 6.49294699749762E-02 
571	 6.56378327985953E-02 
572	 0.066333793120682 
573	 6.70483149083925E-02 
574	 6.78519661045377E-02 
575	 0.068592938223687 
576	 6.93758896395212E-02 
577	 7.02580224191653E-02 
578	 7.10971029224707E-02 
579	 7.20296261792723E-02 
580	 7.30312928618081E-02 
581	 7.40273814322815E-02 
582	 7.51055468274614E-02 
583	 7.62204317916595E-02 
584	 7.73362781823492E-02 
585	 7.84522867252244E-02 
586	 7.95616991049942E-02 
587	 8.06656438572163E-02 
588	 8.17799543583204E-02 
589	 8.29796285886955E-02 
590	 8.41642955445044E-02 
591	 8.53183910790681E-02 
592	 8.65088177690148E-02 
593	 8.76890210891906E-02 
594	 8.88469695934457E-02 
595	 8.99830714690683E-02 
596	 9.11134730371063E-02 
597	 9.22705646294745E-02 
598	 9.34556685471167E-02 
599	 0.094648198909212 
600	 9.57756825711829E-02 
601	 9.68505155435733E-02 
602	 9.78842160665138E-02 
603	 9.88688132759582E-02 
604	 9.98175410388539E-02 
605	 0.100764127461959 
606	 0.101732298327401 
607	 0.10265775328294 
608	 0.103524497756743 
609	 0.104358440065303 
610	 0.105228683950419 
611	 0.106046164506098 
612	 0.106819086998991 
613	 0.107564402637487 
614	 0.108256161962577 
615	 0.108901856095154 
616	 0.109497837466474 
617	 0.110033940139584 
618	 0.110544484944412 
619	 0.111036958262599 
620	 0.111510335656157 
621	 0.11194856027067 
622	 0.112401496091152 
623	 0.112859358182482 
624	 0.113290044628097 
625	 0.113698447849384 
626	 0.114080917750954 
627	 0.114434057723976 
628	 0.114753922753519 
629	 0.11515026924753 
630	 0.115531915902909 
631	 0.11581429536212 
632	 0.116173589769906 
633	 0.116487894945638 
634	 0.116772322256024 
635	 0.11714851163232 
636	 0.117489903442296 
637	 0.117806021034554 
638	 0.118120031422136 
639	 0.118427376232327 
640	 0.118727240782987 
641	 0.119038141641321 
642	 0.11938444464102 
643	 0.119771342443991 
644	 0.120111983019893 
645	 0.120395844520991 
646	 0.120732467870765 
647	 0.121087045045416 
648	 0.121456782353787 
649	 0.121836141595375 
650	 0.122177616414519 
651	 0.122542560545106 
652	 0.122919824507176 
653	 0.123243090753776 
654	 0.123676113814727 
655	 0.124097787377543 
656	 0.124430478184067 
657	 0.124830587091068 
658	 0.125272871288485 
659	 0.125733069031492 
660	 0.126184180347776 
661	 0.126621814724608 
662	 0.127098299289417 
663	 0.127609727491231 
664	 0.128063103408813 
665	 0.128518570946781 
666	 0.12901432617412 
667	 0.129558273564445 
668	 0.130053408950959 
669	 0.130593793419982 
670	 0.131168359605629 
671	 0.131681417596814 
672	 0.132252381568549 
673	 0.132847677104847 
674	 0.133435772110718 
675	 0.134060692713447 
676	 0.1346525465474 
677	 0.135228057386207 
678	 0.135838695180213 
679	 0.136479939858652 
680	 0.137126624297894 
681	 0.13778792993972 
682	 0.138522428774428 
683	 0.139212597150566 
684	 0.139870204654683 
685	 0.140544897920771 
686	 0.14128242682057 
687	 0.142055653148282 
688	 0.142824743187275 
689	 0.143548551934694 
690	 0.144269677981983 
691	 0.14497498245004 
692	 0.145690375887095 
693	 0.146550237814821 
694	 0.147333539676459 
695	 0.148088407110862 
696	 0.148926672041293 
697	 0.149709056882466 
698	 0.150514442887495 
699	 0.151355839289443 
700	 0.152165127517084 
701	 0.152969208932827 
702	 0.153784708919649 
703	 0.154618548336196 
704	 0.155458214306637 
705	 0.156289951280268 
706	 0.157109709903627 
707	 0.157917492972005 
708	 0.158688221413876 
709	 0.159523586889964 
710	 0.160429105660998 
711	 0.161258574879219 
712	 0.162022908674478 
713	 0.162772164425039 
714	 0.16355972463507 
715	 0.164396225096756 
716	 0.165174688059089 
717	 0.165910145315813 
718	 0.166696677968325 
719	 0.167425530590953 
720	 0.168116747038441 
721	 0.168793511500925 
722	 0.169444539095225 
723	 0.170112231357184 
724	 0.170801944006275 
725	 0.171484455380218 
726	 0.172036445373314 
727	 0.172586332180928 
728	 0.173163668467099 
729	 0.17369549205824 
730	 0.174221493167874 
731	 0.174681919309268 
732	 0.175064132021089 
733	 0.175511778119319 
734	 0.175909885285022 
735	 0.176248018925433 
736	 0.176560575787585 
737	 0.176874389492786 
738	 0.177155042440508 
739	 0.177391472485813 
740	 0.177602595751052 
741	 0.17775490331207 
742	 0.17789141124641 
743	 0.178034457938398 
744	 0.178108298697407 
745	 0.178130434776344 
746	 0.178141051495479 
747	 0.178172566802977 
748	 0.178116947751743 
749	 0.178026015480045 
750	 0.177937067040634 
751	 0.177850848002381 
752	 0.17770284362587 
753	 0.177502116228645 
754	 0.177280030145334 
755	 0.177075139052354 
756	 0.176853409347192 
757	 0.176601112137131 
758	 0.176315429770521 
759	 0.17598464011015 
760	 0.175642661434314 
761	 0.175301160551685 
762	 0.174938333544759 
763	 0.174559882639858 
764	 0.174160512046414 
765	 0.173741209704648 
766	 0.173325238089366 
767	 0.172899875222294 
768	 0.172450826954161 
769	 0.171972915994494 
770	 0.17153812544783 
771	 0.171050854220549 
772	 0.170504231384555 
773	 0.170011744952205 
774	 0.169534293467897 
775	 0.169039020802851 
776	 0.168516035959676 
777	 0.168019965523893 
778	 0.167506942945245 
779	 0.166955044506155 
780	 0.16637061089769 
781	 0.165859039086154 
782	 0.16536391481935 
783	 0.16483642897231 
784	 0.164257139449272 
785	 0.16371496744637 
786	 0.163187059156105 
787	 0.162648941959437 
788	 0.162124842945354 
789	 0.161626648325913 
790	 0.161128085988219 
791	 0.160592714076344 
792	 0.160015768149435 
793	 0.159473930656845 
794	 0.158977233388092 
795	 0.158475836168372 
796	 0.157973159471372 
797	 0.15747442903023 
798	 0.156967929493153 
799	 0.156403393204427 
800	 0.155929499034697 
801	 0.155520639717979 
802	 0.155090734214599 
803	 0.154551386261354 
804	 0.154075111493478 
805	 0.153681322308061 
806	 0.153281523231029 
807	 0.15280943045806 
808	 0.152319333233511 
809	 0.151861344108244 
810	 0.151454845271579 
811	 0.151081053538754 
812	 0.150691299483503 
813	 0.150269817141356 
814	 0.149911288600969 
815	 0.149503428175728 
816	 0.149085708765217 
817	 0.148743280385376 
818	 0.148440364835653 
819	 0.148111847308032 
820	 0.147749141410142 
821	 0.147394934012251 
822	 0.147059753278628 
823	 0.146742618907739 
824	 0.14643094574915 
825	 0.146098824459802 
826	 0.145794010612305 
827	 0.145545845168989 
828	 0.145340951240045 
829	 0.145062305426523 
830	 0.144713541097572 
831	 0.144378279651562 
832	 0.14415344545626 
833	 0.143953624709165 
834	 0.143762944640255 
835	 0.143576106481244 
836	 0.143392405227115 
837	 0.143176844988234 
838	 0.142952523508414 
839	 0.142743518460828 
840	 0.142557142867363 
841	 0.142412700648715 
842	 0.142258400846841 
843	 0.142063080061184 
844	 0.141920465502342 
845	 0.14180952677654 
846	 0.141696002006529 
847	 0.141557817223996 
848	 0.141483701651541 
849	 0.141391547537321 
850	 0.141270293854831 
851	 0.141174573021952 
852	 0.141071152029214 
853	 0.141020847228084 
854	 0.141010665030073 
855	 0.140909616929328 
856	 0.1408559936474 
857	 0.140843814894064 
858	 0.140833907344453 
859	 0.140790279913694 
860	 0.140789179890482 
861	 0.140795516653783 
862	 0.140759766774842 
863	 0.140754004808506 
864	 0.140772909647742 
865	 0.140836861956406 
866	 0.140958300323183 
867	 0.140987281389275 
868	 0.14102295155579 
869	 0.141090572466126 
870	 0.141123811671299 
871	 0.141207954300649 
872	 0.141301839595393 
873	 0.141387858207685 
874	 0.141518511550694 
875	 0.141657559770766 
876	 0.14175826714142 
877	 0.141825675608887 
878	 0.142004966919983 
879	 0.14217542497913 
880	 0.142318898583199 
881	 0.142468560080945 
882	 0.142710876332757 
883	 0.142910809253813 
884	 0.143042656843119 
885	 0.14316398472914 
886	 0.143382187968529 
887	 0.143636633179556 
888	 0.143873232483519 
889	 0.144069388145448 
890	 0.144319517587255 
891	 0.14455160454404 
892	 0.144780458280395 
893	 0.14513929097446 
894	 0.145404008585329 
895	 0.145643935365721 
896	 0.145938263464903 
897	 0.146274641284341 
898	 0.146587227994837 
899	 0.146876255625196 
900	 0.147170026869971 
901	 0.147514564138348 
902	 0.147862112183843 
903	 0.148209400329461 
904	 0.148571378488403 
905	 0.148969399801779 
906	 0.149373208294441 
907	 0.149783539164831 
908	 0.150206705636026 
909	 0.150591274177799 
910	 0.150990306401152 
911	 0.151437086238806 
912	 0.151927443582862 
913	 0.15234817349755 
914	 0.152782649649559 
915	 0.15327278103063 
916	 0.153794137068076 
917	 0.154210899911598 
918	 0.154688275437518 
919	 0.155280077598745 
920	 0.155860405136486 
921	 0.156334143199825 
922	 0.156859187354507 
923	 0.157469847875059 
924	 0.157966596839826 
925	 0.158533743008974 
926	 0.159130216226808 
927	 0.159699971661307 
928	 0.16024728998483 
929	 0.16092208318541 
930	 0.161570571167801 
931	 0.162105481419044 
932	 0.16278028831713 
933	 0.163422654846454 
934	 0.164089790242418 
935	 0.164834528759348 
936	 0.165509598797241 
937	 0.166133315834694 
938	 0.166794498656249 
939	 0.167555301424566 
940	 0.168308067288524 
941	 0.168996087176548 
942	 0.169734329724818 
943	 0.17061555477871 
944	 0.171365137936602 
945	 0.172082041238284 
946	 0.172863756188935 
947	 0.173741478755208 
948	 0.174500664022826 
949	 0.175254344915897 
950	 0.176012070532015 
951	 0.176765386901972 
952	 0.17771056491989 
953	 0.178653506669046 
954	 0.179474735074423 
955	 0.180192603933801 
956	 0.181200924273724 
957	 0.18208975304642 
958	 0.182858677355481 
959	 0.183751147863705 
960	 0.184660367969014 
961	 0.185551826823667 
962	 0.186479565211612 
963	 0.187499482523693 
964	 0.188356264302769 
965	 0.189244504231834 
966	 0.190184617114517 
967	 0.191084848955638 
968	 0.192051691654612 
969	 0.193063143829598 
970	 0.1940600962819 
971	 0.1949836744352 
972	 0.195899829616034 
973	 0.196837193603422 
974	 0.197814998704047 
975	 0.198836388117384 
976	 0.199859350809386 
977	 0.200884357555582 
978	 0.201895037211684 
979	 0.202872802086262 
980	 0.203853051603452 
981	 0.204867860326296 
982	 0.20585906274088 
983	 0.206765319989103 
984	 0.207805470577527 
985	 0.208796240264932 
986	 0.209679926700332 
987	 0.210531284496164 
988	 0.211579315938077 
989	 0.212719090806293 
990	 0.213804948823459 
991	 0.214734210609566 
992	 0.215632873335076 
993	 0.216474000380734 
994	 0.217388749601381 
995	 0.218471902507572 
996	 0.219407189047916 
997	 0.220388260312021 
998	 0.221347257586869 
999	 0.222199110555878 
1000	 0.223185176618797 
1001	 0.226904620115463 
1002	 0.227792402204784 
1003	 0.228651191090287 
1004	 0.229507249043322 
1005	 0.230374458664317 
1006	 0.2312302445253 
1007	 0.232073240383754 
1008	 0.232882112529467 
1009	 0.233708716415167 
1010	 0.234502874117168 
1011	 0.235330748304908 
1012	 0.236181034502303 
1013	 0.236968075866041 
1014	 0.237687524715601 
1015	 0.238416184437751 
1016	 0.239147292814761 
1017	 0.239862957987916 
1018	 0.240584532511428 
1019	 0.241343695887242 
1020	 0.242001870892528 
1021	 0.242625899100637 
1022	 0.243324877952861 
1023	 0.243998041744907 
1024	 0.244662489308996 
1025	 0.245281605758817 
1026	 0.2458463694743 
1027	 0.246426108828422 
1028	 0.247009136700761 
1029	 0.247619554529142 
1030	 0.248242954564134 
1031	 0.248843009811769 
1032	 0.249423168823 
1033	 0.250003473476648 
1034	 0.250581657388328 
1035	 0.251144412063277 
1036	 0.251706297327026 
1037	 0.252260957150207 
1038	 0.252821855672708 
1039	 0.253363876598612 
1040	 0.253863210434727 
1041	 0.254355213370895 
1042	 0.254874997111122 
1043	 0.255407271104833 
1044	 0.255933169237984 
1045	 0.2564738807098 
1046	 0.257034606390291 
1047	 0.257578688672399 
1048	 0.258131389520449 
1049	 0.258693213576419 
1050	 0.259210092425826 
1051	 0.259714467961859 
1052	 0.260214644277435 
1053	 0.26074115350472 
1054	 0.261251211115738 
1055	 0.26170274278187 
1056	 0.262174609802214 
1057	 0.262656022097638 
1058	 0.26311813345435 
1059	 0.263598013510626 
1060	 0.264131853362312 
1061	 0.26460454051666 
1062	 0.265002689661735 
1063	 0.26543497370579 
1064	 0.265869297998959 
1065	 0.266242291221815 
1066	 0.266687756586971 
1067	 0.267159298659129 
1068	 0.267557380848385 
1069	 0.267965499656387 
1070	 0.268356638226925 
1071	 0.268688403942538 
1072	 0.269071091898251 
1073	 0.269491017531947 
1074	 0.269871002467999 
1075	 0.270266363741325 
1076	 0.270603136958117 
1077	 0.270909517354974 
1078	 0.2712474551222 
1079	 0.271607969195771 
1080	 0.271939913144705 
1081	 0.272269418677678 
1082	 0.272623072112766 
1083	 0.272936444801901 
1084	 0.273219170803525 
1085	 0.273510116882662 
1086	 0.273772787824263 
1087	 0.274058632098915 
1088	 0.274340768449167 
1089	 0.274657770009557 
1090	 0.274982383020782 
1091	 0.275273453542656 
1092	 0.275552964668222 
1093	 0.275844844320337 
1094	 0.276122794450206 
1095	 0.276384674997815 
1096	 0.276654794106112 
1097	 0.276902568758085 
1098	 0.277165725548579 
1099	 0.27742514362759 
1100	 0.277704463251372 
1101	 0.277996427587362 
1102	 0.278298739887918 
1103	 0.27862950613422 
1104	 0.278932382564495 
1105	 0.279204285035969 
1106	 0.279464989780356 
1107	 0.279745174031547 
1108	 0.280060205659409 
1109	 0.280396374196163 
1110	 0.280752195883871 
1111	 0.281074253253322 
1112	 0.281359008468544 
1113	 0.281665698230445 
1114	 0.281988082894585 
1115	 0.282285369851692 
1116	 0.282561379986484 
1117	 0.282862185728444 
1118	 0.283165835520388 
1119	 0.28345316596603 
1120	 0.283768945937034 
1121	 0.28412668332881 
1122	 0.284458711666076 
1123	 0.284774815977057 
1124	 0.285093709983452 
1125	 0.285410024641567 
1126	 0.285725227232465 
1127	 0.286035231359111 
1128	 0.286347817231319 
1129	 0.286680338069812 
1130	 0.286972999448515 
1131	 0.287238447745877 
1132	 0.287515403982235 
1133	 0.2877812516789 
1134	 0.288036438751167 
1135	 0.288287813033833 
1136	 0.288547682674824 
1137	 0.288788825110733 
1138	 0.289010396062587 
1139	 0.289265332097576 
1140	 0.289550517868942 
1141	 0.289802922557508 
1142	 0.290065110430155 
1143	 0.290298806329994 
1144	 0.2904910432671 
1145	 0.290706368070752 
1146	 0.290934490487757 
1147	 0.291139947016849 
1148	 0.291332983345719 
1149	 0.29153628546171 
1150	 0.291731789577856 
1151	 0.29191838313512 
1152	 0.292125330424639 
1153	 0.292349797487472 
1154	 0.292544281995046 
1155	 0.292719260993308 
1156	 0.292902166108192 
1157	 0.29308783564094 
1158	 0.293252503702785 
1159	 0.29339855242406 
1160	 0.293571498071587 
1161	 0.293741542698971 
1162	 0.293908441911475 
1163	 0.294094735809537 
1164	 0.294273988435795 
1165	 0.294454363692045 
1166	 0.294608663603683 
1167	 0.294778544356406 
1168	 0.294950481784207 
1169	 0.29509155380561 
1170	 0.295207979415055 
1171	 0.295335361763632 
1172	 0.295446003491659 
1173	 0.295567298895081 
1174	 0.295690862115481 
1175	 0.295820986034432 
1176	 0.295964864991693 
1177	 0.296089809881017 
1178	 0.296214625688602 
1179	 0.296333083961014 
1180	 0.29642822584467 
1181	 0.296535702365465 
1182	 0.296645976080397 
1183	 0.296763465868794 
1184	 0.296879771996799 
1185	 0.297002150349075 
1186	 0.297115216810331 
1187	 0.29722710237716 
1188	 0.297335057265017 
1189	 0.297443326523602 
1190	 0.297537591240539 
1191	 0.297615584606802 
1192	 0.297709573123925 
1193	 0.297797039687084 
1194	 0.297892503140684 
1195	 0.298013090850553 
1196	 0.298114786298683 
1197	 0.298208263467449 
1198	 0.298297054172412 
1199	 0.298379955890908 
1200	 0.29845005615707 
1201	 0.298534273386918 
1202	 0.298618321120486 
1203	 0.298707625292317 
1204	 0.298808235632285 
1205	 0.298898874562798 
1206	 0.29898654719442 
1207	 0.299074201882449 
1208	 0.299154106378809 
1209	 0.299244189701381 
1210	 0.299352292438681 
1211	 0.299437249730306 
1212	 0.299513406420253 
1213	 0.299590973752994 
1214	 0.299658610027751 
1215	 0.299719746409261 
1216	 0.299777967746226 
1217	 0.299836249750564 
1218	 0.299899415660156 
1219	 0.299952289490165 
1220	 0.300017390303596 
1221	 0.300101576589707 
1222	 0.30016935419038 
1223	 0.300226833271058 
1224	 0.300292599489613 
1225	 0.300368367712935 
1226	 0.300425409301864 
1227	 0.300479023249664 
1228	 0.300526936904654 
1229	 0.30054015220526 
1230	 0.300584312753175 
1231	 0.300651654881753 
1232	 0.300708739964573 
1233	 0.30076878915189 
1234	 0.300850373992199 
1235	 0.300897901871696 
1236	 0.30091754078037 
1237	 0.30096419048639 
1238	 0.301011289494158 
1239	 0.301058189067361 
1240	 0.301114438093028 
1241	 0.301171832906048 
1242	 0.301238323040264 
1243	 0.301280565600634 
1244	 0.301304534220438 
1245	 0.301351242280594 
1246	 0.301400264731694 
1247	 0.301435677959116 
1248	 0.301475983222251 
1249	 0.301525239266311 
1250	 0.30157017224266 
1251	 0.301597804317759 
1252	 0.301634708697893 
1253	 0.301700572919755 
1254	 0.301727200370103 
1255	 0.301719761866456 
1256	 0.301736297372059 
1257	 0.301748628846804 
1258	 0.301768308611087 
1259	 0.301800197332592 
1260	 0.3018265615316 
1261	 0.301864963816774 
1262	 0.301880663977314 
1263	 0.301870957220731 
1264	 0.301880807921568 
1265	 0.301883284459962 
1266	 0.301892492211938 
1267	 0.301922122524028 
1268	 0.301953893654259 
1269	 0.301966063070161 
1270	 0.301956454322261 
1271	 0.301978093364698 
1272	 0.301993449853848 
1273	 0.302039003464444 
1274	 0.302113369090148 
1275	 0.302188588618841 
1276	 0.302287399058477 
1277	 0.302369529762994 
1278	 0.302447540551551 
1279	 0.302536829758722 
1280	 0.302622856101957 
1281	 0.302715023751474 
1282	 0.302833111731152 
1283	 0.302929553594537 
1284	 0.303023892903074 
1285	 0.303101613835872 
1286	 0.303156294674275 
1287	 0.303201701829612 
1288	 0.303249423202894 
1289	 0.303286885630461 
1290	 0.303317618816914 
1291	 0.303352964727115 
1292	 0.303370349881873 
1293	 0.303369665648232 
1294	 0.303365025927237 
1295	 0.303353993986015 
1296	 0.303333274327528 
1297	 0.303300338402316 
1298	 0.30326257270625 
1299	 0.303230578534675 
1300	 0.303170763620177 
1301	 0.303088066367052 
1302	 0.303002372479058 
1303	 0.302896514603875 
1304	 0.302790686753189 
1305	 0.302681345691081 
1306	 0.30255722414528 
1307	 0.302425088027192 
1308	 0.302281106854029 
1309	 0.30214120402379 
1310	 0.301994434854998 
1311	 0.301863569099731 
1312	 0.301733737332333 
1313	 0.301610069333504 
1314	 0.301509432731388 
1315	 0.301382568716023 
1316	 0.301233270683406 
1317	 0.301114466204532 
1318	 0.300993279843719 
1319	 0.300883789018148 
1320	 0.3008110745294 
1321	 0.300716824576044 
1322	 0.300608861660842 
1323	 0.30050558268604 
1324	 0.300418865193013 
1325	 0.300345588064747 
1326	 0.30028512934208 
1327	 0.300231547107568 
1328	 0.300145251739232 
1329	 0.300047277236038 
1330	 0.299976619535635 
1331	 0.299899873338219 
1332	 0.299845652935056 
1333	 0.299823931331327 
1334	 0.299793900694019 
1335	 0.299767491380562 
1336	 0.29973914717098 
1337	 0.299717555020042 
1338	 0.299690518183071 
1339	 0.2996507446222 
1340	 0.2996285219626 
1341	 0.299619640296821 
1342	 0.299602842457491 
1343	 0.29958907917758 
1344	 0.299579303938674 
1345	 0.299554825817125 
1346	 0.299536181695363 
1347	 0.299517447391554 
1348	 0.299515127759675 
1349	 0.299500067492635 
1350	 0.299458572613081 
1351	 0.299421738186492 
1352	 0.299362072304965 
1353	 0.299327514288671 
1354	 0.299303825845359 
1355	 0.299277609488597 
1356	 0.299263479106302 
1357	 0.299241485194109 
1358	 0.29921118271411 
1359	 0.299192482274175 
1360	 0.299177273707655 
1361	 0.299161586741503 
1362	 0.29915556536406 
1363	 0.299139393544347 
1364	 0.299123248992041 
1365	 0.299100979535119 
1366	 0.299073896548971 
1367	 0.299038682531634 
1368	 0.299013897592506 
1369	 0.298964273367989 
1370	 0.298901553445935 
1371	 0.29882803366412 
1372	 0.298708222849824 
1373	 0.29857879903384 
1374	 0.29842374106249 
1375	 0.29824346115628 
1376	 0.29803988340316 
1377	 0.297824535330499 
1378	 0.29756404115988 
1379	 0.297269523481271 
1380	 0.296954475324743 
1381	 0.296592214870516 
1382	 0.296228546583278 
1383	 0.295872742460124 
1384	 0.295460757556123 
1385	 0.295033961393233 
1386	 0.294562712036713 
1387	 0.294046144589439 
1388	 0.293489240871629 
1389	 0.292904567382908 
1390	 0.292266223679082 
1391	 0.291583574242777 
1392	 0.290851772055302 
1393	 0.290068104100443 
1394	 0.289270180675214 
1395	 0.28842812755367 
1396	 0.2875774700355 
1397	 0.286731578885043 
1398	 0.285869553674331 
1399	 0.285016644354539 
1400	 0.284169862993225 
1401	 0.283316431412877 
1402	 0.282458837190717 
1403	 0.281611087422847 
1404	 0.280735115617507 
1405	 0.279926822607369 
1406	 0.279151341598298 
1407	 0.278385416276039 
1408	 0.27764905367964 
1409	 0.276942589017096 
1410	 0.276243717771855 
1411	 0.275584461990753 
1412	 0.274943419655054 
1413	 0.274379881071522 
1414	 0.273860988860594 
1415	 0.273349786028483 
1416	 0.272916131058173 
1417	 0.272514650218301 
1418	 0.272113257647374 
1419	 0.271750313289926 
1420	 0.271408005055142 
1421	 0.27108949740598 
1422	 0.270798907091422 
1423	 0.270508248853387 
1424	 0.27023534208857 
1425	 0.269979621647933 
1426	 0.269732164257983 
1427	 0.269492583115175 
1428	 0.269275397524055 
1429	 0.269068550575196 
1430	 0.268887857942924 
1431	 0.268740525858279 
1432	 0.26858376103542 
1433	 0.268438296637982 
1434	 0.268300645478989 
1435	 0.268153007291065 
1436	 0.268033203272574 
1437	 0.267937648734796 
1438	 0.267849997018472 
1439	 0.26777930437936 
1440	 0.267715968768891 
1441	 0.267650216951547 
1442	 0.267583510767633 
1443	 0.267512126677859 
1444	 0.267453265204537 
1445	 0.267429941583441 
1446	 0.267418622237427 
1447	 0.267402883164884 
1448	 0.267386238114423 
1449	 0.267356714660101 
1450	 0.26731998310484 
1451	 0.267298369099706 
1452	 0.267286780813557 
1453	 0.267279664243743 
1454	 0.267274463612957 
1455	 0.267279616953194 
1456	 0.267297983327998 
1457	 0.267314524950325 
1458	 0.267330734021444 
1459	 0.267363112678657 
1460	 0.267390612356313 
1461	 0.267448280048195 
1462	 0.267528154142671 
1463	 0.267619245473272 
1464	 0.267731712428385 
1465	 0.267850899967484 
1466	 0.267983755874423 
1467	 0.26812992306164 
1468	 0.268287789045081 
1469	 0.268456922311673 
1470	 0.268649522469392 
1471	 0.268823192350232 
1472	 0.26901004998431 
1473	 0.269226598143402 
1474	 0.26944606537877 
1475	 0.269692421759232 
1476	 0.269942951833731 
1477	 0.270187226965433 
1478	 0.270455942307085 
1479	 0.270702611804618 
1480	 0.270966794940809 
1481	 0.271262811151711 
1482	 0.271530042498287 
1483	 0.27179138188285 
1484	 0.272055529793688 
1485	 0.272302278284926 
1486	 0.272566335300206 
1487	 0.272838266152426 
1488	 0.273115218693058 
1489	 0.273409196317179 
1490	 0.273682537506224 
1491	 0.273951501791983 
1492	 0.274223012740019 
1493	 0.274483571011255 
1494	 0.27474774470238 
1495	 0.275019737034479 
1496	 0.275284767140436 
1497	 0.275545954583279 
1498	 0.275801032074973 
1499	 0.276056404253391 
1500	 0.276304693166628 
1501	 0.276537247101429 
1502	 0.276777437113496 
1503	 0.277023072879223 
1504	 0.277257194858394 
1505	 0.277492042767201 
1506	 0.277736720688508 
1507	 0.277963604713143 
1508	 0.278176517305443 
1509	 0.278386752061445 
1510	 0.278580932051624 
1511	 0.278772572005575 
1512	 0.278981748886776 
1513	 0.279204716259255 
1514	 0.279429456924244 
1515	 0.279656546983908 
1516	 0.279883835332863 
1517	 0.280093747728981 
1518	 0.280287209501367 
1519	 0.280481367059434 
1520	 0.280670714097873 
1521	 0.280850356983294 
1522	 0.281017847336387 
1523	 0.281201045228084 
1524	 0.281378219288644 
1525	 0.281562429298531 
1526	 0.281765071571785 
1527	 0.281952067576244 
1528	 0.28213484388702 
1529	 0.282310867591144 
1530	 0.282482620483892 
1531	 0.282645652031984 
1532	 0.282791878075645 
1533	 0.282952384730128 
1534	 0.28311210811717 
1535	 0.283276319290697 
1536	 0.283460825062375 
1537	 0.2836214704116 
1538	 0.28376731877503 
1539	 0.283917150324422 
1540	 0.284056630763222 
1541	 0.284197604752903 
1542	 0.284344241564485 
1543	 0.284486262824314 
1544	 0.284630789292885 
1545	 0.284756218284873 
1546	 0.284867492403442 
1547	 0.284979654036583 
1548	 0.285086917214116 
1549	 0.285196922225932 
1550	 0.285320771780814 
1551	 0.285450542946816 
1552	 0.285575251555796 
1553	 0.285686927804816 
1554	 0.28579430408205 
1555	 0.285902600852787 
1556	 0.285995551860678 
1557	 0.28609696918968 
1558	 0.286220944738176 
1559	 0.286335859033499 
1560	 0.286445827182047 
1561	 0.28655971455581 
1562	 0.286670292236895 
1563	 0.286775763116075 
1564	 0.286870177885424 
1565	 0.286963491731348 
1566	 0.287057796154727 
1567	 0.287129865337738 
1568	 0.287224653716472 
1569	 0.287339660425986 
1570	 0.287440377116391 
1571	 0.287546587547802 
1572	 0.287638892283737 
1573	 0.287734190086603 
1574	 0.287796278919319 
1575	 0.287819420561541 
1576	 0.287876408364345 
1577	 0.287934546943625 
1578	 0.287981915463946 
1579	 0.288047556979368 
1580	 0.288094708939618 
1581	 0.288098908187129 
1582	 0.288142408948716 
1583	 0.288208130972194 
1584	 0.288271937666417 
1585	 0.288354348891487 
1586	 0.288424257435543 
1587	 0.288493925499886 
1588	 0.288555496330128 
1589	 0.28860952126785 
1590	 0.288662980949211 
1591	 0.288707370653502 
1592	 0.288756873597159 
1593	 0.288803460512973 
1594	 0.288857024417085 
1595	 0.288916104924168 
1596	 0.28897690007927 
1597	 0.289048578605693 
1598	 0.289110222895387 
1599	 0.289170279502448 
1600	 0.289224591525552 
1601	 0.289267097329336 
1602	 0.289315789502709 
1603	 0.289374383340025 
1604	 0.289417551563347 
1605	 0.289439133660526 
1606	 0.289481458618451 
1607	 0.289527913138898 
1608	 0.289567044935532 
1609	 0.289634987977063 
1610	 0.289722562560197 
1611	 0.289762281947574 
1612	 0.289792680782634 
1613	 0.289820437427147 
1614	 0.289821130336321 
1615	 0.289828310383585 
1616	 0.289841580689628 
1617	 0.289852754901889 
1618	 0.289872401061964 
1619	 0.289902875727892 
1620	 0.28994921037294 
1621	 0.289975689358038 
1622	 0.289997513083607 
1623	 0.290012224097263 
1624	 0.29001447446229 
1625	 0.290027235960713 
1626	 0.290039320681437 
1627	 0.290055193649261 
1628	 0.290074748890789 
1629	 0.290098138719468 
1630	 0.290123992360604 
1631	 0.290149024317732 
1632	 0.290181070112771 
1633	 0.290204153254322 
1634	 0.29021898159028 
1635	 0.290243581091033 
1636	 0.290273577560386 
1637	 0.290292000189083 
1638	 0.290307350110679 
1639	 0.290329065576313 
1640	 0.290346169309054 
1641	 0.290363425792903 
1642	 0.290387063428348 
1643	 0.290410151675334 
1644	 0.290429061709662 
1645	 0.290446303958241 
1646	 0.290469240334628 
1647	 0.290486496754697 
1648	 0.290494547270409 
1649	 0.290505990223526 
1650	 0.290525749727295 
1651	 0.290530266808422 
1652	 0.290525654285952 
1653	 0.290519201148377 
1654	 0.290500155699341 
1655	 0.290492824782845 
1656	 0.290486143377771 
1657	 0.290484195895071 
1658	 0.290494892752604 
1659	 0.290490712024932 
1660	 0.290478482184557 
1661	 0.29047381168937 
1662	 0.29046706245705 
1663	 0.290458565419637 
1664	 0.29045525284943 
1665	 0.290448179244721 
1666	 0.290433115217135 
1667	 0.290422863082346 
1668	 0.290422166087759 
1669	 0.290406968747352 
1670	 0.290388780032994 
1671	 0.290358939988734 
1672	 0.290312736209059 
1673	 0.290274847887657 
1674	 0.290221175096481 
1675	 0.29019538787668 
1676	 0.29018266763945 
1677	 0.290178460417789 
1678	 0.290196360414282 
1679	 0.290206206434747 
1680	 0.290228470760708 
1681	 0.290228718099413 
1682	 0.290215209458436 
1683	 0.290210364013033 
1684	 0.290203114348704 
1685	 0.290183981282957 
1686	 0.290160295521721 
1687	 0.29014422424486 
1688	 0.290123679157687 
1689	 0.29009184093534 
1690	 0.290064479187668 
1691	 0.290034310799699 
1692	 0.289968847922527 
1693	 0.289950526874399 
1694	 0.289972751705039 
1695	 0.289966180672258 
1696	 0.289972188614841 
1697	 0.289960632087581 
1698	 0.289925887860888 
1699	 0.289899917760846 
1700	 0.289879232226366 
1701	 0.289845649945046 
1702	 0.289803459680998 
1703	 0.289759115708951 
1704	 0.289711315113696 
1705	 0.289653062538238 
1706	 0.289573810789639 
1707	 0.289525658214294 
1708	 0.289486123316496 
1709	 0.289441922239487 
1710	 0.289417748381084 
1711	 0.289381661364354 
1712	 0.28933456518086 
1713	 0.289287063599917 
1714	 0.289244458407862 
1715	 0.289193136512642 
1716	 0.289124235580308 
1717	 0.28907127433778 
1718	 0.289025028626276 
1719	 0.288978560870017 
1720	 0.288939988852487 
1721	 0.288894980798475 
1722	 0.288850537851482 
1723	 0.288798210283231 
1724	 0.288740917358312 
1725	 0.288679670780486 
1726	 0.28860572313715 
1727	 0.288548599980297 
1728	 0.288505364083242 
1729	 0.2884357648048 
1730	 0.288372959979815 
1731	 0.28828178457695 
1732	 0.288152859809669 
1733	 0.288044910375223 
1734	 0.287929134456394 
1735	 0.287824036112934 
1736	 0.287736357036553 
1737	 0.287625442494829 
1738	 0.28751298167075 
1739	 0.287380055759602 
1740	 0.287213027223447 
1741	 0.287088479313819 
1742	 0.286971332663522 
1743	 0.286860207713205 
1744	 0.286772428224614 
1745	 0.286678279538987 
1746	 0.286579538417333 
1747	 0.286506304604215 
1748	 0.286418619116205 
1749	 0.286294652577449 
1750	 0.286176184949129 
1751	 0.286068579188152 
1752	 0.285938082283393 
1753	 0.285812101231302 
1754	 0.285699850436857 
1755	 0.285589637245006 
1756	 0.285478563748961 
1757	 0.285375005983114 
1758	 0.285283837297961 
1759	 0.285166102223742 
1760	 0.285049731374203 
1761	 0.284945325645548 
1762	 0.284815217805756 
1763	 0.284702812221021 
1764	 0.284590758674259 
1765	 0.284478951590394 
1766	 0.284393710367274 
1767	 0.284287380924878 
1768	 0.284193228747344 
1769	 0.284115664841269 
1770	 0.284030743364102 
1771	 0.28398404277252 
1772	 0.283921515683977 
1773	 0.283808896135252 
1774	 0.283718809979377 
1775	 0.283604805396583 
1776	 0.283479579039592 
1777	 0.283399345140652 
1778	 0.283309670982064 
1779	 0.283255700899361 
1780	 0.283227578871852 
1781	 0.283183588231408 
1782	 0.28315442087292 
1783	 0.28308356639847 
1784	 0.283022622322324 
1785	 0.282969121459111 
1786	 0.282911950926927 
1787	 0.282857755763823 
1788	 0.282801612950389 
1789	 0.28272478595812 
1790	 0.282701444073493 
1791	 0.282716126628451 
1792	 0.282690776336721 
1793	 0.282688976668164 
1794	 0.282662412107496 
1795	 0.282587474915617 
1796	 0.282543805817578 
1797	 0.28252452770498 
1798	 0.282476658728804 
1799	 0.282394159716366 
1800	 0.282366593415368 
1801	 0.28218903172048 
1802	 0.282278498132974 
1803	 0.282375328117076 
1804	 0.282462251566962 
1805	 0.282577379791724 
1806	 0.282688881095474 
1807	 0.282779027452062 
1808	 0.28285283638178 
1809	 0.282904763374783 
1810	 0.282966425562405 
1811	 0.283026860860741 
1812	 0.283074824216143 
1813	 0.283094799877872 
1814	 0.283107505753216 
1815	 0.283099551612983 
1816	 0.283068045990292 
1817	 0.283053206301074 
1818	 0.283057493563816 
1819	 0.283045765345254 
1820	 0.283024437322979 
1821	 0.282999320338145 
1822	 0.282987053625689 
1823	 0.282985309608276 
1824	 0.282981698240985 
1825	 0.282980871352542 
1826	 0.282956871878936 
1827	 0.282887550661613 
1828	 0.282817111939269 
1829	 0.282716871870815 
1830	 0.282625451311322 
1831	 0.282528390550125 
1832	 0.282437341231592 
1833	 0.282321655754427 
1834	 0.282217030009077 
1835	 0.282128815050895 
1836	 0.282045433393417 
1837	 0.281967312908017 
1838	 0.281895447792957 
1839	 0.281815012875599 
1840	 0.281726632319871 
1841	 0.28162459636164 
1842	 0.281542676313378 
1843	 0.281432472237361 
1844	 0.281292923886021 
1845	 0.281162618562084 
1846	 0.281001471770491 
1847	 0.280844941203695 
1848	 0.280682932997108 
1849	 0.280491879690093 
1850	 0.280296337075137 
1851	 0.280091409052085 
1852	 0.279868811897401 
1853	 0.279634433210669 
1854	 0.279390483829523 
1855	 0.279137731684716 
1856	 0.278848197866649 
1857	 0.27851943207659 
1858	 0.27816508367256 
1859	 0.277764592100963 
1860	 0.277311077411312 
1861	 0.276813335202836 
1862	 0.276269071996779 
1863	 0.275678005275824 
1864	 0.275038007221311 
1865	 0.274355359760676 
1866	 0.273622215722546 
1867	 0.272822233595701 
1868	 0.271967452260167 
1869	 0.271096666626196 
1870	 0.270197555946178 
1871	 0.269211390089614 
1872	 0.26818161612857 
1873	 0.267100770142948 
1874	 0.265911166760457 
1875	 0.26462025303661 
1876	 0.263276574756613 
1877	 0.261811436774332 
1878	 0.260226146364365 
1879	 0.258547420237346 
1880	 0.256754725470806 
1881	 0.254817228764786 
1882	 0.252843641104947 
1883	 0.250807318362829 
1884	 0.248606276777531 
1885	 0.246360287446328 
1886	 0.244020526958461 
1887	 0.24152182425708 
1888	 0.238999739060728 
1889	 0.236411114107522 
1890	 0.23376826316918 
1891	 0.23115284157482 
1892	 0.228482144960211 
1893	 0.225874458770787 
1894	 0.223287714293449 
1895	 0.220732154053905 
1896	 0.218166054195827 
1897	 0.215686932384086 
1898	 0.213235398500817 
1899	 0.210850156200095 
1900	 0.208628508180637 
1901	 0.206500935469994 
1902	 0.204504108869299 
1903	 0.202666949886769 
1904	 0.200918115975153 
1905	 0.199271235872594 
1906	 0.197749224324868 
1907	 0.19633180412388 
1908	 0.194979685483962 
1909	 0.193746545436006 
1910	 0.192588770235974 
1911	 0.19151352077735 
1912	 0.190544941886821 
1913	 0.189630131974212 
1914	 0.188790333449971 
1915	 0.188010248896941 
1916	 0.187298205636384 
1917	 0.186638743989035 
1918	 0.186070087169681 
1919	 0.185550021505818 
1920	 0.185102321822202 
1921	 0.184730498522474 
1922	 0.184385436725959 
1923	 0.184092614309014 
1924	 0.183830804171654 
1925	 0.183602840970558 
1926	 0.183418947656054 
1927	 0.183264963191387 
1928	 0.183169475521036 
1929	 0.183132629563301 
1930	 0.183150950454303 
1931	 0.183194914671495 
1932	 0.18324842388923 
1933	 0.183317456651997 
1934	 0.183409703114934 
1935	 0.183537872931544 
1936	 0.183691291927248 
1937	 0.18388674236812 
1938	 0.184121111376875 
1939	 0.184381257792979 
1940	 0.184675692591043 
1941	 0.185004155987395 
1942	 0.185353968629348 
1943	 0.185726301725785 
1944	 0.186104567353174 
1945	 0.186498913214001 
1946	 0.186910961873587 
1947	 0.18732612402239 
1948	 0.18777241801342 
1949	 0.188259868970515 
1950	 0.188739452970266 
1951	 0.189236818098771 
1952	 0.189732266182804 
1953	 0.190220274453791 
1954	 0.190735443357943 
1955	 0.191254663672055 
1956	 0.19179034630112 
1957	 0.192340547248311 
1958	 0.192912220932513 
1959	 0.193477476754501 
1960	 0.194043262066571 
1961	 0.194632052573326 
1962	 0.195251954607576 
1963	 0.195851164932733 
1964	 0.196451659248876 
1965	 0.197063192716679 
1966	 0.197668390303182 
1967	 0.198242640888513 
1968	 0.198834568387924 
1969	 0.199428674744376 
1970	 0.200038104491779 
1971	 0.200650706663911 
1972	 0.201276812334553 
1973	 0.201925565708994 
1974	 0.20256976021131 
1975	 0.203230438132242 
1976	 0.203861671453583 
1977	 0.204509900766425 
1978	 0.205154808716532 
1979	 0.20575931080632 
1980	 0.20640978558203 
1981	 0.207052600460139 
1982	 0.207696650499667 
1983	 0.208335265906772 
1984	 0.208982601249003 
1985	 0.209619635418887 
1986	 0.210244298930351 
1987	 0.210876176550214 
1988	 0.211501778979236 
1989	 0.212153658272994 
1990	 0.212793748077509 
1991	 0.213434267386119 
1992	 0.214078192299695 
1993	 0.214737218713721 
1994	 0.215372828610082 
1995	 0.215999828938148 
1996	 0.216620112409729 
1997	 0.217231734243524 
1998	 0.217834051171129 
1999	 0.218416994601038 
2000	 0.219018697899317 
2001	 0.219629440983794 
2002	 0.220219453722204 
2003	 0.220830785961924 
2004	 0.221439781688978 
2005	 0.222034768584311 
2006	 0.222615332281544 
2007	 0.223201406108074 
2008	 0.223779109531145 
2009	 0.224365165889957 
2010	 0.224968220876283 
2011	 0.225543870820492 
2012	 0.22612241514394 
2013	 0.226675134134259 
2014	 0.227194653027441 
2015	 0.227710821389523 
2016	 0.228225098405072 
2017	 0.228737315968877 
2018	 0.229259155786761 
2019	 0.229792339693756 
2020	 0.230315244911577 
2021	 0.230840611202922 
2022	 0.231359971318738 
2023	 0.231877342451814 
2024	 0.232384222863221 
2025	 0.232891888373485 
2026	 0.233383178166553 
2027	 0.233844511744471 
2028	 0.234325079418183 
2029	 0.234806336324085 
2030	 0.235287079971527 
2031	 0.235758509876226 
2032	 0.236234088924272 
2033	 0.23670428227708 
2034	 0.237154155689084 
2035	 0.237622830230794 
2036	 0.238125165537656 
2037	 0.23858525451552 
2038	 0.239022355927441 
2039	 0.239465299811766 
2040	 0.2398972540193 
2041	 0.240311519396028 
2042	 0.240730028299392 
2043	 0.241165994572884 
2044	 0.241573105232634 
2045	 0.241950043279608 
2046	 0.242352657799757 
2047	 0.242765717366634 
2048	 0.243159086675961 
2049	 0.243563183767403 
2050	 0.243941911510191 
2051	 0.244290216352852 
2052	 0.244642467767549 
2053	 0.244979553139996 
2054	 0.24532573840574 
2055	 0.245685711233795 
2056	 0.246022105420868 
2057	 0.246354768855339 
2058	 0.246675781204732 
2059	 0.247015823537777 
2060	 0.247349662762505 
2061	 0.247694535588353 
2062	 0.248062620152492 
2063	 0.248421464880519 
2064	 0.248777555409926 
2065	 0.249128527852083 
2066	 0.249483723120446 
2067	 0.249833443965172 
2068	 0.250175398667784 
2069	 0.250513596210242 
2070	 0.250850302793705 
2071	 0.251189908797071 
2072	 0.251518925818481 
2073	 0.25184546342896 
2074	 0.252155218050656 
2075	 0.252451570052203 
2076	 0.252747078722204 
2077	 0.253015604997848 
2078	 0.253312394398453 
2079	 0.253624840913899 
2080	 0.253933067488782 
2081	 0.254262167097051 
2082	 0.254571572110209 
2083	 0.254870634402497 
2084	 0.255159783077994 
2085	 0.255455915712669 
2086	 0.255739336435807 
2087	 0.256040798278883 
2088	 0.256355585256494 
2089	 0.256663577146036 
2090	 0.256995059721909 
2091	 0.257284975570986 
2092	 0.257549047021798 
2093	 0.257820016156536 
2094	 0.258058933327215 
2095	 0.258318208177465 
2096	 0.258600358840089 
2097	 0.258867734995241 
2098	 0.259134648302526 
2099	 0.259396465850434 
2100	 0.25964464034589 
2101	 0.259876257615337 
2102	 0.260124718536234 
2103	 0.260358290307044 
2104	 0.260621188806075 
2105	 0.260916009007436 
2106	 0.261185705195279 
2107	 0.261448571759436 
2108	 0.261728672970483 
2109	 0.262003037423793 
2110	 0.262288092661683 
2111	 0.262621559810995 
2112	 0.262907606598098 
2113	 0.263172549162534 
2114	 0.263422753619617 
2115	 0.263676025397677 
2116	 0.263896890540236 
2117	 0.264157193023878 
2118	 0.264441486809255 
2119	 0.264710478086413 
2120	 0.264985291946362 
2121	 0.265255231372882 
2122	 0.265530382895771 
2123	 0.265783352893688 
2124	 0.266038470543727 
2125	 0.266268046778954 
2126	 0.26647341668438 
2127	 0.266666657593077 
2128	 0.266826752866156 
2129	 0.267000488996059 
2130	 0.267164260785987 
2131	 0.267334954146788 
2132	 0.267499597684352 
2133	 0.267687769935514 
2134	 0.267820702515714 
2135	 0.26792417122846 
2136	 0.2680257039295 
2137	 0.268093294718261 
2138	 0.268172591723556 
2139	 0.268280245650371 
2140	 0.268326068415923 
2141	 0.268325966412282 
2142	 0.268340451402833 
2143	 0.268308657734584 
2144	 0.268304775879059 
2145	 0.268335297302908 
2146	 0.268345549147973 
2147	 0.2683510043777 
2148	 0.268355040504353 
2149	 0.268340090216915 
2150	 0.268324700431577 
2151	 0.268264753065215 
2152	 0.268168008749902 
2153	 0.268082470032448 
2154	 0.267963974618087 
2155	 0.267865198615683 
2156	 0.26779168180944 
2157	 0.267687616227576 
2158	 0.267574954241283 
2159	 0.267443989862019 
2160	 0.26727887741816 
2161	 0.267130453291115 
2162	 0.266975287715926 
2163	 0.266824659324435 
2164	 0.266695873299009 
2165	 0.266545696599068 
2166	 0.266388909310305 
2167	 0.266214312800612 
2168	 0.26606185806183 
2169	 0.265908029012551 
2170	 0.265762445068163 
2171	 0.26564789464825 
2172	 0.26549296245787 
2173	 0.265317916762237 
2174	 0.265144203201272 
2175	 0.264962735818895 
2176	 0.264764212597396 
2177	 0.264548517170168 
2178	 0.264342632599313 
2179	 0.264087410620959 
2180	 0.26389466338582 
2181	 0.263763182558708 
2182	 0.263608702635489 
2183	 0.263475010722479 
2184	 0.26334226792593 
2185	 0.263202478916636 
2186	 0.263045791855569 
2187	 0.262894734430475 
2188	 0.262752117657149 
2189	 0.262602910006532 
2190	 0.262431877929568 
2191	 0.262287179486499 
2192	 0.262161013276189 
2193	 0.2620283220027 
2194	 0.261912068045694 
2195	 0.261777275246911 
2196	 0.261618149644159 
2197	 0.261482209313224 
2198	 0.261334315978808 
2199	 0.261217911426497 
2200	 0.261135102837314 
2201	 0.261051545485645 
2202	 0.260994320340541 
2203	 0.260927243972642 
2204	 0.260853042382208 
2205	 0.260767511842798 
2206	 0.260707983609065 
2207	 0.26064296344199 
2208	 0.260608363960415 
2209	 0.260594613765698 
2210	 0.260604365215675 
2211	 0.260645276572451 
2212	 0.260675333501136 
2213	 0.260736163850648 
2214	 0.26077058786609 
2215	 0.260789891291431 
2216	 0.26080899407515 
2217	 0.260829131630734 
2218	 0.260836119927506 
2219	 0.260823430749411 
2220	 0.260819415632209 
2221	 0.260814776135692 
2222	 0.260806171195441 
2223	 0.260784837267882 
2224	 0.260768976744646 
2225	 0.260742877911006 
2226	 0.260689951118856 
2227	 0.26066910613359 
2228	 0.260669134909281 
2229	 0.260655437212176 
2230	 0.2606582174899 
2231	 0.260625925815111 
2232	 0.26057138615866 
2233	 0.260518151551542 
2234	 0.260457596951524 
2235	 0.260380656870694 
2236	 0.260275141701608 
2237	 0.260198710454911 
2238	 0.260119196949637 
2239	 0.260042162898691 
2240	 0.260007835954882 
2241	 0.259934520749728 
2242	 0.259832972903808 
2243	 0.25972931278421 
2244	 0.259607627175048 
2245	 0.259482599990394 
2246	 0.259364599530568 
2247	 0.259255160141875 
2248	 0.259169938124988 
2249	 0.259117415358569 
2250	 0.259030811134798 
2251	 0.258951465236919 
2252	 0.258854888872554 
2253	 0.258725957233869 
2254	 0.258623497661042 
2255	 0.258537188823681 
2256	 0.258436907074351 
2257	 0.258338202965369 
2258	 0.258227552482406 
2259	 0.258084797674085 
2260	 0.257984551146779 
2261	 0.257877678165918 
2262	 0.257819847239301 
2263	 0.25783030523888 
2264	 0.257808022662482 
2265	 0.257810228395671 
2266	 0.257792927730247 
2267	 0.257754285719353 
2268	 0.257711243472175 
2269	 0.257660884648802 
2270	 0.257603389693654 
2271	 0.257544296131666 
2272	 0.257507328784106 
2273	 0.257471639088495 
2274	 0.257435725695215 
2275	 0.257412529147038 
2276	 0.257401064508737 
2277	 0.257371058627011 
2278	 0.257362902914474 
2279	 0.257305095778657 
2280	 0.25719532334923 
2281	 0.257130058869081 
2282	 0.257057319696697 
2283	 0.25699264630433 
2284	 0.256954946250949 
2285	 0.256907474884384 
2286	 0.256844783018152 
2287	 0.256796060777518 
2288	 0.256768553138599 
2289	 0.256720920524795 
2290	 0.256679474066929 
2291	 0.256617437132283 
2292	 0.256532889487823 
2293	 0.256454348526543 
2294	 0.256355337038787 
2295	 0.256262052766639 
2296	 0.256144842913564 
2297	 0.256090258138242 
2298	 0.25603429593904 
2299	 0.255983931276851 
2300	 0.255970460136276 
2301	 0.255913794881082 
2302	 0.255843386268902 
2303	 0.255801463997475 
2304	 0.255779367058803 
2305	 0.255742238035721 
2306	 0.25567005541583 
2307	 0.255589612753555 
2308	 0.255484826368932 
2309	 0.255324186489746 
2310	 0.255205757508938 
2311	 0.255097237694484 
2312	 0.254984369046751 
2313	 0.254885446820529 
2314	 0.254757208161416 
2315	 0.254612416782971 
2316	 0.254467439656467 
2317	 0.254291116676141 
2318	 0.254161247367562 
2319	 0.254037953184486 
2320	 0.253948235842573 
2321	 0.253916719176852 
2322	 0.253844723727835 
2323	 0.253788212110247 
2324	 0.253713829582504 
2325	 0.253608219076677 
2326	 0.253506123543594 
2327	 0.253404841621343 
2328	 0.253275709032561 
2329	 0.253190483995692 
2330	 0.253124187248875 
2331	 0.253039805999218 
2332	 0.252935870592564 
2333	 0.252816388343678 
2334	 0.252684012048347 
2335	 0.252557980318157 
2336	 0.252469921386282 
2337	 0.252320966007562 
2338	 0.252153839615673 
2339	 0.252000411218005 
2340	 0.25179053407021 
2341	 0.251600866218696 
2342	 0.251407431496068 
2343	 0.251203265346563 
2344	 0.251044519298285 
2345	 0.250835723007864 
2346	 0.25060135656294 
2347	 0.250387418230851 
2348	 0.250156406064503 
2349	 0.249940973456082 
2350	 0.24976448978567 
2351	 0.249543615182097 
2352	 0.249305327232809 
2353	 0.249026762765059 
2354	 0.248686443350177 
2355	 0.2484298243967 
2356	 0.248174231814576 
2357	 0.247942583022961 
2358	 0.247799407909994 
2359	 0.24758083497294 
2360	 0.247329970281285 
2361	 0.247072161702632 
2362	 0.24681335360145 
2363	 0.246515878464722 
2364	 0.246143866618028 
2365	 0.245840777008049 
2366	 0.245561137463268 
2367	 0.245241403153144 
2368	 0.244914714422236 
2369	 0.24463419364708 
2370	 0.244367793404469 
2371	 0.244064118006016 
2372	 0.243744816579063 
2373	 0.243512670130833 
2374	 0.2432123629367 
2375	 0.242845973154229 
2376	 0.242546013140885 
2377	 0.242220234689369 
2378	 0.241831432516658 
2379	 0.241431418503253 
2380	 0.241067978245421 
2381	 0.240726116258605 
2382	 0.240358966948567 
2383	 0.240065780678402 
2384	 0.239783611413549 
2385	 0.23945216318134 
2386	 0.239163220022396 
2387	 0.238838925665896 
2388	 0.238510752918085 
2389	 0.238236134668814 
2390	 0.237964583270568 
2391	 0.237681845565419 
2392	 0.237349835862081 
2393	 0.236997928311743 
2394	 0.236658254922528 
2395	 0.236303752240369 
2396	 0.236002021511442 
2397	 0.235703780731095 
2398	 0.235225069738124 
2399	 0.234679482605627 
2400	 0.234272947905633 
2401	 0.23380800931293 
2402	 0.233340079011423 
2403	 0.233113450755342 
2404	 0.232826175325035 
2405	 0.232429382130765 
2406	 0.232089946692341 
2407	 0.23175801555854 
2408	 0.231361654323989 
2409	 0.230930606078656 
2410	 0.230546894968601 
2411	 0.230145853072558 
2412	 0.229806600264354 
2413	 0.229449093371065 
2414	 0.229032559687803 
2415	 0.228693831715348 
2416	 0.228293232096901 
2417	 0.22778065471063 
2418	 0.227349484750773 
2419	 0.226979663192058 
2420	 0.226512786920166 
2421	 0.225988712426957 
2422	 0.225593923320296 
2423	 0.225196273414286 
2424	 0.224815676418062 
2425	 0.224571294863116 
2426	 0.224188292796769 
2427	 0.223734395063218 
2428	 0.223326730444495 
2429	 0.222837927710402 
2430	 0.222461957963844 
2431	 0.222205430050029 
2432	 0.221835224942956 
2433	 0.221466383072773 
2434	 0.221094831812992 
2435	 0.220592112017859 
2436	 0.220190727012055 
2437	 0.219978660181395 
2438	 0.219558383651074 
2439	 0.219003514647051 
2440	 0.218524552971822 
2441	 0.217937873945095 
2442	 0.217514730398169 
2443	 0.217297217014473 
2444	 0.216898632383159 
2445	 0.216435538029579 
2446	 0.21600995717331 
2447	 0.21553101326273 
2448	 0.215086688700626 
2449	 0.214711317103423 
2450	 0.214242480929183 
2451	 0.213635992288858 
2452	 0.213175557335543 
2453	 0.212853491974007 
2454	 0.212405750237289 
2455	 0.211971023053751 
2456	 0.211499742557471 
2457	 0.210853030844207 
2458	 0.210316209119324 
2459	 0.209810573801252 
2460	 0.209416193016728 
2461	 0.209180448344974 
2462	 0.208851475999567 
2463	 0.20858113903747 
2464	 0.208206407600126 
2465	 0.20764566075461 
2466	 0.207228329356382 
2467	 0.206940689685185 
2468	 0.206563543350961 
2469	 0.206176426910329 
2470	 0.205796036041818 
2471	 0.205232988928998 
2472	 0.204627682471123 
2473	 0.20413690703609 
2474	 0.203701574595172 
2475	 0.203397324962985 
2476	 0.203056080055156 
2477	 0.202620917927248 
2478	 0.202195765810234 
2479	 0.201863832402616 
2480	 0.201680418438348 
2481	 0.201339718176412 
2482	 0.201010344012602 
2483	 0.20069904956879 
2484	 0.200169891545659 
2485	 0.199731992860921 
2486	 0.199267587156504 
2487	 0.198730511482095 
2488	 0.19837260887206 
2489	 0.198021339382526 
2490	 0.197622306152044 
2491	 0.197346569343297 
2492	 0.197084294835584 
2493	 0.196876514286755 
2494	 0.196618007182115 
2495	 0.196302929527371 
2496	 0.196186786078938 
2497	 0.195990686955127 
2498	 0.195846871895751 
2499	 0.195851581269109 
2500	 0.195456262043634 
