Wavelength	MM1000017.asd
350	 3.78411594625185E-02 
351	 5.01121297521666E-02 
352	 5.16471954623434E-02 
353	 3.74460138450498E-02 
354	 3.98349937168598E-02 
355	 0.043303248292328 
356	 0.044532331769097 
357	 4.50278656269379E-02 
358	 5.36092874254469E-02 
359	 5.48851555202908E-02 
360	 4.78777692614647E-02 
361	 4.17960072001476E-02 
362	 0.043704682102358 
363	 4.52634057271614E-02 
364	 4.30808196015163E-02 
365	 4.45217411412783E-02 
366	 4.49057564789656E-02 
367	 4.32717040452696E-02 
368	 4.13621740605817E-02 
369	 4.79856266245533E-02 
370	 4.86758472150394E-02 
371	 0.044202892805397 
372	 0.045420066033934 
373	 4.66434146993803E-02 
374	 4.72805150485799E-02 
375	 4.79517802858258E-02 
376	 5.06377810785669E-02 
377	 4.71529207071275E-02 
378	 0.044635979026772 
379	 4.99140811964489E-02 
380	 4.81283435881123E-02 
381	 4.58730708973807E-02 
382	 4.66665297564665E-02 
383	 5.03707095067379E-02 
384	 4.88796952646515E-02 
385	 4.75647031919897E-02 
386	 4.98589335179786E-02 
387	 5.19715519617831E-02 
388	 5.24490951245187E-02 
389	 5.19393917113064E-02 
390	 5.17806989042235E-02 
391	 5.23301938527895E-02 
392	 5.24829783051237E-02 
393	 5.25325870503012E-02 
394	 5.38277008534481E-02 
395	 5.41684506569683E-02 
396	 5.39899747556803E-02 
397	 0.053796055074835 
398	 5.31089192397289E-02 
399	 5.32306823857669E-02 
400	 5.37662890510573E-02 
401	 5.39702926365481E-02 
402	 5.52154959887086E-02 
403	 5.55421597242015E-02 
404	 5.47519252267314E-02 
405	 5.45494874444416E-02 
406	 5.48970320215587E-02 
407	 0.055975945843659 
408	 5.72680097624044E-02 
409	 5.63685619822279E-02 
410	 5.57359482598743E-02 
411	 5.61397670611681E-02 
412	 5.72801702545351E-02 
413	 5.77822762475454E-02 
414	 5.77329279189451E-02 
415	 5.73045044611841E-02 
416	 5.65115536125291E-02 
417	 0.05728488977491 
418	 5.83924601252447E-02 
419	 5.83995226175557E-02 
420	 5.79539747418384E-02 
421	 5.75084512779408E-02 
422	 5.72797972066547E-02 
423	 5.72955039377216E-02 
424	 5.74412948790999E-02 
425	 5.76165188414494E-02 
426	 5.77620386033824E-02 
427	 5.79095044937202E-02 
428	 5.77270885518371E-02 
429	 0.057353875238789 
430	 0.05711348199693 
431	 0.057397003728768 
432	 5.75525890563907E-02 
433	 5.73556906659706E-02 
434	 5.70483269045933E-02 
435	 5.71408020207823E-02 
436	 5.70844257201861E-02 
437	 0.056619301962934 
438	 5.67611843131837E-02 
439	 5.73916327343351E-02 
440	 5.77677061714517E-02 
441	 5.71206954992551E-02 
442	 5.72494426675824E-02 
443	 0.057336947309916 
444	 5.69913527669406E-02 
445	 5.68323664981315E-02 
446	 5.70045405439697E-02 
447	 5.73065397965888E-02 
448	 5.74476984420297E-02 
449	 5.72635217510878E-02 
450	 5.74025961365871E-02 
451	 5.77880170431455E-02 
452	 5.77431314069146E-02 
453	 5.75934310003264E-02 
454	 5.74136074856396E-02 
455	 5.73186436179164E-02 
456	 5.76910879657898E-02 
457	 0.057687142999324 
458	 5.73916694921354E-02 
459	 5.72989682560646E-02 
460	 5.74123569963359E-02 
461	 5.73837775856292E-02 
462	 5.71826662454896E-02 
463	 5.72650865001762E-02 
464	 5.72697235660301E-02 
465	 5.72737873927681E-02 
466	 5.73924882812658E-02 
467	 5.73888656053189E-02 
468	 5.75189158742433E-02 
469	 5.76875524966718E-02 
470	 5.75294853535597E-02 
471	 5.71440227721422E-02 
472	 5.69626582663344E-02 
473	 5.71629199021017E-02 
474	 5.72339137736987E-02 
475	 5.72825527020446E-02 
476	 5.72514270377799E-02 
477	 5.70784190070489E-02 
478	 5.70885884502092E-02 
479	 5.70859045348523E-02 
480	 5.70052645244256E-02 
481	 5.70219930115436E-02 
482	 5.71788831894944E-02 
483	 5.73490203613408E-02 
484	 5.73871320053857E-02 
485	 5.72902309709408E-02 
486	 5.71912166848276E-02 
487	 5.71043207101842E-02 
488	 5.69566115435123E-02 
489	 5.70105855688989E-02 
490	 5.71288388209463E-02 
491	 5.71848372943298E-02 
492	 5.72815703182855E-02 
493	 5.71828252513638E-02 
494	 5.70061123077596E-02 
495	 5.70040026611656E-02 
496	 5.70323447934013E-02 
497	 5.70752323823647E-02 
498	 5.71532665921515E-02 
499	 5.73343144380057E-02 
500	 5.73391182458113E-02 
501	 5.72547033237222E-02 
502	 5.72355287524693E-02 
503	 5.71979592732234E-02 
504	 5.71234501815474E-02 
505	 5.70504091567784E-02 
506	 5.70618462998854E-02 
507	 5.71047352101994E-02 
508	 5.71867141089348E-02 
509	 0.057285365029314 
510	 5.72694572170675E-02 
511	 5.72160131212761E-02 
512	 5.71845075204198E-02 
513	 5.72101513369117E-02 
514	 5.71888347511412E-02 
515	 5.71822467143143E-02 
516	 5.72443032251188E-02 
517	 5.74001910553663E-02 
518	 5.74288208610898E-02 
519	 5.73345081626005E-02 
520	 5.72370301496972E-02 
521	 5.74029630377701E-02 
522	 5.74498292708329E-02 
523	 5.73389917761657E-02 
524	 0.057419463260459 
525	 5.74145128378143E-02 
526	 5.73431241772887E-02 
527	 5.73029483896617E-02 
528	 5.74490427707164E-02 
529	 5.74560391491625E-02 
530	 5.73895982833065E-02 
531	 5.75413537221605E-02 
532	 5.75908115519681E-02 
533	 0.057594689296372 
534	 5.76455484332778E-02 
535	 5.78213553153528E-02 
536	 5.78464799874269E-02 
537	 5.78120616687571E-02 
538	 5.79206307054799E-02 
539	 5.80331293663139E-02 
540	 5.80968499318256E-02 
541	 0.058136377302119 
542	 0.058269368870598 
543	 0.058337623747977 
544	 0.058377999957231 
545	 0.058463099584277 
546	 5.85820408417379E-02 
547	 5.86947127180406E-02 
548	 5.87882629269475E-02 
549	 5.88729525256917E-02 
550	 5.89017844685992E-02 
551	 5.89806268850795E-02 
552	 5.91641840644867E-02 
553	 5.93108448576062E-02 
554	 5.94430949820727E-02 
555	 5.96085570307555E-02 
556	 5.98515071669481E-02 
557	 6.00220327258457E-02 
558	 6.02341152686564E-02 
559	 6.05466992366955E-02 
560	 6.08790204596556E-02 
561	 6.11570203088532E-02 
562	 6.13881594301687E-02 
563	 6.16272840244214E-02 
564	 6.19920986638338E-02 
565	 0.06227110603932 
566	 6.24577554880246E-02 
567	 6.27901572177414E-02 
568	 6.32362509156037E-02 
569	 6.37085193575235E-02 
570	 6.41532459175095E-02 
571	 6.46936406249821E-02 
572	 6.52764285036277E-02 
573	 6.58723237716278E-02 
574	 6.64637959751697E-02 
575	 6.69409764993904E-02 
576	 0.067491485400253 
577	 6.81732522271692E-02 
578	 6.86332467873524E-02 
579	 0.069256830709188 
580	 7.00017330864919E-02 
581	 7.06785469132397E-02 
582	 7.14467533304957E-02 
583	 7.22403128172522E-02 
584	 7.30455865163656E-02 
585	 7.39548518386415E-02 
586	 7.48431163552912E-02 
587	 7.57057872559517E-02 
588	 0.076584937564154 
589	 7.75602077930761E-02 
590	 7.85195290753211E-02 
591	 7.94761780035272E-02 
592	 8.05599050694807E-02 
593	 8.16582881810851E-02 
594	 8.27628134275094E-02 
595	 8.38581317849639E-02 
596	 8.48628621775183E-02 
597	 8.57813928301327E-02 
598	 0.086637890511667 
599	 8.74786563672215E-02 
600	 8.83722269209794E-02 
601	 8.92865334610689E-02 
602	 9.01809616039832E-02 
603	 9.10271315495644E-02 
604	 9.19021672115686E-02 
605	 9.27967354890455E-02 
606	 9.36632791694838E-02 
607	 9.44445043941183E-02 
608	 9.52246266845373E-02 
609	 9.60291400154575E-02 
610	 0.096807170815276 
611	 9.75053117674758E-02 
612	 9.81444141164262E-02 
613	 9.87579002340546E-02 
614	 9.93576573232826E-02 
615	 9.98927639055285E-02 
616	 0.100387942978481 
617	 0.10091090360926 
618	 0.10139506057724 
619	 0.101839888009783 
620	 0.102257397842381 
621	 0.102655620218537 
622	 0.1030946691751 
623	 0.103499993775537 
624	 0.103784782913321 
625	 0.104184733454684 
626	 0.104552960126271 
627	 0.104843195970433 
628	 0.105181384088374 
629	 0.105478742737273 
630	 0.105768880782713 
631	 0.106087474939796 
632	 0.106345560812642 
633	 0.106599195032859 
634	 0.106871511691336 
635	 0.107155687170503 
636	 0.107450005252346 
637	 0.107728564196706 
638	 0.10797978507079 
639	 0.10823348516962 
640	 0.108503433832457 
641	 0.108796559139012 
642	 0.109106423605693 
643	 0.109368815470047 
644	 0.109674284921075 
645	 0.110028874293679 
646	 0.110294224499627 
647	 0.110587063001795 
648	 0.110902637812996 
649	 0.111213566500161 
650	 0.111554925023974 
651	 0.111882220701215 
652	 0.112188138316811 
653	 0.112502626924697 
654	 0.112887732929619 
655	 0.113258825530367 
656	 0.113572161545966 
657	 0.113950649808154 
658	 0.114366072784849 
659	 0.11478210758113 
660	 0.115163675874703 
661	 0.11554996935345 
662	 0.1159493791845 
663	 0.116373625505456 
664	 0.116845137481282 
665	 0.117291410632188 
666	 0.117727842707192 
667	 0.118187648454718 
668	 0.118651706047887 
669	 0.119144786963656 
670	 0.119670419234539 
671	 0.12021021283625 
672	 0.120729161617841 
673	 0.121247092775986 
674	 0.121786444707015 
675	 0.12235382533247 
676	 0.122927408539195 
677	 0.123517436659824 
678	 0.124135904301158 
679	 0.124693505258284 
680	 0.125302108816905 
681	 0.125975941525627 
682	 0.126581633281537 
683	 0.127229542841142 
684	 0.127891264064955 
685	 0.128537420194695 
686	 0.129271588479221 
687	 0.12999732003012 
688	 0.130703133038256 
689	 0.131434584267834 
690	 0.132136636802506 
691	 0.132848146872836 
692	 0.133606347446435 
693	 0.134434484660711 
694	 0.135162669660309 
695	 0.135875684808488 
696	 0.136712589364574 
697	 0.137534150920498 
698	 0.13834662565554 
699	 0.139160817854134 
700	 0.139984002140406 
701	 0.140793548309792 
702	 0.141616866713453 
703	 0.142473786675194 
704	 0.143339598591356 
705	 0.144164762097985 
706	 0.144982112874328 
707	 0.145854785772771 
708	 0.146705743541253 
709	 0.147538651573361 
710	 0.148371930477736 
711	 0.149235608010348 
712	 0.150033042181001 
713	 0.150806041417902 
714	 0.151618906777495 
715	 0.152452678652318 
716	 0.15328387036556 
717	 0.154097730868475 
718	 0.1548871028782 
719	 0.155650222616226 
720	 0.156396235096141 
721	 0.157138237347724 
722	 0.15789923943547 
723	 0.158622188299355 
724	 0.159317309952064 
725	 0.160004677695525 
726	 0.160618136646153 
727	 0.161207258734459 
728	 0.161785506825444 
729	 0.162328144668314 
730	 0.162878121049011 
731	 0.163392634766986 
732	 0.163843269579725 
733	 0.164268250392275 
734	 0.164707253888729 
735	 0.165131599995569 
736	 0.165486793645117 
737	 0.165767604897517 
738	 0.166036173440729 
739	 0.166298922956807 
740	 0.166497380616178 
741	 0.166675107767409 
742	 0.166814565510242 
743	 0.166907888399026 
744	 0.167012328283917 
745	 0.167054940614463 
746	 0.167053182466376 
747	 0.167056677708863 
748	 0.167011585366479 
749	 0.166902082490287 
750	 0.166758676278284 
751	 0.166659907122389 
752	 0.166471780471963 
753	 0.166237409386404 
754	 0.166011523479713 
755	 0.165756959345 
756	 0.165474786582838 
757	 0.165167843416024 
758	 0.164837412092056 
759	 0.164456597549698 
760	 0.164072101312895 
761	 0.163704037093105 
762	 0.163330966515878 
763	 0.162889998323758 
764	 0.162403747742117 
765	 0.16191739290875 
766	 0.161476593308241 
767	 0.160997288196032 
768	 0.160483362400859 
769	 0.159977675099059 
770	 0.159452416522707 
771	 0.158896579181725 
772	 0.158329893597053 
773	 0.15780438628473 
774	 0.157229886588436 
775	 0.156657395243345 
776	 0.15612760521492 
777	 0.155567235650142 
778	 0.154983081784796 
779	 0.154398995179975 
780	 0.153839107484356 
781	 0.153269536000262 
782	 0.152693416212404 
783	 0.152109321124242 
784	 0.151512882991733 
785	 0.150992453241201 
786	 0.150467519829488 
787	 0.149884265333109 
788	 0.14932727187278 
789	 0.148809406034783 
790	 0.14828669803659 
791	 0.14771511037917 
792	 0.147188122452503 
793	 0.146644512036154 
794	 0.146084105586163 
795	 0.14556174308589 
796	 0.145033651290362 
797	 0.144517555494106 
798	 0.144019551630836 
799	 0.143507147385156 
800	 0.143015895593457 
801	 0.142554958512502 
802	 0.142107472810813 
803	 0.141590147172968 
804	 0.141124382735704 
805	 0.140702794924153 
806	 0.140243894265968 
807	 0.13980266356739 
808	 0.139376913650914 
809	 0.138953322841333 
810	 0.138511806134936 
811	 0.138100028418235 
812	 0.137689774503806 
813	 0.137268801152904 
814	 0.136916528778022 
815	 0.136583576477883 
816	 0.13623204024286 
817	 0.135842291981054 
818	 0.135457037552013 
819	 0.135127152990975 
820	 0.134833324541704 
821	 0.134502237244276 
822	 0.134170808048316 
823	 0.13386106985781 
824	 0.133576330321004 
825	 0.133292755499609 
826	 0.133028440655235 
827	 0.13275082406413 
828	 0.13244383973166 
829	 0.132181750896789 
830	 0.131939260679699 
831	 0.131723384079153 
832	 0.131542099477502 
833	 0.131316270236959 
834	 0.131117959272084 
835	 0.130929265530686 
836	 0.130655596493554 
837	 0.130477335353014 
838	 0.130343541562569 
839	 0.130182528029836 
840	 0.129954755062095 
841	 0.129791552155325 
842	 0.129694785867604 
843	 0.129623001347743 
844	 0.129539671501469 
845	 0.12939300064639 
846	 0.129233575371657 
847	 0.129142422033821 
848	 0.129064401584237 
849	 0.128969503554292 
850	 0.128862194515824 
851	 0.128773900195669 
852	 0.128689873971972 
853	 0.128662317270956 
854	 0.128693964251916 
855	 0.128706241648413 
856	 0.128632079632246 
857	 0.128573654215967 
858	 0.128596614626824 
859	 0.128560054534972 
860	 0.128574043125363 
861	 0.128593145936606 
862	 0.12856330620744 
863	 0.128638442761322 
864	 0.128729412768742 
865	 0.128796235118292 
866	 0.128836015269362 
867	 0.128825921569264 
868	 0.128900673013395 
869	 0.129047825508606 
870	 0.129105665053129 
871	 0.129178234843269 
872	 0.129280091121816 
873	 0.12938905704943 
874	 0.129448791544083 
875	 0.129559598047743 
876	 0.129710481657444 
877	 0.129864805498938 
878	 0.129996305866453 
879	 0.130158536628851 
880	 0.130340616887742 
881	 0.130515329132624 
882	 0.130695242774884 
883	 0.130865456505343 
884	 0.131066343182343 
885	 0.131341655241985 
886	 0.131568921768859 
887	 0.131785791553551 
888	 0.132018390653278 
889	 0.132267289844335 
890	 0.13249260223265 
891	 0.132721394566241 
892	 0.132996782112119 
893	 0.13335772353092 
894	 0.133618483585555 
895	 0.133864465618183 
896	 0.134170507256147 
897	 0.134489828622158 
898	 0.134836829764482 
899	 0.135177711146531 
900	 0.135500199410208 
901	 0.135876171619893 
902	 0.136264890154876 
903	 0.136655090087386 
904	 0.137037828919744 
905	 0.137376471801471 
906	 0.137713484106864 
907	 0.138089875677298 
908	 0.138541579366838 
909	 0.13911407541737 
910	 0.139549139009142 
911	 0.13989553032438 
912	 0.140379181627583 
913	 0.140853931076866 
914	 0.141344252607359 
915	 0.14186468842631 
916	 0.142401626757531 
917	 0.142863278008072 
918	 0.143344117942515 
919	 0.14388277952733 
920	 0.144423793943669 
921	 0.144971514412981 
922	 0.145537921359689 
923	 0.146122250732549 
924	 0.146703609923835 
925	 0.147271791485425 
926	 0.147875558528389 
927	 0.148531758336984 
928	 0.149176837520932 
929	 0.149785660707563 
930	 0.150416402633972 
931	 0.151092052174925 
932	 0.151701114288324 
933	 0.152438242723156 
934	 0.153198316087199 
935	 0.153880564343788 
936	 0.15466899283357 
937	 0.155379284897996 
938	 0.15608735408117 
939	 0.156903000472716 
940	 0.157741287580091 
941	 0.158568503322531 
942	 0.159376993989367 
943	 0.16018919542005 
944	 0.161081939125177 
945	 0.16195256083487 
946	 0.162813478232152 
947	 0.163702910471343 
948	 0.164522287860438 
949	 0.165291410199146 
950	 0.166143345672668 
951	 0.167187430269399 
952	 0.168160045792935 
953	 0.169080683191284 
954	 0.170023940601798 
955	 0.171057986664655 
956	 0.172096076202083 
957	 0.173035630148915 
958	 0.173965742124334 
959	 0.175051645368345 
960	 0.176196564328574 
961	 0.177224632696984 
962	 0.178243430401281 
963	 0.179449177606749 
964	 0.180383109537333 
965	 0.181448880642231 
966	 0.182665942416114 
967	 0.183779998969545 
968	 0.184825020305703 
969	 0.185936363999604 
970	 0.18711354975062 
971	 0.188261024157595 
972	 0.189387911344132 
973	 0.190495661890939 
974	 0.191613311595048 
975	 0.192796320455191 
976	 0.19415710521782 
977	 0.195402481550845 
978	 0.196520423443065 
979	 0.197697351225445 
980	 0.198968705819185 
981	 0.200240523134082 
982	 0.201501732584099 
983	 0.202789757707569 
984	 0.204058970543614 
985	 0.20535937375579 
986	 0.206635347195246 
987	 0.207833898038967 
988	 0.209249540303445 
989	 0.210438244889088 
990	 0.211467698371299 
991	 0.212657659466558 
992	 0.214042273025876 
993	 0.215323794452599 
994	 0.21654324562433 
995	 0.217862250881251 
996	 0.219218285124107 
997	 0.220416567388623 
998	 0.221548065126987 
999	 0.222802143189456 
1000	 0.224263335398583 
1001	 0.22108343918378 
1002	 0.222249805855253 
1003	 0.223374284683919 
1004	 0.224518391217991 
1005	 0.22567179475268 
1006	 0.226804119117407 
1007	 0.227930787452292 
1008	 0.229034799491044 
1009	 0.230154414139295 
1010	 0.231292471639584 
1011	 0.232471769485978 
1012	 0.233674559318466 
1013	 0.234829645520208 
1014	 0.235849353459895 
1015	 0.236886888562157 
1016	 0.238005186883459 
1017	 0.239071313802273 
1018	 0.240110045473561 
1019	 0.241192163254558 
1020	 0.242264761178023 
1021	 0.243250866756868 
1022	 0.24429629403498 
1023	 0.245361585675081 
1024	 0.246332421911377 
1025	 0.247336006567041 
1026	 0.248340879190941 
1027	 0.24933253160879 
1028	 0.250406276120789 
1029	 0.251405863108701 
1030	 0.252339740828378 
1031	 0.253249887516875 
1032	 0.254124040651619 
1033	 0.254934761615565 
1034	 0.255774709485492 
1035	 0.256636576270561 
1036	 0.257532031124141 
1037	 0.258477460605369 
1038	 0.259422605225839 
1039	 0.260407785318412 
1040	 0.261310620730664 
1041	 0.262114588030843 
1042	 0.263010266028952 
1043	 0.263836145636088 
1044	 0.264649264673803 
1045	 0.265440101813971 
1046	 0.26633872796195 
1047	 0.267141363437245 
1048	 0.267988903338855 
1049	 0.268938706409072 
1050	 0.269758308215076 
1051	 0.270585931334315 
1052	 0.271420057153838 
1053	 0.272158824880322 
1054	 0.272984334557979 
1055	 0.273754723654799 
1056	 0.274486112318468 
1057	 0.27528622404758 
1058	 0.276120210088877 
1059	 0.276902523963683 
1060	 0.27770975151989 
1061	 0.278533679895999 
1062	 0.279255299483348 
1063	 0.279946842135246 
1064	 0.280699462982017 
1065	 0.281455702670925 
1066	 0.282118573790413 
1067	 0.282846002103428 
1068	 0.28361343521444 
1069	 0.284302169630274 
1070	 0.285013741785058 
1071	 0.285761082466274 
1072	 0.286487715522494 
1073	 0.287200610510449 
1074	 0.287882839090329 
1075	 0.288547008889893 
1076	 0.289214177344627 
1077	 0.289866021532755 
1078	 0.290493645036917 
1079	 0.291154461287704 
1080	 0.291855446766868 
1081	 0.292545013625326 
1082	 0.293218302821313 
1083	 0.293889213661909 
1084	 0.294563434415108 
1085	 0.295239705318702 
1086	 0.295908036874879 
1087	 0.296564645765086 
1088	 0.297239154364881 
1089	 0.29787262076998 
1090	 0.298469306706099 
1091	 0.299080546318809 
1092	 0.299723355503813 
1093	 0.300378623756362 
1094	 0.301000923607117 
1095	 0.301630845592502 
1096	 0.302305123114317 
1097	 0.302994095999428 
1098	 0.303661607259134 
1099	 0.304352501575266 
1100	 0.305033957878463 
1101	 0.305675719546256 
1102	 0.306342379002189 
1103	 0.307033115739145 
1104	 0.307735509376842 
1105	 0.308407242281131 
1106	 0.309078571444593 
1107	 0.30973388411077 
1108	 0.310432822455591 
1109	 0.311172875372959 
1110	 0.311909202426278 
1111	 0.312642025893219 
1112	 0.313399626888695 
1113	 0.314130916685109 
1114	 0.314821377886141 
1115	 0.315568495674913 
1116	 0.316355980352915 
1117	 0.317106292388986 
1118	 0.317864260863991 
1119	 0.318617905774533 
1120	 0.319351028718695 
1121	 0.320087652136422 
1122	 0.320810105633746 
1123	 0.321525147100474 
1124	 0.322247666466205 
1125	 0.322937882835348 
1126	 0.323660985200414 
1127	 0.324424069761126 
1128	 0.325163209563336 
1129	 0.325898129164901 
1130	 0.326620614384032 
1131	 0.327333183320021 
1132	 0.328046276500747 
1133	 0.328759147521059 
1134	 0.329461100291992 
1135	 0.33016438029707 
1136	 0.330846724149192 
1137	 0.33153210849419 
1138	 0.332194491333385 
1139	 0.33288026522042 
1140	 0.33359600555112 
1141	 0.334269083875974 
1142	 0.334933880395842 
1143	 0.335585308211136 
1144	 0.336197165723969 
1145	 0.336830235252158 
1146	 0.33748786410695 
1147	 0.338109327499374 
1148	 0.338719546861002 
1149	 0.339325474539368 
1150	 0.339915651647614 
1151	 0.340479998413192 
1152	 0.341074146312871 
1153	 0.341635283623832 
1154	 0.34219471105145 
1155	 0.342731724974384 
1156	 0.343296531794154 
1157	 0.343875012652235 
1158	 0.344434268917219 
1159	 0.345017049705786 
1160	 0.345553447509958 
1161	 0.346037328695289 
1162	 0.346549483429348 
1163	 0.347062353726282 
1164	 0.347570529937695 
1165	 0.348090352335705 
1166	 0.348606586711466 
1167	 0.349098720160467 
1168	 0.349559000086797 
1169	 0.350018158781512 
1170	 0.350451217072486 
1171	 0.350907984415041 
1172	 0.351368192260795 
1173	 0.351822646803021 
1174	 0.352305728662468 
1175	 0.352740704088452 
1176	 0.353132844090257 
1177	 0.353550938148102 
1178	 0.353969826951035 
1179	 0.354368831059118 
1180	 0.354769797722353 
1181	 0.355169076469466 
1182	 0.355549582270436 
1183	 0.355920829130967 
1184	 0.356302397151685 
1185	 0.356709509482902 
1186	 0.357070482044443 
1187	 0.357401500318237 
1188	 0.357752626743971 
1189	 0.358095515967076 
1190	 0.358435159214231 
1191	 0.358781511264035 
1192	 0.359126015886591 
1193	 0.359463345849327 
1194	 0.359795527447928 
1195	 0.360148695286913 
1196	 0.360468019101475 
1197	 0.360747844534914 
1198	 0.361042985526595 
1199	 0.36133561395211 
1200	 0.361615098487078 
1201	 0.361907509328978 
1202	 0.362225908195273 
1203	 0.362497992875406 
1204	 0.362749443459332 
1205	 0.36300279200455 
1206	 0.363228130400553 
1207	 0.363470479972278 
1208	 0.363727518690526 
1209	 0.363969689390688 
1210	 0.364211583950264 
1211	 0.364440366111499 
1212	 0.364654037420753 
1213	 0.364870514463844 
1214	 0.365078672976609 
1215	 0.365287398599401 
1216	 0.365495845761016 
1217	 0.365716337919324 
1218	 0.365902544479964 
1219	 0.366061259746261 
1220	 0.366251336759471 
1221	 0.366437163586071 
1222	 0.366624128262015 
1223	 0.366840837827081 
1224	 0.367030088831383 
1225	 0.367188458253245 
1226	 0.367366124426208 
1227	 0.367552175594115 
1228	 0.367731830593504 
1229	 0.36791778121557 
1230	 0.368094625201475 
1231	 0.368275127414228 
1232	 0.368435513149497 
1233	 0.36858383033059 
1234	 0.36871500366526 
1235	 0.368861194535644 
1236	 0.368996600937149 
1237	 0.369141244419656 
1238	 0.369307195111643 
1239	 0.369448119105646 
1240	 0.369580365656621 
1241	 0.369701229534933 
1242	 0.369799420951139 
1243	 0.369915169251406 
1244	 0.370026958723031 
1245	 0.370145271439342 
1246	 0.370291804208939 
1247	 0.370409750953681 
1248	 0.370513182581726 
1249	 0.370606203883979 
1250	 0.370707904895246 
1251	 0.37081880667423 
1252	 0.370930421010815 
1253	 0.371061117759953 
1254	 0.371177045876998 
1255	 0.371280381966599 
1256	 0.37139475476736 
1257	 0.371520680881815 
1258	 0.37163385267821 
1259	 0.371748754798281 
1260	 0.371850436659227 
1261	 0.371932200300488 
1262	 0.372025847174036 
1263	 0.372124535518279 
1264	 0.37221364677721 
1265	 0.372296431665561 
1266	 0.372387738761219 
1267	 0.372483383077505 
1268	 0.372564234426908 
1269	 0.372648643806949 
1270	 0.372745805361537 
1271	 0.372821799452158 
1272	 0.372872721576333 
1273	 0.372950824101589 
1274	 0.373028511011021 
1275	 0.373123509006535 
1276	 0.37323310776177 
1277	 0.373349907895287 
1278	 0.373487341412008 
1279	 0.37360945653159 
1280	 0.373734952133185 
1281	 0.373857234525233 
1282	 0.373971139320219 
1283	 0.374085083371737 
1284	 0.374199290818494 
1285	 0.374321141112906 
1286	 0.374422664968626 
1287	 0.374509430340873 
1288	 0.374583256192314 
1289	 0.374640600676628 
1290	 0.374693506666305 
1291	 0.374735616710619 
1292	 0.374772206838034 
1293	 0.374795717012732 
1294	 0.374819833788398 
1295	 0.374842233802416 
1296	 0.37485033619934 
1297	 0.374860777570995 
1298	 0.374852793356583 
1299	 0.374806797544756 
1300	 0.374790670197493 
1301	 0.374790591072157 
1302	 0.374766295616667 
1303	 0.374747094430572 
1304	 0.374719778358203 
1305	 0.374662924301797 
1306	 0.374610637794345 
1307	 0.37456349770154 
1308	 0.37451534221552 
1309	 0.374457045029809 
1310	 0.374391765745845 
1311	 0.374322975767371 
1312	 0.374239451817302 
1313	 0.374171488589335 
1314	 0.374090013531281 
1315	 0.374047551366528 
1316	 0.374045274413606 
1317	 0.37401838534729 
1318	 0.373998515491889 
1319	 0.373979025363643 
1320	 0.373930956515352 
1321	 0.373914398388194 
1322	 0.373923478028421 
1323	 0.373941274334521 
1324	 0.373941439476628 
1325	 0.373949806575845 
1326	 0.373961068054139 
1327	 0.373981741572538 
1328	 0.374027258726276 
1329	 0.374091203964996 
1330	 0.374136347483901 
1331	 0.374172945945205 
1332	 0.374225150160705 
1333	 0.374273257597926 
1334	 0.374332305416559 
1335	 0.374402002663099 
1336	 0.374484265891671 
1337	 0.37456935134398 
1338	 0.374669817864314 
1339	 0.374787449551053 
1340	 0.374910572739472 
1341	 0.375057173000458 
1342	 0.375181469560637 
1343	 0.375293220469356 
1344	 0.375425330949473 
1345	 0.37555806233284 
1346	 0.375670967719044 
1347	 0.375785803624441 
1348	 0.375905908713597 
1349	 0.375998851416744 
1350	 0.376080439677691 
1351	 0.376186914939414 
1352	 0.376308107968852 
1353	 0.37642126941921 
1354	 0.376537836258528 
1355	 0.376667897813141 
1356	 0.376810023534664 
1357	 0.37693280321701 
1358	 0.377064375892659 
1359	 0.377183335703907 
1360	 0.377266669460679 
1361	 0.377377686227952 
1362	 0.377524990433771 
1363	 0.377628596097148 
1364	 0.377716509317468 
1365	 0.377810657098132 
1366	 0.377885707221296 
1367	 0.377944083685255 
1368	 0.378051053343333 
1369	 0.378150960428293 
1370	 0.378223263758404 
1371	 0.378281646080514 
1372	 0.378330631635414 
1373	 0.378368631587228 
1374	 0.378397931750004 
1375	 0.378427838171982 
1376	 0.378444389240872 
1377	 0.378439055379439 
1378	 0.378438595786574 
1379	 0.378440834271989 
1380	 0.378433547068294 
1381	 0.378423950729685 
1382	 0.37839898851041 
1383	 0.378366220478433 
1384	 0.378318792150817 
1385	 0.378259174378026 
1386	 0.378188190844156 
1387	 0.378104159324754 
1388	 0.378009899072888 
1389	 0.37790783548876 
1390	 0.377790689469619 
1391	 0.377647352966906 
1392	 0.377510189013948 
1393	 0.377363166618006 
1394	 0.377186472668157 
1395	 0.376992728461154 
1396	 0.376772232495643 
1397	 0.376548429198728 
1398	 0.376293162188338 
1399	 0.37605577999977 
1400	 0.3758281574493 
1401	 0.375590180988992 
1402	 0.375345963786008 
1403	 0.375100643391995 
1404	 0.374857270963214 
1405	 0.374592849648585 
1406	 0.374305897483176 
1407	 0.374039391316241 
1408	 0.373761022618456 
1409	 0.373500312455408 
1410	 0.373252607584635 
1411	 0.373023055182304 
1412	 0.372797997116432 
1413	 0.372596097298974 
1414	 0.372408507707569 
1415	 0.372243237124891 
1416	 0.372118078556025 
1417	 0.372009801124269 
1418	 0.371923585522934 
1419	 0.371849554318261 
1420	 0.371758181187915 
1421	 0.371675594632205 
1422	 0.371602767447941 
1423	 0.371522867552453 
1424	 0.371440398928187 
1425	 0.371350762235387 
1426	 0.371268410566662 
1427	 0.371176363713207 
1428	 0.371114149709126 
1429	 0.371071925151718 
1430	 0.371027408167117 
1431	 0.370998354762962 
1432	 0.37096448071655 
1433	 0.370919386148408 
1434	 0.370897121521166 
1435	 0.370896688105991 
1436	 0.37088442550002 
1437	 0.370875038405856 
1438	 0.370869305721227 
1439	 0.370857660120961 
1440	 0.370853293673236 
1441	 0.370858039350956 
1442	 0.370871750881104 
1443	 0.370866561254711 
1444	 0.370853569825727 
1445	 0.370864195300443 
1446	 0.370878499450725 
1447	 0.370889660013229 
1448	 0.37090954265327 
1449	 0.370923881094149 
1450	 0.370916860309258 
1451	 0.370922641337893 
1452	 0.37093504399465 
1453	 0.370954150030837 
1454	 0.370976846355927 
1455	 0.370999045071358 
1456	 0.371029471286037 
1457	 0.371052144276544 
1458	 0.371066563830345 
1459	 0.371085233080203 
1460	 0.371105814909401 
1461	 0.3711331798433 
1462	 0.371147743253572 
1463	 0.371193209530952 
1464	 0.371267706854333 
1465	 0.371326184304138 
1466	 0.371392804919662 
1467	 0.371464275948526 
1468	 0.371532010521162 
1469	 0.371601281864742 
1470	 0.371676687221266 
1471	 0.371760498254178 
1472	 0.371834106642185 
1473	 0.371903808419605 
1474	 0.37200459290334 
1475	 0.372114176537648 
1476	 0.372209413977913 
1477	 0.372305111835467 
1478	 0.372385570933898 
1479	 0.372449674465244 
1480	 0.372531205507209 
1481	 0.372620756756299 
1482	 0.372704361545644 
1483	 0.372787038184807 
1484	 0.372876217807349 
1485	 0.372957797439606 
1486	 0.373063620774631 
1487	 0.373190794676177 
1488	 0.373303488463332 
1489	 0.373415636808082 
1490	 0.373541245529399 
1491	 0.373663977193785 
1492	 0.373804209030798 
1493	 0.373978779531974 
1494	 0.374124845440578 
1495	 0.374266644824754 
1496	 0.374395070805502 
1497	 0.374510912325809 
1498	 0.374622093000552 
1499	 0.374721023601223 
1500	 0.37482044430666 
1501	 0.374919882689318 
1502	 0.375004320194935 
1503	 0.375077198612728 
1504	 0.375151603826025 
1505	 0.37521902832362 
1506	 0.375287187105606 
1507	 0.375361387566381 
1508	 0.37544077131931 
1509	 0.375529003352793 
1510	 0.375602057934778 
1511	 0.375684525393571 
1512	 0.375782779540794 
1513	 0.375853984398765 
1514	 0.375916297978272 
1515	 0.375982397469742 
1516	 0.376035506489131 
1517	 0.376098165371697 
1518	 0.376172138342996 
1519	 0.376233425034708 
1520	 0.376283281605386 
1521	 0.376345508473249 
1522	 0.3764063336112 
1523	 0.376477228450401 
1524	 0.376573240771456 
1525	 0.376636811792197 
1526	 0.376683267830422 
1527	 0.376732833668179 
1528	 0.376766025508322 
1529	 0.376805968213767 
1530	 0.376849529294133 
1531	 0.376906710811174 
1532	 0.376959084928929 
1533	 0.377025817911632 
1534	 0.377113896872025 
1535	 0.377195259881204 
1536	 0.37728897771419 
1537	 0.377368479938909 
1538	 0.377443586782755 
1539	 0.377511531952149 
1540	 0.377566157337153 
1541	 0.377621742126276 
1542	 0.377683506724213 
1543	 0.377732729443223 
1544	 0.3777572906674 
1545	 0.377799244409054 
1546	 0.377843425650174 
1547	 0.377892867618236 
1548	 0.377929550460724 
1549	 0.377984780688853 
1550	 0.378042023560373 
1551	 0.378076385299815 
1552	 0.378114524812723 
1553	 0.378166677972469 
1554	 0.378213480639795 
1555	 0.378260338684558 
1556	 0.378320187162049 
1557	 0.378379265663173 
1558	 0.378439170162858 
1559	 0.378496866907598 
1560	 0.378538483748202 
1561	 0.378571739246372 
1562	 0.378617790331112 
1563	 0.378650997486787 
1564	 0.378698707382309 
1565	 0.378771412938734 
1566	 0.378823376251186 
1567	 0.378859368480146 
1568	 0.378907564279408 
1569	 0.37896261135268 
1570	 0.379009739384371 
1571	 0.379060188754188 
1572	 0.379101843069166 
1573	 0.379124009379098 
1574	 0.379170138467966 
1575	 0.379231055304388 
1576	 0.379277677767385 
1577	 0.379330342865141 
1578	 0.379379640592986 
1579	 0.379417515610133 
1580	 0.379454711703541 
1581	 0.379501300993682 
1582	 0.379535046186133 
1583	 0.379530749242911 
1584	 0.379577364030733 
1585	 0.379658280922575 
1586	 0.37971773192329 
1587	 0.379808121164148 
1588	 0.379868413450988 
1589	 0.37989330742536 
1590	 0.379927763556416 
1591	 0.379952805417879 
1592	 0.379990554772569 
1593	 0.380027049242648 
1594	 0.380073379261932 
1595	 0.38014230754617 
1596	 0.380198051225281 
1597	 0.380255595876714 
1598	 0.380303794309207 
1599	 0.380346516112598 
1600	 0.380376914006873 
1601	 0.380397956666987 
1602	 0.380414051157828 
1603	 0.380398037483982 
1604	 0.380412211382984 
1605	 0.380439345454095 
1606	 0.380471067972695 
1607	 0.380528391066289 
1608	 0.380583316855878 
1609	 0.380609900033202 
1610	 0.380633783089625 
1611	 0.38066632420645 
1612	 0.380702132695213 
1613	 0.380743922640074 
1614	 0.380780861300709 
1615	 0.380809854935153 
1616	 0.380837859900026 
1617	 0.380870621127885 
1618	 0.380909188727404 
1619	 0.380942139265523 
1620	 0.380964510730995 
1621	 0.380986286528982 
1622	 0.381010341485403 
1623	 0.381013483014458 
1624	 0.380997148799757 
1625	 0.381007302612838 
1626	 0.381005985772881 
1627	 0.381036530089251 
1628	 0.381089343052712 
1629	 0.381156969944683 
1630	 0.381252146692055 
1631	 0.381321814837813 
1632	 0.381409710720842 
1633	 0.381464418235715 
1634	 0.381487456940746 
1635	 0.381520679112262 
1636	 0.381550788641613 
1637	 0.381571423152134 
1638	 0.381581648984323 
1639	 0.381602018176726 
1640	 0.381617025774003 
1641	 0.381638318595997 
1642	 0.381667581389238 
1643	 0.381694014070665 
1644	 0.381718490995397 
1645	 0.381748092185344 
1646	 0.381790958752258 
1647	 0.381809178406092 
1648	 0.381812195697271 
1649	 0.381829781289424 
1650	 0.381826350629444 
1651	 0.381861966077861 
1652	 0.381935507683851 
1653	 0.381982396321153 
1654	 0.382041351396014 
1655	 0.382079068993736 
1656	 0.382094411703232 
1657	 0.38211849701209 
1658	 0.382138439108593 
1659	 0.382160804905963 
1660	 0.382177379565113 
1661	 0.382207920858478 
1662	 0.38225724291979 
1663	 0.382278884567617 
1664	 0.382297629149253 
1665	 0.382309247166497 
1666	 0.382286815972365 
1667	 0.382298778397511 
1668	 0.382326317044109 
1669	 0.382356394279039 
1670	 0.382408774998887 
1671	 0.382438345819547 
1672	 0.382457014919752 
1673	 0.382485840533151 
1674	 0.382506918547262 
1675	 0.382536316228575 
1676	 0.382580304761155 
1677	 0.38261483426264 
1678	 0.382641174564486 
1679	 0.38267718133129 
1680	 0.382727923879182 
1681	 0.382754528848608 
1682	 0.382771034258745 
1683	 0.382789659279115 
1684	 0.3827945410644 
1685	 0.382801170356097 
1686	 0.382800628437914 
1687	 0.382826121468636 
1688	 0.382864763560673 
1689	 0.382890341964738 
1690	 0.38294263618379 
1691	 0.38296264474917 
1692	 0.382941195197463 
1693	 0.382950243036006 
1694	 0.382960564515231 
1695	 0.382981980532165 
1696	 0.383026733274689 
1697	 0.383048583570301 
1698	 0.38306472499591 
1699	 0.383085493715046 
1700	 0.383103936332791 
1701	 0.383111676224742 
1702	 0.383111443142555 
1703	 0.383123385199173 
1704	 0.383118030239294 
1705	 0.383145026878149 
1706	 0.38319997261539 
1707	 0.383250631274114 
1708	 0.383324063532317 
1709	 0.383367611243725 
1710	 0.383407949844229 
1711	 0.383433606473965 
1712	 0.383432039341161 
1713	 0.383444052772714 
1714	 0.383454740457416 
1715	 0.383466956767973 
1716	 0.383487133163465 
1717	 0.383490724929899 
1718	 0.383486624031753 
1719	 0.383475518714766 
1720	 0.383449558015089 
1721	 0.383432180397369 
1722	 0.383405203564672 
1723	 0.383406492023466 
1724	 0.383431980073594 
1725	 0.383429436069913 
1726	 0.383430747080154 
1727	 0.383422688776439 
1728	 0.383392082634296 
1729	 0.383374066234238 
1730	 0.38337274475834 
1731	 0.383351609059331 
1732	 0.383303450783562 
1733	 0.383290703504568 
1734	 0.383300730294684 
1735	 0.383269654591522 
1736	 0.383246390234135 
1737	 0.383200663734518 
1738	 0.383114808296177 
1739	 0.383038873589981 
1740	 0.382952214837062 
1741	 0.382895098722593 
1742	 0.382830684197593 
1743	 0.382800490144033 
1744	 0.382822448079879 
1745	 0.382808589094013 
1746	 0.382789628599058 
1747	 0.382778361095792 
1748	 0.382739398500394 
1749	 0.382719412129343 
1750	 0.382682896071435 
1751	 0.382624216811619 
1752	 0.38258601773564 
1753	 0.382526442345953 
1754	 0.382465962792575 
1755	 0.382412179925472 
1756	 0.382355532012187 
1757	 0.382312562676288 
1758	 0.382273983224383 
1759	 0.382255977810787 
1760	 0.38225092351139 
1761	 0.382249462845424 
1762	 0.382243379257115 
1763	 0.382229846899695 
1764	 0.382208330715583 
1765	 0.382167435522838 
1766	 0.382148987668487 
1767	 0.38213027875262 
1768	 0.382087907183051 
1769	 0.382057115456605 
1770	 0.382046484938565 
1771	 0.382064371907918 
1772	 0.382104861005504 
1773	 0.382150675951491 
1774	 0.382183585400946 
1775	 0.382181063074258 
1776	 0.382156690984589 
1777	 0.382139332584502 
1778	 0.382106261255698 
1779	 0.382053194718965 
1780	 0.382008243113002 
1781	 0.381967895762975 
1782	 0.381927800343561 
1783	 0.381957099329318 
1784	 0.381955417574761 
1785	 0.381945922686782 
1786	 0.38195356344084 
1787	 0.381962899604505 
1788	 0.38194891048704 
1789	 0.381933994480356 
1790	 0.381931301758619 
1791	 0.381898857640567 
1792	 0.38189600081659 
1793	 0.381927243595277 
1794	 0.381944989452471 
1795	 0.381950437870895 
1796	 0.381983340760346 
1797	 0.382053544989357 
1798	 0.382098169457302 
1799	 0.382156464818027 
1800	 0.382183982576852 
1801	 0.379130140879837 
1802	 0.379166029357421 
1803	 0.379252407786355 
1804	 0.379284370030916 
1805	 0.379295618168628 
1806	 0.379309005556948 
1807	 0.379310122353599 
1808	 0.379328892433764 
1809	 0.379377445319477 
1810	 0.379392774282614 
1811	 0.379405709015205 
1812	 0.379405866797015 
1813	 0.379366806659066 
1814	 0.379322419395403 
1815	 0.379321339116142 
1816	 0.379326843296148 
1817	 0.379327833660367 
1818	 0.379342712558983 
1819	 0.379365171356219 
1820	 0.379395721061257 
1821	 0.379404248917212 
1822	 0.37940902310327 
1823	 0.379421033431559 
1824	 0.379396118895131 
1825	 0.379358612216851 
1826	 0.379375140802828 
1827	 0.37940731842654 
1828	 0.379431194818767 
1829	 0.379485220379441 
1830	 0.379507994224967 
1831	 0.37951471104784 
1832	 0.379515812175512 
1833	 0.379494941832772 
1834	 0.379478073517976 
1835	 0.379473597896922 
1836	 0.37944799156258 
1837	 0.379460806903347 
1838	 0.379469754811407 
1839	 0.379461785387087 
1840	 0.379445837721107 
1841	 0.379438733717889 
1842	 0.379402131403098 
1843	 0.379353171211668 
1844	 0.37931419557326 
1845	 0.379259692901029 
1846	 0.379205451623852 
1847	 0.379185695761241 
1848	 0.379151164306194 
1849	 0.37912722388503 
1850	 0.379100401002337 
1851	 0.379081463661949 
1852	 0.379028528109586 
1853	 0.379002321206218 
1854	 0.378961705294764 
1855	 0.378928470228345 
1856	 0.378918561280783 
1857	 0.378868068658223 
1858	 0.37883099519109 
1859	 0.378804143838638 
1860	 0.378730943466196 
1861	 0.378634226588821 
1862	 0.37851229662966 
1863	 0.378341829957796 
1864	 0.378118207150223 
1865	 0.377888669586292 
1866	 0.377698936204835 
1867	 0.377512673157479 
1868	 0.377294436891676 
1869	 0.377065077711062 
1870	 0.376823174777929 
1871	 0.376585063622817 
1872	 0.37633114687133 
1873	 0.376119457513915 
1874	 0.375913680262991 
1875	 0.375665771272941 
1876	 0.375385936670943 
1877	 0.375048122686019 
1878	 0.374634700973187 
1879	 0.374173474083228 
1880	 0.373677246099498 
1881	 0.373133284116474 
1882	 0.372548203090003 
1883	 0.371928997372424 
1884	 0.371255019259669 
1885	 0.370537765456595 
1886	 0.369765937518386 
1887	 0.36895020964088 
1888	 0.368082389512747 
1889	 0.36715114915384 
1890	 0.366210005444961 
1891	 0.365245658459654 
1892	 0.364243659331356 
1893	 0.363228670640211 
1894	 0.362208859774789 
1895	 0.361144127111682 
1896	 0.36002535921801 
1897	 0.358891014327243 
1898	 0.357717840976167 
1899	 0.356521572697623 
1900	 0.355344851658326 
1901	 0.354173357939529 
1902	 0.353011716365081 
1903	 0.351841642839354 
1904	 0.350717281650204 
1905	 0.349601514727226 
1906	 0.348546615215755 
1907	 0.347512235159681 
1908	 0.346540485642742 
1909	 0.345624916853455 
1910	 0.344716380756225 
1911	 0.343863865058899 
1912	 0.343074687693904 
1913	 0.342316057744156 
1914	 0.341585225369726 
1915	 0.340902866945304 
1916	 0.34026270652041 
1917	 0.339676825170717 
1918	 0.339118463041996 
1919	 0.338603626695717 
1920	 0.338144334478911 
1921	 0.337705094561201 
1922	 0.33729820830056 
1923	 0.336924659373329 
1924	 0.336592750862269 
1925	 0.336299776286719 
1926	 0.336039212691663 
1927	 0.335813031734625 
1928	 0.33562851866617 
1929	 0.335477429350963 
1930	 0.335332629927152 
1931	 0.335250242970584 
1932	 0.335235744756162 
1933	 0.335245587323715 
1934	 0.335285310697192 
1935	 0.33532994713733 
1936	 0.335395753745234 
1937	 0.335460532547797 
1938	 0.335523342527563 
1939	 0.33561624719467 
1940	 0.3357233838217 
1941	 0.335838419383122 
1942	 0.335999683908396 
1943	 0.336201150773506 
1944	 0.336398989563797 
1945	 0.33658600160541 
1946	 0.336770908663169 
1947	 0.336930679946007 
1948	 0.337125145736045 
1949	 0.337318617844497 
1950	 0.337546593307592 
1951	 0.337815265266801 
1952	 0.338081172212631 
1953	 0.338324016724987 
1954	 0.338596590754885 
1955	 0.338848742200972 
1956	 0.339094236793562 
1957	 0.339348903179555 
1958	 0.33960760791902 
1959	 0.339870533869091 
1960	 0.340131765874933 
1961	 0.340403875271487 
1962	 0.340683029146107 
1963	 0.340982749442608 
1964	 0.341291686224895 
1965	 0.341613741513659 
1966	 0.341955597795939 
1967	 0.342289054746806 
1968	 0.342641606828612 
1969	 0.343011238861357 
1970	 0.343371355378102 
1971	 0.343744719886362 
1972	 0.34411314098228 
1973	 0.344473916185326 
1974	 0.344832509090809 
1975	 0.345195542805848 
1976	 0.345557004933919 
1977	 0.345899093808183 
1978	 0.346234639240284 
1979	 0.346567372012198 
1980	 0.346896260710278 
1981	 0.347259088346557 
1982	 0.347646881207875 
1983	 0.348035472954636 
1984	 0.348448546322928 
1985	 0.348850808340709 
1986	 0.349259610104844 
1987	 0.349653937306464 
1988	 0.350031481566622 
1989	 0.350443525287677 
1990	 0.350830743471296 
1991	 0.351178749600104 
1992	 0.351535831343091 
1993	 0.351876230562084 
1994	 0.352233163219539 
1995	 0.352588489316946 
1996	 0.352954226056529 
1997	 0.353337251043959 
1998	 0.353705582339762 
1999	 0.354073039729532 
2000	 0.354438148710656 
2001	 0.354772824148193 
2002	 0.355153824763234 
2003	 0.355562311068293 
2004	 0.35593748823459 
2005	 0.356314577536659 
2006	 0.356711261425946 
2007	 0.357074863835554 
2008	 0.357397074135281 
2009	 0.357747939639524 
2010	 0.358100967120614 
2011	 0.358454947595912 
2012	 0.358813077719069 
2013	 0.359178545864373 
2014	 0.35954007310971 
2015	 0.359917649350023 
2016	 0.360304340746094 
2017	 0.360698900868988 
2018	 0.361066360095585 
2019	 0.361422708742832 
2020	 0.361775286562447 
2021	 0.362104855912712 
2022	 0.362444271110743 
2023	 0.362802979160141 
2024	 0.363134562475529 
2025	 0.36344084122905 
2026	 0.363759201708015 
2027	 0.36407564822858 
2028	 0.364377663542158 
2029	 0.364686322098468 
2030	 0.365009949933464 
2031	 0.365305958717768 
2032	 0.365574764538929 
2033	 0.365870148066443 
2034	 0.366174703660173 
2035	 0.36646724351557 
2036	 0.366774391346797 
2037	 0.367058500374682 
2038	 0.367334644377322 
2039	 0.367585168095893 
2040	 0.3677962138312 
2041	 0.36803180134422 
2042	 0.368284858399172 
2043	 0.368488804383311 
2044	 0.36872905495617 
2045	 0.369009153426415 
2046	 0.369249745634284 
2047	 0.369474467093428 
2048	 0.369698365890303 
2049	 0.369918886167196 
2050	 0.370123395441984 
2051	 0.370294994866534 
2052	 0.370499981558851 
2053	 0.370713406811685 
2054	 0.370919834202372 
2055	 0.371139313091347 
2056	 0.371369738161398 
2057	 0.371585044148633 
2058	 0.371779469544675 
2059	 0.371992707078141 
2060	 0.372222954438527 
2061	 0.372431991949492 
2062	 0.37262737516924 
2063	 0.372836586269618 
2064	 0.373047634152104 
2065	 0.37325124010309 
2066	 0.373470445268204 
2067	 0.373669292827801 
2068	 0.373843084080218 
2069	 0.374019029423071 
2070	 0.374207906569638 
2071	 0.374399105764392 
2072	 0.374587879871756 
2073	 0.374786035987731 
2074	 0.374974621117042 
2075	 0.375144971628564 
2076	 0.375339000066052 
2077	 0.375555256932673 
2078	 0.375751714362679 
2079	 0.375941190064367 
2080	 0.376142050498562 
2081	 0.376334369846951 
2082	 0.376533499140212 
2083	 0.376751780921114 
2084	 0.376967883432196 
2085	 0.377172105995664 
2086	 0.377365880591095 
2087	 0.377564188738135 
2088	 0.377771650625044 
2089	 0.377950107502839 
2090	 0.378112393523647 
2091	 0.378276367275282 
2092	 0.378413347339006 
2093	 0.378569322487014 
2094	 0.378743948744152 
2095	 0.378905178143494 
2096	 0.379039866548535 
2097	 0.379208832577375 
2098	 0.379390705629007 
2099	 0.379581489966468 
2100	 0.379772512497095 
2101	 0.379997623339807 
2102	 0.380185775029815 
2103	 0.380338612593262 
2104	 0.380531800910042 
2105	 0.380717846105373 
2106	 0.380944803315613 
2107	 0.381221144327805 
2108	 0.38147397389861 
2109	 0.381747163056618 
2110	 0.382004216287166 
2111	 0.382240575121795 
2112	 0.382488520501504 
2113	 0.382736749065347 
2114	 0.382993873428305 
2115	 0.383244213152061 
2116	 0.383494467809666 
2117	 0.383746998617652 
2118	 0.384007169710674 
2119	 0.384244720389907 
2120	 0.384491963840968 
2121	 0.38470037050544 
2122	 0.384868196220893 
2123	 0.385047830458247 
2124	 0.385218446305178 
2125	 0.385374101682881 
2126	 0.385509223618518 
2127	 0.385663959765927 
2128	 0.385811453909768 
2129	 0.385962101981984 
2130	 0.386165035588427 
2131	 0.386316603208025 
2132	 0.386426375398102 
2133	 0.386503555513791 
2134	 0.386565695089801 
2135	 0.386569004015893 
2136	 0.386602123969245 
2137	 0.386650574698435 
2138	 0.386660243345365 
2139	 0.386649550420369 
2140	 0.386634597604161 
2141	 0.386589720453647 
2142	 0.386554359952533 
2143	 0.386537989085884 
2144	 0.386487923505525 
2145	 0.386440902115681 
2146	 0.386347855557552 
2147	 0.386213125573483 
2148	 0.386062644712951 
2149	 0.385885958067457 
2150	 0.385665870094107 
2151	 0.385455570080935 
2152	 0.385210656993024 
2153	 0.385012564705436 
2154	 0.384836499183073 
2155	 0.384642141794611 
2156	 0.384478001431596 
2157	 0.384277439904692 
2158	 0.384027461477493 
2159	 0.383810626540511 
2160	 0.383619734576099 
2161	 0.383395081878639 
2162	 0.383180971702753 
2163	 0.3829364277248 
2164	 0.382651242449567 
2165	 0.382346183904037 
2166	 0.382072428874711 
2167	 0.381801960758086 
2168	 0.38152173372843 
2169	 0.381247647235536 
2170	 0.380980278304979 
2171	 0.380690631248511 
2172	 0.380436346114892 
2173	 0.380235249341323 
2174	 0.379983800682629 
2175	 0.37972137127099 
2176	 0.37945614623681 
2177	 0.37915139462392 
2178	 0.378872888650284 
2179	 0.378615708478009 
2180	 0.378349269788675 
2181	 0.378086455488839 
2182	 0.377822430188659 
2183	 0.37754977832683 
2184	 0.377265901670387 
2185	 0.377037192262895 
2186	 0.376835093513581 
2187	 0.376629533738998 
2188	 0.376470025799873 
2189	 0.37627197617052 
2190	 0.376051252169315 
2191	 0.375841316995361 
2192	 0.375626859822754 
2193	 0.37541938530899 
2194	 0.375213337202317 
2195	 0.375009367343519 
2196	 0.374788032389633 
2197	 0.374609049403257 
2198	 0.374455487106421 
2199	 0.37430435412502 
2200	 0.374195283185255 
2201	 0.374071619316814 
2202	 0.373935332031499 
2203	 0.373790917981907 
2204	 0.373702194365737 
2205	 0.373638708615279 
2206	 0.373580210793918 
2207	 0.373565215410513 
2208	 0.373526862946232 
2209	 0.373471066535963 
2210	 0.373443601621262 
2211	 0.373420176140556 
2212	 0.373427950151028 
2213	 0.373474439578326 
2214	 0.373500633009743 
2215	 0.373545429145836 
2216	 0.373579046007274 
2217	 0.373602210972967 
2218	 0.373619295168605 
2219	 0.373629493548527 
2220	 0.373647981433699 
2221	 0.373661518924987 
2222	 0.373677451469804 
2223	 0.373718754385225 
2224	 0.373714159832173 
2225	 0.373706683912833 
2226	 0.373691290198212 
2227	 0.373653342495084 
2228	 0.373590936988212 
2229	 0.373529619871726 
2230	 0.37343673203829 
2231	 0.373373795609408 
2232	 0.373315902417758 
2233	 0.373272977634889 
2234	 0.373251257723131 
2235	 0.373224420892937 
2236	 0.373208876524373 
2237	 0.373180464572043 
2238	 0.373149835484062 
2239	 0.373114865529797 
2240	 0.373059958284692 
2241	 0.373025669842662 
2242	 0.373003956287971 
2243	 0.372978554794854 
2244	 0.372952271889232 
2245	 0.37294215855502 
2246	 0.372915344811339 
2247	 0.3729377539632 
2248	 0.372979065887485 
2249	 0.373063193065066 
2250	 0.373118577083207 
2251	 0.373195340894265 
2252	 0.373237359203225 
2253	 0.373254377242295 
2254	 0.373276863485969 
2255	 0.37329376491294 
2256	 0.37330628206837 
2257	 0.373325017339547 
2258	 0.373307358853507 
2259	 0.373257506114301 
2260	 0.373222397201371 
2261	 0.373144293813257 
2262	 0.373125199703252 
2263	 0.373152594515117 
2264	 0.373168664467409 
2265	 0.373210818142175 
2266	 0.373243561426265 
2267	 0.373276489380077 
2268	 0.373300580690248 
2269	 0.373329117678421 
2270	 0.373332306109197 
2271	 0.373356125976893 
2272	 0.373375947907711 
2273	 0.373411149963242 
2274	 0.373478866972232 
2275	 0.373528857332701 
2276	 0.373592207550154 
2277	 0.373613386916656 
2278	 0.373620556969066 
2279	 0.37361990250964 
2280	 0.373542088129069 
2281	 0.373581915315171 
2282	 0.373682901580892 
2283	 0.373758571508823 
2284	 0.373904198647439 
2285	 0.374008261448114 
2286	 0.374097636157351 
2287	 0.374153433889148 
2288	 0.374179629984936 
2289	 0.374211943563618 
2290	 0.374180454786177 
2291	 0.374206359023937 
2292	 0.374285786218592 
2293	 0.374360363297306 
2294	 0.37446334337845 
2295	 0.374548434306868 
2296	 0.374654549392378 
2297	 0.374698795343408 
2298	 0.374739117361107 
2299	 0.374753335636035 
2300	 0.374772125081869 
2301	 0.374833855645324 
2302	 0.374864300891557 
2303	 0.374877270075819 
2304	 0.37485584091848 
2305	 0.374773519126379 
2306	 0.374754514148961 
2307	 0.374752692515016 
2308	 0.374756629406949 
2309	 0.374793453687473 
2310	 0.374811384991953 
2311	 0.374820849852606 
2312	 0.374844579965885 
2313	 0.374867810170742 
2314	 0.374903857425776 
2315	 0.374972073103273 
2316	 0.374992634257965 
2317	 0.374995737513845 
2318	 0.375007917763139 
2319	 0.374972067185372 
2320	 0.374980469417869 
2321	 0.375057884919668 
2322	 0.375067001265469 
2323	 0.375066318329723 
2324	 0.375049250233102 
2325	 0.374927289077966 
2326	 0.374899848138315 
2327	 0.374923277782073 
2328	 0.374951996598835 
2329	 0.374980786142313 
2330	 0.375038322561075 
2331	 0.375073291636401 
2332	 0.375062746034987 
2333	 0.37503782848951 
2334	 0.375090558481679 
2335	 0.375120409092774 
2336	 0.375163218976712 
2337	 0.375278380443077 
2338	 0.375306101780628 
2339	 0.37531496112026 
2340	 0.375312060559297 
2341	 0.375243802902016 
2342	 0.375165698160336 
2343	 0.375060937920635 
2344	 0.374975943115942 
2345	 0.37494365021611 
2346	 0.374988971988183 
2347	 0.374942743470079 
2348	 0.37488628492569 
2349	 0.374840851116315 
2350	 0.374740312239151 
2351	 0.374677192538116 
2352	 0.374715716095523 
2353	 0.3746111420144 
2354	 0.374396292450086 
2355	 0.374232090459367 
2356	 0.374005758185993 
2357	 0.373832755599979 
2358	 0.373716450607011 
2359	 0.373600468509392 
2360	 0.373453282652917 
2361	 0.373389459853529 
2362	 0.373435066193571 
2363	 0.373363548913039 
2364	 0.373292521074022 
2365	 0.373213615641899 
2366	 0.373065618849581 
2367	 0.372900401505781 
2368	 0.372742458744899 
2369	 0.3725668376849 
2370	 0.372337738437926 
2371	 0.372104586330073 
2372	 0.371909648560137 
2373	 0.371710463404133 
2374	 0.371418922063347 
2375	 0.371110235976278 
2376	 0.370807139276451 
2377	 0.370476324141706 
2378	 0.370181291261684 
2379	 0.369955648422201 
2380	 0.369748707396058 
2381	 0.369542009843535 
2382	 0.369367677049888 
2383	 0.36920230329881 
2384	 0.369009892827324 
2385	 0.3688157883785 
2386	 0.36860548862558 
2387	 0.368423108968719 
2388	 0.368204794726509 
2389	 0.367953269187406 
2390	 0.367775603745418 
2391	 0.367488160626864 
2392	 0.367208177152841 
2393	 0.367033856499761 
2394	 0.366800766334678 
2395	 0.366595121498705 
2396	 0.366403460422727 
2397	 0.366207090138028 
2398	 0.366033214419186 
2399	 0.365758864316623 
2400	 0.365437196953409 
2401	 0.365151591318233 
2402	 0.364851126392891 
2403	 0.364570435105553 
2404	 0.364342220235982 
2405	 0.364069539361757 
2406	 0.363699959914615 
2407	 0.363343048580804 
2408	 0.363037978339038 
2409	 0.362783197078592 
2410	 0.362607847370777 
2411	 0.362411040104819 
2412	 0.362210145889052 
2413	 0.362080136286597 
2414	 0.36184271261856 
2415	 0.361517716883116 
2416	 0.36118848361252 
2417	 0.360677731162252 
2418	 0.360375163511622 
2419	 0.360240697693412 
2420	 0.360023409264971 
2421	 0.359917738997884 
2422	 0.359683734523788 
2423	 0.359310694141772 
2424	 0.358973860964405 
2425	 0.35861623882694 
2426	 0.358295508699283 
2427	 0.357946048680631 
2428	 0.357582476554806 
2429	 0.357256437446332 
2430	 0.356899472955033 
2431	 0.356478776642131 
2432	 0.356135582780029 
2433	 0.355836051007243 
2434	 0.355593904598242 
2435	 0.355462001723689 
2436	 0.355248420581262 
2437	 0.355038580226919 
2438	 0.354702664628293 
2439	 0.354195395373954 
2440	 0.353849347723383 
2441	 0.353542494538267 
2442	 0.353283340934988 
2443	 0.353152803286435 
2444	 0.352903749170562 
2445	 0.352615275646621 
2446	 0.352283061984812 
2447	 0.35188313408079 
2448	 0.351506646850828 
2449	 0.351112837769592 
2450	 0.350739022472676 
2451	 0.350331895107286 
2452	 0.350022288194875 
2453	 0.34981074125027 
2454	 0.349551805478084 
2455	 0.3493025206611 
2456	 0.349014780532111 
2457	 0.348679389119744 
2458	 0.348364023243648 
2459	 0.348093837388388 
2460	 0.347843618617219 
2461	 0.347579759991145 
2462	 0.347298819250384 
2463	 0.347021750563421 
2464	 0.346661474489702 
2465	 0.346311665737218 
2466	 0.345979716224603 
2467	 0.345528419600218 
2468	 0.345189932451607 
2469	 0.344907580471775 
2470	 0.344666197613763 
2471	 0.344454749701467 
2472	 0.344083873556517 
2473	 0.343641488477001 
2474	 0.343135216271598 
2475	 0.342805568489253 
2476	 0.342572449987223 
2477	 0.342237410132189 
2478	 0.342020617088796 
2479	 0.341748533177313 
2480	 0.341588830418216 
2481	 0.341679764993116 
2482	 0.341601422300822 
2483	 0.341354396412887 
2484	 0.340997371253046 
2485	 0.340576786162796 
2486	 0.340255342912296 
2487	 0.340052968130111 
2488	 0.339901904584951 
2489	 0.339610432488854 
2490	 0.339100179267939 
2491	 0.338500466217339 
2492	 0.338041258577772 
2493	 0.337827506370993 
2494	 0.337745153133626 
2495	 0.337715150982656 
2496	 0.337476316949397 
2497	 0.337179252365016 
2498	 0.336932320974407 
2499	 0.336777583488535 
2500	 0.337007391855875 
