Wavelength	MM100004.asd
350	 3.03785438547054E-02 
351	 3.56579615199336E-02 
352	 0.033385513887242 
353	 2.40231237919948E-02 
354	 0.02436981269216 
355	 2.62559101350263E-02 
356	 2.65069455750834E-02 
357	 2.52382544123657E-02 
358	 3.09653997202881E-02 
359	 2.97879240297496E-02 
360	 2.42977446191733E-02 
361	 2.66991325879714E-02 
362	 2.72247131582829E-02 
363	 2.92619504301322E-02 
364	 3.28538261529949E-02 
365	 2.99831464868503E-02 
366	 0.030956387871977 
367	 3.26792916201622E-02 
368	 3.09939819173442E-02 
369	 0.033269873279115 
370	 0.031665461369758 
371	 2.83062757918409E-02 
372	 3.13951387141802E-02 
373	 3.37265494377577E-02 
374	 3.42179723166767E-02 
375	 3.38345231127033E-02 
376	 3.58186184414255E-02 
377	 3.33629236444141E-02 
378	 3.09558958494138E-02 
379	 3.38735816971374E-02 
380	 0.03580778985259 
381	 3.48813707492634E-02 
382	 3.40255932255329E-02 
383	 3.86713567819978E-02 
384	 3.94220153532691E-02 
385	 3.75420601550358E-02 
386	 3.60491974870879E-02 
387	 3.83150194228565E-02 
388	 3.96722634993883E-02 
389	 3.94699966615654E-02 
390	 0.038636159448629 
391	 3.83020361041984E-02 
392	 3.95258777773221E-02 
393	 4.17802302880479E-02 
394	 4.32569443787595E-02 
395	 0.043412655672331 
396	 4.29008833506629E-02 
397	 4.27625698183256E-02 
398	 4.45470609250382E-02 
399	 4.56760626803005E-02 
400	 4.60446005724689E-02 
401	 0.046329500694749 
402	 4.57177348462216E-02 
403	 4.59160455249941E-02 
404	 4.67770759450623E-02 
405	 4.62790697409093E-02 
406	 4.68216470725306E-02 
407	 4.83168733964979E-02 
408	 4.97234747483878E-02 
409	 4.87593791995383E-02 
410	 4.84126849887706E-02 
411	 4.89759045651407E-02 
412	 4.95924004763811E-02 
413	 5.16251673648007E-02 
414	 5.17795767327088E-02 
415	 4.99313206799109E-02 
416	 5.03561028837996E-02 
417	 5.04551236359202E-02 
418	 5.07078704904292E-02 
419	 5.16244925090531E-02 
420	 5.14571538240488E-02 
421	 5.05381672643937E-02 
422	 4.99748724882137E-02 
423	 5.10308493768718E-02 
424	 5.13769615053426E-02 
425	 5.12318203873647E-02 
426	 5.10207707946392E-02 
427	 5.08707383672661E-02 
428	 5.07038279258805E-02 
429	 5.05742744554432E-02 
430	 5.05258376572438E-02 
431	 5.03604837681193E-02 
432	 5.02114711078926E-02 
433	 5.01514073809606E-02 
434	 5.01750295167313E-02 
435	 5.02294125944943E-02 
436	 5.02499011365022E-02 
437	 5.01250921885529E-02 
438	 4.95111658215797E-02 
439	 0.049455287032854 
440	 4.99448229406079E-02 
441	 5.03945530384831E-02 
442	 0.050428557533884 
443	 5.05539531797473E-02 
444	 5.08669064402873E-02 
445	 5.06941101566932E-02 
446	 5.08345081377453E-02 
447	 0.051202879486593 
448	 5.14910092833502E-02 
449	 5.16170290217055E-02 
450	 5.18237341431681E-02 
451	 5.20718208226153E-02 
452	 5.20957648480576E-02 
453	 5.21735306593579E-02 
454	 0.05226591077067 
455	 5.23219008255547E-02 
456	 5.24051935715243E-02 
457	 0.052452452559758 
458	 0.052519631946276 
459	 5.27060091079283E-02 
460	 5.30245238350774E-02 
461	 5.31999605638611E-02 
462	 5.31426110213409E-02 
463	 5.30422458386587E-02 
464	 5.31320953505581E-02 
465	 5.32341680913791E-02 
466	 5.31702487661646E-02 
467	 5.32868009088269E-02 
468	 5.34109685214273E-02 
469	 5.34409938965067E-02 
470	 5.33643952965701E-02 
471	 5.34918388593828E-02 
472	 5.35325678679432E-02 
473	 5.33405187896027E-02 
474	 5.33260315420375E-02 
475	 5.35370753652264E-02 
476	 5.37120877794927E-02 
477	 5.35284378837156E-02 
478	 5.33631080500312E-02 
479	 5.34356003790197E-02 
480	 5.36749934123289E-02 
481	 5.36431357422953E-02 
482	 5.35961258431093E-02 
483	 5.36543148334373E-02 
484	 5.38274591709732E-02 
485	 5.38458758380072E-02 
486	 5.37888892364191E-02 
487	 5.36857822269569E-02 
488	 5.35304155455692E-02 
489	 5.35581289609301E-02 
490	 5.37090971348787E-02 
491	 5.38415146078651E-02 
492	 5.37309695942175E-02 
493	 5.37552624175411E-02 
494	 5.38608210943564E-02 
495	 5.38235132153775E-02 
496	 5.38176490290731E-02 
497	 0.053866844427372 
498	 5.39471245142632E-02 
499	 5.39860141492451E-02 
500	 5.40675317451765E-02 
501	 5.41495801480671E-02 
502	 5.41652531820623E-02 
503	 5.40977210152418E-02 
504	 5.40969131193667E-02 
505	 5.41238732134861E-02 
506	 5.39871470574247E-02 
507	 5.42027046645431E-02 
508	 5.43282401101769E-02 
509	 5.40860512571672E-02 
510	 5.41309699818219E-02 
511	 5.41888306999523E-02 
512	 5.42294311376771E-02 
513	 5.43289745336975E-02 
514	 5.43447601656604E-02 
515	 0.054356006252123 
516	 5.43983555990112E-02 
517	 5.43838740070112E-02 
518	 5.44575037794095E-02 
519	 5.45118102464352E-02 
520	 0.054425791912726 
521	 5.44625797815173E-02 
522	 0.054497267027032 
523	 5.44823428739914E-02 
524	 5.44740873853836E-02 
525	 5.45560215391755E-02 
526	 5.46297067683257E-02 
527	 5.46180934158803E-02 
528	 5.46425452145368E-02 
529	 5.47009455867672E-02 
530	 5.47790998907704E-02 
531	 5.48548829469164E-02 
532	 5.49195348038873E-02 
533	 0.055021220036752 
534	 5.51539471064191E-02 
535	 5.51708589191118E-02 
536	 5.52559190785298E-02 
537	 5.53653884412556E-02 
538	 5.53917542238374E-02 
539	 5.54502105743634E-02 
540	 5.55266395549929E-02 
541	 5.56162842556951E-02 
542	 5.57406961322834E-02 
543	 5.58874478549064E-02 
544	 5.60302148194125E-02 
545	 5.61461103261051E-02 
546	 5.62317847010271E-02 
547	 5.63733538005636E-02 
548	 5.65660424812287E-02 
549	 5.67288292301651E-02 
550	 5.68851030536267E-02 
551	 5.70200224983409E-02 
552	 5.71656719283074E-02 
553	 0.057511294066736 
554	 5.77617761794223E-02 
555	 5.79470148558213E-02 
556	 5.82541239233472E-02 
557	 5.86038395554057E-02 
558	 5.88955538033504E-02 
559	 5.91500017759857E-02 
560	 5.96148150740237E-02 
561	 5.99932787614335E-02 
562	 6.03405552484921E-02 
563	 6.08071364536318E-02 
564	 6.13640201995446E-02 
565	 6.18189454804253E-02 
566	 6.22062005391961E-02 
567	 6.28165012288409E-02 
568	 6.34651807048844E-02 
569	 0.064099208026979 
570	 6.47209919553795E-02 
571	 0.065413582749432 
572	 0.066157360044828 
573	 6.69216927383688E-02 
574	 6.76695872201258E-02 
575	 6.84095466741821E-02 
576	 6.91968182724422E-02 
577	 7.00506426926839E-02 
578	 7.08913271945756E-02 
579	 7.18111308003013E-02 
580	 7.27926179017783E-02 
581	 7.37839408633915E-02 
582	 7.48480778937834E-02 
583	 0.075945990343723 
584	 7.70441502192719E-02 
585	 7.81334179211918E-02 
586	 7.92378501654943E-02 
587	 8.03400779516272E-02 
588	 8.14317432621562E-02 
589	 8.26020776174856E-02 
590	 8.38051048668524E-02 
591	 8.49909723360639E-02 
592	 8.61177593494478E-02 
593	 0.087216848358832 
594	 8.83487286925232E-02 
595	 8.95336551797152E-02 
596	 9.06784749072534E-02 
597	 9.18492306827507E-02 
598	 9.30363737206027E-02 
599	 9.41899335555416E-02 
600	 9.52473418477278E-02 
601	 9.62832651573535E-02 
602	 9.73255706930969E-02 
603	 0.098292648180305 
604	 9.92237439722971E-02 
605	 0.100144881606127 
606	 0.101071640747247 
607	 0.101979226118356 
608	 0.102864595075219 
609	 0.103728095714748 
610	 0.104573914366985 
611	 0.105390800280393 
612	 0.106168686789404 
613	 0.106892035096001 
614	 0.107531435529747 
615	 0.108150010116094 
616	 0.108740441422633 
617	 0.109253243400579 
618	 0.10980847606504 
619	 0.110314698473747 
620	 0.110737953558875 
621	 0.111236949820479 
622	 0.111715388959119 
623	 0.112131057716869 
624	 0.112482841316542 
625	 0.112900442761338 
626	 0.113296992573958 
627	 0.113650005024981 
628	 0.114045831295623 
629	 0.114393738165111 
630	 0.114714991001186 
631	 0.115049262877233 
632	 0.115381739044038 
633	 0.115691391942995 
634	 0.115999099471492 
635	 0.116352371397907 
636	 0.116628835057632 
637	 0.116918239648018 
638	 0.117278053733803 
639	 0.117597021008285 
640	 0.117908862230487 
641	 0.118208590736074 
642	 0.118490440334614 
643	 0.118864032875811 
644	 0.119224151223191 
645	 0.119533778366308 
646	 0.119884345204419 
647	 0.120210267496154 
648	 0.1205454733499 
649	 0.120931568358641 
650	 0.121326178287823 
651	 0.1216835806749 
652	 0.122007633079175 
653	 0.122348338502851 
654	 0.122775055271799 
655	 0.123179809661058 
656	 0.123513421644399 
657	 0.123959713093199 
658	 0.124395373141563 
659	 0.124807625672182 
660	 0.125230537505516 
661	 0.125640656663912 
662	 0.126096971715378 
663	 0.126608881404233 
664	 0.127104722058184 
665	 0.127602404449457 
666	 0.128099588860402 
667	 0.128587398084872 
668	 0.129027438399258 
669	 0.129570344232621 
670	 0.130177042658872 
671	 0.13066023989833 
672	 0.131209932729781 
673	 0.131789985767552 
674	 0.132363953687598 
675	 0.132994408068768 
676	 0.133614279744225 
677	 0.13419431045851 
678	 0.134745024197845 
679	 0.135415899694945 
680	 0.136078980753132 
681	 0.13670566226243 
682	 0.137429694569094 
683	 0.138109441465398 
684	 0.138757009196857 
685	 0.139424807547498 
686	 0.140154949892327 
687	 0.140892983939425 
688	 0.141629779305663 
689	 0.142383869313499 
690	 0.143074374824834 
691	 0.143760071754728 
692	 0.144504107425852 
693	 0.14534953384147 
694	 0.146144156881523 
695	 0.146900655838039 
696	 0.14768581453452 
697	 0.148474779589474 
698	 0.149284808563986 
699	 0.150107482289609 
700	 0.150906445768205 
701	 0.151725228916217 
702	 0.152529168120149 
703	 0.153303998106416 
704	 0.154142334775658 
705	 0.154964023452074 
706	 0.155767393412353 
707	 0.156583694329239 
708	 0.157347797391265 
709	 0.158155514016965 
710	 0.159027678448238 
711	 0.159857500811055 
712	 0.160639568806914 
713	 0.161395282477626 
714	 0.16216078869047 
715	 0.162983118389648 
716	 0.163776076451518 
717	 0.164521462589102 
718	 0.165252808392833 
719	 0.165970444493019 
720	 0.166658803541727 
721	 0.167320282295459 
722	 0.167995467365675 
723	 0.168681049913174 
724	 0.169361919662696 
725	 0.170011660674348 
726	 0.170577107795267 
727	 0.171120092846015 
728	 0.171658040681983 
729	 0.172163695225533 
730	 0.172722926584424 
731	 0.17318086765163 
732	 0.173490521442448 
733	 0.173973485399339 
734	 0.174367350842232 
735	 0.17468579781565 
736	 0.1750384976349 
737	 0.175389614484289 
738	 0.175655359886893 
739	 0.175833112454189 
740	 0.176011393656314 
741	 0.176196364658186 
742	 0.17636764351711 
743	 0.176497175943544 
744	 0.176556821449129 
745	 0.176584898937594 
746	 0.176607597046566 
747	 0.176631310866236 
748	 0.176577569598839 
749	 0.17649719149706 
750	 0.176413798228285 
751	 0.176303758008903 
752	 0.176145629708811 
753	 0.17596145271172 
754	 0.175772238775074 
755	 0.175563812005092 
756	 0.175330833891359 
757	 0.17506751993851 
758	 0.174771878371142 
759	 0.174464606000766 
760	 0.174117213200529 
761	 0.17374148069034 
762	 0.173402213471161 
763	 0.173043548266312 
764	 0.172653379509763 
765	 0.172237248998635 
766	 0.171816585268336 
767	 0.17139269418788 
768	 0.170953527757149 
769	 0.170489537960216 
770	 0.170072722697437 
771	 0.169601053944486 
772	 0.169064969984467 
773	 0.16858031957725 
774	 0.16810502817978 
775	 0.167609152411558 
776	 0.167088537553826 
777	 0.16661139636315 
778	 0.166085043676459 
779	 0.165520095555854 
780	 0.164973138674832 
781	 0.164450487585168 
782	 0.163960149888126 
783	 0.163464224853693 
784	 0.162887272282627 
785	 0.162361493930604 
786	 0.161841634714791 
787	 0.161294600317828 
788	 0.160802470726222 
789	 0.16030431063535 
790	 0.159787133137242 
791	 0.159255089648847 
792	 0.15869765716541 
793	 0.15818078689209 
794	 0.157702354545646 
795	 0.157203196694148 
796	 0.1567212565865 
797	 0.156238114534008 
798	 0.155730289338801 
799	 0.155174877265285 
800	 0.154699342617647 
801	 0.15427969985648 
802	 0.153842416982627 
803	 0.153326515177173 
804	 0.152862150941027 
805	 0.152453766549366 
806	 0.152025900434285 
807	 0.151582099030475 
808	 0.151131683697252 
809	 0.150681449233799 
810	 0.150231237176604 
811	 0.149887738486239 
812	 0.149537697644431 
813	 0.149106205474628 
814	 0.148770089814483 
815	 0.148370017787357 
816	 0.147939639038587 
817	 0.1475781750363 
818	 0.147274594906228 
819	 0.146923916606688 
820	 0.146537769315446 
821	 0.146222941019524 
822	 0.145906035139774 
823	 0.145588550775799 
824	 0.145280392988835 
825	 0.14498830877867 
826	 0.144692583834549 
827	 0.144434902476188 
828	 0.144228800372266 
829	 0.143950420717583 
830	 0.14363048539298 
831	 0.143327907668927 
832	 0.143098559167237 
833	 0.142886882975619 
834	 0.142685474715666 
835	 0.142488783453114 
836	 0.142290113000145 
837	 0.142071872597915 
838	 0.141857393853821 
839	 0.141663803962074 
840	 0.141485353843645 
841	 0.141342551433268 
842	 0.141178065625425 
843	 0.140967502477732 
844	 0.140855037750712 
845	 0.140762263992061 
846	 0.140649134466437 
847	 0.140510656111817 
848	 0.140424155703211 
849	 0.140336970801869 
850	 0.140228981022167 
851	 0.140116555032632 
852	 0.140003455340856 
853	 0.139953813198974 
854	 0.139954534154605 
855	 0.139876312516618 
856	 0.139863879588137 
857	 0.139850705005654 
858	 0.139778078379063 
859	 0.139731821679882 
860	 0.139712533884434 
861	 0.139711405489419 
862	 0.139717337726598 
863	 0.139740302735205 
864	 0.139773326549529 
865	 0.139811887212262 
866	 0.139854659456946 
867	 0.139907292963766 
868	 0.139967535074134 
869	 0.140027506425612 
870	 0.140077412941736 
871	 0.140148462521318 
872	 0.140229682783763 
873	 0.140324481303885 
874	 0.140469617687838 
875	 0.140588968360229 
876	 0.140675589535823 
877	 0.140768211116189 
878	 0.14097696448578 
879	 0.141165601382895 
880	 0.141296916184306 
881	 0.141401875466176 
882	 0.141620695744822 
883	 0.141817430015331 
884	 0.141957490664393 
885	 0.142086901725168 
886	 0.142320149606354 
887	 0.142572042468915 
888	 0.14278626096108 
889	 0.142963630734413 
890	 0.143257924921927 
891	 0.143514426780392 
892	 0.143708642797579 
893	 0.144015383603209 
894	 0.144256968012791 
895	 0.14450802996521 
896	 0.144828768442479 
897	 0.145166009506181 
898	 0.145464701889314 
899	 0.145751591890849 
900	 0.14605627909367 
901	 0.146336421133225 
902	 0.146745650039531 
903	 0.147158677334879 
904	 0.147448432359872 
905	 0.147868798900324 
906	 0.148282440505016 
907	 0.148684146741982 
908	 0.14910836034794 
909	 0.149430765610656 
910	 0.149795986882521 
911	 0.150242946092159 
912	 0.150713118461691 
913	 0.15109085312307 
914	 0.15151066045373 
915	 0.152021918495318 
916	 0.152562781466823 
917	 0.152973065234659 
918	 0.153452672626296 
919	 0.154055176508993 
920	 0.154610371149084 
921	 0.155074539961579 
922	 0.155572828604993 
923	 0.156165991495006 
924	 0.156772251971023 
925	 0.157290393099505 
926	 0.157825688561247 
927	 0.158427923227748 
928	 0.158957804757704 
929	 0.159622262646459 
930	 0.160308640710336 
931	 0.160915994634836 
932	 0.161572308463629 
933	 0.162183593509194 
934	 0.162798459547986 
935	 0.163471880853501 
936	 0.164156214353229 
937	 0.164824450062822 
938	 0.165484299770839 
939	 0.166165298967681 
940	 0.166919328743549 
941	 0.167677259687257 
942	 0.168451300509431 
943	 0.169256151365925 
944	 0.169973551847586 
945	 0.170729716308825 
946	 0.171528376885975 
947	 0.172307038938557 
948	 0.173005164311746 
949	 0.17377945322788 
950	 0.174574534431429 
951	 0.175296532739096 
952	 0.176256712208967 
953	 0.177149227146716 
954	 0.177940843532512 
955	 0.178769913091509 
956	 0.179684168190927 
957	 0.180546012598446 
958	 0.181352232001452 
959	 0.182189805544806 
960	 0.183084199577767 
961	 0.183939036836387 
962	 0.184833258855424 
963	 0.185884174451417 
964	 0.186733283260681 
965	 0.187569655054097 
966	 0.188477936721832 
967	 0.189441746263994 
968	 0.190471440494153 
969	 0.191414392632896 
970	 0.192300445849163 
971	 0.193265588723203 
972	 0.194251928346499 
973	 0.195184708987824 
974	 0.196080227178733 
975	 0.197024464470283 
976	 0.198099612666118 
977	 0.199150842134588 
978	 0.200147437430677 
979	 0.201152370732355 
980	 0.202189569165306 
981	 0.203096984393499 
982	 0.203942074934574 
983	 0.204909812061455 
984	 0.205954326693652 
985	 0.206943310164896 
986	 0.207850533434237 
987	 0.208734084054805 
988	 0.209683092649214 
989	 0.2106955884456 
990	 0.211730562698415 
991	 0.21272843063214 
992	 0.213642170046058 
993	 0.214596684712942 
994	 0.215578292979373 
995	 0.216502466078953 
996	 0.217288527701763 
997	 0.218296279948828 
998	 0.219316609128652 
999	 0.220092029876673 
1000	 0.221049523826659 
1001	 0.225137097849775 
1002	 0.226023847787188 
1003	 0.226859080861843 
1004	 0.227714925657458 
1005	 0.228618156942374 
1006	 0.229454131349729 
1007	 0.230239308203521 
1008	 0.231049928162186 
1009	 0.231846811436716 
1010	 0.232636394857209 
1011	 0.23342589785497 
1012	 0.23419822322131 
1013	 0.234952492418738 
1014	 0.235706380463107 
1015	 0.236453452424496 
1016	 0.237171912964266 
1017	 0.237870248361471 
1018	 0.238557420909437 
1019	 0.239215608307712 
1020	 0.239868985059459 
1021	 0.240580394446225 
1022	 0.241278032699744 
1023	 0.241928462422496 
1024	 0.242559629415688 
1025	 0.243161882846595 
1026	 0.24375822265775 
1027	 0.244343029184493 
1028	 0.244950845245174 
1029	 0.245534241146708 
1030	 0.246084504025589 
1031	 0.246681781941406 
1032	 0.24731558064447 
1033	 0.247958415314062 
1034	 0.248579206973178 
1035	 0.249200136248127 
1036	 0.24980207535511 
1037	 0.250319965410743 
1038	 0.250791853738052 
1039	 0.251311082366694 
1040	 0.251834630620459 
1041	 0.252340157663459 
1042	 0.252909096983344 
1043	 0.253478929445937 
1044	 0.254013956239476 
1045	 0.254519442231592 
1046	 0.255056083919001 
1047	 0.255587634400766 
1048	 0.256095230645666 
1049	 0.256612030002301 
1050	 0.257158302321756 
1051	 0.257692911240415 
1052	 0.258191492423149 
1053	 0.258699487663853 
1054	 0.259185606027596 
1055	 0.259657563691248 
1056	 0.260173887913109 
1057	 0.260635914055733 
1058	 0.261056322828628 
1059	 0.26150183703582 
1060	 0.261936018308933 
1061	 0.262340948335862 
1062	 0.262802952718445 
1063	 0.263283283053554 
1064	 0.263749646179033 
1065	 0.264189286293338 
1066	 0.264587786620134 
1067	 0.265013225373995 
1068	 0.26543032344254 
1069	 0.265826533680087 
1070	 0.266203942153185 
1071	 0.266570577443239 
1072	 0.266948027891242 
1073	 0.267274976822409 
1074	 0.26763774849611 
1075	 0.268046288242668 
1076	 0.268424740721996 
1077	 0.268762508673723 
1078	 0.269136583148318 
1079	 0.269482239628208 
1080	 0.269816244921297 
1081	 0.270137745739598 
1082	 0.270431936895856 
1083	 0.270716690622757 
1084	 0.270963585593512 
1085	 0.271245458374527 
1086	 0.27150582233184 
1087	 0.271807097650538 
1088	 0.272159050076618 
1089	 0.272478349201087 
1090	 0.272743899437681 
1091	 0.273067238922317 
1092	 0.273345367435198 
1093	 0.273591828390469 
1094	 0.273868790078576 
1095	 0.274139128352743 
1096	 0.274408856783137 
1097	 0.274702429407166 
1098	 0.274983450611987 
1099	 0.275251225856156 
1100	 0.275552193869112 
1101	 0.275875684847234 
1102	 0.276175664243494 
1103	 0.276485575278891 
1104	 0.276811890876953 
1105	 0.277073996282865 
1106	 0.277333526471472 
1107	 0.277626424448643 
1108	 0.277915581087613 
1109	 0.278219881422928 
1110	 0.27852823121498 
1111	 0.278831055403871 
1112	 0.279115507880513 
1113	 0.279429802297461 
1114	 0.279781384801613 
1115	 0.280093046638094 
1116	 0.280391062142429 
1117	 0.280700744924925 
1118	 0.281011051948637 
1119	 0.281279166603333 
1120	 0.281587408712061 
1121	 0.281909925489601 
1122	 0.282200792063829 
1123	 0.282493643499841 
1124	 0.282796907558191 
1125	 0.283107266768414 
1126	 0.283407999980255 
1127	 0.283697574834836 
1128	 0.284014634147025 
1129	 0.284366878482916 
1130	 0.284663330718431 
1131	 0.28494671543457 
1132	 0.285238043627297 
1133	 0.285499408129246 
1134	 0.2857544265695 
1135	 0.286013456111001 
1136	 0.286283977877737 
1137	 0.286535697706823 
1138	 0.286765809092562 
1139	 0.287009556456402 
1140	 0.287266778290064 
1141	 0.287514636279502 
1142	 0.287758526038615 
1143	 0.287995470327997 
1144	 0.288234910857638 
1145	 0.288470568626026 
1146	 0.28870674577091 
1147	 0.28891653610406 
1148	 0.28910596079189 
1149	 0.289305582228111 
1150	 0.289490203356585 
1151	 0.289677119819752 
1152	 0.289875886622671 
1153	 0.290064840068471 
1154	 0.29026052791237 
1155	 0.290454435185121 
1156	 0.290638520798683 
1157	 0.290829827948528 
1158	 0.291010573876293 
1159	 0.29117515059584 
1160	 0.291339087266288 
1161	 0.291498255496668 
1162	 0.291662182909144 
1163	 0.291821705584761 
1164	 0.291981167327245 
1165	 0.292141363443328 
1166	 0.292311464306096 
1167	 0.292488478955698 
1168	 0.292651276715055 
1169	 0.29279308722975 
1170	 0.29292615593272 
1171	 0.293059333746495 
1172	 0.293165386975627 
1173	 0.293289703353576 
1174	 0.293437108014348 
1175	 0.293559180240957 
1176	 0.293661147907912 
1177	 0.293775864164253 
1178	 0.293882643056825 
1179	 0.293998206910088 
1180	 0.294135576191676 
1181	 0.29425525567125 
1182	 0.294359698414638 
1183	 0.294484299389001 
1184	 0.294583606658412 
1185	 0.294659519243702 
1186	 0.294761335283923 
1187	 0.294861728832332 
1188	 0.294971767532181 
1189	 0.295114285385623 
1190	 0.295216650327961 
1191	 0.295302610094744 
1192	 0.295389762112992 
1193	 0.295450157151868 
1194	 0.295528301399427 
1195	 0.295616489969263 
1196	 0.295702879849796 
1197	 0.295783253988909 
1198	 0.295878732573267 
1199	 0.295981731138649 
1200	 0.296094650600553 
1201	 0.296197521878045 
1202	 0.296314177523305 
1203	 0.296408238905062 
1204	 0.296481926189868 
1205	 0.296568263224691 
1206	 0.296651888555923 
1207	 0.296737403795363 
1208	 0.296825047396506 
1209	 0.296914775503422 
1210	 0.297005907062993 
1211	 0.297095705535325 
1212	 0.297197434605048 
1213	 0.297283046018896 
1214	 0.297361872300554 
1215	 0.297433133449223 
1216	 0.297496120635113 
1217	 0.297542181529783 
1218	 0.297603436711581 
1219	 0.297664190817078 
1220	 0.297726109374898 
1221	 0.2977939837273 
1222	 0.297859414821502 
1223	 0.297919964565424 
1224	 0.297986496339946 
1225	 0.298064804974953 
1226	 0.298128743085717 
1227	 0.298183497760889 
1228	 0.298244486547896 
1229	 0.298302073521407 
1230	 0.29835946033352 
1231	 0.298434110697775 
1232	 0.298487949576718 
1233	 0.298530808600122 
1234	 0.298557508501415 
1235	 0.298595156140244 
1236	 0.298615726886113 
1237	 0.298664646794723 
1238	 0.298739567017384 
1239	 0.298790366825647 
1240	 0.298841433759962 
1241	 0.29889087899358 
1242	 0.298927952810948 
1243	 0.298969520636767 
1244	 0.299012415433054 
1245	 0.299061617920225 
1246	 0.299122185518572 
1247	 0.299163845063577 
1248	 0.299189149520101 
1249	 0.299239402480698 
1250	 0.299263760402692 
1251	 0.299283218429896 
1252	 0.299330344492079 
1253	 0.299411421740888 
1254	 0.299447296227177 
1255	 0.299481400720016 
1256	 0.299500332144722 
1257	 0.299479065064793 
1258	 0.299487648852484 
1259	 0.299508118538783 
1260	 0.299524987261914 
1261	 0.299550417085295 
1262	 0.299565284694039 
1263	 0.299565710200755 
1264	 0.299580197641967 
1265	 0.299603179009832 
1266	 0.299619301083279 
1267	 0.299637185504968 
1268	 0.299665861732621 
1269	 0.299673372187045 
1270	 0.29965048783655 
1271	 0.299679702003221 
1272	 0.299718145219052 
1273	 0.299769234772148 
1274	 0.299857417249042 
1275	 0.299932492902145 
1276	 0.30000565980678 
1277	 0.30008530501919 
1278	 0.300169461931748 
1279	 0.300262884499601 
1280	 0.300369138969918 
1281	 0.300463756129451 
1282	 0.30056940797181 
1283	 0.300662782753544 
1284	 0.300754403667881 
1285	 0.30081958742321 
1286	 0.300867604669086 
1287	 0.300928925665691 
1288	 0.300982748309957 
1289	 0.301026017701602 
1290	 0.301063343968331 
1291	 0.301106041441518 
1292	 0.301129420112754 
1293	 0.301136729784736 
1294	 0.301133569941041 
1295	 0.30113206410318 
1296	 0.301101897701041 
1297	 0.301031088637515 
1298	 0.300983303948936 
1299	 0.300943180293528 
1300	 0.30087505617335 
1301	 0.300803010773736 
1302	 0.300723295913719 
1303	 0.300620233206162 
1304	 0.300506949497858 
1305	 0.300415614385633 
1306	 0.300309081663545 
1307	 0.300183473616977 
1308	 0.300039949299173 
1309	 0.29988580194905 
1310	 0.299694239325026 
1311	 0.299555171537882 
1312	 0.29942777680254 
1313	 0.299304061832995 
1314	 0.299219678898548 
1315	 0.299098717307376 
1316	 0.298938370426536 
1317	 0.298825323663822 
1318	 0.298732357063705 
1319	 0.298631306363583 
1320	 0.298561512683976 
1321	 0.29847000098983 
1322	 0.298351116341854 
1323	 0.298244693257569 
1324	 0.298173693541651 
1325	 0.298085849565148 
1326	 0.297996994748058 
1327	 0.297930493850811 
1328	 0.297837844817672 
1329	 0.297742161868286 
1330	 0.297673781121346 
1331	 0.297616734137176 
1332	 0.297570417825019 
1333	 0.297553279740945 
1334	 0.297515888827627 
1335	 0.297468419870138 
1336	 0.297444066426014 
1337	 0.297431591409767 
1338	 0.297408149514045 
1339	 0.297394358445254 
1340	 0.297377755785487 
1341	 0.297343454454007 
1342	 0.297321080006708 
1343	 0.297307822814408 
1344	 0.297304922753205 
1345	 0.297295245653055 
1346	 0.297281412856738 
1347	 0.297260723524639 
1348	 0.297244405005951 
1349	 0.297220485849845 
1350	 0.297178867317656 
1351	 0.297143989176811 
1352	 0.297098878972018 
1353	 0.297075021334272 
1354	 0.297065580769311 
1355	 0.29704056910826 
1356	 0.297024588496013 
1357	 0.296996463708249 
1358	 0.296946117613906 
1359	 0.296916233266003 
1360	 0.296894530385732 
1361	 0.296867959728429 
1362	 0.296840508975806 
1363	 0.296820123665074 
1364	 0.296814132154711 
1365	 0.296791925882236 
1366	 0.296771143282981 
1367	 0.296739034202651 
1368	 0.296702946590862 
1369	 0.296658700227146 
1370	 0.296603684287973 
1371	 0.296534973249973 
1372	 0.296418908859144 
1373	 0.296285553742631 
1374	 0.296136398053663 
1375	 0.29597101327115 
1376	 0.295768769923903 
1377	 0.295548080283597 
1378	 0.295289837011266 
1379	 0.294990966012916 
1380	 0.294681943501006 
1381	 0.294354867426388 
1382	 0.293996095747717 
1383	 0.293612123341749 
1384	 0.293200326325611 
1385	 0.292783711841512 
1386	 0.292305416121507 
1387	 0.291794857505747 
1388	 0.291239734628017 
1389	 0.290634674128501 
1390	 0.289975608291696 
1391	 0.289310592692793 
1392	 0.288595301121123 
1393	 0.287834873001147 
1394	 0.287062534316343 
1395	 0.28622162646137 
1396	 0.285362505009975 
1397	 0.284513146048266 
1398	 0.283640415899997 
1399	 0.282776615484532 
1400	 0.281922873460219 
1401	 0.281061417799228 
1402	 0.280177785471339 
1403	 0.279329362311042 
1404	 0.278480286750531 
1405	 0.277669366748254 
1406	 0.276887015088394 
1407	 0.276123210231462 
1408	 0.275371865683355 
1409	 0.274661460979776 
1410	 0.273971954061993 
1411	 0.273320372670839 
1412	 0.272690033162769 
1413	 0.272128147234671 
1414	 0.271618894179281 
1415	 0.271132169754605 
1416	 0.270688852497001 
1417	 0.27027909162273 
1418	 0.26987792040122 
1419	 0.269512547107668 
1420	 0.269184480285766 
1421	 0.268868183570905 
1422	 0.26857378694503 
1423	 0.268288561478209 
1424	 0.268025283232011 
1425	 0.267791818594496 
1426	 0.267553683753851 
1427	 0.26732332966527 
1428	 0.267109626813733 
1429	 0.266897547006067 
1430	 0.266705909997374 
1431	 0.26653093018502 
1432	 0.266371443909504 
1433	 0.266232865898834 
1434	 0.266096733958187 
1435	 0.265970322536469 
1436	 0.265863655870328 
1437	 0.265770297467696 
1438	 0.26568259332793 
1439	 0.265618688261252 
1440	 0.265547460488845 
1441	 0.265470206334053 
1442	 0.26538749129839 
1443	 0.265296457162783 
1444	 0.26522480233344 
1445	 0.265190634160828 
1446	 0.265167076298302 
1447	 0.265154701208639 
1448	 0.26514750887732 
1449	 0.265120735290172 
1450	 0.265096347896754 
1451	 0.265080400514928 
1452	 0.265064995688389 
1453	 0.265069310966445 
1454	 0.265082649251601 
1455	 0.265101685996324 
1456	 0.265146513199663 
1457	 0.265177158911928 
1458	 0.265197445902869 
1459	 0.265234612470987 
1460	 0.265261572897181 
1461	 0.265323929852369 
1462	 0.265410862785883 
1463	 0.265506950443792 
1464	 0.26562565052519 
1465	 0.265748796231273 
1466	 0.265880924106673 
1467	 0.266026091614456 
1468	 0.266183705789315 
1469	 0.266353084611775 
1470	 0.266536396670029 
1471	 0.26672334533169 
1472	 0.266921218997861 
1473	 0.267130876471632 
1474	 0.267349986420797 
1475	 0.267588231776816 
1476	 0.26782023991536 
1477	 0.26806094423703 
1478	 0.268328272983811 
1479	 0.26857724966115 
1480	 0.268839905792812 
1481	 0.269119061315656 
1482	 0.269375085124372 
1483	 0.269607785432703 
1484	 0.269870420139253 
1485	 0.270137283379577 
1486	 0.270408531162505 
1487	 0.27069447011528 
1488	 0.270978729049697 
1489	 0.271270198106716 
1490	 0.271544102351777 
1491	 0.271816226380745 
1492	 0.272089095816061 
1493	 0.272344462245679 
1494	 0.272611405247613 
1495	 0.272902615390505 
1496	 0.27316752288744 
1497	 0.273409458762727 
1498	 0.273664680201016 
1499	 0.273922371020769 
1500	 0.274163676421541 
1501	 0.274409886989301 
1502	 0.274647716948554 
1503	 0.274865352506553 
1504	 0.275079328202609 
1505	 0.275320501086715 
1506	 0.275542073190634 
1507	 0.275765360058232 
1508	 0.275991564796853 
1509	 0.276198446448383 
1510	 0.276408004483999 
1511	 0.276596030180827 
1512	 0.276787663883743 
1513	 0.277012999035803 
1514	 0.277225734874979 
1515	 0.277450366538445 
1516	 0.277685272096814 
1517	 0.277895231842001 
1518	 0.278079868514061 
1519	 0.278278110825621 
1520	 0.278479775109445 
1521	 0.27866764041112 
1522	 0.278845404421717 
1523	 0.279028971196549 
1524	 0.279208101446054 
1525	 0.279380040489859 
1526	 0.27955308565194 
1527	 0.279725846239502 
1528	 0.279885585218227 
1529	 0.280057318420283 
1530	 0.280238386204288 
1531	 0.280418533978706 
1532	 0.280604977626175 
1533	 0.280776408637221 
1534	 0.280952566123513 
1535	 0.281112432967508 
1536	 0.281241713962551 
1537	 0.281394953108457 
1538	 0.281559584203077 
1539	 0.281708048175636 
1540	 0.281860092597264 
1541	 0.282007280029803 
1542	 0.282141909877591 
1543	 0.282273307724459 
1544	 0.282416620281477 
1545	 0.282535264205919 
1546	 0.28263135413711 
1547	 0.282721981727713 
1548	 0.282817660121996 
1549	 0.282917716832623 
1550	 0.283036354942205 
1551	 0.28315606332735 
1552	 0.283260590335741 
1553	 0.283372042213211 
1554	 0.283495176608787 
1555	 0.283612576747515 
1556	 0.283739102510026 
1557	 0.283866436968088 
1558	 0.283963506070307 
1559	 0.284070254441918 
1560	 0.284167457157308 
1561	 0.28424378882942 
1562	 0.284343633250083 
1563	 0.284454077656643 
1564	 0.284558085155798 
1565	 0.284674909547202 
1566	 0.284782617134677 
1567	 0.284874137821933 
1568	 0.28498252172801 
1569	 0.285110397712573 
1570	 0.285199116520173 
1571	 0.285281537391211 
1572	 0.285359457605868 
1573	 0.285402488650264 
1574	 0.285467004883201 
1575	 0.28554600252185 
1576	 0.285613041232247 
1577	 0.285680001187204 
1578	 0.285738502602161 
1579	 0.285786856326055 
1580	 0.285844323360625 
1581	 0.285897171089382 
1582	 0.285953562235532 
1583	 0.286023125876498 
1584	 0.286077807257156 
1585	 0.286117033445052 
1586	 0.286169580950436 
1587	 0.286226560050264 
1588	 0.286280257903734 
1589	 0.286347680401798 
1590	 0.286398730713095 
1591	 0.286430958872418 
1592	 0.28647036140822 
1593	 0.286504697335749 
1594	 0.286542755342074 
1595	 0.2865714026078 
1596	 0.286626788602192 
1597	 0.286705346688631 
1598	 0.286772601643553 
1599	 0.286865970966456 
1600	 0.286935243528633 
1601	 0.286975005676382 
1602	 0.28702444331629 
1603	 0.287075234850898 
1604	 0.287119492511484 
1605	 0.287149915604946 
1606	 0.287199598000009 
1607	 0.287269357502802 
1608	 0.287312646125596 
1609	 0.287362747622797 
1610	 0.287415906174712 
1611	 0.287417180443074 
1612	 0.287428500921915 
1613	 0.287456703901171 
1614	 0.287470297855139 
1615	 0.287510237637267 
1616	 0.287540241504168 
1617	 0.287566634614648 
1618	 0.287613835635014 
1619	 0.287642401031067 
1620	 0.287669893389279 
1621	 0.287692626252344 
1622	 0.287705991366931 
1623	 0.287719332502443 
1624	 0.28772788531497 
1625	 0.287749867134757 
1626	 0.287773877006668 
1627	 0.287798838712429 
1628	 0.287833792395544 
1629	 0.287866344932652 
1630	 0.287893463718933 
1631	 0.287923423019143 
1632	 0.287961784737299 
1633	 0.287992982019701 
1634	 0.288023851382693 
1635	 0.288041947825978 
1636	 0.288052491316096 
1637	 0.288066661661988 
1638	 0.288060319079326 
1639	 0.288088599036951 
1640	 0.288148969592064 
1641	 0.288172489196427 
1642	 0.288194403912684 
1643	 0.288214547347972 
1644	 0.288208656567226 
1645	 0.288223155618791 
1646	 0.28826450442274 
1647	 0.288270772138778 
1648	 0.288252239435363 
1649	 0.288258004207458 
1650	 0.288268819734043 
1651	 0.288260837775712 
1652	 0.288255296589777 
1653	 0.288250294479813 
1654	 0.288224234354934 
1655	 0.288209801881182 
1656	 0.288211326413825 
1657	 0.288207318744133 
1658	 0.288195284874833 
1659	 0.288185003465095 
1660	 0.288186358941682 
1661	 0.288174271713606 
1662	 0.288149410280149 
1663	 0.288128201961029 
1664	 0.288099217433346 
1665	 0.288085505557899 
1666	 0.288082453739111 
1667	 0.288067393961221 
1668	 0.288058864384965 
1669	 0.288042287954792 
1670	 0.288012474960442 
1671	 0.287985176134936 
1672	 0.287955569025086 
1673	 0.287934074830636 
1674	 0.287905706662632 
1675	 0.287893413270362 
1676	 0.287893159714049 
1677	 0.287900787705103 
1678	 0.287931946900709 
1679	 0.287934541778951 
1680	 0.287931746419982 
1681	 0.287928219781457 
1682	 0.287898224698009 
1683	 0.287893326450428 
1684	 0.28791315519269 
1685	 0.287912758633114 
1686	 0.287916365034418 
1687	 0.287900444619755 
1688	 0.287860941885958 
1689	 0.287835173159337 
1690	 0.287794016961949 
1691	 0.287780586419633 
1692	 0.287796738390551 
1693	 0.287788887041865 
1694	 0.287786491706698 
1695	 0.287771934903025 
1696	 0.287737724736223 
1697	 0.287709331759521 
1698	 0.2876805699729 
1699	 0.287653585202093 
1700	 0.287624048543744 
1701	 0.28759473684834 
1702	 0.287574829320823 
1703	 0.287537282889814 
1704	 0.287490824806719 
1705	 0.287441101691853 
1706	 0.28737601812944 
1707	 0.287322117095669 
1708	 0.287270748935965 
1709	 0.287216460141055 
1710	 0.28715980926979 
1711	 0.287114141039387 
1712	 0.287069513780433 
1713	 0.287033283849352 
1714	 0.287015378950752 
1715	 0.286978403794274 
1716	 0.28694393917961 
1717	 0.286889946272823 
1718	 0.286814027871218 
1719	 0.286751967409317 
1720	 0.286682696415224 
1721	 0.286618940849613 
1722	 0.286568789353879 
1723	 0.286504259793954 
1724	 0.286430993043635 
1725	 0.286359044506404 
1726	 0.286274819930973 
1727	 0.286211447748791 
1728	 0.286168722495372 
1729	 0.286094683190664 
1730	 0.286015417664533 
1731	 0.285939051366826 
1732	 0.285842598384667 
1733	 0.285756345289305 
1734	 0.285687010525335 
1735	 0.28559774582445 
1736	 0.285500264712178 
1737	 0.285383317124934 
1738	 0.285250070824862 
1739	 0.285134316213609 
1740	 0.285001608679009 
1741	 0.284894978806168 
1742	 0.284818931437364 
1743	 0.284708402948535 
1744	 0.284590473711236 
1745	 0.284471153201516 
1746	 0.284328086315268 
1747	 0.284245744166356 
1748	 0.284160012961144 
1749	 0.284062662468846 
1750	 0.283961763843872 
1751	 0.283831448850529 
1752	 0.283683341593484 
1753	 0.283547026226974 
1754	 0.283413693236759 
1755	 0.283315592690181 
1756	 0.283221413333237 
1757	 0.283123880732706 
1758	 0.283045455670402 
1759	 0.282935485242815 
1760	 0.282819191979795 
1761	 0.282712363771889 
1762	 0.282583177878899 
1763	 0.282452740044584 
1764	 0.282335610675064 
1765	 0.282220764076932 
1766	 0.282127917541486 
1767	 0.282031612939191 
1768	 0.281926075928531 
1769	 0.281842019101589 
1770	 0.281743313888428 
1771	 0.281663140614044 
1772	 0.281585279836987 
1773	 0.281470318256529 
1774	 0.281383094460541 
1775	 0.281276211193254 
1776	 0.28116088118691 
1777	 0.281108709694738 
1778	 0.281041285472204 
1779	 0.280987355195882 
1780	 0.280964992128032 
1781	 0.280906576785122 
1782	 0.280845179204037 
1783	 0.280806772278189 
1784	 0.280760363267492 
1785	 0.28070417194058 
1786	 0.280656328770379 
1787	 0.280618673514349 
1788	 0.280566998012562 
1789	 0.280494770117362 
1790	 0.280465350766813 
1791	 0.280443645345852 
1792	 0.280429993464993 
1793	 0.280476855593929 
1794	 0.28046127320855 
1795	 0.280422481057199 
1796	 0.280369307945113 
1797	 0.280274410077542 
1798	 0.280210559676561 
1799	 0.280115147236377 
1800	 0.280075719317217 
1801	 0.280097509748174 
1802	 0.280135635847349 
1803	 0.280192168382318 
1804	 0.280273501855714 
1805	 0.280364251398727 
1806	 0.280502649215308 
1807	 0.280645435007052 
1808	 0.28075734493552 
1809	 0.280897456121388 
1810	 0.280979300109163 
1811	 0.281021672388514 
1812	 0.281044583548948 
1813	 0.281035038449663 
1814	 0.281006683244954 
1815	 0.280976173654541 
1816	 0.280940384381924 
1817	 0.280922568727571 
1818	 0.280919027333892 
1819	 0.28090671736556 
1820	 0.280902243814281 
1821	 0.280886300598918 
1822	 0.280874030847996 
1823	 0.28087031375267 
1824	 0.28087854874475 
1825	 0.280872965336921 
1826	 0.280839073901799 
1827	 0.280783379114353 
1828	 0.280707831856751 
1829	 0.280583584508088 
1830	 0.280497814544819 
1831	 0.280415657505487 
1832	 0.280324525075615 
1833	 0.280241380501231 
1834	 0.280179289340289 
1835	 0.280094809601926 
1836	 0.279997255617464 
1837	 0.279902264598673 
1838	 0.279777092461628 
1839	 0.279673353513735 
1840	 0.279569172994434 
1841	 0.279467004321937 
1842	 0.279377340094405 
1843	 0.279305987691043 
1844	 0.27917775731326 
1845	 0.279031283648281 
1846	 0.278883093730617 
1847	 0.278704875824248 
1848	 0.278505504491277 
1849	 0.278326843829477 
1850	 0.278138122421771 
1851	 0.277947518418418 
1852	 0.277724375092667 
1853	 0.277505328457855 
1854	 0.277259346122626 
1855	 0.277009425973797 
1856	 0.276757469311449 
1857	 0.276482198399799 
1858	 0.276162903943787 
1859	 0.275765693542569 
1860	 0.275316946834751 
1861	 0.274804183203233 
1862	 0.274243885623906 
1863	 0.273634797381291 
1864	 0.272977235686906 
1865	 0.272305459664425 
1866	 0.271574438837407 
1867	 0.270805647508549 
1868	 0.270023933762762 
1869	 0.26915207774242 
1870	 0.268230653527446 
1871	 0.26723647704262 
1872	 0.266183996320746 
1873	 0.265061126128334 
1874	 0.263863753883765 
1875	 0.262560002811051 
1876	 0.261198809185631 
1877	 0.259738068835323 
1878	 0.258175264449395 
1879	 0.256534868072566 
1880	 0.25476702332632 
1881	 0.252856870222561 
1882	 0.250884756274836 
1883	 0.248819191517353 
1884	 0.246631455435349 
1885	 0.244389707871051 
1886	 0.242060573393878 
1887	 0.239609111789577 
1888	 0.23708390965188 
1889	 0.234486807055344 
1890	 0.231867272332829 
1891	 0.229263534905979 
1892	 0.226608302334954 
1893	 0.224012854579479 
1894	 0.221436321101704 
1895	 0.218878525772024 
1896	 0.216331681506416 
1897	 0.213868361295918 
1898	 0.211455598479268 
1899	 0.209111437301197 
1900	 0.206879132637538 
1901	 0.204763044646061 
1902	 0.202772841066194 
1903	 0.200923835093555 
1904	 0.199163226805341 
1905	 0.197512364220953 
1906	 0.195980711890837 
1907	 0.194544370278159 
1908	 0.193213231258179 
1909	 0.191998441954042 
1910	 0.190835169478058 
1911	 0.189758597083762 
1912	 0.188768278148824 
1913	 0.187850549387495 
1914	 0.187019087732902 
1915	 0.186255413142918 
1916	 0.185572073354638 
1917	 0.184941840209486 
1918	 0.184385766302818 
1919	 0.183876727743378 
1920	 0.183420940239821 
1921	 0.183010262613707 
1922	 0.182668843895603 
1923	 0.182388629571488 
1924	 0.182134801773285 
1925	 0.181949265552935 
1926	 0.18177571428985 
1927	 0.181626304855289 
1928	 0.181489867262425 
1929	 0.181410381986024 
1930	 0.181394689945233 
1931	 0.18143336038021 
1932	 0.181504785191214 
1933	 0.181589306003105 
1934	 0.181716341860255 
1935	 0.181868806165124 
1936	 0.182040486915774 
1937	 0.182246561210247 
1938	 0.182493122040269 
1939	 0.182751660346247 
1940	 0.183027829689998 
1941	 0.183335230347438 
1942	 0.18365725565268 
1943	 0.184040339096644 
1944	 0.184418303857985 
1945	 0.184803656085608 
1946	 0.185211407191334 
1947	 0.185631181245132 
1948	 0.186065875456717 
1949	 0.186521109785801 
1950	 0.186990133300369 
1951	 0.187473480958366 
1952	 0.187977068611183 
1953	 0.188481958608166 
1954	 0.188995455807162 
1955	 0.189503750653135 
1956	 0.190024235480189 
1957	 0.190560501448156 
1958	 0.19110802912838 
1959	 0.191668939178728 
1960	 0.192252037878893 
1961	 0.192832638699658 
1962	 0.193425485871176 
1963	 0.194020143832194 
1964	 0.194623928990078 
1965	 0.195220944121378 
1966	 0.195815883696746 
1967	 0.196420236788475 
1968	 0.197032400005681 
1969	 0.197643124958282 
1970	 0.198268973760371 
1971	 0.198922134254737 
1972	 0.199560093413928 
1973	 0.200198194317496 
1974	 0.200835112154079 
1975	 0.201470884570466 
1976	 0.20209359764978 
1977	 0.202744283644801 
1978	 0.203402858610483 
1979	 0.204041575040713 
1980	 0.20467243536371 
1981	 0.205294866042972 
1982	 0.205881438494945 
1983	 0.206500575240968 
1984	 0.207126881441286 
1985	 0.207764744912552 
1986	 0.208430776103036 
1987	 0.209073640273616 
1988	 0.209711363467817 
1989	 0.210356569651817 
1990	 0.210987077787108 
1991	 0.211601831963226 
1992	 0.212236286178536 
1993	 0.212891884564145 
1994	 0.213518353570022 
1995	 0.214144387947603 
1996	 0.214757180694775 
1997	 0.2153457861909 
1998	 0.215940469256358 
1999	 0.216531516093704 
2000	 0.21711927452692 
2001	 0.21769678550403 
2002	 0.218281822310847 
2003	 0.218874201075037 
2004	 0.219479915294047 
2005	 0.220080329941142 
2006	 0.220703555765259 
2007	 0.221291727177726 
2008	 0.221854668592591 
2009	 0.222430311711937 
2010	 0.223006627230876 
2011	 0.223566426349496 
2012	 0.224134870574797 
2013	 0.224679010266852 
2014	 0.22519224605982 
2015	 0.225698157612793 
2016	 0.226205354918931 
2017	 0.226734339676312 
2018	 0.227274134501971 
2019	 0.227843453375062 
2020	 0.228387849524346 
2021	 0.228952167091362 
2022	 0.229471095611777 
2023	 0.229953631449911 
2024	 0.230443195637983 
2025	 0.230902540134192 
2026	 0.231379562943908 
2027	 0.231867043224042 
2028	 0.23235141580709 
2029	 0.232832866293007 
2030	 0.233320319971549 
2031	 0.233791323118748 
2032	 0.234251778968811 
2033	 0.234712478191216 
2034	 0.235160853104978 
2035	 0.235618372055269 
2036	 0.236085158655789 
2037	 0.236541165218432 
2038	 0.236998881712643 
2039	 0.237444733420667 
2040	 0.237882799195886 
2041	 0.238307840030988 
2042	 0.238733329495898 
2043	 0.239160023868899 
2044	 0.239574459653314 
2045	 0.239986318229661 
2046	 0.240387490707035 
2047	 0.240779741031605 
2048	 0.241158748215937 
2049	 0.24152315336896 
2050	 0.241889069780087 
2051	 0.242245147395098 
2052	 0.242597650281508 
2053	 0.242932283515084 
2054	 0.243288237067095 
2055	 0.243646081863334 
2056	 0.244017492361694 
2057	 0.244379463786233 
2058	 0.244761444582813 
2059	 0.245120954210639 
2060	 0.245461598710027 
2061	 0.245805587334327 
2062	 0.246144954772561 
2063	 0.246490986692584 
2064	 0.246831783199892 
2065	 0.247178609445811 
2066	 0.247540339132847 
2067	 0.247888739063096 
2068	 0.248224738751319 
2069	 0.248569435160722 
2070	 0.248917926107658 
2071	 0.249278618639898 
2072	 0.249602672545895 
2073	 0.249929345428182 
2074	 0.250223244055805 
2075	 0.25045112875448 
2076	 0.250740252031148 
2077	 0.251044476126752 
2078	 0.251346983733583 
2079	 0.251682580648114 
2080	 0.251996425832817 
2081	 0.252301493148519 
2082	 0.252596749493046 
2083	 0.252873894896888 
2084	 0.253169990405846 
2085	 0.253449431037159 
2086	 0.253712112145581 
2087	 0.253985848782027 
2088	 0.254257056337509 
2089	 0.254539933369885 
2090	 0.254828328738188 
2091	 0.255118667384359 
2092	 0.255428766636787 
2093	 0.255718217197686 
2094	 0.256008083836081 
2095	 0.256279181751304 
2096	 0.256533785064965 
2097	 0.25678052447634 
2098	 0.256996831568907 
2099	 0.257229386553932 
2100	 0.257474485185276 
2101	 0.257719626324093 
2102	 0.257980147860179 
2103	 0.258268833059771 
2104	 0.258536483026598 
2105	 0.258796381875772 
2106	 0.259066304895913 
2107	 0.259337167916633 
2108	 0.259609377175903 
2109	 0.259887000281492 
2110	 0.260167748865595 
2111	 0.260456970069267 
2112	 0.260732303366726 
2113	 0.260999792188266 
2114	 0.261276635337487 
2115	 0.261547951564106 
2116	 0.261808081387538 
2117	 0.262072059878702 
2118	 0.262349657063468 
2119	 0.262604158717667 
2120	 0.262832889988277 
2121	 0.263089165570888 
2122	 0.263358608822596 
2123	 0.263607915491952 
2124	 0.263873657087656 
2125	 0.264111253573183 
2126	 0.264315514272277 
2127	 0.264523843625915 
2128	 0.26472418128282 
2129	 0.26491922106467 
2130	 0.265106329760774 
2131	 0.265301004325197 
2132	 0.26546056865842 
2133	 0.26561814424974 
2134	 0.265730501900268 
2135	 0.265790121463009 
2136	 0.265874469943537 
2137	 0.265942246015076 
2138	 0.266008852079731 
2139	 0.266094231568519 
2140	 0.266145063473033 
2141	 0.266163141420717 
2142	 0.266186758968947 
2143	 0.266198495081769 
2144	 0.266207563037848 
2145	 0.266214565831363 
2146	 0.266215786768301 
2147	 0.266216701540455 
2148	 0.266203229520042 
2149	 0.266172948918518 
2150	 0.266136385523849 
2151	 0.266078462317267 
2152	 0.265990882970773 
2153	 0.265909110713693 
2154	 0.265811001772066 
2155	 0.265725330350253 
2156	 0.265651047304089 
2157	 0.265555762361006 
2158	 0.265463667593054 
2159	 0.265350161805492 
2160	 0.265203709636476 
2161	 0.265068373015444 
2162	 0.264936193653703 
2163	 0.264789168759975 
2164	 0.264638768885716 
2165	 0.264477355436738 
2166	 0.264312519880021 
2167	 0.264128871161923 
2168	 0.263962351126186 
2169	 0.263790527367296 
2170	 0.263644320821735 
2171	 0.263522634323226 
2172	 0.263377781066609 
2173	 0.263261594494476 
2174	 0.263094674710676 
2175	 0.262875083441295 
2176	 0.262683252797389 
2177	 0.262469897912089 
2178	 0.262278034759734 
2179	 0.262114106015837 
2180	 0.261938401375581 
2181	 0.261752859914695 
2182	 0.261582716315021 
2183	 0.261413460978505 
2184	 0.261256962738849 
2185	 0.261102914566904 
2186	 0.26096353194085 
2187	 0.260816412081951 
2188	 0.260670668033717 
2189	 0.26052149142447 
2190	 0.260377415547012 
2191	 0.260222538756431 
2192	 0.26004080628671 
2193	 0.259897252391979 
2194	 0.259778046883437 
2195	 0.259639587229649 
2196	 0.259517437408944 
2197	 0.259385991506044 
2198	 0.259209582637952 
2199	 0.259078257569036 
2200	 0.258971347143823 
2201	 0.258877681383101 
2202	 0.258819349479047 
2203	 0.258752882554984 
2204	 0.258694389524144 
2205	 0.258648011070522 
2206	 0.258592315678697 
2207	 0.25853069066284 
2208	 0.258487404837393 
2209	 0.258436048439417 
2210	 0.258424163781548 
2211	 0.258434406816779 
2212	 0.258463807924248 
2213	 0.258549391659181 
2214	 0.258585679366609 
2215	 0.258614950010226 
2216	 0.258642470115988 
2217	 0.258639761079672 
2218	 0.258654227247729 
2219	 0.258689535033464 
2220	 0.258707968525172 
2221	 0.258720467078068 
2222	 0.258738322050852 
2223	 0.258682935718961 
2224	 0.258654356404818 
2225	 0.258625520236201 
2226	 0.258570769208673 
2227	 0.258537192247333 
2228	 0.258531080814943 
2229	 0.258514848242069 
2230	 0.258497152254263 
2231	 0.258464963975602 
2232	 0.258446891509461 
2233	 0.258398612939513 
2234	 0.258318112820514 
2235	 0.258242326087722 
2236	 0.258138290910492 
2237	 0.258064234074196 
2238	 0.258015296613656 
2239	 0.257939992644371 
2240	 0.257867993079028 
2241	 0.257795838005187 
2242	 0.257697436794714 
2243	 0.257606753278565 
2244	 0.257530634177765 
2245	 0.257454579207988 
2246	 0.257354721886665 
2247	 0.257251124248571 
2248	 0.257154367773306 
2249	 0.25705780995757 
2250	 0.256951851819753 
2251	 0.256843635878638 
2252	 0.256742491390539 
2253	 0.256635360941758 
2254	 0.256530965258971 
2255	 0.256446386385778 
2256	 0.25633533398657 
2257	 0.256180426544976 
2258	 0.256085475911435 
2259	 0.256016679606708 
2260	 0.255933054303581 
2261	 0.255880638861916 
2262	 0.255821396085173 
2263	 0.255718896695465 
2264	 0.255666770712816 
2265	 0.255681157475402 
2266	 0.255644362208922 
2267	 0.255593238373012 
2268	 0.255561735262874 
2269	 0.255518495782454 
2270	 0.255465820264989 
2271	 0.25544413800484 
2272	 0.255422505057622 
2273	 0.255394114749664 
2274	 0.255367122581735 
2275	 0.255338804296976 
2276	 0.255328261503634 
2277	 0.25529031987803 
2278	 0.255229563002695 
2279	 0.25517727619542 
2280	 0.255123492128928 
2281	 0.255061406850368 
2282	 0.2549998100951 
2283	 0.254928759049674 
2284	 0.254830976060777 
2285	 0.254764582479441 
2286	 0.254712011210252 
2287	 0.254649929864543 
2288	 0.254601572502938 
2289	 0.254550260019489 
2290	 0.254497707294875 
2291	 0.254431106924481 
2292	 0.25434336397257 
2293	 0.254280487188392 
2294	 0.254228762074878 
2295	 0.25416494851088 
2296	 0.254099772119814 
2297	 0.254077013715027 
2298	 0.254007522864709 
2299	 0.253898670407014 
2300	 0.253847149676168 
2301	 0.253822084090726 
2302	 0.253764644309556 
2303	 0.253706839805742 
2304	 0.253639758022326 
2305	 0.253530163081634 
2306	 0.253436044974564 
2307	 0.253347003292927 
2308	 0.253257446331161 
2309	 0.253159098840588 
2310	 0.253064458530085 
2311	 0.252986807399238 
2312	 0.252884665595197 
2313	 0.252777149793684 
2314	 0.25264675877709 
2315	 0.252467420239395 
2316	 0.252342460887431 
2317	 0.252226995831123 
2318	 0.252115096587208 
2319	 0.252051276073302 
2320	 0.251960168859243 
2321	 0.251829336782759 
2322	 0.251729328403794 
2323	 0.251669213845177 
2324	 0.251572120962723 
2325	 0.251461022938561 
2326	 0.251364432543991 
2327	 0.251272008432772 
2328	 0.25112193577179 
2329	 0.251032205608216 
2330	 0.250963725662505 
2331	 0.250858627269755 
2332	 0.250740977431902 
2333	 0.25059939539237 
2334	 0.250451475153034 
2335	 0.250300134844422 
2336	 0.250168223155682 
2337	 0.250099107602396 
2338	 0.250003348590344 
2339	 0.249825364846716 
2340	 0.249673868612876 
2341	 0.249509989552063 
2342	 0.249313101397373 
2343	 0.249194003791818 
2344	 0.249074755026767 
2345	 0.248899668654121 
2346	 0.248676225570315 
2347	 0.248451619328814 
2348	 0.248200641702416 
2349	 0.247949492144851 
2350	 0.247676531833736 
2351	 0.247422543642414 
2352	 0.247184420231529 
2353	 0.246912025655545 
2354	 0.246592024207774 
2355	 0.246356132112903 
2356	 0.246145171991562 
2357	 0.245915002663566 
2358	 0.245753056778458 
2359	 0.245536014275759 
2360	 0.245284279141 
2361	 0.245001734909313 
2362	 0.24470613360552 
2363	 0.244412547264956 
2364	 0.244033091800678 
2365	 0.243723395768395 
2366	 0.243465766038623 
2367	 0.243180965881425 
2368	 0.24292110408739 
2369	 0.242655357390792 
2370	 0.242381239970001 
2371	 0.242109739403471 
2372	 0.241793050294475 
2373	 0.241497931032226 
2374	 0.241240290512783 
2375	 0.240907232475561 
2376	 0.240576494319427 
2377	 0.240270203820156 
2378	 0.239930365122102 
2379	 0.239539031397063 
2380	 0.239176635853147 
2381	 0.238811273115197 
2382	 0.238382124519803 
2383	 0.238042814130904 
2384	 0.23770728948902 
2385	 0.23736821622712 
2386	 0.237146691914608 
2387	 0.236879402444122 
2388	 0.236614256039988 
2389	 0.236339859250788 
2390	 0.23594135356518 
2391	 0.235559459630798 
2392	 0.235165813936753 
2393	 0.234850125069441 
2394	 0.234627524036002 
2395	 0.23430951932832 
2396	 0.234048365625114 
2397	 0.233684779501418 
2398	 0.233155565754783 
2399	 0.232693911028604 
2400	 0.232256923979356 
2401	 0.231812477734553 
2402	 0.231364340882656 
2403	 0.231017340825759 
2404	 0.230662194715006 
2405	 0.230294276776568 
2406	 0.230051436272774 
2407	 0.229671975347511 
2408	 0.229235897787183 
2409	 0.228857103482694 
2410	 0.228349293045486 
2411	 0.227956913536797 
2412	 0.22767510283301 
2413	 0.227310296422306 
2414	 0.227018997258356 
2415	 0.226734227907744 
2416	 0.226349381311991 
2417	 0.225844158943572 
2418	 0.225414329142128 
2419	 0.224916806669268 
2420	 0.224490505559487 
2421	 0.224168045642013 
2422	 0.223757238119296 
2423	 0.223306038520876 
2424	 0.222936224623345 
2425	 0.222597722069325 
2426	 0.222161745581086 
2427	 0.221719321180982 
2428	 0.221315637683048 
2429	 0.220837967883927 
2430	 0.220390897356504 
2431	 0.220048293756964 
2432	 0.219624736323198 
2433	 0.219104841565827 
2434	 0.218703825865993 
2435	 0.218373635791628 
2436	 0.217978790620534 
2437	 0.217562688854271 
2438	 0.21713261166334 
2439	 0.216668166607438 
2440	 0.216282154297322 
2441	 0.215964174012339 
2442	 0.215634103585548 
2443	 0.215367058654495 
2444	 0.214938070884517 
2445	 0.214379317225037 
2446	 0.213955833169534 
2447	 0.213508798927808 
2448	 0.21304505747477 
2449	 0.2126996801277 
2450	 0.212309104939054 
2451	 0.211812493600144 
2452	 0.211392441913664 
2453	 0.211044305638712 
2454	 0.210565505239654 
2455	 0.21002511428522 
2456	 0.209518229924082 
2457	 0.208962711807463 
2458	 0.208550048886071 
2459	 0.208231157845307 
2460	 0.207843079397235 
2461	 0.207515376471844 
2462	 0.207089148465692 
2463	 0.206552151150231 
2464	 0.206093694182372 
2465	 0.20560771520113 
2466	 0.20521608897119 
2467	 0.204907897448435 
2468	 0.204542193096797 
2469	 0.204288758189577 
2470	 0.203756782099753 
2471	 0.203219738308445 
2472	 0.202869044867059 
2473	 0.202465194294169 
2474	 0.202074913341812 
2475	 0.201788090029628 
2476	 0.201333805069625 
2477	 0.200834700873833 
2478	 0.200423211015747 
2479	 0.199953049564162 
2480	 0.199577877349061 
2481	 0.199224846710014 
2482	 0.198874671288928 
2483	 0.198618295215696 
2484	 0.198223921249405 
2485	 0.197846782365608 
2486	 0.197664277623136 
2487	 0.197363201544387 
2488	 0.196929760211894 
2489	 0.196553578223517 
2490	 0.196166193998131 
2491	 0.19574920296488 
2492	 0.19543888940078 
2493	 0.195274378753054 
2494	 0.194966137408093 
2495	 0.194677108879096 
2496	 0.19452522581544 
2497	 0.194034045881606 
2498	 0.19350424338048 
2499	 0.193232447924153 
2500	 0.1930660680187 
