Wavelength	MM100007.asd
350	 2.91586774935373E-02 
351	 3.18424464777154E-02 
352	 3.21820597899146E-02 
353	 2.78201310264667E-02 
354	 2.94101347036525E-02 
355	 0.031083342154296 
356	 3.21457271660223E-02 
357	 3.32146716209883E-02 
358	 3.59634461996411E-02 
359	 3.18390160859663E-02 
360	 2.68931388662435E-02 
361	 3.40082564538652E-02 
362	 3.01017092090101E-02 
363	 0.027138598149525 
364	 3.11163081755513E-02 
365	 0.032470890801573 
366	 3.02975702897688E-02 
367	 0.028840897714321 
368	 3.19259749775172E-02 
369	 0.036084140440836 
370	 3.43787710915923E-02 
371	 3.00001504409751E-02 
372	 3.21174155868932E-02 
373	 3.37336186790241E-02 
374	 3.43174964545857E-02 
375	 3.40270568756828E-02 
376	 3.25687410253142E-02 
377	 3.18275630032996E-02 
378	 3.28725189235392E-02 
379	 3.55055026350678E-02 
380	 3.61090132872419E-02 
381	 3.62418620323552E-02 
382	 3.62948680194499E-02 
383	 3.57855782099508E-02 
384	 3.65996314312564E-02 
385	 3.67339287242245E-02 
386	 3.57655964879205E-02 
387	 3.72725634646732E-02 
388	 3.98734447232941E-02 
389	 0.041319831779148 
390	 0.040171416807685 
391	 3.98838896844106E-02 
392	 4.01773720882094E-02 
393	 4.11622736159327E-02 
394	 4.32244892736578E-02 
395	 4.34357833022914E-02 
396	 4.33372340398951E-02 
397	 4.41439717854647E-02 
398	 4.48517459635331E-02 
399	 4.45826596330199E-02 
400	 4.47687006525775E-02 
401	 4.68972437798823E-02 
402	 4.78763381260827E-02 
403	 4.73032202267879E-02 
404	 4.60114414543876E-02 
405	 0.045797887935829 
406	 4.74967788869792E-02 
407	 4.93674811665345E-02 
408	 4.99181636979591E-02 
409	 4.95854566343466E-02 
410	 4.88600338392622E-02 
411	 4.86317669406522E-02 
412	 4.95838210159128E-02 
413	 4.99655098713101E-02 
414	 4.96358394290289E-02 
415	 4.92657584123129E-02 
416	 5.03166639001982E-02 
417	 5.12191797881973E-02 
418	 5.16033257627265E-02 
419	 5.15085541525286E-02 
420	 5.11593447273033E-02 
421	 0.050846035222526 
422	 0.050980292587963 
423	 5.18348546532826E-02 
424	 5.13274172121443E-02 
425	 5.09044966007112E-02 
426	 5.12468731369304E-02 
427	 5.08366373281963E-02 
428	 0.050249204610262 
429	 5.02305618534241E-02 
430	 5.10998247616288E-02 
431	 5.08337595226401E-02 
432	 5.02328765302836E-02 
433	 4.98166168946669E-02 
434	 4.96730336361186E-02 
435	 4.98007165623786E-02 
436	 4.98609995544578E-02 
437	 4.97036062184867E-02 
438	 4.98463053561249E-02 
439	 4.98422776610163E-02 
440	 4.97805177599611E-02 
441	 4.99680780561154E-02 
442	 5.01425422032969E-02 
443	 5.03328794143363E-02 
444	 5.05096997947738E-02 
445	 5.05035821884518E-02 
446	 5.05724243493448E-02 
447	 5.07757962804372E-02 
448	 0.051050212384997 
449	 5.10932923096411E-02 
450	 5.11881712066275E-02 
451	 5.14651282564842E-02 
452	 5.18805590514504E-02 
453	 5.19736377644754E-02 
454	 0.051991023460907 
455	 5.21947591591935E-02 
456	 5.26101376132695E-02 
457	 5.27010348322316E-02 
458	 5.26665522734244E-02 
459	 5.29345207564998E-02 
460	 5.28351826258726E-02 
461	 0.052601388023716 
462	 5.25130070012992E-02 
463	 5.28044494261296E-02 
464	 5.29150257323558E-02 
465	 5.29226412881568E-02 
466	 5.30287540379416E-02 
467	 5.31394387954391E-02 
468	 5.32349846112221E-02 
469	 5.33233803232763E-02 
470	 5.34324206185775E-02 
471	 5.35704398846881E-02 
472	 5.35276886222877E-02 
473	 5.32744905031625E-02 
474	 5.32611573085476E-02 
475	 5.34144861160298E-02 
476	 5.35146585275089E-02 
477	 5.33417886036546E-02 
478	 5.32439964838795E-02 
479	 5.33553487914624E-02 
480	 0.053599146369334 
481	 0.053648534116589 
482	 5.36053806370502E-02 
483	 5.36230925806143E-02 
484	 5.37785289827184E-02 
485	 5.37864413280408E-02 
486	 5.36319229318839E-02 
487	 5.34540898582139E-02 
488	 5.34945335624687E-02 
489	 5.35981038881878E-02 
490	 5.37021093382301E-02 
491	 5.37506873261619E-02 
492	 5.36521677170065E-02 
493	 5.35447514084793E-02 
494	 5.35300593306539E-02 
495	 5.36626439760187E-02 
496	 5.38252003110648E-02 
497	 0.053842153447356 
498	 5.37440465312545E-02 
499	 5.38677018685706E-02 
500	 5.39299756814858E-02 
501	 5.39145984302441E-02 
502	 5.38892414349386E-02 
503	 5.39326445776359E-02 
504	 5.39120845615628E-02 
505	 5.38779513337155E-02 
506	 5.40337302214892E-02 
507	 5.40286305634527E-02 
508	 5.40791392961124E-02 
509	 5.42864159823631E-02 
510	 5.41268747520015E-02 
511	 5.40505134727269E-02 
512	 5.40902703497738E-02 
513	 5.40761077844107E-02 
514	 0.054171705126836 
515	 5.42705649917516E-02 
516	 5.43087706823088E-02 
517	 5.43451340413774E-02 
518	 5.43217089251224E-02 
519	 5.42833257679644E-02 
520	 5.42975083590797E-02 
521	 5.43590221531915E-02 
522	 5.44583337333549E-02 
523	 5.45323641272084E-02 
524	 5.44691460537758E-02 
525	 5.45014900090373E-02 
526	 5.45760844602961E-02 
527	 5.46186939903334E-02 
528	 5.47266349542371E-02 
529	 5.47108899693738E-02 
530	 5.46364110257981E-02 
531	 5.47199371313095E-02 
532	 5.48442507683389E-02 
533	 5.49823339551888E-02 
534	 5.50963580890094E-02 
535	 0.055081865550753 
536	 5.51372900121007E-02 
537	 5.52566121000639E-02 
538	 5.53562626368892E-02 
539	 5.54523750761597E-02 
540	 5.54891748027478E-02 
541	 0.055506241429337 
542	 5.56748797950231E-02 
543	 5.57957822355277E-02 
544	 5.59051868467123E-02 
545	 5.60665282852789E-02 
546	 5.61786901140011E-02 
547	 5.62999247308853E-02 
548	 5.64533598589603E-02 
549	 5.66279611807531E-02 
550	 5.68133376342468E-02 
551	 5.70106757409437E-02 
552	 5.72287201594002E-02 
553	 5.74962724150748E-02 
554	 5.77299103870732E-02 
555	 5.79637738811771E-02 
556	 5.82799487274812E-02 
557	 5.85805312403642E-02 
558	 5.88727355387059E-02 
559	 5.91874182423037E-02 
560	 5.95792317807834E-02 
561	 5.99563422849294E-02 
562	 6.03560959547455E-02 
563	 6.08414342511073E-02 
564	 6.13626126732078E-02 
565	 6.18405810752807E-02 
566	 6.23035901835001E-02 
567	 6.28980639832303E-02 
568	 6.35323125248534E-02 
569	 6.41671533226418E-02 
570	 6.48010398754775E-02 
571	 6.55164999212465E-02 
572	 6.62828941351803E-02 
573	 6.70767518804647E-02 
574	 6.78747136353757E-02 
575	 6.86039038669901E-02 
576	 6.93691133019991E-02 
577	 0.070228927584306 
578	 7.10748182097925E-02 
579	 7.20000547708458E-02 
580	 0.073005625710282 
581	 7.40551358973631E-02 
582	 7.51495170632436E-02 
583	 7.62496124785412E-02 
584	 7.73404265717976E-02 
585	 7.84489772298714E-02 
586	 7.95655178634156E-02 
587	 8.06833101814927E-02 
588	 8.18103480091536E-02 
589	 0.083031192613228 
590	 8.41967074874195E-02 
591	 8.53218011731789E-02 
592	 8.65690460379834E-02 
593	 8.77660915070539E-02 
594	 8.89203584058106E-02 
595	 9.00668112167804E-02 
596	 9.12164374387123E-02 
597	 9.24038507600995E-02 
598	 9.35929804925418E-02 
599	 9.47229901126912E-02 
600	 9.58601632132755E-02 
601	 9.69609619650025E-02 
602	 9.79970174753141E-02 
603	 9.89921578877215E-02 
604	 9.99418097787306E-02 
605	 0.100884699861271 
606	 0.10185857992167 
607	 0.102819904824325 
608	 0.103702390115862 
609	 0.104524009109399 
610	 0.105398230100588 
611	 0.106228394276954 
612	 0.107000539028202 
613	 0.10771646677514 
614	 0.108369337533471 
615	 0.108987260886529 
616	 0.109588384289751 
617	 0.110177616147728 
618	 0.110733832139826 
619	 0.111218634806505 
620	 0.11164417351569 
621	 0.112132662198092 
622	 0.112618601163622 
623	 0.11306032794583 
624	 0.113440037719283 
625	 0.113847480668305 
626	 0.114234248702247 
627	 0.114588842031259 
628	 0.114962855659224 
629	 0.115359093339358 
630	 0.115735903329295 
631	 0.116055423623944 
632	 0.116341592421271 
633	 0.11663769833491 
634	 0.116968747307335 
635	 0.117338048235885 
636	 0.117665105657496 
637	 0.117976189147558 
638	 0.118295336925948 
639	 0.118585483369467 
640	 0.118905076860603 
641	 0.119249389802766 
642	 0.119584958596619 
643	 0.119913134662286 
644	 0.12025749789134 
645	 0.120618040019856 
646	 0.120957106014337 
647	 0.121293077924025 
648	 0.12163609042171 
649	 0.1219937915053 
650	 0.122373579020267 
651	 0.122743376692653 
652	 0.123089806104605 
653	 0.123423464428351 
654	 0.12386035200546 
655	 0.124295712691747 
656	 0.124658998239733 
657	 0.125062282642808 
658	 0.125516127517187 
659	 0.12597943046911 
660	 0.126395740729018 
661	 0.126839467515459 
662	 0.127287587683733 
663	 0.127745142543906 
664	 0.128272402753147 
665	 0.12876401411689 
666	 0.129235374903904 
667	 0.129731888413867 
668	 0.130255564213693 
669	 0.130805442820902 
670	 0.131363649730394 
671	 0.131899853129661 
672	 0.132450834480743 
673	 0.133051295920267 
674	 0.133696511616611 
675	 0.134297431871674 
676	 0.134854897797698 
677	 0.135436209695609 
678	 0.136114556355416 
679	 0.136766014570591 
680	 0.137403419474884 
681	 0.138053969582677 
682	 0.138749000348862 
683	 0.139445941323141 
684	 0.140121173991581 
685	 0.140783096794325 
686	 0.141531503902867 
687	 0.142292042544804 
688	 0.14303809590297 
689	 0.143778321073136 
690	 0.144479428245589 
691	 0.145201284197221 
692	 0.145988715249333 
693	 0.146843897461992 
694	 0.147630980785157 
695	 0.148394556314592 
696	 0.149217376309128 
697	 0.149961793685123 
698	 0.150765249749298 
699	 0.151642666465844 
700	 0.152466108703337 
701	 0.153255574834979 
702	 0.154062286313358 
703	 0.154914235678847 
704	 0.155757077731059 
705	 0.156556457702368 
706	 0.157369073921733 
707	 0.158269749865365 
708	 0.159053968745265 
709	 0.159837808675825 
710	 0.160685711532487 
711	 0.161541023690846 
712	 0.162356386498034 
713	 0.163137182532997 
714	 0.1639123215363 
715	 0.164722045891016 
716	 0.165529210473604 
717	 0.166306819037463 
718	 0.167040157178958 
719	 0.167757863897823 
720	 0.168461984823318 
721	 0.16915162045479 
722	 0.169827884946788 
723	 0.170498724157916 
724	 0.171173565137071 
725	 0.171843082895861 
726	 0.172406007456977 
727	 0.172948539005428 
728	 0.173508956061452 
729	 0.174068423941816 
730	 0.174604342023165 
731	 0.175072202872108 
732	 0.175468801080876 
733	 0.175898776069405 
734	 0.176260003895278 
735	 0.176585594413385 
736	 0.176946938431388 
737	 0.177289115616936 
738	 0.177566400684964 
739	 0.177777887562112 
740	 0.177969859032756 
741	 0.178129213855514 
742	 0.178279558481302 
743	 0.17842332510113 
744	 0.178487148629044 
745	 0.178522777788906 
746	 0.178555272659121 
747	 0.178583332325306 
748	 0.178523594396052 
749	 0.178426056458913 
750	 0.178323983567075 
751	 0.178214319319791 
752	 0.178038301980835 
753	 0.177854310075112 
754	 0.177701699763886 
755	 0.177482730707401 
756	 0.177231904743911 
757	 0.176954278520357 
758	 0.1766469070081 
759	 0.176356477311054 
760	 0.176012426275265 
761	 0.175618172062444 
762	 0.17527937432491 
763	 0.174921227512824 
764	 0.174525805399066 
765	 0.174100054477704 
766	 0.173680593821246 
767	 0.173250574203685 
768	 0.172804354283071 
769	 0.172343794733583 
770	 0.171890528004757 
771	 0.171396533071186 
772	 0.170865475435223 
773	 0.170367490402765 
774	 0.169881989105177 
775	 0.169376402466146 
776	 0.168839196564277 
777	 0.168326792482955 
778	 0.167800747914878 
779	 0.167248574056413 
780	 0.166680935789938 
781	 0.166169547389426 
782	 0.165666196723819 
783	 0.165135958424968 
784	 0.164573854601586 
785	 0.164048839464955 
786	 0.163516444550533 
787	 0.162950766842185 
788	 0.162422415804545 
789	 0.16190472935611 
790	 0.161382572258338 
791	 0.160848451472568 
792	 0.160318242300718 
793	 0.159804281334349 
794	 0.159293351260315 
795	 0.15875843383842 
796	 0.158275460833363 
797	 0.157807592139417 
798	 0.157304018024654 
799	 0.156717506033304 
800	 0.156197605773631 
801	 0.155775224010512 
802	 0.155390586775118 
803	 0.154802298859849 
804	 0.154299430357076 
805	 0.153920133086738 
806	 0.153531178889697 
807	 0.153087490278168 
808	 0.152605835405217 
809	 0.152130782105493 
810	 0.151723869932522 
811	 0.151349735108957 
812	 0.150950062704074 
813	 0.15050842616414 
814	 0.150138543637644 
815	 0.149726417769645 
816	 0.149310044592939 
817	 0.148969148892139 
818	 0.148643083197562 
819	 0.148317371578259 
820	 0.147977615974267 
821	 0.147613858735464 
822	 0.147271959593957 
823	 0.146969341246883 
824	 0.146683518023451 
825	 0.146338135079321 
826	 0.145997937130154 
827	 0.145735806396682 
828	 0.145558453484631 
829	 0.145267614029243 
830	 0.144944468517126 
831	 0.144644933157879 
832	 0.144401315673097 
833	 0.144178996886961 
834	 0.143983693605245 
835	 0.14380243447251 
836	 0.143604912134526 
837	 0.143399093043854 
838	 0.143180432873111 
839	 0.142960540615703 
840	 0.142779757110004 
841	 0.142617879559664 
842	 0.142445223467792 
843	 0.14225504577624 
844	 0.142117762239382 
845	 0.1420146065783 
846	 0.141901851766872 
847	 0.141746904108328 
848	 0.141646859008139 
849	 0.141553800052069 
850	 0.141451717189553 
851	 0.14135933825464 
852	 0.141276156793667 
853	 0.141202848029115 
854	 0.141144700384579 
855	 0.141113204139957 
856	 0.141096730016435 
857	 0.141062173951977 
858	 0.141000956377069 
859	 0.140975588760716 
860	 0.140963179218773 
861	 0.140960473166914 
862	 0.140967628104919 
863	 0.140975755464342 
864	 0.140975617464695 
865	 0.141014808425615 
866	 0.141142957349424 
867	 0.141180364166739 
868	 0.141194524062579 
869	 0.141227788006572 
870	 0.141271921478277 
871	 0.141323448442134 
872	 0.14143995768719 
873	 0.141610009390906 
874	 0.141702034900108 
875	 0.141820613318658 
876	 0.14192942226224 
877	 0.142007584367715 
878	 0.142163822198371 
879	 0.1423362520129 
880	 0.142501278450585 
881	 0.142665185639732 
882	 0.142907150601459 
883	 0.143094911947339 
884	 0.143221763241029 
885	 0.14336287019522 
886	 0.143581857124526 
887	 0.143832220086085 
888	 0.144082880796673 
889	 0.144324742999234 
890	 0.144541934437552 
891	 0.144740151950336 
892	 0.144972040535277 
893	 0.145326509501685 
894	 0.145557028081113 
895	 0.145792742945099 
896	 0.146130373758281 
897	 0.146471704096554 
898	 0.146791970209615 
899	 0.147091808391306 
900	 0.147385130534723 
901	 0.147684656204424 
902	 0.148038857548363 
903	 0.148439304364999 
904	 0.148842123959729 
905	 0.149155491710367 
906	 0.149587079930151 
907	 0.150065756305226 
908	 0.150428366650183 
909	 0.150803291928289 
910	 0.151214315318917 
911	 0.151655243990219 
912	 0.152104623384613 
913	 0.15258897977758 
914	 0.153043447384124 
915	 0.153491524943996 
916	 0.154018521753036 
917	 0.154440194070627 
918	 0.154914574057013 
919	 0.155498163932654 
920	 0.156075285376622 
921	 0.156581240929858 
922	 0.157096493706273 
923	 0.157638245176723 
924	 0.15810054121111 
925	 0.158651226579996 
926	 0.159308208979653 
927	 0.159982614749188 
928	 0.160465672757344 
929	 0.161121912952941 
930	 0.161814897254577 
931	 0.162400968995355 
932	 0.163033667735042 
933	 0.163681596145834 
934	 0.164351320185748 
935	 0.165050225542405 
936	 0.165766851598064 
937	 0.166470773524703 
938	 0.167126535677234 
939	 0.167750055929799 
940	 0.168521311702477 
941	 0.169279342417527 
942	 0.170054017606433 
943	 0.170900421487257 
944	 0.171653904243186 
945	 0.172400339799302 
946	 0.173183435421342 
947	 0.17399940026846 
948	 0.174756767401508 
949	 0.175512711259174 
950	 0.176299744507782 
951	 0.177127314965616 
952	 0.177973722230733 
953	 0.178862892005272 
954	 0.179735909379289 
955	 0.18054439213534 
956	 0.18156510914452 
957	 0.18246905290517 
958	 0.183222871960623 
959	 0.184012251141915 
960	 0.18497292535279 
961	 0.185903142952605 
962	 0.186780968345887 
963	 0.187702794076852 
964	 0.188617130093786 
965	 0.189550202761111 
966	 0.190480981422387 
967	 0.191393679285399 
968	 0.19250884471381 
969	 0.19348542324281 
970	 0.194328943239475 
971	 0.195276685749109 
972	 0.196255343177873 
973	 0.197254204276692 
974	 0.19825792672995 
975	 0.199249523409364 
976	 0.200216932313772 
977	 0.201189720663905 
978	 0.202187196800128 
979	 0.203212955142991 
980	 0.204268461656384 
981	 0.205162879897301 
982	 0.206030600897935 
983	 0.207126005123008 
984	 0.208172448820048 
985	 0.209212254120508 
986	 0.210206956819769 
987	 0.211096371004028 
988	 0.21196262728936 
989	 0.212972881477922 
990	 0.214059541115845 
991	 0.21505229350351 
992	 0.215952939426299 
993	 0.21689705073621 
994	 0.217896007530286 
995	 0.218881878745517 
996	 0.219752268035598 
997	 0.220726863251092 
998	 0.221754383625077 
999	 0.222703986230713 
1000	 0.223602866916038 
1001	 0.227582983146656 
1002	 0.228485985011961 
1003	 0.2293555522235 
1004	 0.23022511399003 
1005	 0.231117617293488 
1006	 0.2319850676311 
1007	 0.23283282264258 
1008	 0.233650174538298 
1009	 0.234484651581309 
1010	 0.235276084509196 
1011	 0.236064571244627 
1012	 0.236848557343302 
1013	 0.23761351087814 
1014	 0.238405967852881 
1015	 0.239167545886524 
1016	 0.239910697047036 
1017	 0.240639533190528 
1018	 0.241349384593375 
1019	 0.2420452535434 
1020	 0.242764983023145 
1021	 0.243497478935863 
1022	 0.244226357623047 
1023	 0.244894244161923 
1024	 0.245520245874099 
1025	 0.246095577793965 
1026	 0.246721605328407 
1027	 0.247351357557716 
1028	 0.247897989347006 
1029	 0.248499605537716 
1030	 0.249074626269465 
1031	 0.249658062543716 
1032	 0.250230172711968 
1033	 0.250885616929349 
1034	 0.251477748681835 
1035	 0.252055820341489 
1036	 0.252632304854798 
1037	 0.25312044057432 
1038	 0.253659961507329 
1039	 0.254227966171203 
1040	 0.254705440436663 
1041	 0.255240370490166 
1042	 0.255819947430593 
1043	 0.256338830294312 
1044	 0.256872007898964 
1045	 0.25743267956683 
1046	 0.258007639433427 
1047	 0.258536505014865 
1048	 0.259062944892214 
1049	 0.259591995210407 
1050	 0.260094053885106 
1051	 0.260600919592586 
1052	 0.26112167018629 
1053	 0.261664474053972 
1054	 0.262225468262588 
1055	 0.262727970356665 
1056	 0.263180080310203 
1057	 0.263644323318464 
1058	 0.264074385121288 
1059	 0.264525881052226 
1060	 0.264977831295925 
1061	 0.265458690378936 
1062	 0.265932400515832 
1063	 0.266381251770267 
1064	 0.266870171508641 
1065	 0.267352690159857 
1066	 0.267770183089927 
1067	 0.268189438605075 
1068	 0.26858855982222 
1069	 0.268931260026708 
1070	 0.269308905306946 
1071	 0.269725999157278 
1072	 0.270112290540475 
1073	 0.270465085392994 
1074	 0.270846960115063 
1075	 0.271243931690436 
1076	 0.271615091447893 
1077	 0.271981131967504 
1078	 0.272350157694472 
1079	 0.272682933900631 
1080	 0.272947215977681 
1081	 0.273250528738011 
1082	 0.273590610353428 
1083	 0.273890777239045 
1084	 0.274185295460454 
1085	 0.274496504462861 
1086	 0.274775391844404 
1087	 0.275069506328533 
1088	 0.275387058529845 
1089	 0.275706429227212 
1090	 0.275993091902084 
1091	 0.276288672045096 
1092	 0.27659364610722 
1093	 0.276923258642028 
1094	 0.27722670062967 
1095	 0.277500420552095 
1096	 0.277779471955296 
1097	 0.278022037824813 
1098	 0.278289953549821 
1099	 0.278555989157356 
1100	 0.278862526714343 
1101	 0.279214722271352 
1102	 0.27951957965763 
1103	 0.279831443424285 
1104	 0.280131309114408 
1105	 0.280375963483876 
1106	 0.280651950542368 
1107	 0.280956283613048 
1108	 0.281260314714508 
1109	 0.281583318104084 
1110	 0.281875740926368 
1111	 0.282172888980899 
1112	 0.28245833619734 
1113	 0.282760749317898 
1114	 0.28307054830756 
1115	 0.283372616876335 
1116	 0.283685462944902 
1117	 0.283988852811679 
1118	 0.284267633820609 
1119	 0.284574555735549 
1120	 0.284902072593575 
1121	 0.285209270744534 
1122	 0.285522891340577 
1123	 0.285829911348353 
1124	 0.286148395544281 
1125	 0.286462265834628 
1126	 0.286788132898433 
1127	 0.287141753446578 
1128	 0.287462576262568 
1129	 0.287777756361606 
1130	 0.288072571493671 
1131	 0.288339873938602 
1132	 0.28861869387758 
1133	 0.288893441204458 
1134	 0.289166790924187 
1135	 0.289449702850411 
1136	 0.289707128170253 
1137	 0.289981954295675 
1138	 0.290232246722491 
1139	 0.29048014596824 
1140	 0.290725354292947 
1141	 0.290969135012073 
1142	 0.291205932069375 
1143	 0.291433417144029 
1144	 0.291659325141651 
1145	 0.291875645534486 
1146	 0.292068397056149 
1147	 0.292277197255521 
1148	 0.292490238466714 
1149	 0.292705286473228 
1150	 0.292931483580914 
1151	 0.29315259350949 
1152	 0.293357816847497 
1153	 0.293559266408286 
1154	 0.293740645181245 
1155	 0.293882164092866 
1156	 0.294072159886521 
1157	 0.294284162655245 
1158	 0.294466698398183 
1159	 0.294663652108806 
1160	 0.294849742745721 
1161	 0.29501190582112 
1162	 0.295169829018527 
1163	 0.295319286476156 
1164	 0.295484289681768 
1165	 0.295647849243758 
1166	 0.2958056816945 
1167	 0.295979329777802 
1168	 0.296157581186975 
1169	 0.296315750426795 
1170	 0.296456793356835 
1171	 0.296598937851929 
1172	 0.296738644884473 
1173	 0.296869480506919 
1174	 0.29698771584127 
1175	 0.297106538493605 
1176	 0.297223695120005 
1177	 0.297337688454013 
1178	 0.297440232688836 
1179	 0.297555217058554 
1180	 0.297679438508905 
1181	 0.297794406034231 
1182	 0.297914711421331 
1183	 0.298025839652462 
1184	 0.298139601222722 
1185	 0.298249168625528 
1186	 0.298353638157264 
1187	 0.298451841931731 
1188	 0.298564670878567 
1189	 0.298675549055338 
1190	 0.298789114595263 
1191	 0.298927423566582 
1192	 0.299039987948059 
1193	 0.299141851421745 
1194	 0.299235255238625 
1195	 0.299301204717575 
1196	 0.299389696997343 
1197	 0.29948816050633 
1198	 0.299577913380882 
1199	 0.299669047185227 
1200	 0.299773108387523 
1201	 0.299865160768889 
1202	 0.299942718497055 
1203	 0.300030463287636 
1204	 0.300127946649325 
1205	 0.300213975109008 
1206	 0.300292004618889 
1207	 0.300375438473514 
1208	 0.300453169035172 
1209	 0.300540017924699 
1210	 0.300641328751722 
1211	 0.300728838162115 
1212	 0.300821367163008 
1213	 0.300899643038045 
1214	 0.300954297371559 
1215	 0.301020178957241 
1216	 0.30108673787782 
1217	 0.301146753070199 
1218	 0.301219631292537 
1219	 0.301310168171211 
1220	 0.30137809096364 
1221	 0.301442140467848 
1222	 0.301502137058007 
1223	 0.301542847947291 
1224	 0.301600645460023 
1225	 0.301670546500888 
1226	 0.30173056020425 
1227	 0.30179381309724 
1228	 0.301850797417167 
1229	 0.301890134164153 
1230	 0.301944650818186 
1231	 0.302015359735489 
1232	 0.302071983064077 
1233	 0.30212570133233 
1234	 0.302182307889422 
1235	 0.302234431552751 
1236	 0.302272871208288 
1237	 0.302323025355656 
1238	 0.302384887869799 
1239	 0.302434798418855 
1240	 0.302477973506205 
1241	 0.302525403559845 
1242	 0.30257146392694 
1243	 0.302616765591755 
1244	 0.302665142674621 
1245	 0.302709168123024 
1246	 0.302746530414068 
1247	 0.302788555228229 
1248	 0.302828165232295 
1249	 0.302878569736853 
1250	 0.302912775938735 
1251	 0.302950881932786 
1252	 0.302989494887813 
1253	 0.303026363932373 
1254	 0.303054728953778 
1255	 0.303080246359597 
1256	 0.303111838860474 
1257	 0.303143025518843 
1258	 0.3031649539755 
1259	 0.303185785324633 
1260	 0.303210508139057 
1261	 0.303233153500339 
1262	 0.303243442973051 
1263	 0.303252009063671 
1264	 0.303265184927469 
1265	 0.303259353795711 
1266	 0.30326388142755 
1267	 0.303292904777668 
1268	 0.30330553626829 
1269	 0.303314110192921 
1270	 0.30330841963007 
1271	 0.303327580808701 
1272	 0.303344522034075 
1273	 0.303385639180839 
1274	 0.303446528955675 
1275	 0.303515383118116 
1276	 0.303599355299531 
1277	 0.303688343464685 
1278	 0.303800450720989 
1279	 0.303895189235887 
1280	 0.303985654413139 
1281	 0.304079318395538 
1282	 0.304163559252563 
1283	 0.304258398840526 
1284	 0.304376993721897 
1285	 0.304475020319823 
1286	 0.304551911873539 
1287	 0.304617283367996 
1288	 0.304664214840512 
1289	 0.304678938779252 
1290	 0.304706608217191 
1291	 0.304726093028264 
1292	 0.304749058059113 
1293	 0.304781508174649 
1294	 0.304783112472716 
1295	 0.304775023527363 
1296	 0.304757316696902 
1297	 0.304719398502174 
1298	 0.304673963222465 
1299	 0.304626782620387 
1300	 0.30456146384174 
1301	 0.304464500994436 
1302	 0.304376238400652 
1303	 0.304280567145655 
1304	 0.304197029268597 
1305	 0.304094218550262 
1306	 0.303977014752377 
1307	 0.30383457941761 
1308	 0.303686284596921 
1309	 0.303549854996685 
1310	 0.303409847989531 
1311	 0.303278529423293 
1312	 0.303161924964384 
1313	 0.303033751475798 
1314	 0.302903244920443 
1315	 0.302777509761316 
1316	 0.302637955816875 
1317	 0.302522513313354 
1318	 0.30241705895703 
1319	 0.302321580735211 
1320	 0.30225790822712 
1321	 0.302172120820347 
1322	 0.302078270898063 
1323	 0.301991726379357 
1324	 0.301899689382028 
1325	 0.301809028132577 
1326	 0.30172433390334 
1327	 0.301650253835763 
1328	 0.301572367751163 
1329	 0.301503458425369 
1330	 0.301444792269775 
1331	 0.301398902961032 
1332	 0.301350593886817 
1333	 0.301305298912198 
1334	 0.301269220815669 
1335	 0.301236208141162 
1336	 0.30121384344454 
1337	 0.301204710604933 
1338	 0.301195086486912 
1339	 0.301196480783725 
1340	 0.301186182823075 
1341	 0.301178973664987 
1342	 0.301161460192326 
1343	 0.301127849475759 
1344	 0.301102587738282 
1345	 0.301087009053262 
1346	 0.301063373022196 
1347	 0.301047871093126 
1348	 0.301035977663797 
1349	 0.301006643804471 
1350	 0.300969358919697 
1351	 0.30093445529052 
1352	 0.300889883662456 
1353	 0.300861905649264 
1354	 0.300843184630997 
1355	 0.300813812476679 
1356	 0.300787425702238 
1357	 0.30075831464511 
1358	 0.300715810974264 
1359	 0.300691687783219 
1360	 0.300683990904985 
1361	 0.300664145536747 
1362	 0.300642317136702 
1363	 0.300624633844267 
1364	 0.300611895792315 
1365	 0.300585061694395 
1366	 0.300556429181043 
1367	 0.300525051015495 
1368	 0.300487849868095 
1369	 0.300435908465672 
1370	 0.300369523641065 
1371	 0.300290912027303 
1372	 0.300177295785038 
1373	 0.300048523456048 
1374	 0.299899567209035 
1375	 0.299735714952384 
1376	 0.299545883867716 
1377	 0.299344695738266 
1378	 0.299089994914111 
1379	 0.298798402156971 
1380	 0.298487874836007 
1381	 0.298129878089834 
1382	 0.297768477888606 
1383	 0.297407345526589 
1384	 0.297003799831688 
1385	 0.296588086330523 
1386	 0.296120871237351 
1387	 0.295629013231924 
1388	 0.295079357459528 
1389	 0.294472384725239 
1390	 0.293831819407286 
1391	 0.293173494902021 
1392	 0.292455631681915 
1393	 0.291700216453729 
1394	 0.290928896315931 
1395	 0.290096881397818 
1396	 0.289249676257604 
1397	 0.288408146165249 
1398	 0.287555302341391 
1399	 0.286702839339883 
1400	 0.285842241220263 
1401	 0.284986527803632 
1402	 0.284132919386602 
1403	 0.283282655520336 
1404	 0.282403988942011 
1405	 0.281593707008498 
1406	 0.280809754958563 
1407	 0.280042266690258 
1408	 0.279321778404937 
1409	 0.278609656308586 
1410	 0.277881746001343 
1411	 0.277216002232264 
1412	 0.27657210402644 
1413	 0.275996335664229 
1414	 0.275484777323395 
1415	 0.27499757959722 
1416	 0.274575214483175 
1417	 0.274184698525056 
1418	 0.273801783188801 
1419	 0.273452906752911 
1420	 0.273121396650432 
1421	 0.27280557431258 
1422	 0.272505663265366 
1423	 0.272228208817262 
1424	 0.271960936356307 
1425	 0.271704572266464 
1426	 0.271461153577304 
1427	 0.271234446254503 
1428	 0.271017705596375 
1429	 0.270802284955994 
1430	 0.270618438056332 
1431	 0.270464071870988 
1432	 0.270307752882811 
1433	 0.270171231822042 
1434	 0.270039696680896 
1435	 0.269902199255747 
1436	 0.269788500849004 
1437	 0.269693537317718 
1438	 0.26960518094486 
1439	 0.269537901837592 
1440	 0.269466657217798 
1441	 0.269382922997105 
1442	 0.269321451098526 
1443	 0.26926873818989 
1444	 0.269205565933847 
1445	 0.269168075254499 
1446	 0.269152433331991 
1447	 0.269124207314568 
1448	 0.26910206919205 
1449	 0.269088082542242 
1450	 0.269062473452043 
1451	 0.269045338261805 
1452	 0.269029178817394 
1453	 0.269027835082703 
1454	 0.269028824866857 
1455	 0.269044994018586 
1456	 0.269078719318406 
1457	 0.269109006372187 
1458	 0.269142067379845 
1459	 0.26918893118317 
1460	 0.269241723680202 
1461	 0.26930310485567 
1462	 0.269375759253137 
1463	 0.269461092891827 
1464	 0.269544045830785 
1465	 0.269652193983109 
1466	 0.269788959318694 
1467	 0.269924115122839 
1468	 0.270066016300618 
1469	 0.270228582152517 
1470	 0.270404917505842 
1471	 0.270583207172386 
1472	 0.270786929181712 
1473	 0.271014657886965 
1474	 0.271249032852167 
1475	 0.271492837610939 
1476	 0.271745017745796 
1477	 0.27199464117601 
1478	 0.272253969348005 
1479	 0.272515714456261 
1480	 0.272782819591561 
1481	 0.273057037751238 
1482	 0.27331563272045 
1483	 0.273560154317558 
1484	 0.27382705323746 
1485	 0.274093799212119 
1486	 0.274365048561811 
1487	 0.274654456467373 
1488	 0.274933602848278 
1489	 0.275208772621498 
1490	 0.275480891940466 
1491	 0.275754746314975 
1492	 0.276028070399547 
1493	 0.276301101582943 
1494	 0.276561535672841 
1495	 0.276817246733883 
1496	 0.277070413670944 
1497	 0.277304385281883 
1498	 0.277550885232925 
1499	 0.277818393386237 
1500	 0.278063657510185 
1501	 0.278298014538743 
1502	 0.278532202578633 
1503	 0.278754419466725 
1504	 0.278971769359226 
1505	 0.279209354666803 
1506	 0.279441524679842 
1507	 0.279673832398226 
1508	 0.279907585976563 
1509	 0.280116662914772 
1510	 0.280330864784176 
1511	 0.280550112152734 
1512	 0.28075260511715 
1513	 0.280974798932729 
1514	 0.281201779670103 
1515	 0.281415516593124 
1516	 0.281638776848026 
1517	 0.281838000903352 
1518	 0.282012465729163 
1519	 0.282209578270921 
1520	 0.282402306250429 
1521	 0.282596507934853 
1522	 0.282811304338448 
1523	 0.282999041881657 
1524	 0.283172183193992 
1525	 0.283348878759379 
1526	 0.283509656523603 
1527	 0.283686105773603 
1528	 0.283865247453214 
1529	 0.284047541268191 
1530	 0.284248703147917 
1531	 0.284425128067529 
1532	 0.284593136943108 
1533	 0.284757202595526 
1534	 0.284913411716569 
1535	 0.28506018275406 
1536	 0.285188043570427 
1537	 0.285333096387584 
1538	 0.285480362119789 
1539	 0.28561672260956 
1540	 0.285770555518139 
1541	 0.285906025886354 
1542	 0.286008213551427 
1543	 0.286130317777586 
1544	 0.286260011640413 
1545	 0.286382756693487 
1546	 0.286509904297256 
1547	 0.286631762322212 
1548	 0.286750534541944 
1549	 0.286877457937375 
1550	 0.287009579816509 
1551	 0.287137014102334 
1552	 0.287245416920972 
1553	 0.287347200482374 
1554	 0.287435482284217 
1555	 0.287525209353852 
1556	 0.287630115575199 
1557	 0.28773905791915 
1558	 0.287846798293798 
1559	 0.287953761239599 
1560	 0.288067209795132 
1561	 0.288178980088546 
1562	 0.288287449537602 
1563	 0.288405207877554 
1564	 0.288514682575058 
1565	 0.288615033043679 
1566	 0.288717519787595 
1567	 0.288821873283926 
1568	 0.288925028719055 
1569	 0.28902580120026 
1570	 0.289114743629582 
1571	 0.289202373003505 
1572	 0.28928560964048 
1573	 0.289361452035993 
1574	 0.28942859829011 
1575	 0.289484165651824 
1576	 0.289551532246166 
1577	 0.289621604348644 
1578	 0.289674786983637 
1579	 0.289732139269625 
1580	 0.289784268692156 
1581	 0.289804022059693 
1582	 0.289850147769061 
1583	 0.289917713287893 
1584	 0.289974447627352 
1585	 0.290033219068122 
1586	 0.290090867696959 
1587	 0.290142253487775 
1588	 0.290201184906805 
1589	 0.290274599307256 
1590	 0.290328957756826 
1591	 0.290373307953286 
1592	 0.290422611646219 
1593	 0.290456534176265 
1594	 0.290502154103417 
1595	 0.290560256228637 
1596	 0.29061867645769 
1597	 0.290681308811486 
1598	 0.290741105733053 
1599	 0.290807221306635 
1600	 0.290863702595563 
1601	 0.290908111710318 
1602	 0.290959779188064 
1603	 0.291020190809976 
1604	 0.291064795948727 
1605	 0.291092350616478 
1606	 0.29113741482822 
1607	 0.291179851171564 
1608	 0.291226814254272 
1609	 0.291284846392688 
1610	 0.291349968508337 
1611	 0.291398259869666 
1612	 0.291434127033061 
1613	 0.291455584556965 
1614	 0.291464071268088 
1615	 0.2914724430233 
1616	 0.291473147191968 
1617	 0.291491197438074 
1618	 0.291531163264271 
1619	 0.291549424370085 
1620	 0.291576389017232 
1621	 0.291596202420031 
1622	 0.29160516504914 
1623	 0.291626732230784 
1624	 0.291651994827735 
1625	 0.291683066936467 
1626	 0.291723295586919 
1627	 0.291756103882723 
1628	 0.291795184253318 
1629	 0.291819342172853 
1630	 0.291833040356029 
1631	 0.2918486229294 
1632	 0.291854788052269 
1633	 0.291872543287587 
1634	 0.291896126322449 
1635	 0.291915467106493 
1636	 0.29194316110246 
1637	 0.291952637749127 
1638	 0.291940287380936 
1639	 0.291958577655865 
1640	 0.291988810365995 
1641	 0.292002356921687 
1642	 0.292024316968079 
1643	 0.292046570459669 
1644	 0.29204362292407 
1645	 0.292072969892398 
1646	 0.292141319096983 
1647	 0.292171072596906 
1648	 0.292192958223639 
1649	 0.29221154590559 
1650	 0.292214156180193 
1651	 0.292217393054015 
1652	 0.292221928247803 
1653	 0.292219759358228 
1654	 0.29220904848232 
1655	 0.29219477324495 
1656	 0.292178292542624 
1657	 0.292157715155965 
1658	 0.2921164560483 
1659	 0.292105528360289 
1660	 0.292113246982076 
1661	 0.292108529043427 
1662	 0.29211373328994 
1663	 0.292115104636619 
1664	 0.292103487038981 
1665	 0.292102814162305 
1666	 0.292123622212938 
1667	 0.292116358869365 
1668	 0.292100001607999 
1669	 0.292073076770729 
1670	 0.292019142906064 
1671	 0.291986825606864 
1672	 0.291955944826318 
1673	 0.291928594556431 
1674	 0.29190972608592 
1675	 0.291893394045093 
1676	 0.291870391501875 
1677	 0.291867793874415 
1678	 0.291880118420128 
1679	 0.291895829190612 
1680	 0.291947627094929 
1681	 0.291944671437456 
1682	 0.291915492051379 
1683	 0.291894816272262 
1684	 0.291828946612437 
1685	 0.291810826955909 
1686	 0.291832764982955 
1687	 0.291831449038661 
1688	 0.291845945900012 
1689	 0.291830758674706 
1690	 0.291792344458302 
1691	 0.291757504398191 
1692	 0.291702562991301 
1693	 0.291666745166948 
1694	 0.291643526304682 
1695	 0.291609462142884 
1696	 0.291574580829112 
1697	 0.291541820122366 
1698	 0.291498558904271 
1699	 0.291470620602419 
1700	 0.291462573874494 
1701	 0.291436546749326 
1702	 0.291413397734286 
1703	 0.291374975542277 
1704	 0.291313310848612 
1705	 0.291268415543193 
1706	 0.291215163885693 
1707	 0.291183681189457 
1708	 0.291189319776355 
1709	 0.291146328009912 
1710	 0.291082603815113 
1711	 0.29103704448079 
1712	 0.290965891875178 
1713	 0.290918706692869 
1714	 0.290904156348913 
1715	 0.290872004817099 
1716	 0.290831690347996 
1717	 0.29079243788811 
1718	 0.290757980084653 
1719	 0.29071838116522 
1720	 0.290676681320815 
1721	 0.290620660920752 
1722	 0.290561978633444 
1723	 0.290494605003877 
1724	 0.290404162787885 
1725	 0.290333985167939 
1726	 0.29026657658542 
1727	 0.2902039560962 
1728	 0.29015418729177 
1729	 0.290090419713605 
1730	 0.290027096732261 
1731	 0.289955790871659 
1732	 0.289884198814434 
1733	 0.289787230443583 
1734	 0.289676637253941 
1735	 0.289556656510445 
1736	 0.289408684673993 
1737	 0.289278887915638 
1738	 0.289146110486054 
1739	 0.289029054011625 
1740	 0.288919647678218 
1741	 0.288814446714402 
1742	 0.288726199410087 
1743	 0.288618078551084 
1744	 0.288501785836451 
1745	 0.288391592172859 
1746	 0.288281082513713 
1747	 0.28820000945683 
1748	 0.288081679737328 
1749	 0.287972591651981 
1750	 0.28784067874557 
1751	 0.287718537009135 
1752	 0.287634132054493 
1753	 0.287547452663861 
1754	 0.287441848224486 
1755	 0.287329517370024 
1756	 0.287190562068394 
1757	 0.287055409515923 
1758	 0.286955085616788 
1759	 0.286829627406327 
1760	 0.286728744050264 
1761	 0.286647306085444 
1762	 0.286520337218662 
1763	 0.286390837778581 
1764	 0.286274621200367 
1765	 0.286161477443329 
1766	 0.28604936041874 
1767	 0.285965743059393 
1768	 0.285882999489321 
1769	 0.285774596176166 
1770	 0.2856976887105 
1771	 0.285636093543662 
1772	 0.285544317829473 
1773	 0.285433407507005 
1774	 0.285328538818625 
1775	 0.285209075216996 
1776	 0.285107424841962 
1777	 0.285048168646295 
1778	 0.284970991513538 
1779	 0.284901528791333 
1780	 0.284857728957529 
1781	 0.284805434239569 
1782	 0.284757928655083 
1783	 0.284702946302105 
1784	 0.284652980467033 
1785	 0.284611286908475 
1786	 0.284562462271259 
1787	 0.2845159327888 
1788	 0.284462953087748 
1789	 0.284387678170041 
1790	 0.284339776735534 
1791	 0.284292603379965 
1792	 0.284277438960124 
1793	 0.284315538816567 
1794	 0.28431089121428 
1795	 0.284325219664562 
1796	 0.284288363959312 
1797	 0.28417983787122 
1798	 0.284115575495699 
1799	 0.284027786419591 
1800	 0.283997041313343 
1801	 0.283385109987797 
1802	 0.283440104643486 
1803	 0.28351730170631 
1804	 0.28365338540905 
1805	 0.283787337612404 
1806	 0.283940039507156 
1807	 0.284081602916843 
1808	 0.284170154837682 
1809	 0.284207003048607 
1810	 0.284260472731886 
1811	 0.284287637571625 
1812	 0.284318512273437 
1813	 0.284363881724913 
1814	 0.284377506252801 
1815	 0.284373442717728 
1816	 0.284364647857324 
1817	 0.28435652890559 
1818	 0.284331493792424 
1819	 0.284328595007344 
1820	 0.284348142493005 
1821	 0.284333100374548 
1822	 0.284317802928059 
1823	 0.284324326953736 
1824	 0.284299228626901 
1825	 0.284260913517399 
1826	 0.284233801539757 
1827	 0.284183936565097 
1828	 0.284129537184434 
1829	 0.284070336748252 
1830	 0.284014280172359 
1831	 0.283957442306099 
1832	 0.283882076876707 
1833	 0.28380973338763 
1834	 0.283700880458121 
1835	 0.2835715751329 
1836	 0.283467706982566 
1837	 0.283354103569418 
1838	 0.283259367317559 
1839	 0.283178191776051 
1840	 0.283131651234993 
1841	 0.283035504122263 
1842	 0.282933098304995 
1843	 0.28283214182635 
1844	 0.282690817032298 
1845	 0.282532013489252 
1846	 0.282361374172653 
1847	 0.282202847894821 
1848	 0.282023577820243 
1849	 0.281822980066057 
1850	 0.28162889957885 
1851	 0.281447540626215 
1852	 0.281225955297559 
1853	 0.280983544231918 
1854	 0.280771210950163 
1855	 0.280561804333809 
1856	 0.280307642867619 
1857	 0.280024404429952 
1858	 0.279697885476934 
1859	 0.279293429499648 
1860	 0.278840988827363 
1861	 0.278336189393253 
1862	 0.277787905544765 
1863	 0.277180303031331 
1864	 0.276535652266727 
1865	 0.27587632337293 
1866	 0.275153715230347 
1867	 0.274391303017625 
1868	 0.273611425641429 
1869	 0.272741229401734 
1870	 0.271818426317053 
1871	 0.270822115408503 
1872	 0.269766972959042 
1873	 0.268634170319009 
1874	 0.267443566925649 
1875	 0.266158509319429 
1876	 0.264832812762395 
1877	 0.263406894389212 
1878	 0.261836410334314 
1879	 0.260183060595327 
1880	 0.25841278359822 
1881	 0.256482489558393 
1882	 0.254514718724307 
1883	 0.252481321870135 
1884	 0.250308024977012 
1885	 0.248063426777495 
1886	 0.245744917426213 
1887	 0.243285157595832 
1888	 0.240767283760103 
1889	 0.238187483175857 
1890	 0.235547799167429 
1891	 0.232943650077435 
1892	 0.230289461977776 
1893	 0.227683957425633 
1894	 0.225096373537942 
1895	 0.222557322544813 
1896	 0.219961984447804 
1897	 0.217456712977922 
1898	 0.215028871279434 
1899	 0.212670197078984 
1900	 0.210458024230639 
1901	 0.208355032628708 
1902	 0.206375398264642 
1903	 0.204533601303787 
1904	 0.202776577178342 
1905	 0.201117656226479 
1906	 0.199611529981581 
1907	 0.198170858754651 
1908	 0.196813353462653 
1909	 0.195589097911604 
1910	 0.194411677293392 
1911	 0.193330747321131 
1912	 0.192364234062815 
1913	 0.191442951684515 
1914	 0.190582902198867 
1915	 0.189800588196807 
1916	 0.189102086767128 
1917	 0.188435394391696 
1918	 0.187846022233617 
1919	 0.187355511510773 
1920	 0.18689735706515 
1921	 0.186499663204001 
1922	 0.186146748062961 
1923	 0.185816633319795 
1924	 0.185541701294827 
1925	 0.185316579434963 
1926	 0.185133567988819 
1927	 0.18500024524499 
1928	 0.18489485296395 
1929	 0.184844977658241 
1930	 0.184822722881907 
1931	 0.184835927667608 
1932	 0.1849011086297 
1933	 0.184973883300051 
1934	 0.185070040012261 
1935	 0.185207542277221 
1936	 0.185374355095379 
1937	 0.185572409173758 
1938	 0.185805522302089 
1939	 0.186071357917737 
1940	 0.18637288380996 
1941	 0.186689998843584 
1942	 0.187036427172699 
1943	 0.187442413756441 
1944	 0.187836347589141 
1945	 0.188241370170582 
1946	 0.188657110149446 
1947	 0.189074647524939 
1948	 0.189519655598988 
1949	 0.189984908664169 
1950	 0.190458664849321 
1951	 0.190961936324187 
1952	 0.191460866804677 
1953	 0.19194827044243 
1954	 0.192464288590692 
1955	 0.192967589594651 
1956	 0.193491206807426 
1957	 0.194036922776413 
1958	 0.194597180037889 
1959	 0.195173970882011 
1960	 0.195787357604619 
1961	 0.196383492273388 
1962	 0.197000458359586 
1963	 0.197598976492879 
1964	 0.198171660967937 
1965	 0.198769059451383 
1966	 0.199372440150051 
1967	 0.199970999087493 
1968	 0.200597397721571 
1969	 0.20125617276766 
1970	 0.201891770591151 
1971	 0.202541763868472 
1972	 0.203178831244635 
1973	 0.2038010498429 
1974	 0.204431439566825 
1975	 0.205071373803223 
1976	 0.205687181671405 
1977	 0.20632076870622 
1978	 0.206941477614227 
1979	 0.207545717425357 
1980	 0.20816465904341 
1981	 0.208791855291216 
1982	 0.209414080190262 
1983	 0.210053114973879 
1984	 0.21072388240066 
1985	 0.211370607670247 
1986	 0.212014540368128 
1987	 0.21265655111301 
1988	 0.213293802866079 
1989	 0.213926029391892 
1990	 0.214554289810856 
1991	 0.215174396640911 
1992	 0.215802600665262 
1993	 0.216427503526865 
1994	 0.217059130487452 
1995	 0.217709943275998 
1996	 0.218332371176197 
1997	 0.218939694595339 
1998	 0.219551335735229 
1999	 0.220148837523843 
2000	 0.220754547288312 
2001	 0.221373360383425 
2002	 0.221981313067488 
2003	 0.222583063020218 
2004	 0.223160623931199 
2005	 0.223748007552261 
2006	 0.224329679767035 
2007	 0.224911942600212 
2008	 0.225495363947479 
2009	 0.226075382011 
2010	 0.226660699869067 
2011	 0.22722553098108 
2012	 0.227785151581701 
2013	 0.22833408053367 
2014	 0.228854519669463 
2015	 0.229381231411403 
2016	 0.229920733332979 
2017	 0.230465637430148 
2018	 0.231014247879202 
2019	 0.231586019642189 
2020	 0.232125587259204 
2021	 0.232660569794578 
2022	 0.233179967470965 
2023	 0.233678536117362 
2024	 0.234178658005749 
2025	 0.234668392391865 
2026	 0.235153830821048 
2027	 0.235636274623141 
2028	 0.236110359574177 
2029	 0.236577765231039 
2030	 0.237032011659245 
2031	 0.237498542860171 
2032	 0.237970786022881 
2033	 0.2384252161809 
2034	 0.238872029247201 
2035	 0.239328729862916 
2036	 0.239774342296159 
2037	 0.240225523035395 
2038	 0.240703807853781 
2039	 0.241153701047336 
2040	 0.24158283327216 
2041	 0.242015032842369 
2042	 0.242425582885619 
2043	 0.242845300624174 
2044	 0.243263731184501 
2045	 0.24368279957415 
2046	 0.244096728055017 
2047	 0.244527166929204 
2048	 0.244918185593989 
2049	 0.245284683054209 
2050	 0.245652451362921 
2051	 0.245989588403486 
2052	 0.24633937041473 
2053	 0.246691457054289 
2054	 0.247049502736979 
2055	 0.247404644637384 
2056	 0.247771255777203 
2057	 0.248134560654053 
2058	 0.248512162167207 
2059	 0.248864789241248 
2060	 0.249198641847693 
2061	 0.249549199954843 
2062	 0.249891915872514 
2063	 0.250243699923126 
2064	 0.25062681038616 
2065	 0.250976031836689 
2066	 0.251300038124017 
2067	 0.251637566880673 
2068	 0.251976701598439 
2069	 0.252296543949941 
2070	 0.252618714613465 
2071	 0.252952773514881 
2072	 0.253264927741856 
2073	 0.253556978190199 
2074	 0.253850821044089 
2075	 0.254131657401115 
2076	 0.25442758364935 
2077	 0.254725505938397 
2078	 0.255023571064697 
2079	 0.255334865076615 
2080	 0.255636564556301 
2081	 0.255923761191186 
2082	 0.256219810568462 
2083	 0.256525672714586 
2084	 0.256825281332929 
2085	 0.257116027917711 
2086	 0.25740820565257 
2087	 0.25768679756626 
2088	 0.257937491396051 
2089	 0.25822221580729 
2090	 0.258518438030147 
2091	 0.258810267461632 
2092	 0.259129727495675 
2093	 0.259421301970906 
2094	 0.25968910255578 
2095	 0.259965625971909 
2096	 0.260252272186748 
2097	 0.260512443941286 
2098	 0.260757411032516 
2099	 0.260998623640586 
2100	 0.261243414989749 
2101	 0.261462259389682 
2102	 0.261712726520162 
2103	 0.261981321429962 
2104	 0.262254772030468 
2105	 0.262538143580923 
2106	 0.262822308241902 
2107	 0.2631216357099 
2108	 0.263412975951348 
2109	 0.263705973548803 
2110	 0.263992323731938 
2111	 0.264284226587661 
2112	 0.264559542761523 
2113	 0.264823080640237 
2114	 0.265079699593892 
2115	 0.26533202501741 
2116	 0.265565613968257 
2117	 0.265822573819674 
2118	 0.266083640853903 
2119	 0.266349993772171 
2120	 0.266630260122463 
2121	 0.266904273720175 
2122	 0.267193458708 
2123	 0.267451777612544 
2124	 0.267705545547253 
2125	 0.267937683056661 
2126	 0.268131784613782 
2127	 0.268337562566088 
2128	 0.268549464602233 
2129	 0.268738481496709 
2130	 0.268919139222403 
2131	 0.269080987761705 
2132	 0.269251833934497 
2133	 0.269423437955128 
2134	 0.269552516878014 
2135	 0.269682702462047 
2136	 0.269772950240485 
2137	 0.269791104348645 
2138	 0.269849668894146 
2139	 0.269915095707667 
2140	 0.269966920822073 
2141	 0.27002923013476 
2142	 0.27006501381128 
2143	 0.270077924465519 
2144	 0.270088513685701 
2145	 0.270083993861169 
2146	 0.27007619382034 
2147	 0.270065994885671 
2148	 0.270041450301308 
2149	 0.270019244685217 
2150	 0.270000480089332 
2151	 0.269950704674746 
2152	 0.269891450595695 
2153	 0.269814917558056 
2154	 0.269708623482135 
2155	 0.26960116590963 
2156	 0.269478753476253 
2157	 0.269363636539292 
2158	 0.269250512044572 
2159	 0.269119543825366 
2160	 0.26898664268472 
2161	 0.2688429012906 
2162	 0.268670771926252 
2163	 0.268506563645326 
2164	 0.26833305299034 
2165	 0.268180426185744 
2166	 0.268017632891665 
2167	 0.267846722185021 
2168	 0.267692359908939 
2169	 0.267547789657051 
2170	 0.267399754084306 
2171	 0.267278131918683 
2172	 0.267110988020915 
2173	 0.266916426006215 
2174	 0.266729096966771 
2175	 0.26650184996109 
2176	 0.266313500328455 
2177	 0.266149680289008 
2178	 0.265983328737356 
2179	 0.265827173948917 
2180	 0.265676730013673 
2181	 0.265548243279486 
2182	 0.265395564179978 
2183	 0.265235693394475 
2184	 0.265076952748952 
2185	 0.264900895553019 
2186	 0.264690235492567 
2187	 0.26451603760269 
2188	 0.264343485460022 
2189	 0.264190907085196 
2190	 0.264064923468354 
2191	 0.263923256956658 
2192	 0.263788980292538 
2193	 0.263648816309794 
2194	 0.263496902911522 
2195	 0.263358154953332 
2196	 0.263218176957234 
2197	 0.26309527402666 
2198	 0.262983390850303 
2199	 0.262878640590138 
2200	 0.262786861256026 
2201	 0.262699050997059 
2202	 0.262614827027185 
2203	 0.262543703947127 
2204	 0.262476237369893 
2205	 0.262423453046605 
2206	 0.26235822871723 
2207	 0.262277100929077 
2208	 0.262238313031965 
2209	 0.26220224334887 
2210	 0.262201526884798 
2211	 0.262256035128757 
2212	 0.262286341895828 
2213	 0.262336763192547 
2214	 0.262355455800093 
2215	 0.262356630874792 
2216	 0.262363820637728 
2217	 0.262355245840644 
2218	 0.262353220827054 
2219	 0.262354387451837 
2220	 0.262356127590194 
2221	 0.262339036297169 
2222	 0.262357573098127 
2223	 0.262376688386911 
2224	 0.2623898415301 
2225	 0.262389195817177 
2226	 0.262376763565143 
2227	 0.262373499675729 
2228	 0.262378810816589 
2229	 0.262344532693999 
2230	 0.26230443496327 
2231	 0.262252168934752 
2232	 0.262153327283715 
2233	 0.262075757549966 
2234	 0.261998888388356 
2235	 0.261933935078365 
2236	 0.261881645075395 
2237	 0.261813540287132 
2238	 0.261746783453071 
2239	 0.261686849550724 
2240	 0.261618876994967 
2241	 0.261545623218653 
2242	 0.261483746397187 
2243	 0.261410309297481 
2244	 0.261318708473798 
2245	 0.261232595166374 
2246	 0.261126494874494 
2247	 0.261027623076858 
2248	 0.260918414283517 
2249	 0.260787667194428 
2250	 0.260672902845025 
2251	 0.260571819003058 
2252	 0.260460374484848 
2253	 0.260332251517605 
2254	 0.260231541765483 
2255	 0.260142237761998 
2256	 0.260045139191438 
2257	 0.259961428535476 
2258	 0.259878349906974 
2259	 0.259783299083647 
2260	 0.25970446321204 
2261	 0.259626630391154 
2262	 0.259578583364628 
2263	 0.259563859184147 
2264	 0.259528908273827 
2265	 0.259514234585645 
2266	 0.259486079103382 
2267	 0.259425762980476 
2268	 0.259385861813095 
2269	 0.259355846001553 
2270	 0.259333112430852 
2271	 0.259317413411254 
2272	 0.259304031721093 
2273	 0.259282126194229 
2274	 0.259253555802674 
2275	 0.259200143299903 
2276	 0.259111004755184 
2277	 0.259061233113814 
2278	 0.259008296468626 
2279	 0.258966539139323 
2280	 0.258962925511834 
2281	 0.258920757868582 
2282	 0.258871524685203 
2283	 0.258794209251447 
2284	 0.258665946554949 
2285	 0.258593106673802 
2286	 0.258534297520715 
2287	 0.258465925080875 
2288	 0.258439460115072 
2289	 0.258375543533549 
2290	 0.25825501193039 
2291	 0.258171002656428 
2292	 0.258073970273441 
2293	 0.258026298913048 
2294	 0.258058021170177 
2295	 0.258027904807618 
2296	 0.257975815242912 
2297	 0.257961002345648 
2298	 0.257919000266434 
2299	 0.257852473224609 
2300	 0.257803206605854 
2301	 0.257755864494174 
2302	 0.257676730602423 
2303	 0.257560461166677 
2304	 0.257473610351662 
2305	 0.257400455852057 
2306	 0.257309352443905 
2307	 0.257209297099474 
2308	 0.257116646514051 
2309	 0.25701828412153 
2310	 0.256919480439686 
2311	 0.256837799182705 
2312	 0.256725827381856 
2313	 0.256589491626834 
2314	 0.256457198787507 
2315	 0.256293549586019 
2316	 0.256171576410275 
2317	 0.256067687521436 
2318	 0.255981227758604 
2319	 0.255936744683159 
2320	 0.255849527858137 
2321	 0.255742946450098 
2322	 0.255666055029076 
2323	 0.255604410759015 
2324	 0.255525245808606 
2325	 0.255456938480644 
2326	 0.25535967385703 
2327	 0.255233275565184 
2328	 0.255090205476026 
2329	 0.254940884300278 
2330	 0.254868904282983 
2331	 0.254799780338059 
2332	 0.254684180566985 
2333	 0.254543398887578 
2334	 0.254432975538149 
2335	 0.254341150104643 
2336	 0.254226298457016 
2337	 0.25411637523106 
2338	 0.253996311801335 
2339	 0.253818184880064 
2340	 0.253652336110964 
2341	 0.253508576730688 
2342	 0.253327316437964 
2343	 0.253172051569203 
2344	 0.252971523536009 
2345	 0.252788095612164 
2346	 0.252633805246569 
2347	 0.252424934044322 
2348	 0.252184992132277 
2349	 0.251962782041214 
2350	 0.251724075676563 
2351	 0.251472583234375 
2352	 0.251208072534133 
2353	 0.250951656541992 
2354	 0.250670754565683 
2355	 0.250406494538961 
2356	 0.250177203540208 
2357	 0.249940470069628 
2358	 0.249683017811824 
2359	 0.249440474495141 
2360	 0.249216289231163 
2361	 0.248986416519421 
2362	 0.248798541362585 
2363	 0.24854591117403 
2364	 0.248243597728955 
2365	 0.24793876653847 
2366	 0.247569488253555 
2367	 0.247238339249964 
2368	 0.246932243833888 
2369	 0.246650000535127 
2370	 0.246407365006716 
2371	 0.246115964226526 
2372	 0.245811586712139 
2373	 0.245456319627118 
2374	 0.245063390771536 
2375	 0.24470811578912 
2376	 0.244370745412824 
2377	 0.244042440379147 
2378	 0.243705730368886 
2379	 0.243363902552311 
2380	 0.243064055256881 
2381	 0.242722356559898 
2382	 0.242372850032567 
2383	 0.242083549990164 
2384	 0.2417716474241 
2385	 0.241485943227681 
2386	 0.241201899485741 
2387	 0.240790910249471 
2388	 0.240348044897966 
2389	 0.239941216297768 
2390	 0.239630982846513 
2391	 0.239438417212406 
2392	 0.239147643408079 
2393	 0.238837787545884 
2394	 0.238512741548151 
2395	 0.238081841880256 
2396	 0.237736491809648 
2397	 0.237402582665784 
2398	 0.237010907687675 
2399	 0.236573803618426 
2400	 0.236131465014788 
2401	 0.235759345114529 
2402	 0.235317553681153 
2403	 0.234912171102342 
2404	 0.234577758428304 
2405	 0.234131790095854 
2406	 0.233755802613786 
2407	 0.233486718090483 
2408	 0.233186421031305 
2409	 0.232879054071235 
2410	 0.232559716308944 
2411	 0.232178285458157 
2412	 0.231769093811742 
2413	 0.231415345210993 
2414	 0.231035540002139 
2415	 0.230566108606655 
2416	 0.23012816716201 
2417	 0.229649067741386 
2418	 0.229220438893167 
2419	 0.228843828681072 
2420	 0.22844339817641 
2421	 0.228063965995705 
2422	 0.227615262915743 
2423	 0.227086361943869 
2424	 0.226655575298368 
2425	 0.226223148341745 
2426	 0.225791103581948 
2427	 0.225469814702829 
2428	 0.225071804980518 
2429	 0.224568529150134 
2430	 0.224181042622974 
2431	 0.223858331663112 
2432	 0.223483103957796 
2433	 0.223131745133483 
2434	 0.22276861950638 
2435	 0.22238019293167 
2436	 0.221997902831679 
2437	 0.22165133272354 
2438	 0.221242224705947 
2439	 0.220718801529235 
2440	 0.220297934031423 
2441	 0.219962863662667 
2442	 0.219590666919901 
2443	 0.219259571919111 
2444	 0.218887436677235 
2445	 0.218413629342894 
2446	 0.218013547478341 
2447	 0.217696712561567 
2448	 0.217277041237839 
2449	 0.216818753959986 
2450	 0.216381766588038 
2451	 0.215912161030385 
2452	 0.215466181983856 
2453	 0.21507566308114 
2454	 0.214632300918974 
2455	 0.214048037452319 
2456	 0.213569092929899 
2457	 0.213217025191653 
2458	 0.212748075209554 
2459	 0.212276986533728 
2460	 0.211805586357496 
2461	 0.211255467457625 
2462	 0.210796520898867 
2463	 0.210364733963936 
2464	 0.209970532931502 
2465	 0.209587470550898 
2466	 0.209235869322949 
2467	 0.208964070864704 
2468	 0.208598941423352 
2469	 0.20829988172164 
2470	 0.207853892806573 
2471	 0.207361778270552 
2472	 0.206905263947749 
2473	 0.206413553142329 
2474	 0.205879875774489 
2475	 0.205372950544017 
2476	 0.205005374760026 
2477	 0.204581169425215 
2478	 0.20415817104415 
2479	 0.203831868870376 
2480	 0.203459609990004 
2481	 0.203105987369466 
2482	 0.202735445400397 
2483	 0.202512488261634 
2484	 0.202312120963899 
2485	 0.201936695242913 
2486	 0.201560660870411 
2487	 0.201047168567513 
2488	 0.200622482383338 
2489	 0.200359013779051 
2490	 0.200067341181735 
2491	 0.1998226135288 
2492	 0.199496520693508 
2493	 0.199116527244713 
2494	 0.198718263147741 
2495	 0.198281137307221 
2496	 0.197932691734095 
2497	 0.197553987429299 
2498	 0.197290964934298 
2499	 0.197256235736565 
2500	 0.197062015378935 
