Wavelength	MM1000018.asd
350	 5.82183544400156E-02 
351	 5.41704638819319E-02 
352	 4.43269005248056E-02 
353	 0.039809339546864 
354	 3.60257552975938E-02 
355	 4.02986152008277E-02 
356	 4.38294107780296E-02 
357	 4.04087929363197E-02 
358	 4.96600471229082E-02 
359	 5.17551032425863E-02 
360	 4.74281864901654E-02 
361	 4.97486805351017E-02 
362	 0.048014100086239 
363	 4.56607856325627E-02 
364	 4.50831147918067E-02 
365	 4.41925739534164E-02 
366	 4.73432597578034E-02 
367	 4.84690913071724E-02 
368	 4.36207265995054E-02 
369	 4.87832815301617E-02 
370	 4.97484713511818E-02 
371	 4.60166732912462E-02 
372	 4.64358867764692E-02 
373	 4.60382319987555E-02 
374	 4.84239434872028E-02 
375	 5.28315765832588E-02 
376	 4.92049247977565E-02 
377	 4.60500911421076E-02 
378	 4.61715334932733E-02 
379	 4.93597293562764E-02 
380	 5.14134498971218E-02 
381	 5.03411045777786E-02 
382	 4.84235288272115E-02 
383	 5.03341958940272E-02 
384	 4.87133024129591E-02 
385	 4.74553934416313E-02 
386	 4.91483847553673E-02 
387	 5.11001081620672E-02 
388	 5.11225931399195E-02 
389	 5.10598313763745E-02 
390	 5.26740190327809E-02 
391	 4.99700803317074E-02 
392	 4.96576906122252E-02 
393	 5.25395973327575E-02 
394	 5.41402291732702E-02 
395	 5.52450874711809E-02 
396	 5.58875818957176E-02 
397	 5.59080056449992E-02 
398	 5.45184997239377E-02 
399	 5.49482100780699E-02 
400	 5.63239951308974E-02 
401	 5.66003889999257E-02 
402	 0.056877364796459 
403	 5.64007566587936E-02 
404	 5.52534094363677E-02 
405	 5.44236607356305E-02 
406	 5.52614755874894E-02 
407	 5.64523164678321E-02 
408	 0.056686405631951 
409	 5.59020142982244E-02 
410	 5.59498509374316E-02 
411	 5.65172930369047E-02 
412	 5.65326863486564E-02 
413	 5.78590727048141E-02 
414	 5.80014237070544E-02 
415	 5.67692868477139E-02 
416	 5.72907651073372E-02 
417	 5.74883687249034E-02 
418	 5.76718575920147E-02 
419	 5.82379765240251E-02 
420	 5.79772719255302E-02 
421	 5.71804247024279E-02 
422	 5.69822446986228E-02 
423	 0.058620988889659 
424	 5.86127916232112E-02 
425	 5.79856599264966E-02 
426	 5.77290461535158E-02 
427	 5.76544314093665E-02 
428	 5.74640208783932E-02 
429	 0.057465237918313 
430	 5.79350299399195E-02 
431	 5.80313711603754E-02 
432	 5.77900781846352E-02 
433	 5.74151454102132E-02 
434	 5.72105780012089E-02 
435	 0.05736331917985 
436	 5.74049830540317E-02 
437	 5.70476064368879E-02 
438	 5.67213222333774E-02 
439	 5.70150041723947E-02 
440	 5.74592997166845E-02 
441	 5.71989772724103E-02 
442	 5.70151779628133E-02 
443	 5.70036344761944E-02 
444	 5.70656502756945E-02 
445	 5.69151692990635E-02 
446	 5.70334532655437E-02 
447	 5.72022006337226E-02 
448	 5.71566117979483E-02 
449	 5.73361323908179E-02 
450	 5.75873249450554E-02 
451	 5.77705011213215E-02 
452	 5.77776541114661E-02 
453	 5.74947079881992E-02 
454	 5.73447689382958E-02 
455	 5.75565594068365E-02 
456	 0.057702932563534 
457	 5.77234069582258E-02 
458	 5.75155707203943E-02 
459	 5.71013449044033E-02 
460	 5.74160337167702E-02 
461	 5.74409304959252E-02 
462	 5.69960154160087E-02 
463	 5.73113568373408E-02 
464	 0.057477475751024 
465	 5.75258086750905E-02 
466	 5.76379566919346E-02 
467	 5.75016852554562E-02 
468	 0.057616370201344 
469	 5.77900940455749E-02 
470	 5.73372874651924E-02 
471	 5.71544957699638E-02 
472	 5.71755172828444E-02 
473	 5.72314634774583E-02 
474	 5.73354743947146E-02 
475	 5.74309014110051E-02 
476	 5.73940452253151E-02 
477	 0.0571626004371 
478	 5.72770267604518E-02 
479	 5.74535540246505E-02 
480	 5.74988298021627E-02 
481	 5.74463606125739E-02 
482	 5.74376620353917E-02 
483	 5.74653055202548E-02 
484	 5.74770221020178E-02 
485	 5.74382525309915E-02 
486	 5.74120421875557E-02 
487	 5.73756559019557E-02 
488	 5.72499089822473E-02 
489	 5.73047559594253E-02 
490	 5.73398122811239E-02 
491	 5.72252793575998E-02 
492	 5.72180100129036E-02 
493	 5.70992097802534E-02 
494	 5.69972733779873E-02 
495	 5.71517398044976E-02 
496	 0.057350376448247 
497	 5.73695163081288E-02 
498	 0.05724269775635 
499	 5.73800233828959E-02 
500	 5.73891435193389E-02 
501	 0.057310402006359 
502	 5.72726107816833E-02 
503	 5.71987574957797E-02 
504	 5.71376852768071E-02 
505	 5.70956290273093E-02 
506	 5.70430171866349E-02 
507	 5.71364415836509E-02 
508	 5.72780782578591E-02 
509	 5.73486629380342E-02 
510	 5.73139535302163E-02 
511	 5.71909418960985E-02 
512	 5.70448173240093E-02 
513	 5.69852672009522E-02 
514	 5.72863037816766E-02 
515	 5.74936746924489E-02 
516	 5.74174717768417E-02 
517	 5.74495333698119E-02 
518	 5.73637602647674E-02 
519	 5.72620130659802E-02 
520	 5.73075920389803E-02 
521	 5.74277433277698E-02 
522	 5.75827600879327E-02 
523	 5.76427390806214E-02 
524	 5.73954725809481E-02 
525	 0.05744803289301 
526	 0.057552337959861 
527	 5.74399318290957E-02 
528	 5.74110218501697E-02 
529	 5.74729828814238E-02 
530	 5.75798638050518E-02 
531	 5.76497140501267E-02 
532	 5.76310616912846E-02 
533	 5.76908068210666E-02 
534	 5.78696431715158E-02 
535	 5.78801670279122E-02 
536	 5.78989212343113E-02 
537	 5.79380481787668E-02 
538	 5.79696656689634E-02 
539	 5.81398072003906E-02 
540	 0.058205485728066 
541	 5.81435138183484E-02 
542	 5.82558144487089E-02 
543	 5.83797419198048E-02 
544	 5.85081932712547E-02 
545	 5.86454598350594E-02 
546	 5.86749370158381E-02 
547	 5.87515447084112E-02 
548	 5.88932205837723E-02 
549	 5.89961694253679E-02 
550	 5.90359793635047E-02 
551	 5.90744742533552E-02 
552	 5.91805188019229E-02 
553	 5.94197303568424E-02 
554	 5.95291853097453E-02 
555	 5.96058643893179E-02 
556	 5.98970152036842E-02 
557	 6.01109679665786E-02 
558	 6.03263683227228E-02 
559	 6.06108841808893E-02 
560	 6.09485657864793E-02 
561	 6.12043619327303E-02 
562	 6.14236835204874E-02 
563	 6.17054966152174E-02 
564	 6.20529051340809E-02 
565	 6.23255879360191E-02 
566	 0.062532583083849 
567	 6.28547468171523E-02 
568	 6.32816639771662E-02 
569	 6.37632775495842E-02 
570	 6.42526481022649E-02 
571	 6.47657451021083E-02 
572	 6.53013788675855E-02 
573	 6.58631325884179E-02 
574	 6.64512163316449E-02 
575	 6.69833191445488E-02 
576	 0.067525988802994 
577	 6.81254031286705E-02 
578	 6.87272634397813E-02 
579	 6.93847925407766E-02 
580	 7.00665875847517E-02 
581	 7.07302539183564E-02 
582	 7.15215106991629E-02 
583	 7.23042733585964E-02 
584	 7.30736751528538E-02 
585	 7.40522699382165E-02 
586	 7.49540102461921E-02 
587	 7.57966752912894E-02 
588	 7.66796883058607E-02 
589	 7.76337285821943E-02 
590	 0.078616090463722 
591	 7.96039805762307E-02 
592	 8.06031762924762E-02 
593	 8.16739916697474E-02 
594	 8.28075840303096E-02 
595	 8.39417262210589E-02 
596	 8.49209136913649E-02 
597	 8.58212079821516E-02 
598	 8.66809526484633E-02 
599	 8.75301046929034E-02 
600	 0.088453016432749 
601	 8.93697188778489E-02 
602	 9.02213198676166E-02 
603	 9.10189835144928E-02 
604	 9.19105894559989E-02 
605	 9.28403645900378E-02 
606	 9.36886228900168E-02 
607	 9.44548217435087E-02 
608	 9.52200285821893E-02 
609	 9.60193835634553E-02 
610	 9.68287520655133E-02 
611	 9.75716233907819E-02 
612	 9.82304709151087E-02 
613	 9.88143471839903E-02 
614	 9.93541869540048E-02 
615	 9.99107025729144E-02 
616	 0.100476161695578 
617	 0.100992140182238 
618	 0.101463324776027 
619	 0.10190119329358 
620	 0.10232172602139 
621	 0.102745209957051 
622	 0.103145110010195 
623	 0.103529469853745 
624	 0.103916717953137 
625	 0.104297107951395 
626	 0.104615819175333 
627	 0.104891268689203 
628	 0.105240685573443 
629	 0.10558470108909 
630	 0.105893475384376 
631	 0.106164050337778 
632	 0.10643968108993 
633	 0.106717239467745 
634	 0.106986039182741 
635	 0.107235044545988 
636	 0.107537297040855 
637	 0.107827296179689 
638	 0.10806307732759 
639	 0.108316690746419 
640	 0.108597478025593 
641	 0.108914194337441 
642	 0.109254882640894 
643	 0.109490386037913 
644	 0.10974518875365 
645	 0.110066240661499 
646	 0.110351522827432 
647	 0.110684937346302 
648	 0.11099466477953 
649	 0.11122896656873 
650	 0.111613512373502 
651	 0.111978609453638 
652	 0.112293508486331 
653	 0.112653789305345 
654	 0.112997929222057 
655	 0.113340321533604 
656	 0.113700908031601 
657	 0.114076099523818 
658	 0.114497187038438 
659	 0.114913113335168 
660	 0.115253918439684 
661	 0.115637580739374 
662	 0.116042342261849 
663	 0.116459499572873 
664	 0.116920677031089 
665	 0.117360918292692 
666	 0.117791327083724 
667	 0.118248540171253 
668	 0.118772440294834 
669	 0.119275418494492 
670	 0.11976136179231 
671	 0.120305826970881 
672	 0.120837259726475 
673	 0.121348450473058 
674	 0.121862427249633 
675	 0.122452773433254 
676	 0.123028043716851 
677	 0.123604658344859 
678	 0.124228436504214 
679	 0.124787107395861 
680	 0.125393740208635 
681	 0.126066898599946 
682	 0.126678921333492 
683	 0.127345183121831 
684	 0.12800991639466 
685	 0.128624649071284 
686	 0.129329835600278 
687	 0.130043458076482 
688	 0.130755830386766 
689	 0.131504970965681 
690	 0.132245883623649 
691	 0.132963817358448 
692	 0.133679514938457 
693	 0.134482142428383 
694	 0.135261273891965 
695	 0.136026186157718 
696	 0.136820027601742 
697	 0.137606110312508 
698	 0.138416053579283 
699	 0.139239534074458 
700	 0.140023836430779 
701	 0.140884530385358 
702	 0.141764569544189 
703	 0.142604894140091 
704	 0.143454965627059 
705	 0.144242769447319 
706	 0.145043799053236 
707	 0.145973220462266 
708	 0.146799929002768 
709	 0.147613154891768 
710	 0.14847149111731 
711	 0.149343589128103 
712	 0.150127107350166 
713	 0.15090559774974 
714	 0.151768998657773 
715	 0.152613447926308 
716	 0.153403389557571 
717	 0.154171783685355 
718	 0.154990712562692 
719	 0.155772852504338 
720	 0.156530314667821 
721	 0.157279721207819 
722	 0.158022972762427 
723	 0.158710230793913 
724	 0.159378205647587 
725	 0.160067006938073 
726	 0.16065786501066 
727	 0.161270556773461 
728	 0.161901147675385 
729	 0.162429002741405 
730	 0.163001607888037 
731	 0.163515132700203 
732	 0.163918148587287 
733	 0.164394621568419 
734	 0.164839466895256 
735	 0.165225264797941 
736	 0.16556045936726 
737	 0.165880728227071 
738	 0.16614861843646 
739	 0.166365425890992 
740	 0.166578352540461 
741	 0.166761063646358 
742	 0.166911696275948 
743	 0.167035347574038 
744	 0.167149055952727 
745	 0.167184329851311 
746	 0.167177105662959 
747	 0.167191948430996 
748	 0.16710839224538 
749	 0.166965304653638 
750	 0.166820598439603 
751	 0.166733732807716 
752	 0.166561048159471 
753	 0.166342675371393 
754	 0.166131159884768 
755	 0.165884956088441 
756	 0.165581508449441 
757	 0.16525049500088 
758	 0.164936291304161 
759	 0.164565169071166 
760	 0.164181629463064 
761	 0.163809089284948 
762	 0.163430863115465 
763	 0.162971395611948 
764	 0.162493271026 
765	 0.162053159926685 
766	 0.161589083604694 
767	 0.161093515589529 
768	 0.160576075980233 
769	 0.160055585947246 
770	 0.159539610642114 
771	 0.159021666009933 
772	 0.158485533699306 
773	 0.157907948723092 
774	 0.157333115644848 
775	 0.156772379563043 
776	 0.15622132252769 
777	 0.155658549452234 
778	 0.155080337688639 
779	 0.154503916556623 
780	 0.153947392914517 
781	 0.153367995411372 
782	 0.152799207219504 
783	 0.152244910989804 
784	 0.151674387452948 
785	 0.151107143405538 
786	 0.150553658724495 
787	 0.150009965571748 
788	 0.149436320050146 
789	 0.148898676534038 
790	 0.148377693119539 
791	 0.14783240056627 
792	 0.147296671990782 
793	 0.146751882742723 
794	 0.146200908148453 
795	 0.145666487568513 
796	 0.145143216284466 
797	 0.14462169585974 
798	 0.144107263823097 
799	 0.14363501660309 
800	 0.143151328730298 
801	 0.142669313022404 
802	 0.142209786019028 
803	 0.141740867715541 
804	 0.141266694104486 
805	 0.140797608531041 
806	 0.140347637925478 
807	 0.139916118256525 
808	 0.139490027332031 
809	 0.139061273064999 
810	 0.138629191896866 
811	 0.138205953633694 
812	 0.13778136133653 
813	 0.137362969081991 
814	 0.137022332727067 
815	 0.136691309243664 
816	 0.136340584725661 
817	 0.135962704602783 
818	 0.135561345777746 
819	 0.135223050249564 
820	 0.134938981679882 
821	 0.13461846062265 
822	 0.134263368329525 
823	 0.133939600309082 
824	 0.133669856740929 
825	 0.13338937935814 
826	 0.133150406009803 
827	 0.13288672576095 
828	 0.132553898672477 
829	 0.132266370179134 
830	 0.132049864259597 
831	 0.131858131660956 
832	 0.131623047253431 
833	 0.131394856570534 
834	 0.131197287236147 
835	 0.13101105016437 
836	 0.130788607854325 
837	 0.130648494697355 
838	 0.130495866266664 
839	 0.13027461257765 
840	 0.130052096727622 
841	 0.129878831617593 
842	 0.129761763850085 
843	 0.129686394899953 
844	 0.129640096483616 
845	 0.129505305869958 
846	 0.129343720757824 
847	 0.129267914856822 
848	 0.1291369014243 
849	 0.129022710324586 
850	 0.128937682791919 
851	 0.128839784871776 
852	 0.12879176185471 
853	 0.128778127369515 
854	 0.128778120779636 
855	 0.128781083355481 
856	 0.128737352788862 
857	 0.128701128365493 
858	 0.128706924213908 
859	 0.128668606779732 
860	 0.128680253794857 
861	 0.128695525447603 
862	 0.128663850674334 
863	 0.128746558195209 
864	 0.128805741395029 
865	 0.128843693184091 
866	 0.128933133064705 
867	 0.12893759842513 
868	 0.128994593357113 
869	 0.129138002434398 
870	 0.129269534559163 
871	 0.129334723073952 
872	 0.12940358741517 
873	 0.12949766043573 
874	 0.129525131966545 
875	 0.129664471512084 
876	 0.129838607488008 
877	 0.129955004161812 
878	 0.13004728844332 
879	 0.130242468767325 
880	 0.130454995380879 
881	 0.130582764241781 
882	 0.13080509894893 
883	 0.13100475969553 
884	 0.131185129520642 
885	 0.13140898876577 
886	 0.131636669334969 
887	 0.131854925090592 
888	 0.132090981168636 
889	 0.132384867159727 
890	 0.132572710611098 
891	 0.132782100749842 
892	 0.133090697037685 
893	 0.133454539219419 
894	 0.133676276596861 
895	 0.13392661479229 
896	 0.134295466521857 
897	 0.134594215543504 
898	 0.13490635314137 
899	 0.135248820696389 
900	 0.135616312062446 
901	 0.135986321294775 
902	 0.136364334841384 
903	 0.136732368989906 
904	 0.137079400736446 
905	 0.137442853595077 
906	 0.137832466517779 
907	 0.138251656844063 
908	 0.138696190212882 
909	 0.139149297602176 
910	 0.139605583710115 
911	 0.140058306269261 
912	 0.140505982700199 
913	 0.140987689950183 
914	 0.141486685123388 
915	 0.14197149526655 
916	 0.142415842655424 
917	 0.142896198791661 
918	 0.143424888853498 
919	 0.143982235469213 
920	 0.144523510722232 
921	 0.14504143628693 
922	 0.145619119925604 
923	 0.146260864315773 
924	 0.146840775272942 
925	 0.1473675446081 
926	 0.14795976573814 
927	 0.148638779501105 
928	 0.149208083680506 
929	 0.149870611915706 
930	 0.150566642286187 
931	 0.151218313857162 
932	 0.151863733759475 
933	 0.152607209535721 
934	 0.153372887944382 
935	 0.154074427303028 
936	 0.154756901502993 
937	 0.155493125673681 
938	 0.156263088588015 
939	 0.157026603741549 
940	 0.157798449861813 
941	 0.158673545207779 
942	 0.159536746236197 
943	 0.160273759202344 
944	 0.161108405888483 
945	 0.162030951705229 
946	 0.162959338481388 
947	 0.163808087617799 
948	 0.164645661746011 
949	 0.165431897123085 
950	 0.166232484527123 
951	 0.167159093714655 
952	 0.168260231038245 
953	 0.169325126876998 
954	 0.170273022616801 
955	 0.171149608672187 
956	 0.172139556332385 
957	 0.173129839664017 
958	 0.174104119436986 
959	 0.175116138118496 
960	 0.176193317059072 
961	 0.177292070732221 
962	 0.178409307072637 
963	 0.179549352371968 
964	 0.180576701864015 
965	 0.181652653149949 
966	 0.18274981990904 
967	 0.183750718461362 
968	 0.184882145419261 
969	 0.186062169509695 
970	 0.187214489975232 
971	 0.188301458680307 
972	 0.189380071871641 
973	 0.190551770939397 
974	 0.191808020940648 
975	 0.193073252716876 
976	 0.194400271762979 
977	 0.195538123462292 
978	 0.19658730767934 
979	 0.197834899418577 
980	 0.19915685589145 
981	 0.200456179497321 
982	 0.201710347339879 
983	 0.202952871566923 
984	 0.204214898922216 
985	 0.20545889144417 
986	 0.206673810797297 
987	 0.207879806887482 
988	 0.209153819477893 
989	 0.210374195741116 
990	 0.211559719288015 
991	 0.212810758665984 
992	 0.214204776096118 
993	 0.2154841650589 
994	 0.216704726674378 
995	 0.217987531543866 
996	 0.219047108776961 
997	 0.220317812569162 
998	 0.221683551478916 
999	 0.222918823064081 
1000	 0.224294192456717 
1001	 0.221101763547072 
1002	 0.222250705011837 
1003	 0.223382869076889 
1004	 0.224535232781052 
1005	 0.225722293412973 
1006	 0.226890377352174 
1007	 0.228073317382302 
1008	 0.229207010579378 
1009	 0.23028282048329 
1010	 0.231381760900019 
1011	 0.232574736927716 
1012	 0.233738429549141 
1013	 0.23486277011587 
1014	 0.235989120333472 
1015	 0.237044321281907 
1016	 0.23808790876786 
1017	 0.239158919911236 
1018	 0.240257574170357 
1019	 0.241337749447266 
1020	 0.242365561929354 
1021	 0.243384996765024 
1022	 0.244380793635509 
1023	 0.245345197890199 
1024	 0.246370305277937 
1025	 0.247374374522226 
1026	 0.248347573841134 
1027	 0.249350071971648 
1028	 0.250342446719976 
1029	 0.251352835161172 
1030	 0.252328477344903 
1031	 0.253273403937094 
1032	 0.254203568157035 
1033	 0.255111163145648 
1034	 0.25597246341695 
1035	 0.256864879083723 
1036	 0.257754395182284 
1037	 0.258641992720471 
1038	 0.25954843396781 
1039	 0.260427493214028 
1040	 0.261304828629551 
1041	 0.262141569350152 
1042	 0.262952490600923 
1043	 0.26379405612767 
1044	 0.264637869059453 
1045	 0.265488162215155 
1046	 0.266352160299354 
1047	 0.267199174953768 
1048	 0.268061680835 
1049	 0.268931788670865 
1050	 0.269758581150889 
1051	 0.270629472548325 
1052	 0.271473929881683 
1053	 0.272263698464204 
1054	 0.273120093372165 
1055	 0.273908041417716 
1056	 0.274668471792653 
1057	 0.275461414784288 
1058	 0.276227451386436 
1059	 0.276996636737069 
1060	 0.277789829390635 
1061	 0.278625355875439 
1062	 0.279355441681573 
1063	 0.280139067509987 
1064	 0.280911222086651 
1065	 0.28159637109404 
1066	 0.282276385563953 
1067	 0.282960941242346 
1068	 0.283661998222784 
1069	 0.284376338321601 
1070	 0.285095960902368 
1071	 0.285858995219763 
1072	 0.286569795938875 
1073	 0.287241251116463 
1074	 0.287936042575204 
1075	 0.288626323701754 
1076	 0.289293357591101 
1077	 0.289969675080668 
1078	 0.290643461685219 
1079	 0.291335683027261 
1080	 0.292049323173892 
1081	 0.292759905261039 
1082	 0.293447880200753 
1083	 0.294087641146665 
1084	 0.294628515440914 
1085	 0.295256913014917 
1086	 0.295892641854631 
1087	 0.296550256541372 
1088	 0.297237953186819 
1089	 0.297944669369413 
1090	 0.298648450341029 
1091	 0.29928746088408 
1092	 0.299942930855539 
1093	 0.300616809117396 
1094	 0.301246553750028 
1095	 0.301879903933525 
1096	 0.302502182180774 
1097	 0.303129664328987 
1098	 0.303785486000651 
1099	 0.304467436429394 
1100	 0.305133726047155 
1101	 0.305814117973115 
1102	 0.30648863876503 
1103	 0.307135480876279 
1104	 0.307827036320792 
1105	 0.308557732026937 
1106	 0.309273671839867 
1107	 0.309965820835869 
1108	 0.310695423662036 
1109	 0.311404651413168 
1110	 0.312093761128335 
1111	 0.312808563704017 
1112	 0.313553777967056 
1113	 0.314258945308791 
1114	 0.314927738189751 
1115	 0.31566754594868 
1116	 0.316437203337333 
1117	 0.317190612774433 
1118	 0.317993296414994 
1119	 0.318751305281838 
1120	 0.319464163144061 
1121	 0.320188578096652 
1122	 0.320928704933219 
1123	 0.321659385668176 
1124	 0.322393449156487 
1125	 0.323136478007636 
1126	 0.323865897297332 
1127	 0.324578717000049 
1128	 0.325317386742142 
1129	 0.326067427574771 
1130	 0.326798945423771 
1131	 0.327545466109514 
1132	 0.328275694518865 
1133	 0.328992695414684 
1134	 0.32969380585297 
1135	 0.330388290613236 
1136	 0.331061002765201 
1137	 0.331725621225746 
1138	 0.332404043835256 
1139	 0.33308642434949 
1140	 0.333792224304263 
1141	 0.33446248713844 
1142	 0.335124849778283 
1143	 0.335778852553154 
1144	 0.336417835307166 
1145	 0.337042340614542 
1146	 0.337655532282799 
1147	 0.338269597977854 
1148	 0.338868162031759 
1149	 0.339466597202372 
1150	 0.340071924527429 
1151	 0.340665248879253 
1152	 0.341236059190035 
1153	 0.341824185944274 
1154	 0.342402420070492 
1155	 0.342981637487979 
1156	 0.343545946647228 
1157	 0.344095836324512 
1158	 0.344657934737077 
1159	 0.345239127445012 
1160	 0.345783055714474 
1161	 0.346318665425907 
1162	 0.346840133293972 
1163	 0.347336666079109 
1164	 0.347818212376877 
1165	 0.348264957235991 
1166	 0.34875660756247 
1167	 0.349230342485062 
1168	 0.349693739920008 
1169	 0.350158766710084 
1170	 0.350637679469076 
1171	 0.351099396451956 
1172	 0.351542221660693 
1173	 0.351996529729199 
1174	 0.352470080049281 
1175	 0.352911233686485 
1176	 0.353332553786136 
1177	 0.353760140547773 
1178	 0.354176046054092 
1179	 0.35458769283087 
1180	 0.355012093388292 
1181	 0.355417832927661 
1182	 0.355805069266163 
1183	 0.356195954608001 
1184	 0.356556651631087 
1185	 0.356889175093317 
1186	 0.357249695231851 
1187	 0.357598817304226 
1188	 0.357958182215365 
1189	 0.35835953097613 
1190	 0.35870676461631 
1191	 0.359013644994306 
1192	 0.359343449906255 
1193	 0.359661649563948 
1194	 0.359983479307761 
1195	 0.360331639847846 
1196	 0.360652882166428 
1197	 0.360949482170231 
1198	 0.361250452234824 
1199	 0.361546960569951 
1200	 0.361828631553125 
1201	 0.36213065796806 
1202	 0.36245476474636 
1203	 0.362737739050167 
1204	 0.363020393342487 
1205	 0.363277821161726 
1206	 0.363493988882332 
1207	 0.36372685915707 
1208	 0.363947429184417 
1209	 0.364184131628843 
1210	 0.364439345224742 
1211	 0.364672429192489 
1212	 0.36490441901808 
1213	 0.365132337625032 
1214	 0.365339573339704 
1215	 0.365551840690208 
1216	 0.365765683002202 
1217	 0.365996499512902 
1218	 0.366189555505257 
1219	 0.366358675720829 
1220	 0.366546686834259 
1221	 0.366722306726191 
1222	 0.366905434880572 
1223	 0.367106473213802 
1224	 0.367295022822814 
1225	 0.367470615695984 
1226	 0.367652073417487 
1227	 0.367851273041673 
1228	 0.368024365768063 
1229	 0.36817070775805 
1230	 0.368335849145882 
1231	 0.368507062971524 
1232	 0.368661644669445 
1233	 0.368813158624606 
1234	 0.368975283569989 
1235	 0.369124746218829 
1236	 0.36925437766981 
1237	 0.369390926969876 
1238	 0.369533513922684 
1239	 0.369670170018594 
1240	 0.369796785619846 
1241	 0.369926453382302 
1242	 0.370068732906715 
1243	 0.370191025972142 
1244	 0.370292453581831 
1245	 0.370407484352923 
1246	 0.37051875703082 
1247	 0.370631511277175 
1248	 0.37075405320372 
1249	 0.37087592345294 
1250	 0.370968981454672 
1251	 0.371084812947379 
1252	 0.371197312868367 
1253	 0.371310869113595 
1254	 0.371419460743304 
1255	 0.371531034762922 
1256	 0.371641645283391 
1257	 0.371750667824228 
1258	 0.371856088472455 
1259	 0.371965220008899 
1260	 0.372067092447046 
1261	 0.372152546500536 
1262	 0.372248790102582 
1263	 0.372344226263844 
1264	 0.372450233829739 
1265	 0.372587583809442 
1266	 0.372690805960762 
1267	 0.372777059886517 
1268	 0.372867167310241 
1269	 0.372948175214502 
1270	 0.372994906686068 
1271	 0.373080094938245 
1272	 0.373185874226502 
1273	 0.373278747620689 
1274	 0.373379617321666 
1275	 0.373473937043194 
1276	 0.373549118567088 
1277	 0.373658816782794 
1278	 0.373788090163128 
1279	 0.373906301173925 
1280	 0.37404656941147 
1281	 0.37416995613164 
1282	 0.374285588056242 
1283	 0.374390670923436 
1284	 0.374488699522024 
1285	 0.374578968048059 
1286	 0.374671711460725 
1287	 0.374749864070044 
1288	 0.374816311090613 
1289	 0.374881852671232 
1290	 0.374932104962329 
1291	 0.374948335319198 
1292	 0.374997310941535 
1293	 0.375074238146795 
1294	 0.375105237633651 
1295	 0.375125059175013 
1296	 0.37513837233073 
1297	 0.375117558328189 
1298	 0.375108321826518 
1299	 0.375109454237843 
1300	 0.375102210613493 
1301	 0.375099990939131 
1302	 0.375065074953342 
1303	 0.375007857608844 
1304	 0.374950632142512 
1305	 0.374882466547757 
1306	 0.374815687636258 
1307	 0.37477899530776 
1308	 0.374753430400384 
1309	 0.374703704381364 
1310	 0.374648743132318 
1311	 0.374580650210139 
1312	 0.374482059163878 
1313	 0.374416843639389 
1314	 0.374346035542511 
1315	 0.374306456399018 
1316	 0.374304338699316 
1317	 0.374287743484407 
1318	 0.374285762212606 
1319	 0.374270912610245 
1320	 0.374239927328363 
1321	 0.374223715515542 
1322	 0.374206740045403 
1323	 0.374201281025657 
1324	 0.374206467412704 
1325	 0.374218635317759 
1326	 0.374214200407939 
1327	 0.374238004885506 
1328	 0.374289646205211 
1329	 0.374330878174818 
1330	 0.374383497750904 
1331	 0.374467767210108 
1332	 0.374518346021024 
1333	 0.374539671989308 
1334	 0.374602566403877 
1335	 0.374669470653136 
1336	 0.374748862580727 
1337	 0.374860667575471 
1338	 0.374956337592228 
1339	 0.375033226323453 
1340	 0.375138692594292 
1341	 0.375260545995259 
1342	 0.375382867392402 
1343	 0.375512617979892 
1344	 0.375671689332819 
1345	 0.375810406367976 
1346	 0.375915957938271 
1347	 0.376012409938789 
1348	 0.376116423629173 
1349	 0.376219161212546 
1350	 0.376332274504738 
1351	 0.376434145322617 
1352	 0.376528417091533 
1353	 0.37664153943064 
1354	 0.376745015373775 
1355	 0.376875954074425 
1356	 0.377058605038224 
1357	 0.377187611570862 
1358	 0.377293942835948 
1359	 0.377420537083614 
1360	 0.377536070723836 
1361	 0.377646467569937 
1362	 0.377778119279392 
1363	 0.377888901770889 
1364	 0.37797355007671 
1365	 0.378063276028234 
1366	 0.378157487735997 
1367	 0.378232464962164 
1368	 0.378328739249091 
1369	 0.378407036248601 
1370	 0.378471336087943 
1371	 0.378547777456388 
1372	 0.378609959100628 
1373	 0.378656025772861 
1374	 0.378693769122534 
1375	 0.378739688648412 
1376	 0.37875270295025 
1377	 0.378734250866385 
1378	 0.378718089678365 
1379	 0.378685508272822 
1380	 0.378659722874875 
1381	 0.378627175676151 
1382	 0.378600565379139 
1383	 0.378586189016472 
1384	 0.378549344426764 
1385	 0.37851019737611 
1386	 0.378457277005144 
1387	 0.378409342770421 
1388	 0.378320642680136 
1389	 0.37821277441693 
1390	 0.378066829453163 
1391	 0.377913282742168 
1392	 0.377740522028231 
1393	 0.377567831068408 
1394	 0.377400684518588 
1395	 0.3772071780577 
1396	 0.376985970839561 
1397	 0.376762225771856 
1398	 0.376516401253708 
1399	 0.376290195631272 
1400	 0.376066901794256 
1401	 0.375835396443891 
1402	 0.375621019370171 
1403	 0.375376046335882 
1404	 0.375100353359644 
1405	 0.374838543846942 
1406	 0.37456597256584 
1407	 0.374300711076115 
1408	 0.374042991827351 
1409	 0.373783356688339 
1410	 0.373501051593566 
1411	 0.373261878548724 
1412	 0.373037043496593 
1413	 0.372832394380313 
1414	 0.37266108125879 
1415	 0.372517338440649 
1416	 0.372400423523778 
1417	 0.372313438504799 
1418	 0.372236452110383 
1419	 0.372149909955323 
1420	 0.37203343364705 
1421	 0.371924684145543 
1422	 0.371837820350871 
1423	 0.371755561672772 
1424	 0.371680004924853 
1425	 0.371623133171279 
1426	 0.371557214450791 
1427	 0.37148544114456 
1428	 0.371426394580348 
1429	 0.371383076713049 
1430	 0.371325060191523 
1431	 0.371253291115526 
1432	 0.371207271607836 
1433	 0.37115429394845 
1434	 0.371127657315604 
1435	 0.371143608793216 
1436	 0.371137194875279 
1437	 0.371135816445507 
1438	 0.371129593441336 
1439	 0.371111159731041 
1440	 0.371098796140052 
1441	 0.371101204730582 
1442	 0.371094958083373 
1443	 0.371095279591367 
1444	 0.371096474238574 
1445	 0.371095754450141 
1446	 0.371109909377284 
1447	 0.371124808996184 
1448	 0.371143617741863 
1449	 0.371167106590391 
1450	 0.371186388554821 
1451	 0.371208756559682 
1452	 0.371235401297 
1453	 0.371263521604736 
1454	 0.371294406954829 
1455	 0.371319337679156 
1456	 0.371345441899871 
1457	 0.371363599870942 
1458	 0.371372994957388 
1459	 0.371390002242415 
1460	 0.371398353302377 
1461	 0.371429868552785 
1462	 0.371469876637769 
1463	 0.371516419868366 
1464	 0.371583564934372 
1465	 0.371643712562734 
1466	 0.371708811976222 
1467	 0.371770202605283 
1468	 0.371828512064584 
1469	 0.37189041675169 
1470	 0.371946880448863 
1471	 0.372010801266386 
1472	 0.372102863299405 
1473	 0.372194140397976 
1474	 0.37228924168764 
1475	 0.372401064067524 
1476	 0.372482288006279 
1477	 0.37256523290253 
1478	 0.372662184811374 
1479	 0.372736499982645 
1480	 0.372834943422816 
1481	 0.372934910961547 
1482	 0.373029219252024 
1483	 0.373138483150952 
1484	 0.373218965239542 
1485	 0.373266372676521 
1486	 0.373353698496831 
1487	 0.373429462830912 
1488	 0.373539287959956 
1489	 0.373698674376879 
1490	 0.373832026055131 
1491	 0.373966253481683 
1492	 0.374105751954507 
1493	 0.374244003262237 
1494	 0.374379890833947 
1495	 0.374526978247959 
1496	 0.374658362220013 
1497	 0.374784034798755 
1498	 0.374903229442163 
1499	 0.375017609669511 
1500	 0.375119448233717 
1501	 0.375199798549126 
1502	 0.375282760146939 
1503	 0.375350235002413 
1504	 0.375440312959075 
1505	 0.375519534791616 
1506	 0.375611392119933 
1507	 0.375702023849258 
1508	 0.37577151625592 
1509	 0.375834819899031 
1510	 0.375908557979755 
1511	 0.375975010170199 
1512	 0.376036673571485 
1513	 0.376131225636206 
1514	 0.376216151495088 
1515	 0.376283091900109 
1516	 0.376357307667184 
1517	 0.376421975331304 
1518	 0.376464316494966 
1519	 0.376525457160631 
1520	 0.376600581408524 
1521	 0.376655262685402 
1522	 0.376695999648676 
1523	 0.376755831921049 
1524	 0.376825635757312 
1525	 0.376879236301338 
1526	 0.376931690315221 
1527	 0.376983995320108 
1528	 0.377013217181176 
1529	 0.377067202592166 
1530	 0.377146021394078 
1531	 0.377214926440703 
1532	 0.377280615623933 
1533	 0.377355190143205 
1534	 0.377432899552307 
1535	 0.377511922207178 
1536	 0.377607037597596 
1537	 0.377686503628582 
1538	 0.377765094157142 
1539	 0.377828039476569 
1540	 0.377871300862708 
1541	 0.377921226005016 
1542	 0.377965041449264 
1543	 0.378007266648466 
1544	 0.378047959967961 
1545	 0.378090196467694 
1546	 0.378121787489939 
1547	 0.378167647972165 
1548	 0.378222341108521 
1549	 0.378280584894873 
1550	 0.378333965231148 
1551	 0.378373981805019 
1552	 0.378407536163134 
1553	 0.378451567979341 
1554	 0.37849724683815 
1555	 0.378541309536215 
1556	 0.378600827029321 
1557	 0.378651891129325 
1558	 0.378699255051859 
1559	 0.378764124885753 
1560	 0.378812461805553 
1561	 0.378850697963055 
1562	 0.378896065275098 
1563	 0.37893724190568 
1564	 0.378985183765261 
1565	 0.37904050082919 
1566	 0.379091676912176 
1567	 0.379139896664194 
1568	 0.379194659723797 
1569	 0.379256748355129 
1570	 0.37930634237872 
1571	 0.37935938637499 
1572	 0.379403567515758 
1573	 0.379428458536442 
1574	 0.379466276240337 
1575	 0.379507810925102 
1576	 0.379548871975271 
1577	 0.379595544575416 
1578	 0.37963666647744 
1579	 0.379678261783691 
1580	 0.379713402626475 
1581	 0.379730899277251 
1582	 0.379771598069528 
1583	 0.379818296992843 
1584	 0.379871450133438 
1585	 0.37994230603462 
1586	 0.380013335126396 
1587	 0.380101094112246 
1588	 0.380161233570643 
1589	 0.380216995015763 
1590	 0.380259988162479 
1591	 0.380268578295441 
1592	 0.380296021379233 
1593	 0.380316883408125 
1594	 0.380360145514391 
1595	 0.380426724596875 
1596	 0.380480354451432 
1597	 0.380554457516921 
1598	 0.38060566422213 
1599	 0.380637732554679 
1600	 0.380666141929291 
1601	 0.380681057606634 
1602	 0.380695449761501 
1603	 0.380697143424483 
1604	 0.380710874665416 
1605	 0.380722788163737 
1606	 0.380747640147245 
1607	 0.380792796661572 
1608	 0.380824597780576 
1609	 0.380873174072276 
1610	 0.380919520758161 
1611	 0.38095199294806 
1612	 0.381024065983157 
1613	 0.381066020543251 
1614	 0.381078653398383 
1615	 0.381100242370413 
1616	 0.381087392692062 
1617	 0.381097727485931 
1618	 0.381141215705427 
1619	 0.381178908766377 
1620	 0.381211631426451 
1621	 0.381222950191029 
1622	 0.381210037426108 
1623	 0.381231573508803 
1624	 0.38124950950734 
1625	 0.381281406387853 
1626	 0.381341947603345 
1627	 0.381385269655936 
1628	 0.38141485180142 
1629	 0.381468995142179 
1630	 0.381541779432958 
1631	 0.38159909896584 
1632	 0.38166237695963 
1633	 0.381714450603243 
1634	 0.381754667483751 
1635	 0.381795924569818 
1636	 0.381846745962733 
1637	 0.381864609141454 
1638	 0.381856585323336 
1639	 0.38187033058302 
1640	 0.381859425218667 
1641	 0.381892607352678 
1642	 0.381977309921041 
1643	 0.382001911430999 
1644	 0.382015659357482 
1645	 0.382030696757416 
1646	 0.382001728490617 
1647	 0.382023666227446 
1648	 0.382081166919198 
1649	 0.382122625660967 
1650	 0.382173665915146 
1651	 0.382217628733406 
1652	 0.382265894675304 
1653	 0.38229290941759 
1654	 0.382303396674381 
1655	 0.382329153871638 
1656	 0.382342255626647 
1657	 0.382370821222978 
1658	 0.382426861229749 
1659	 0.382456025268739 
1660	 0.382469831912049 
1661	 0.382494292746311 
1662	 0.382525283185308 
1663	 0.382531859209032 
1664	 0.382526594733453 
1665	 0.382530506583761 
1666	 0.382503280497478 
1667	 0.382519205752655 
1668	 0.382573823983931 
1669	 0.382608858104979 
1670	 0.382652030731504 
1671	 0.382690649976974 
1672	 0.382720281373611 
1673	 0.382757875819985 
1674	 0.382801764573558 
1675	 0.38284419839862 
1676	 0.382882453220342 
1677	 0.38293192048759 
1678	 0.382997660105201 
1679	 0.383042696622278 
1680	 0.383096052430148 
1681	 0.383119753730835 
1682	 0.383111728899602 
1683	 0.383113355878925 
1684	 0.383097743905143 
1685	 0.383098494040778 
1686	 0.383101367874958 
1687	 0.383116400042323 
1688	 0.383150475933934 
1689	 0.383168677448864 
1690	 0.383182365887451 
1691	 0.383207857745189 
1692	 0.383237977814924 
1693	 0.38325207170787 
1694	 0.38326526701003 
1695	 0.383285264174294 
1696	 0.38328762956345 
1697	 0.383308341303861 
1698	 0.383358795324939 
1699	 0.383387425133934 
1700	 0.38341104825203 
1701	 0.383422590208034 
1702	 0.383410518484091 
1703	 0.383427097314814 
1704	 0.383452211406958 
1705	 0.38347170993769 
1706	 0.383498334003234 
1707	 0.383535733707286 
1708	 0.383572462411523 
1709	 0.383610146477682 
1710	 0.38367889547129 
1711	 0.383710721162343 
1712	 0.383724964431041 
1713	 0.383719640595549 
1714	 0.383674153459549 
1715	 0.383672043038225 
1716	 0.383661676836723 
1717	 0.383680155838932 
1718	 0.38376263326768 
1719	 0.383777966660938 
1720	 0.383773490340638 
1721	 0.383760384899082 
1722	 0.383698881701636 
1723	 0.383681507027189 
1724	 0.383676679237269 
1725	 0.38368488820898 
1726	 0.383716939694558 
1727	 0.383733534411038 
1728	 0.383769723468945 
1729	 0.383758397083905 
1730	 0.383717984191484 
1731	 0.383689808870909 
1732	 0.383630332931911 
1733	 0.383605920921016 
1734	 0.383614342140256 
1735	 0.383580164319902 
1736	 0.383545205224031 
1737	 0.383490203866308 
1738	 0.383398385143619 
1739	 0.383327701637956 
1740	 0.383250634686922 
1741	 0.383186031434824 
1742	 0.383128077787878 
1743	 0.38308527843125 
1744	 0.383051984422888 
1745	 0.383039564339252 
1746	 0.383052772931761 
1747	 0.38304146801457 
1748	 0.383019247773398 
1749	 0.383001332019028 
1750	 0.382961048518277 
1751	 0.382913843781491 
1752	 0.382879016189965 
1753	 0.382792935366629 
1754	 0.382710614992504 
1755	 0.382625470860706 
1756	 0.382539612399752 
1757	 0.382518018588556 
1758	 0.382498993118252 
1759	 0.38251035775431 
1760	 0.382532368544433 
1761	 0.382484416084538 
1762	 0.382436363864305 
1763	 0.382429536169665 
1764	 0.382426338422042 
1765	 0.382443776654832 
1766	 0.382460851902536 
1767	 0.382444777490701 
1768	 0.382418480277317 
1769	 0.382374239960549 
1770	 0.382350654051473 
1771	 0.382336633509332 
1772	 0.38230404396686 
1773	 0.382328526663214 
1774	 0.382361356341513 
1775	 0.382362008212946 
1776	 0.382384298096924 
1777	 0.382380383853746 
1778	 0.382354515799703 
1779	 0.382353261587509 
1780	 0.382324617401886 
1781	 0.382278828583002 
1782	 0.382261945873031 
1783	 0.382233173913487 
1784	 0.382231800572946 
1785	 0.382267818125896 
1786	 0.382271095541115 
1787	 0.382277438122244 
1788	 0.382275183837943 
1789	 0.382248967854044 
1790	 0.382236544665319 
1791	 0.382230726286967 
1792	 0.382217260827272 
1793	 0.38219902015831 
1794	 0.382188207873075 
1795	 0.382159231916773 
1796	 0.382176262545257 
1797	 0.382238195419204 
1798	 0.382265015819647 
1799	 0.382290858565674 
1800	 0.382339480507351 
1801	 0.379433622838041 
1802	 0.379470887450101 
1803	 0.37949428709071 
1804	 0.379500649560582 
1805	 0.379528631833989 
1806	 0.37956116826745 
1807	 0.379557377731849 
1808	 0.379566211626656 
1809	 0.379600578994743 
1810	 0.379611590106641 
1811	 0.379600806265687 
1812	 0.37960201810808 
1813	 0.379584232738597 
1814	 0.379564544558788 
1815	 0.379563883566188 
1816	 0.379527994399927 
1817	 0.379519765012397 
1818	 0.379530663169825 
1819	 0.379543413336407 
1820	 0.379551061993821 
1821	 0.379593976208956 
1822	 0.379630086637315 
1823	 0.37964544153126 
1824	 0.379661538468392 
1825	 0.379642819537893 
1826	 0.379646410887855 
1827	 0.379668072094401 
1828	 0.379669589357409 
1829	 0.379685781196548 
1830	 0.379685661671328 
1831	 0.379672102684838 
1832	 0.379619697786762 
1833	 0.379606909221753 
1834	 0.379576899220722 
1835	 0.379562128448011 
1836	 0.379564390752633 
1837	 0.379567516910869 
1838	 0.379562735865243 
1839	 0.379554325302148 
1840	 0.379540158883273 
1841	 0.379540355958169 
1842	 0.379515683812951 
1843	 0.379497243839329 
1844	 0.379476575977871 
1845	 0.379438311042687 
1846	 0.3794345725455 
1847	 0.379415333187217 
1848	 0.379363171892019 
1849	 0.379335280226259 
1850	 0.379305911463491 
1851	 0.379263822822797 
1852	 0.379228659708692 
1853	 0.379226230853106 
1854	 0.379180309114659 
1855	 0.379133960407331 
1856	 0.379088377736234 
1857	 0.379011404378808 
1858	 0.378967490965166 
1859	 0.378933668381534 
1860	 0.378861956953874 
1861	 0.378776523431451 
1862	 0.378667685303937 
1863	 0.378518453104126 
1864	 0.378324910014472 
1865	 0.378117699112623 
1866	 0.377919087863259 
1867	 0.377710532950453 
1868	 0.377478699654392 
1869	 0.377262020338628 
1870	 0.377049200744777 
1871	 0.376809069026262 
1872	 0.376553396381631 
1873	 0.37631368780635 
1874	 0.376050710711738 
1875	 0.375763837094067 
1876	 0.375492168222128 
1877	 0.375198190506324 
1878	 0.374839443159227 
1879	 0.374401820531665 
1880	 0.373925406156565 
1881	 0.373386264086 
1882	 0.372813064525726 
1883	 0.372205341639502 
1884	 0.371545773551032 
1885	 0.370808577460927 
1886	 0.369990248202522 
1887	 0.369116537628132 
1888	 0.368231215717234 
1889	 0.367340269121478 
1890	 0.366428349488258 
1891	 0.365473362990036 
1892	 0.364469595678852 
1893	 0.363450196891192 
1894	 0.36239401286503 
1895	 0.36133790170541 
1896	 0.360223613267229 
1897	 0.359103126649531 
1898	 0.357971012941617 
1899	 0.356784873632759 
1900	 0.355608588744241 
1901	 0.35445723846938 
1902	 0.353312925864188 
1903	 0.352162435811443 
1904	 0.351040364253748 
1905	 0.349935685240793 
1906	 0.348854542188065 
1907	 0.347797714180495 
1908	 0.346794296056503 
1909	 0.345854890496281 
1910	 0.344960853016146 
1911	 0.34411632167156 
1912	 0.343335993779952 
1913	 0.342583819608477 
1914	 0.341869672420341 
1915	 0.341196890245894 
1916	 0.340570308855792 
1917	 0.33996805670988 
1918	 0.339395389368576 
1919	 0.338864434636384 
1920	 0.338401995354144 
1921	 0.33797645316383 
1922	 0.337578197074302 
1923	 0.337225192381978 
1924	 0.336899315222499 
1925	 0.336584891526191 
1926	 0.336323089884004 
1927	 0.336109582478383 
1928	 0.335926040557921 
1929	 0.335765647960582 
1930	 0.335629685190545 
1931	 0.335529858758866 
1932	 0.335482212454042 
1933	 0.335476803254383 
1934	 0.335490666337317 
1935	 0.335527857023448 
1936	 0.335607723423508 
1937	 0.335676313046319 
1938	 0.335742990472431 
1939	 0.335850113652341 
1940	 0.335993487790732 
1941	 0.336106226322509 
1942	 0.336238887080023 
1943	 0.33640950289642 
1944	 0.336577456784859 
1945	 0.336752386914813 
1946	 0.336952814472363 
1947	 0.337209062099156 
1948	 0.337425168569249 
1949	 0.337629657821734 
1950	 0.337850637998167 
1951	 0.338070469899497 
1952	 0.338283577196462 
1953	 0.338538883761555 
1954	 0.338798011225961 
1955	 0.339054869452135 
1956	 0.339331344291275 
1957	 0.339593943827339 
1958	 0.339842485681326 
1959	 0.340107716353497 
1960	 0.340372579830748 
1961	 0.340649068724879 
1962	 0.340927757677038 
1963	 0.341225861745435 
1964	 0.341533067689385 
1965	 0.341867900979303 
1966	 0.342192748101581 
1967	 0.342544080408865 
1968	 0.34290226925337 
1969	 0.34327190801858 
1970	 0.34362629696652 
1971	 0.343996818046972 
1972	 0.344359943039007 
1973	 0.344698804180125 
1974	 0.345064241421429 
1975	 0.345470991155786 
1976	 0.345828055608115 
1977	 0.346175321709738 
1978	 0.346520446427957 
1979	 0.346853263827937 
1980	 0.347200471137111 
1981	 0.347561859772598 
1982	 0.347939930460668 
1983	 0.348331479433193 
1984	 0.348741972296147 
1985	 0.349143659551795 
1986	 0.34958420819075 
1987	 0.349979011619758 
1988	 0.350335936798064 
1989	 0.350712233885536 
1990	 0.351071473753658 
1991	 0.351403044148703 
1992	 0.351753681439263 
1993	 0.352104477424986 
1994	 0.352464254453284 
1995	 0.35282652947175 
1996	 0.353199516676319 
1997	 0.353597677476378 
1998	 0.353970610604681 
1999	 0.35432266454084 
2000	 0.354698177948274 
2001	 0.355066769221523 
2002	 0.355457755302883 
2003	 0.355861461268894 
2004	 0.356264953542561 
2005	 0.356640368291372 
2006	 0.356992767670702 
2007	 0.357347431758261 
2008	 0.357684519307269 
2009	 0.358029109616578 
2010	 0.358365788985882 
2011	 0.35871720650565 
2012	 0.359082656061468 
2013	 0.359435945173492 
2014	 0.359778499230583 
2015	 0.360146761083391 
2016	 0.360512463603687 
2017	 0.360857117428695 
2018	 0.361223253078598 
2019	 0.361613923699079 
2020	 0.36198575244465 
2021	 0.362364719071617 
2022	 0.362717673770107 
2023	 0.363059774918754 
2024	 0.363386395715246 
2025	 0.363676018934699 
2026	 0.363987650693477 
2027	 0.364302403671391 
2028	 0.364604977238172 
2029	 0.364934289953466 
2030	 0.365297174002374 
2031	 0.365603562833534 
2032	 0.365904295444361 
2033	 0.366191736244064 
2034	 0.366419209852579 
2035	 0.366703014388057 
2036	 0.367022923068755 
2037	 0.367313583654945 
2038	 0.367633646125569 
2039	 0.367908480724243 
2040	 0.368136088980482 
2041	 0.368377001597736 
2042	 0.368617167210689 
2043	 0.368818541355228 
2044	 0.369031462895945 
2045	 0.369242271116269 
2046	 0.369457855281888 
2047	 0.369664499875506 
2048	 0.369877358148259 
2049	 0.370099543256947 
2050	 0.370317898912191 
2051	 0.370527882324133 
2052	 0.370749308001731 
2053	 0.370998720890681 
2054	 0.371215461150822 
2055	 0.371418581911527 
2056	 0.371609112483253 
2057	 0.371817420194629 
2058	 0.372007970699499 
2059	 0.372220404426717 
2060	 0.372467202812878 
2061	 0.37268620913971 
2062	 0.372898796176039 
2063	 0.373102490235167 
2064	 0.373297180362133 
2065	 0.373488454710256 
2066	 0.373649789200769 
2067	 0.373842589459635 
2068	 0.37403909047281 
2069	 0.374264811563089 
2070	 0.374473380765676 
2071	 0.374703138649913 
2072	 0.374905301943842 
2073	 0.375083408103002 
2074	 0.375276247494047 
2075	 0.375460429695503 
2076	 0.37566379957278 
2077	 0.37589982039918 
2078	 0.37609427198082 
2079	 0.376267032840262 
2080	 0.37646088483713 
2081	 0.37664425190862 
2082	 0.376820661411865 
2083	 0.377021972572191 
2084	 0.377199285438682 
2085	 0.377381654636022 
2086	 0.377532968922703 
2087	 0.377728462419866 
2088	 0.377967420012234 
2089	 0.378156122618469 
2090	 0.378339169253993 
2091	 0.378511905948197 
2092	 0.378651540206213 
2093	 0.378804853823518 
2094	 0.378951647943933 
2095	 0.379114857086652 
2096	 0.379286321261906 
2097	 0.37945327158427 
2098	 0.379600826860689 
2099	 0.379809137387112 
2100	 0.380001663228801 
2101	 0.380191759571712 
2102	 0.380389981473335 
2103	 0.380605742278476 
2104	 0.380818003522908 
2105	 0.381016738802404 
2106	 0.381245062776771 
2107	 0.381495443998031 
2108	 0.381746115191787 
2109	 0.382010990246579 
2110	 0.3822764577323 
2111	 0.382557093184267 
2112	 0.382825027129748 
2113	 0.383095217871222 
2114	 0.383361736800994 
2115	 0.383605083022311 
2116	 0.383823360931168 
2117	 0.384058692949268 
2118	 0.384293321575698 
2119	 0.38451514931951 
2120	 0.384747641047826 
2121	 0.384952544581074 
2122	 0.385119282963786 
2123	 0.385307582333513 
2124	 0.385506399692259 
2125	 0.38568277342267 
2126	 0.385851924093318 
2127	 0.386021768807295 
2128	 0.386185011739646 
2129	 0.386329957508601 
2130	 0.386490074643921 
2131	 0.386613105542262 
2132	 0.386706980774812 
2133	 0.386764066090403 
2134	 0.386814858496063 
2135	 0.386830827865489 
2136	 0.386860362925801 
2137	 0.386881593566223 
2138	 0.386898628784888 
2139	 0.386928520634671 
2140	 0.386925319530942 
2141	 0.386904037496047 
2142	 0.386870685007919 
2143	 0.386815303623594 
2144	 0.386747715193882 
2145	 0.386696492250475 
2146	 0.386586319381938 
2147	 0.386410125792099 
2148	 0.386252572234493 
2149	 0.386083672440882 
2150	 0.385870220037116 
2151	 0.385688831500652 
2152	 0.385530546147326 
2153	 0.385360444536021 
2154	 0.385192210878268 
2155	 0.385007269314901 
2156	 0.384832131235361 
2157	 0.384626330034005 
2158	 0.384379815648085 
2159	 0.38414930389767 
2160	 0.383918185588135 
2161	 0.383674748680152 
2162	 0.383428776951807 
2163	 0.383178423625989 
2164	 0.382919860596557 
2165	 0.382649223142036 
2166	 0.382376873335875 
2167	 0.382099065940553 
2168	 0.381827294439277 
2169	 0.381545228236896 
2170	 0.381278402405178 
2171	 0.381025739298402 
2172	 0.380766271886004 
2173	 0.38050557142573 
2174	 0.38025096612019 
2175	 0.380014563503336 
2176	 0.379749175734957 
2177	 0.379473134887844 
2178	 0.379192315354766 
2179	 0.378865492678027 
2180	 0.37858005480742 
2181	 0.378329709122123 
2182	 0.378062310310767 
2183	 0.377784849012463 
2184	 0.377544789671908 
2185	 0.377295888656116 
2186	 0.377021452689919 
2187	 0.376807306132762 
2188	 0.376643444470741 
2189	 0.376447839930985 
2190	 0.376273171945909 
2191	 0.376078609323626 
2192	 0.375862419091608 
2193	 0.375651234455376 
2194	 0.375435002366695 
2195	 0.37523003491329 
2196	 0.375004162211632 
2197	 0.374821808884715 
2198	 0.374667815837694 
2199	 0.374522653047529 
2200	 0.374419608407607 
2201	 0.374303088958306 
2202	 0.374187935328988 
2203	 0.374072916257506 
2204	 0.373962881087069 
2205	 0.373840469069629 
2206	 0.373756573528685 
2207	 0.373686001576375 
2208	 0.373635853222325 
2209	 0.373614376437413 
2210	 0.373598981644894 
2211	 0.373593640212324 
2212	 0.373609769553302 
2213	 0.37367581668588 
2214	 0.373692062629223 
2215	 0.373695389867534 
2216	 0.373705326705496 
2217	 0.373665904859958 
2218	 0.373674081154384 
2219	 0.373729940792228 
2220	 0.373770568879021 
2221	 0.373828794327751 
2222	 0.373879959210632 
2223	 0.373917388050132 
2224	 0.373918773909756 
2225	 0.373930478894857 
2226	 0.37394194834489 
2227	 0.373922553611858 
2228	 0.373899864429201 
2229	 0.373834188044177 
2230	 0.373713290976398 
2231	 0.373620344639444 
2232	 0.373480811994966 
2233	 0.373425157735408 
2234	 0.373422764307327 
2235	 0.37340209062291 
2236	 0.373431519204386 
2237	 0.373428109831866 
2238	 0.373402234192592 
2239	 0.373376284157346 
2240	 0.373346758159735 
2241	 0.373316613306304 
2242	 0.373271891910309 
2243	 0.373236191719331 
2244	 0.373212473276258 
2245	 0.373169765299824 
2246	 0.373132337892207 
2247	 0.373166019523396 
2248	 0.373192874752273 
2249	 0.373244318324197 
2250	 0.373302603879861 
2251	 0.373387233713428 
2252	 0.373439302142212 
2253	 0.373502810791916 
2254	 0.373534207509003 
2255	 0.373526748035396 
2256	 0.373542479927514 
2257	 0.373572630469553 
2258	 0.373560919779052 
2259	 0.373526758526074 
2260	 0.37350265376401 
2261	 0.373426145848899 
2262	 0.373406190772131 
2263	 0.373444690065155 
2264	 0.373448969986335 
2265	 0.373441830973831 
2266	 0.373464223664642 
2267	 0.373493391641295 
2268	 0.373518192411236 
2269	 0.373580378468102 
2270	 0.373609874429635 
2271	 0.373610173014946 
2272	 0.373644140918888 
2273	 0.373708947920542 
2274	 0.373769277545309 
2275	 0.37381745296589 
2276	 0.373891524501535 
2277	 0.373901898334475 
2278	 0.373859993780332 
2279	 0.373853068294123 
2280	 0.373805023764054 
2281	 0.373821337190053 
2282	 0.373871950092837 
2283	 0.373941305309439 
2284	 0.374071661349145 
2285	 0.37415612622157 
2286	 0.37425824062918 
2287	 0.374317660287366 
2288	 0.374325859737437 
2289	 0.374351130255468 
2290	 0.37433076777446 
2291	 0.374372111522304 
2292	 0.374462673773094 
2293	 0.374534503865589 
2294	 0.374633722329938 
2295	 0.374729355085915 
2296	 0.374832574103132 
2297	 0.374894851777819 
2298	 0.374958610344081 
2299	 0.37502249839411 
2300	 0.375030591796764 
2301	 0.375037875573212 
2302	 0.375077558688481 
2303	 0.375078302553745 
2304	 0.375087397513357 
2305	 0.37512350297881 
2306	 0.375135766050086 
2307	 0.375148200942651 
2308	 0.375135820389291 
2309	 0.375085848273678 
2310	 0.375077815747069 
2311	 0.375077718689427 
2312	 0.375068999272003 
2313	 0.375077069218693 
2314	 0.375083223489229 
2315	 0.375064303679407 
2316	 0.375078801885652 
2317	 0.375137992820272 
2318	 0.37517553309933 
2319	 0.375202137694708 
2320	 0.375225978446462 
2321	 0.375266072553795 
2322	 0.375271904529839 
2323	 0.375262576441349 
2324	 0.375247767204037 
2325	 0.375188323344158 
2326	 0.375150444627064 
2327	 0.375112232943615 
2328	 0.375094314769928 
2329	 0.375085303071557 
2330	 0.375081685425756 
2331	 0.375073041813087 
2332	 0.375118870037745 
2333	 0.375197367201116 
2334	 0.375286390283134 
2335	 0.375375285380689 
2336	 0.375435133990781 
2337	 0.375452382081397 
2338	 0.375518612510352 
2339	 0.375628764394601 
2340	 0.375660914567403 
2341	 0.375656384693976 
2342	 0.375583019995559 
2343	 0.375422642693304 
2344	 0.375289440436119 
2345	 0.375213012847378 
2346	 0.375161024697931 
2347	 0.375137199801828 
2348	 0.37522383469 
2349	 0.375181648168151 
2350	 0.375100063822058 
2351	 0.375019098533048 
2352	 0.374864464792467 
2353	 0.374722013530626 
2354	 0.374586345047068 
2355	 0.374441548458805 
2356	 0.374264812463953 
2357	 0.374127843409393 
2358	 0.373997850484117 
2359	 0.373910582705138 
2360	 0.373876645610839 
2361	 0.373796514923827 
2362	 0.373768668888195 
2363	 0.373656941799798 
2364	 0.373436624465084 
2365	 0.373270488677439 
2366	 0.373094187819921 
2367	 0.372925431461865 
2368	 0.372801426666506 
2369	 0.372634707760914 
2370	 0.372446983836986 
2371	 0.372227279795652 
2372	 0.372024022468718 
2373	 0.371839475411334 
2374	 0.371612368612313 
2375	 0.371304936313733 
2376	 0.370957497772246 
2377	 0.370619774140944 
2378	 0.370282547768009 
2379	 0.370103570161488 
2380	 0.369988235788114 
2381	 0.369816360262947 
2382	 0.369661605977397 
2383	 0.369465007704353 
2384	 0.369304631776057 
2385	 0.369175433286986 
2386	 0.368985472076631 
2387	 0.368797688055362 
2388	 0.368576673546821 
2389	 0.368300592805928 
2390	 0.368047715723451 
2391	 0.36781724353933 
2392	 0.367545693958275 
2393	 0.367267457925026 
2394	 0.367073190926438 
2395	 0.366914968174584 
2396	 0.36673775511961 
2397	 0.366526762205457 
2398	 0.366240838265086 
2399	 0.365903760767145 
2400	 0.365621199023605 
2401	 0.365374158554792 
2402	 0.365121671508567 
2403	 0.364902430614562 
2404	 0.364591005639135 
2405	 0.364213885505252 
2406	 0.363929302202027 
2407	 0.3636982153339 
2408	 0.363497396128748 
2409	 0.363324261336867 
2410	 0.363051043053191 
2411	 0.362684960233177 
2412	 0.362384779608076 
2413	 0.362110121473678 
2414	 0.361816192695391 
2415	 0.361555379608846 
2416	 0.361258570076624 
2417	 0.360844625025026 
2418	 0.360593639619881 
2419	 0.360461565357563 
2420	 0.36019134190833 
2421	 0.359977339889945 
2422	 0.359672523787603 
2423	 0.359174248726748 
2424	 0.358879504257359 
2425	 0.358706494400922 
2426	 0.358399927555551 
2427	 0.358101558704703 
2428	 0.357767755656069 
2429	 0.357330479999965 
2430	 0.356913973062438 
2431	 0.356521745567174 
2432	 0.35616417736402 
2433	 0.355774510861536 
2434	 0.355504555742965 
2435	 0.355316228696955 
2436	 0.355139670909562 
2437	 0.355092880484696 
2438	 0.354812720628527 
2439	 0.354416978317021 
2440	 0.354057737179913 
2441	 0.353632383292443 
2442	 0.353202016724979 
2443	 0.352735532779823 
2444	 0.352394499825481 
2445	 0.352031592887878 
2446	 0.351667690197911 
2447	 0.351426060890341 
2448	 0.351259958482114 
2449	 0.351142100470091 
2450	 0.350913920066326 
2451	 0.350729529678094 
2452	 0.350417494327876 
2453	 0.349908396734899 
2454	 0.349558755020547 
2455	 0.349298072832363 
2456	 0.349079258272707 
2457	 0.348860589921089 
2458	 0.348623965170465 
2459	 0.348525147747428 
2460	 0.348241684588169 
2461	 0.347811654363583 
2462	 0.34740256125357 
2463	 0.346919215556386 
2464	 0.346418953026596 
2465	 0.345850597173473 
2466	 0.345592261209935 
2467	 0.345347511159228 
2468	 0.345172192444408 
2469	 0.345455784404924 
2470	 0.345132948341221 
2471	 0.344864628635113 
2472	 0.34459286264094 
2473	 0.343955251900538 
2474	 0.343400858832015 
2475	 0.343236494042209 
2476	 0.343002701421286 
2477	 0.342647295854152 
2478	 0.342546342544425 
2479	 0.342144268538768 
2480	 0.341592085438035 
2481	 0.341403716645702 
2482	 0.341263139239937 
2483	 0.341164802079031 
2484	 0.340988245898441 
2485	 0.340598013702967 
2486	 0.340065992265396 
2487	 0.339627022146788 
2488	 0.33930964212616 
2489	 0.339007231280322 
2490	 0.338785088016922 
2491	 0.338458557889872 
2492	 0.33815030225544 
2493	 0.33782705719729 
2494	 0.337559200024297 
2495	 0.337610153117051 
2496	 0.337468186703794 
2497	 0.337189049143167 
2498	 0.33709110377386 
2499	 0.33655171113525 
2500	 0.336071271138479 
