Wavelength	MM200008.asd
350	 0.050962617149128 
351	 5.38142884341444E-02 
352	 5.70143786693916E-02 
353	 5.55773804184354E-02 
354	 5.01276853026479E-02 
355	 5.26531241146942E-02 
356	 5.49731574955108E-02 
357	 5.00952431517425E-02 
358	 5.73841657682915E-02 
359	 5.89993171946283E-02 
360	 5.42810947637251E-02 
361	 5.36467803947002E-02 
362	 5.41142249667425E-02 
363	 5.40542336863335E-02 
364	 5.35218680138606E-02 
365	 0.055104080008094 
366	 5.50949439248588E-02 
367	 5.57342188654014E-02 
368	 5.90309067932982E-02 
369	 6.02571308716641E-02 
370	 5.67212652859439E-02 
371	 5.27494773558055E-02 
372	 5.62049703066132E-02 
373	 5.86638350722725E-02 
374	 5.90588261299011E-02 
375	 5.80501801024581E-02 
376	 5.73703982410629E-02 
377	 5.61433117698806E-02 
378	 5.62890679488883E-02 
379	 5.91692981902716E-02 
380	 6.09350099643101E-02 
381	 6.07543214632099E-02 
382	 6.01938898137269E-02 
383	 6.21083172114595E-02 
384	 6.27000572868961E-02 
385	 0.062018976592447 
386	 6.11170630246481E-02 
387	 6.16859638180322E-02 
388	 6.41704540762946E-02 
389	 6.54445731628447E-02 
390	 6.30887709020827E-02 
391	 6.32836347384425E-02 
392	 6.44552520692193E-02 
393	 6.57780029522542E-02 
394	 6.72993982156926E-02 
395	 6.73871470543093E-02 
396	 6.73204876688889E-02 
397	 6.80336818103211E-02 
398	 6.87619673078621E-02 
399	 6.89786844734817E-02 
400	 6.93328322819944E-02 
401	 7.05022034243767E-02 
402	 7.06667299955679E-02 
403	 7.06016964705619E-02 
404	 7.06975613641401E-02 
405	 7.08024848569094E-02 
406	 7.22333332434059E-02 
407	 7.34076796423354E-02 
408	 7.30564950199349E-02 
409	 7.18477071003885E-02 
410	 7.21374457662673E-02 
411	 7.32605058163444E-02 
412	 7.33644753342464E-02 
413	 7.35007419111543E-02 
414	 0.074180090600659 
415	 7.50626867587425E-02 
416	 7.48075241148227E-02 
417	 7.49696712675007E-02 
418	 7.52696756541768E-02 
419	 7.51964069158801E-02 
420	 7.50043622686537E-02 
421	 7.50430966572661E-02 
422	 7.53433455246898E-02 
423	 7.56756295386155E-02 
424	 7.53970909610722E-02 
425	 7.50038375344986E-02 
426	 7.48651756631077E-02 
427	 7.48514737162611E-02 
428	 7.49862339919162E-02 
429	 7.50226411537424E-02 
430	 7.47820555078177E-02 
431	 7.48491339531594E-02 
432	 7.47692138399875E-02 
433	 7.45165975359283E-02 
434	 0.074503335086375 
435	 7.45133306455488E-02 
436	 7.44039335054533E-02 
437	 0.074207072886315 
438	 0.074396466704619 
439	 7.44177303109904E-02 
440	 7.44542918827294E-02 
441	 7.49328623381048E-02 
442	 7.50020703558659E-02 
443	 7.52416976492772E-02 
444	 7.57189516474903E-02 
445	 7.55070603539496E-02 
446	 7.56136875744448E-02 
447	 7.59512961938108E-02 
448	 7.61683941179009E-02 
449	 7.62205841634351E-02 
450	 7.63807934174238E-02 
451	 7.67188146984591E-02 
452	 7.71083255493522E-02 
453	 7.73129725045248E-02 
454	 7.73286337046573E-02 
455	 0.077288803933224 
456	 7.75504602580672E-02 
457	 7.77415451564513E-02 
458	 0.077869027029517 
459	 7.80870162472957E-02 
460	 7.83095696433511E-02 
461	 7.82164603706495E-02 
462	 7.79788107233992E-02 
463	 7.84792055787186E-02 
464	 7.85553259856262E-02 
465	 7.85523825669525E-02 
466	 0.078915070418472 
467	 7.86824681223461E-02 
468	 7.86928183652294E-02 
469	 7.89880215988275E-02 
470	 7.89582608687954E-02 
471	 0.078813079285894 
472	 7.88228513272536E-02 
473	 7.90589875580175E-02 
474	 7.90820501634029E-02 
475	 0.079357072472006 
476	 7.95622826358751E-02 
477	 7.92000849859109E-02 
478	 7.91314084659092E-02 
479	 7.92371250631796E-02 
480	 7.93710043388077E-02 
481	 7.94785383638018E-02 
482	 0.079632626298587 
483	 7.97344840221817E-02 
484	 0.079716648957919 
485	 7.98364866139323E-02 
486	 7.98358212050714E-02 
487	 7.97498603885148E-02 
488	 0.079842844127065 
489	 7.97840147421243E-02 
490	 0.079767039847605 
491	 7.99402199112275E-02 
492	 8.01572343982164E-02 
493	 8.01313852120229E-02 
494	 8.00218789274561E-02 
495	 0.08015669937099 
496	 8.03252977511763E-02 
497	 8.03110613435802E-02 
498	 8.01798616983535E-02 
499	 0.080420730017387 
500	 8.04130155543039E-02 
501	 0.080294875769326 
502	 8.03583496709075E-02 
503	 8.05333590810643E-02 
504	 8.06073474011678E-02 
505	 8.05880907765466E-02 
506	 8.06802569631972E-02 
507	 8.08108758167962E-02 
508	 8.08792628360344E-02 
509	 8.08600987145028E-02 
510	 8.09464567166043E-02 
511	 8.10028349212301E-02 
512	 8.10408546191026E-02 
513	 0.081131711861592 
514	 8.11329856047936E-02 
515	 8.11293921467983E-02 
516	 8.11790756229229E-02 
517	 8.12509884774039E-02 
518	 8.13784148919154E-02 
519	 8.14866838919036E-02 
520	 8.15074290037843E-02 
521	 0.081589235567457 
522	 8.17010896310379E-02 
523	 8.17708273989862E-02 
524	 0.081700123135081 
525	 8.17313979641608E-02 
526	 8.18214638440695E-02 
527	 8.18989307658014E-02 
528	 8.20433159200858E-02 
529	 8.20846029706375E-02 
530	 8.20899192939923E-02 
531	 0.082254642519533 
532	 0.082281106685081 
533	 8.23998780148121E-02 
534	 8.26814144731363E-02 
535	 8.26962819850135E-02 
536	 8.27883903558919E-02 
537	 8.29035906272331E-02 
538	 8.28890126732303E-02 
539	 8.30248269379992E-02 
540	 8.31422435329839E-02 
541	 8.31841040552708E-02 
542	 0.083285133082789 
543	 8.34366953921657E-02 
544	 8.35918817556443E-02 
545	 8.37163182732721E-02 
546	 8.38795718853276E-02 
547	 8.40811098921929E-02 
548	 8.42829302922049E-02 
549	 8.44229337594771E-02 
550	 8.45563796863356E-02 
551	 8.47444333695544E-02 
552	 8.49907282611109E-02 
553	 8.51495251344948E-02 
554	 8.53140370713172E-02 
555	 8.55372227940585E-02 
556	 8.58385309002112E-02 
557	 0.086136791736958 
558	 8.64058106738435E-02 
559	 8.66755532564997E-02 
560	 8.70664607210431E-02 
561	 0.087424441228353 
562	 8.77605152830216E-02 
563	 8.81449637931288E-02 
564	 8.86380358922823E-02 
565	 0.089093083855234 
566	 0.089503360435938 
567	 9.00289696899084E-02 
568	 9.05449395768112E-02 
569	 9.10569231978245E-02 
570	 9.15880342169293E-02 
571	 9.21057957941596E-02 
572	 9.27071562745673E-02 
573	 9.33593903191882E-02 
574	 0.093946072019302 
575	 0.094569081091162 
576	 9.52616956951654E-02 
577	 9.60101470811504E-02 
578	 9.67151736294131E-02 
579	 9.75048329008819E-02 
580	 9.83487535074106E-02 
581	 9.91721500566607E-02 
582	 0.100107159440823 
583	 0.10105835427725 
584	 0.101962735840326 
585	 0.102831929086446 
586	 0.103783510896343 
587	 0.104719628152433 
588	 0.105560759752545 
589	 0.106617636505578 
590	 0.107643030709582 
591	 0.108568796783156 
592	 0.109510624215662 
593	 0.110514088066526 
594	 0.111542765288584 
595	 0.112552892326846 
596	 0.113533942426596 
597	 0.114565777783223 
598	 0.115610462329328 
599	 0.116580970824001 
600	 0.11754759202981 
601	 0.118531883648664 
602	 0.11949578240822 
603	 0.12030200085786 
604	 0.121111880507135 
605	 0.121947966403016 
606	 0.1227783106838 
607	 0.123565795415927 
608	 0.124313665202479 
609	 0.125059393854347 
610	 0.125873851976799 
611	 0.126577500556053 
612	 0.127238045152312 
613	 0.127922121681113 
614	 0.128477558744522 
615	 0.12904039129592 
616	 0.12960860657315 
617	 0.130086857456655 
618	 0.130538066281792 
619	 0.130962590298058 
620	 0.131370591822132 
621	 0.131813297464425 
622	 0.132250800699371 
623	 0.132638033207009 
624	 0.132952642418368 
625	 0.133335065117972 
626	 0.133708542308958 
627	 0.134047669560085 
628	 0.134418908825312 
629	 0.134752858342126 
630	 0.135067198673266 
631	 0.135388556271247 
632	 0.135680568167056 
633	 0.135945409987273 
634	 0.136212897786947 
635	 0.136530740041878 
636	 0.136859053105563 
637	 0.137168532906855 
638	 0.137445777022542 
639	 0.137703094086404 
640	 0.137987125312234 
641	 0.138310917982828 
642	 0.138656949903521 
643	 0.138935300619752 
644	 0.139205272717908 
645	 0.139510415231037 
646	 0.139850044755629 
647	 0.140179770005517 
648	 0.14048677766369 
649	 0.140786271144525 
650	 0.141162991489802 
651	 0.141516331323955 
652	 0.141834079362929 
653	 0.142183707398563 
654	 0.142539429515856 
655	 0.142919395128219 
656	 0.14332479800893 
657	 0.143695482048656 
658	 0.144068556359009 
659	 0.144467962470918 
660	 0.144895548572896 
661	 0.145232473616633 
662	 0.145635179973246 
663	 0.146147312317921 
664	 0.146613807703755 
665	 0.147060272523825 
666	 0.147510281206754 
667	 0.147979386393607 
668	 0.14842647681282 
669	 0.148899172026423 
670	 0.149408033067883 
671	 0.149926318891049 
672	 0.150414030497252 
673	 0.150930574277013 
674	 0.151501299432963 
675	 0.152028864961954 
676	 0.152571925450145 
677	 0.153117298079408 
678	 0.153639030368652 
679	 0.154240748630627 
680	 0.154841916645887 
681	 0.155434369560331 
682	 0.156126329026512 
683	 0.156755288043135 
684	 0.157348425065756 
685	 0.157972623632846 
686	 0.158643592550174 
687	 0.159309509186582 
688	 0.159970260082286 
689	 0.160659476822036 
690	 0.161329310000227 
691	 0.161994423917731 
692	 0.162680519511817 
693	 0.163420883072327 
694	 0.164164523968186 
695	 0.164899921607252 
696	 0.165632694076164 
697	 0.166368308780726 
698	 0.167103310760101 
699	 0.167846560992039 
700	 0.16861766735768 
701	 0.169384646410197 
702	 0.170135713624506 
703	 0.170872158827947 
704	 0.171614113088386 
705	 0.17237883652406 
706	 0.173152492728463 
707	 0.17390644891296 
708	 0.174644825919353 
709	 0.175421639663434 
710	 0.176232717667821 
711	 0.176984929006163 
712	 0.177734165140336 
713	 0.178490340287969 
714	 0.179247016529535 
715	 0.179978909352772 
716	 0.180719206348887 
717	 0.181450217349764 
718	 0.182121442860285 
719	 0.182778888565494 
720	 0.18341997251733 
721	 0.184045440480218 
722	 0.184673003349387 
723	 0.185337981689534 
724	 0.186009012639647 
725	 0.186631409591991 
726	 0.187167199441212 
727	 0.187686086664728 
728	 0.188202538343363 
729	 0.188676374474622 
730	 0.189168958665933 
731	 0.189624627434653 
732	 0.190018159207274 
733	 0.190453131581907 
734	 0.190836913892953 
735	 0.191161027714928 
736	 0.191458021416276 
737	 0.191780087805083 
738	 0.192057887024188 
739	 0.192274259477993 
740	 0.192478567749129 
741	 0.192678763965281 
742	 0.192850492728228 
743	 0.192963569420812 
744	 0.192984629148705 
745	 0.193023721025747 
746	 0.193082413404709 
747	 0.193104491454817 
748	 0.193046465623649 
749	 0.193004418885691 
750	 0.192977751206804 
751	 0.192837669792124 
752	 0.192683942647623 
753	 0.192544614667268 
754	 0.19241248910371 
755	 0.19223043003954 
756	 0.192022431116774 
757	 0.191797795240038 
758	 0.191554711561231 
759	 0.191265396126041 
760	 0.190935101092314 
761	 0.190592470755012 
762	 0.190287990734099 
763	 0.189989169109825 
764	 0.189621035554283 
765	 0.189172040759503 
766	 0.188843957395881 
767	 0.188478059214799 
768	 0.188032984734859 
769	 0.187544492779475 
770	 0.187120091330226 
771	 0.186716227898606 
772	 0.186301372836312 
773	 0.185876758376098 
774	 0.185426816742661 
775	 0.184930540173108 
776	 0.184403116210913 
777	 0.183959288111893 
778	 0.183513361127219 
779	 0.183040349110673 
780	 0.182545161334388 
781	 0.182025319136914 
782	 0.181561588426982 
783	 0.181136834756227 
784	 0.180633276787774 
785	 0.180160681211274 
786	 0.179695926379119 
787	 0.179207146679101 
788	 0.17869432365442 
789	 0.178235205496085 
790	 0.177794528042924 
791	 0.177312816961371 
792	 0.176863603607633 
793	 0.176397370001583 
794	 0.1759148522359 
795	 0.175463812244034 
796	 0.175032427397191 
797	 0.174596923248445 
798	 0.17413665722043 
799	 0.17363507885536 
800	 0.173227002655576 
801	 0.172871656378129 
802	 0.172478539869938 
803	 0.171998836071178 
804	 0.171573109602601 
805	 0.171212638087665 
806	 0.170843100063363 
807	 0.170452656640154 
808	 0.170036835476864 
809	 0.169626055529865 
810	 0.169286801635144 
811	 0.168962182501749 
812	 0.168621162202047 
813	 0.168264524041393 
814	 0.167971508272017 
815	 0.167585051416669 
816	 0.167183220100716 
817	 0.166899255582903 
818	 0.166582034189396 
819	 0.166282880271315 
820	 0.166020996351752 
821	 0.165772350067735 
822	 0.165444548212372 
823	 0.165152055895871 
824	 0.164929490226545 
825	 0.164630035941858 
826	 0.164371284222839 
827	 0.164142682234458 
828	 0.163912570470354 
829	 0.163700497509258 
830	 0.163461953530636 
831	 0.163214266499463 
832	 0.163002118824804 
833	 0.162829894550445 
834	 0.162656019278693 
835	 0.162481458699923 
836	 0.162343158234495 
837	 0.162147214008423 
838	 0.161965133465823 
839	 0.161835866037628 
840	 0.161698213538906 
841	 0.16152343069129 
842	 0.161348985700529 
843	 0.161217941952631 
844	 0.161127003471025 
845	 0.161027245205535 
846	 0.160903724215157 
847	 0.160772195858043 
848	 0.160699365045023 
849	 0.160660604036748 
850	 0.160616823994382 
851	 0.16053015131883 
852	 0.160440045315923 
853	 0.160395008714184 
854	 0.160389404859768 
855	 0.16034169601544 
856	 0.160316783106057 
857	 0.160314868353942 
858	 0.160318048775028 
859	 0.16030120268166 
860	 0.160292690746772 
861	 0.160298689842712 
862	 0.160316062849187 
863	 0.160341736619695 
864	 0.160359896440259 
865	 0.16038479464559 
866	 0.160438999247006 
867	 0.160456432185229 
868	 0.160526742635117 
869	 0.160642343136912 
870	 0.160692786338926 
871	 0.160748075727162 
872	 0.160820491240575 
873	 0.160936723568175 
874	 0.16115796701998 
875	 0.161241253688795 
876	 0.161297609005786 
877	 0.161439312331646 
878	 0.161524576796769 
879	 0.161702990994988 
880	 0.161875070815162 
881	 0.161935532995092 
882	 0.162128897619912 
883	 0.16234602143212 
884	 0.162528888409268 
885	 0.162672769086756 
886	 0.162866274052899 
887	 0.163131352404872 
888	 0.163378604370449 
889	 0.16347409242446 
890	 0.163736033418392 
891	 0.164023908137237 
892	 0.164274245045852 
893	 0.164586958346174 
894	 0.164785495183871 
895	 0.165004261718092 
896	 0.165326635534946 
897	 0.16563533224119 
898	 0.165909138076927 
899	 0.166189192936584 
900	 0.16651051877102 
901	 0.16683816860744 
902	 0.167174130991231 
903	 0.167500018534588 
904	 0.1678104695845 
905	 0.168170437519846 
906	 0.168512716231054 
907	 0.168863809262136 
908	 0.169266266790373 
909	 0.169590211056911 
910	 0.169982177040629 
911	 0.170436043143288 
912	 0.170851709485915 
913	 0.171309172951927 
914	 0.171747082260328 
915	 0.172169427135693 
916	 0.172633605724679 
917	 0.173004832425138 
918	 0.173475220699099 
919	 0.174055950702745 
920	 0.174519692096923 
921	 0.175001166038598 
922	 0.175489568915289 
923	 0.175969568766934 
924	 0.176453954927383 
925	 0.176996150368026 
926	 0.177596070181161 
927	 0.178211918939706 
928	 0.178754591258494 
929	 0.179390408435798 
930	 0.180003324007223 
931	 0.180513104026995 
932	 0.181092648265314 
933	 0.181684045825604 
934	 0.182309022834095 
935	 0.182979529424281 
936	 0.18361975321968 
937	 0.184292272139641 
938	 0.184986909430204 
939	 0.185671834245927 
940	 0.186332308769463 
941	 0.187007772041874 
942	 0.187734118907755 
943	 0.188513707108106 
944	 0.18924324990948 
945	 0.189920687085956 
946	 0.190662826249262 
947	 0.191547995084673 
948	 0.19226885078012 
949	 0.192976206619167 
950	 0.193689995722453 
951	 0.194387668695155 
952	 0.195214673491664 
953	 0.196059037344439 
954	 0.196894550591853 
955	 0.197746094178342 
956	 0.198603389371016 
957	 0.199368823285197 
958	 0.200147925658842 
959	 0.201109627639346 
960	 0.202028518018302 
961	 0.202941054833933 
962	 0.203839822461841 
963	 0.204685225917011 
964	 0.205465066211269 
965	 0.206370862837922 
966	 0.207376901347439 
967	 0.208321267762805 
968	 0.209229690879369 
969	 0.210167014135957 
970	 0.211126375098557 
971	 0.212059929516293 
972	 0.213027687980532 
973	 0.214033461812515 
974	 0.215037990900381 
975	 0.216000369162068 
976	 0.217017473617765 
977	 0.218058532586121 
978	 0.219095677320385 
979	 0.220094551666406 
980	 0.220944449614136 
981	 0.221776076795482 
982	 0.222699945702514 
983	 0.223759489978057 
984	 0.22482619429092 
985	 0.225884429434376 
986	 0.22690530162299 
987	 0.227883882546818 
988	 0.228966544911944 
989	 0.230074289443503 
990	 0.231042093564333 
991	 0.23180218725746 
992	 0.232839305452754 
993	 0.23385200748561 
994	 0.234841410062233 
995	 0.235910160585733 
996	 0.236917048098933 
997	 0.237993964764003 
998	 0.239040182863912 
999	 0.239961107925699 
1000	 0.241018918448487 
1001	 0.242008686278816 
1002	 0.24290414898634 
1003	 0.243718222355285 
1004	 0.244621939258937 
1005	 0.24563536992478 
1006	 0.246549610920336 
1007	 0.247417116596754 
1008	 0.248381427866378 
1009	 0.249295243623124 
1010	 0.250096276060058 
1011	 0.250937666731926 
1012	 0.251775030192073 
1013	 0.252564641088549 
1014	 0.253362004339038 
1015	 0.254185575163125 
1016	 0.25501600281825 
1017	 0.255818526869917 
1018	 0.256607426287227 
1019	 0.257391280848204 
1020	 0.258146524191616 
1021	 0.258855300420995 
1022	 0.259557823746408 
1023	 0.260279513217874 
1024	 0.261044375491765 
1025	 0.261808384096526 
1026	 0.26248613100935 
1027	 0.263170770430452 
1028	 0.263878363210815 
1029	 0.26453662340935 
1030	 0.265210507699626 
1031	 0.265863674449454 
1032	 0.266516667990598 
1033	 0.267109567240023 
1034	 0.267711563241612 
1035	 0.268346803479223 
1036	 0.268990758735315 
1037	 0.269614631968771 
1038	 0.270233417386227 
1039	 0.270844602037731 
1040	 0.271437034907528 
1041	 0.27202815234293 
1042	 0.272609514223503 
1043	 0.273154845321633 
1044	 0.273724140061441 
1045	 0.274305175751482 
1046	 0.274888733222437 
1047	 0.275428296395794 
1048	 0.275998067041589 
1049	 0.276543131686463 
1050	 0.277067045740679 
1051	 0.277698522669146 
1052	 0.278346963800945 
1053	 0.278945956692062 
1054	 0.279549985097819 
1055	 0.280124078063235 
1056	 0.280652307204422 
1057	 0.281166424518941 
1058	 0.281639909236968 
1059	 0.282183519148828 
1060	 0.282731983255966 
1061	 0.283270020642976 
1062	 0.283893137465913 
1063	 0.284497678415833 
1064	 0.285032759433698 
1065	 0.285565855286143 
1066	 0.286087523852824 
1067	 0.286629289932628 
1068	 0.287162677125828 
1069	 0.287672520009596 
1070	 0.288214085329315 
1071	 0.28876748577562 
1072	 0.289328029487552 
1073	 0.28992360601396 
1074	 0.290480178825933 
1075	 0.29103533028177 
1076	 0.291537997889557 
1077	 0.2920297740881 
1078	 0.29252892306871 
1079	 0.293030636918489 
1080	 0.293536601095408 
1081	 0.294003074617829 
1082	 0.29446151783451 
1083	 0.294935332143642 
1084	 0.295398945226616 
1085	 0.295869839874194 
1086	 0.296354671109064 
1087	 0.296826909503629 
1088	 0.297286144789643 
1089	 0.29776275104059 
1090	 0.298236986224998 
1091	 0.298690302825354 
1092	 0.29913624388001 
1093	 0.299575587708124 
1094	 0.300009836081694 
1095	 0.300476273674776 
1096	 0.300922323535144 
1097	 0.301351241142887 
1098	 0.301820348492429 
1099	 0.302315942614059 
1100	 0.302770822143947 
1101	 0.303244189951093 
1102	 0.30371125474632 
1103	 0.304150193771463 
1104	 0.304564207052827 
1105	 0.30505397398816 
1106	 0.305518133559463 
1107	 0.305955910910764 
1108	 0.306422771653132 
1109	 0.306872586643369 
1110	 0.307316270527503 
1111	 0.307769878105606 
1112	 0.308222907466323 
1113	 0.308688765998238 
1114	 0.309179089322411 
1115	 0.309637267010691 
1116	 0.310084052906674 
1117	 0.310544092589543 
1118	 0.311008748059976 
1119	 0.311437975649177 
1120	 0.311889661247039 
1121	 0.312327632640146 
1122	 0.312726592381714 
1123	 0.313147285537253 
1124	 0.313587353785283 
1125	 0.314044301425076 
1126	 0.314499536350213 
1127	 0.314973864773034 
1128	 0.31543358860143 
1129	 0.315900326137494 
1130	 0.316339179309562 
1131	 0.31675598458973 
1132	 0.317186472472354 
1133	 0.317601397048863 
1134	 0.318024750748056 
1135	 0.318465430016188 
1136	 0.31889718423405 
1137	 0.319306954606862 
1138	 0.319721817644407 
1139	 0.3201365272069 
1140	 0.320549176421385 
1141	 0.320950642109933 
1142	 0.321355849702312 
1143	 0.321752857223903 
1144	 0.32213238220903 
1145	 0.322518829862912 
1146	 0.322916714025714 
1147	 0.323287193540632 
1148	 0.323639263640066 
1149	 0.323997336876476 
1150	 0.32433694009751 
1151	 0.324691905353878 
1152	 0.325047277533966 
1153	 0.325417291754289 
1154	 0.325776110656656 
1155	 0.326140265167256 
1156	 0.326483202203463 
1157	 0.326820056426875 
1158	 0.327142368930172 
1159	 0.327441014625974 
1160	 0.3277519934585 
1161	 0.328058993632312 
1162	 0.328369970247656 
1163	 0.328696904788597 
1164	 0.329001679754033 
1165	 0.329292564121333 
1166	 0.329582628811858 
1167	 0.329882334425417 
1168	 0.33017979429403 
1169	 0.330477558692745 
1170	 0.330794656414609 
1171	 0.331087402187701 
1172	 0.331362094895787 
1173	 0.331642467767957 
1174	 0.331923458698932 
1175	 0.332195928261343 
1176	 0.33246194345796 
1177	 0.332728048547334 
1178	 0.332992229947018 
1179	 0.333251230043377 
1180	 0.333499409592777 
1181	 0.333757414939786 
1182	 0.334023204837577 
1183	 0.334285106803476 
1184	 0.334524732021453 
1185	 0.334760335544617 
1186	 0.334993476175437 
1187	 0.335201416060794 
1188	 0.335424781748362 
1189	 0.335665777118101 
1190	 0.335888490998191 
1191	 0.336101593149063 
1192	 0.336312685452121 
1193	 0.336514346196374 
1194	 0.336722470376236 
1195	 0.336934474242466 
1196	 0.337137684454696 
1197	 0.337329960680197 
1198	 0.337535500391705 
1199	 0.337744436825614 
1200	 0.3379583761618 
1201	 0.338153262123104 
1202	 0.338351280612388 
1203	 0.338542372063749 
1204	 0.338716258307549 
1205	 0.338890031123253 
1206	 0.339066949293319 
1207	 0.339240374215939 
1208	 0.339401514760888 
1209	 0.33956439918116 
1210	 0.339732223915207 
1211	 0.339897561946382 
1212	 0.340059668299644 
1213	 0.340215924878003 
1214	 0.340386760167905 
1215	 0.340531986797583 
1216	 0.340662108392013 
1217	 0.340765497257816 
1218	 0.340896007780649 
1219	 0.341022107966844 
1220	 0.341149017134548 
1221	 0.341290517340522 
1222	 0.341424558600895 
1223	 0.341541424760152 
1224	 0.341675654977271 
1225	 0.341832223771765 
1226	 0.341969477554545 
1227	 0.342105597729676 
1228	 0.34223305839653 
1229	 0.34234315746784 
1230	 0.342462109376571 
1231	 0.342595173095065 
1232	 0.342705889884402 
1233	 0.342807021107788 
1234	 0.342901932408583 
1235	 0.342993806470587 
1236	 0.343060095543046 
1237	 0.343153956042547 
1238	 0.343268865703932 
1239	 0.343363496284117 
1240	 0.34345692633182 
1241	 0.343548252421496 
1242	 0.343633171992521 
1243	 0.343711902871382 
1244	 0.343778773372489 
1245	 0.343862389417984 
1246	 0.343951270971467 
1247	 0.344033769406899 
1248	 0.344123267862708 
1249	 0.344217413192516 
1250	 0.34429587603873 
1251	 0.344378687512301 
1252	 0.34446009021587 
1253	 0.344550318995568 
1254	 0.344629411816467 
1255	 0.344696918702021 
1256	 0.344771886998989 
1257	 0.34484925921575 
1258	 0.344924308554241 
1259	 0.34500594128541 
1260	 0.345074292494398 
1261	 0.345142999267181 
1262	 0.34519449161524 
1263	 0.345215128943459 
1264	 0.345259038756996 
1265	 0.345307135420133 
1266	 0.345351735846076 
1267	 0.345399789905039 
1268	 0.345463290226077 
1269	 0.345514010362269 
1270	 0.345555231956337 
1271	 0.345596317507365 
1272	 0.345633094680863 
1273	 0.345680428714348 
1274	 0.345713815326857 
1275	 0.345782614451446 
1276	 0.34587397329806 
1277	 0.345972007821006 
1278	 0.346106411106376 
1279	 0.346210980070302 
1280	 0.346302360227385 
1281	 0.346407279180294 
1282	 0.346495465199289 
1283	 0.346605331014647 
1284	 0.346747359641775 
1285	 0.346880571679082 
1286	 0.346988051704656 
1287	 0.347092559966711 
1288	 0.347196332461155 
1289	 0.347279643101045 
1290	 0.347383521239283 
1291	 0.347495917482966 
1292	 0.347613175976756 
1293	 0.347738443889406 
1294	 0.347848840702858 
1295	 0.347968337847832 
1296	 0.348077517245947 
1297	 0.348168210492272 
1298	 0.348263981088188 
1299	 0.34837427436014 
1300	 0.348457825482273 
1301	 0.348522013002885 
1302	 0.348586233706762 
1303	 0.348640362161623 
1304	 0.348683722146593 
1305	 0.348726537842016 
1306	 0.348760378106685 
1307	 0.348799155814484 
1308	 0.348819686716477 
1309	 0.348830592753571 
1310	 0.348836760593158 
1311	 0.348833494939289 
1312	 0.348806068574251 
1313	 0.348795182628775 
1314	 0.348784367867848 
1315	 0.348777583799595 
1316	 0.348766260557946 
1317	 0.348773651355404 
1318	 0.348803630101194 
1319	 0.348816269996853 
1320	 0.348840112427029 
1321	 0.348846460142888 
1322	 0.348838005604091 
1323	 0.348812298456703 
1324	 0.348796276039632 
1325	 0.348815724921266 
1326	 0.348837670719658 
1327	 0.348863441275714 
1328	 0.348877919845474 
1329	 0.348880654348155 
1330	 0.34889709641056 
1331	 0.3489057419249 
1332	 0.348931782277972 
1333	 0.348982491027176 
1334	 0.349008797957633 
1335	 0.349015032453032 
1336	 0.349056454437994 
1337	 0.349101953785527 
1338	 0.349158332985732 
1339	 0.349254113967202 
1340	 0.349321922553537 
1341	 0.349393885555382 
1342	 0.349440261487447 
1343	 0.34947050670751 
1344	 0.349485553750204 
1345	 0.349493868658417 
1346	 0.349495316158855 
1347	 0.349525757098772 
1348	 0.349584615825995 
1349	 0.349644744970781 
1350	 0.349687978337446 
1351	 0.349727173334276 
1352	 0.349748972383965 
1353	 0.349791230752659 
1354	 0.349843869709527 
1355	 0.349883986157714 
1356	 0.349936272311755 
1357	 0.349963270195887 
1358	 0.349958604850523 
1359	 0.349979331600947 
1360	 0.349992362196141 
1361	 0.350028072963132 
1362	 0.350089422478655 
1363	 0.350139429888476 
1364	 0.350203001330757 
1365	 0.350251872099707 
1366	 0.350280587471126 
1367	 0.350322275395976 
1368	 0.350395302993996 
1369	 0.35046074228052 
1370	 0.350529181912564 
1371	 0.350598368072732 
1372	 0.350618382759988 
1373	 0.350623093931143 
1374	 0.350626497689709 
1375	 0.350620787888508 
1376	 0.350600098179041 
1377	 0.350584949325022 
1378	 0.350524704879722 
1379	 0.350413662066993 
1380	 0.350338914261643 
1381	 0.350244756812292 
1382	 0.350170289154378 
1383	 0.350130566365554 
1384	 0.350073331034511 
1385	 0.350026557736128 
1386	 0.349946567247167 
1387	 0.349860552688829 
1388	 0.349747232345976 
1389	 0.349604303014288 
1390	 0.349444772872309 
1391	 0.349269301620747 
1392	 0.349078073178533 
1393	 0.348865503122389 
1394	 0.348635531865565 
1395	 0.348373791211019 
1396	 0.348104756183539 
1397	 0.347852830624022 
1398	 0.347594422886964 
1399	 0.347339842569099 
1400	 0.347107790386871 
1401	 0.346853874239715 
1402	 0.346586865892532 
1403	 0.34631459660024 
1404	 0.346027821351589 
1405	 0.345757604739511 
1406	 0.34547791021431 
1407	 0.345213610639069 
1408	 0.344958676510495 
1409	 0.344724571989395 
1410	 0.344484071531696 
1411	 0.344290494359486 
1412	 0.34413116619548 
1413	 0.343982697872087 
1414	 0.343900967983872 
1415	 0.34384372410023 
1416	 0.34379931797655 
1417	 0.343799536315135 
1418	 0.343772488605061 
1419	 0.343749645661778 
1420	 0.343759170377205 
1421	 0.343748850501207 
1422	 0.343758004276607 
1423	 0.343761288375768 
1424	 0.343733563883201 
1425	 0.34367844691107 
1426	 0.343641247414326 
1427	 0.343577763844135 
1428	 0.343549462821196 
1429	 0.343545207022874 
1430	 0.343531188266352 
1431	 0.343528468363853 
1432	 0.343518922620799 
1433	 0.343506352594484 
1434	 0.343498663939923 
1435	 0.343481133250447 
1436	 0.343481930908369 
1437	 0.34349412122962 
1438	 0.343511534384688 
1439	 0.343547308560828 
1440	 0.343576802807025 
1441	 0.34359818101069 
1442	 0.343603167480714 
1443	 0.343590691794995 
1444	 0.343598415642861 
1445	 0.343619104837123 
1446	 0.343647060052471 
1447	 0.343702661179537 
1448	 0.343740568352164 
1449	 0.343761268091525 
1450	 0.343793842517541 
1451	 0.343811024968193 
1452	 0.34380801045904 
1453	 0.343819963709193 
1454	 0.343829275772254 
1455	 0.343846029137402 
1456	 0.343879073145033 
1457	 0.343891160999006 
1458	 0.343896421268736 
1459	 0.343903757374977 
1460	 0.343890897553498 
1461	 0.343902986797352 
1462	 0.343936661335938 
1463	 0.343956384032907 
1464	 0.343967487567929 
1465	 0.343994910528579 
1466	 0.344025751383288 
1467	 0.344064142501733 
1468	 0.344118870283931 
1469	 0.344174633965022 
1470	 0.344229149643463 
1471	 0.34429071375322 
1472	 0.344356560813047 
1473	 0.344432593243713 
1474	 0.344511944478938 
1475	 0.344599206698401 
1476	 0.344703949387817 
1477	 0.344794596360282 
1478	 0.344889130349776 
1479	 0.344986704889462 
1480	 0.345080810598508 
1481	 0.345202902442996 
1482	 0.345307619219404 
1483	 0.345412330986607 
1484	 0.345516701806524 
1485	 0.345608629081608 
1486	 0.34571423226816 
1487	 0.345835460405733 
1488	 0.345942849727695 
1489	 0.346051304521368 
1490	 0.346152372571384 
1491	 0.346245841826741 
1492	 0.346337778139831 
1493	 0.346415058622886 
1494	 0.346512953323295 
1495	 0.346617781271141 
1496	 0.346725496785936 
1497	 0.34685144442433 
1498	 0.346962829913976 
1499	 0.347078027344518 
1500	 0.347174780441663 
1501	 0.347251844135408 
1502	 0.347340827678249 
1503	 0.347424443920429 
1504	 0.347499362845099 
1505	 0.347609572126868 
1506	 0.347723549154781 
1507	 0.347818877662992 
1508	 0.347912423108166 
1509	 0.347981867629522 
1510	 0.348029623289299 
1511	 0.348088353950366 
1512	 0.348162303313051 
1513	 0.348243621475789 
1514	 0.348342658489047 
1515	 0.348472388916699 
1516	 0.348582893029333 
1517	 0.348664019785969 
1518	 0.348732151003589 
1519	 0.348793816030857 
1520	 0.348811874161279 
1521	 0.348872504108927 
1522	 0.348948961283307 
1523	 0.349029926035461 
1524	 0.349128348494466 
1525	 0.349214376847911 
1526	 0.349312175785515 
1527	 0.34938596764323 
1528	 0.349445302230285 
1529	 0.3495021636621 
1530	 0.34953605645887 
1531	 0.349588146247062 
1532	 0.349638956060844 
1533	 0.349703665919982 
1534	 0.349794980138288 
1535	 0.349863540830438 
1536	 0.349934171059416 
1537	 0.349989296949975 
1538	 0.350013210196632 
1539	 0.350058542677475 
1540	 0.350116454608159 
1541	 0.350162086675491 
1542	 0.350212133584252 
1543	 0.350255927378722 
1544	 0.35028653907026 
1545	 0.350314955693247 
1546	 0.350342219112696 
1547	 0.350365852432327 
1548	 0.350387641818074 
1549	 0.35041688468509 
1550	 0.350454805126399 
1551	 0.350490370406362 
1552	 0.350530221992573 
1553	 0.350573934885901 
1554	 0.350640162121788 
1555	 0.350711648117484 
1556	 0.350761407248027 
1557	 0.35081187955358 
1558	 0.350850748440925 
1559	 0.350880019674391 
1560	 0.350919366730137 
1561	 0.350973847121621 
1562	 0.351008793420592 
1563	 0.351029464436485 
1564	 0.351062153332039 
1565	 0.351082071168342 
1566	 0.35113434901716 
1567	 0.351217798051591 
1568	 0.351274959308722 
1569	 0.351337738065072 
1570	 0.351393746299938 
1571	 0.351434814950918 
1572	 0.351477499562114 
1573	 0.351529702073009 
1574	 0.351563273573878 
1575	 0.351573597262031 
1576	 0.351598602995016 
1577	 0.351627999956183 
1578	 0.351655506474337 
1579	 0.351679777001322 
1580	 0.351711577301986 
1581	 0.351747755589678 
1582	 0.351776830143074 
1583	 0.351812332268027 
1584	 0.351844160829476 
1585	 0.351862361944034 
1586	 0.351890864521313 
1587	 0.351920411622792 
1588	 0.351961866839978 
1589	 0.352023946194291 
1590	 0.352064525256787 
1591	 0.352100873169335 
1592	 0.352137694944244 
1593	 0.352162579329195 
1594	 0.352185062954365 
1595	 0.352212278004753 
1596	 0.352236271271629 
1597	 0.352245215403962 
1598	 0.352265144344186 
1599	 0.352306207900554 
1600	 0.352323529371708 
1601	 0.352315889460739 
1602	 0.352328946840334 
1603	 0.352352863540851 
1604	 0.352356832611974 
1605	 0.35236097187722 
1606	 0.352369801387518 
1607	 0.352368344366001 
1608	 0.352350092454208 
1609	 0.352366456796904 
1610	 0.352381580563944 
1611	 0.352371304020651 
1612	 0.352382697305876 
1613	 0.352393676747606 
1614	 0.352390797551747 
1615	 0.352412625646619 
1616	 0.35242687555983 
1617	 0.352433809400521 
1618	 0.352459340037772 
1619	 0.352460595478092 
1620	 0.352461170458273 
1621	 0.352482910434003 
1622	 0.352516353572979 
1623	 0.352538969849216 
1624	 0.352573615391441 
1625	 0.35259529863192 
1626	 0.352603857167312 
1627	 0.352610136095237 
1628	 0.35262357289253 
1629	 0.352617842899197 
1630	 0.352589962717902 
1631	 0.352578582471729 
1632	 0.352560154578786 
1633	 0.35255759902423 
1634	 0.35257276192297 
1635	 0.35257085172535 
1636	 0.35256514826084 
1637	 0.352568634451687 
1638	 0.352562569258636 
1639	 0.352574827778626 
1640	 0.352610836036899 
1641	 0.352628071093452 
1642	 0.352643843225983 
1643	 0.352655295732972 
1644	 0.352657716384241 
1645	 0.352664939893324 
1646	 0.352674125589068 
1647	 0.352679066605606 
1648	 0.352674674752335 
1649	 0.352690846775053 
1650	 0.352719069369588 
1651	 0.352735218606494 
1652	 0.352764605175404 
1653	 0.352775214968651 
1654	 0.352776215574841 
1655	 0.352758140434944 
1656	 0.35270850017821 
1657	 0.352702119204579 
1658	 0.352695008617106 
1659	 0.352697962055884 
1660	 0.352749621110381 
1661	 0.352757148060558 
1662	 0.352730270617661 
1663	 0.352728218949142 
1664	 0.352727907655212 
1665	 0.352728026320659 
1666	 0.35273350473786 
1667	 0.352743611021404 
1668	 0.352759323575147 
1669	 0.352763893696044 
1670	 0.352769785671913 
1671	 0.352775230345684 
1672	 0.352773526838066 
1673	 0.352767096671103 
1674	 0.352763055380808 
1675	 0.352756130784898 
1676	 0.35272758155565 
1677	 0.352725705299364 
1678	 0.352748526387802 
1679	 0.352751082601082 
1680	 0.352753281560587 
1681	 0.352757416158223 
1682	 0.352755987768667 
1683	 0.352748688213459 
1684	 0.352747255267385 
1685	 0.352734564706899 
1686	 0.352687454652636 
1687	 0.35268733842695 
1688	 0.352710337644643 
1689	 0.352729538724465 
1690	 0.3527791591192 
1691	 0.35280662481654 
1692	 0.352829715789042 
1693	 0.352834870688783 
1694	 0.352820272327753 
1695	 0.352819728967655 
1696	 0.352807250437296 
1697	 0.352806408392398 
1698	 0.352832420201679 
1699	 0.352829096198651 
1700	 0.35281017020384 
1701	 0.35278973983483 
1702	 0.352756687570558 
1703	 0.352726273469976 
1704	 0.352693774234538 
1705	 0.352662982604014 
1706	 0.352631286912174 
1707	 0.352593755407258 
1708	 0.352548229708614 
1709	 0.352519878590811 
1710	 0.352486791334968 
1711	 0.352476813991062 
1712	 0.352483876638777 
1713	 0.352502339923308 
1714	 0.352546527752827 
1715	 0.35256593219813 
1716	 0.352598869830953 
1717	 0.352606103642265 
1718	 0.352590316804798 
1719	 0.35257085247142 
1720	 0.352547658782105 
1721	 0.352502576079596 
1722	 0.352435988652211 
1723	 0.352367573935743 
1724	 0.352270063104063 
1725	 0.352204437615413 
1726	 0.352145208253225 
1727	 0.352101452810368 
1728	 0.352092165042704 
1729	 0.352050773244854 
1730	 0.352001388065935 
1731	 0.351947359578359 
1732	 0.351887972990451 
1733	 0.351806984594025 
1734	 0.351709043320215 
1735	 0.351619858676912 
1736	 0.351498430545247 
1737	 0.35143170727702 
1738	 0.351398499732889 
1739	 0.351364798046645 
1740	 0.351364174796642 
1741	 0.351327959225134 
1742	 0.351282624036879 
1743	 0.351236278570604 
1744	 0.351172933899271 
1745	 0.351125056014784 
1746	 0.351080224722017 
1747	 0.351057347655239 
1748	 0.351017774387037 
1749	 0.350950083354092 
1750	 0.350901209948378 
1751	 0.350830665118493 
1752	 0.350754333078075 
1753	 0.350710261000141 
1754	 0.350653363944907 
1755	 0.350618896204744 
1756	 0.350606144420946 
1757	 0.350572696326407 
1758	 0.350559605315196 
1759	 0.350529802732217 
1760	 0.350448278385173 
1761	 0.350362462447823 
1762	 0.350277296496156 
1763	 0.3501785941224 
1764	 0.350093560910607 
1765	 0.350031919047024 
1766	 0.349974096418033 
1767	 0.349926455042109 
1768	 0.349896668450706 
1769	 0.349870275514409 
1770	 0.34980274626439 
1771	 0.349718228175198 
1772	 0.34964323384484 
1773	 0.349527580117316 
1774	 0.349450412351024 
1775	 0.349409207344901 
1776	 0.349331749899653 
1777	 0.349303373850887 
1778	 0.349286736602824 
1779	 0.349282317377217 
1780	 0.349315980347409 
1781	 0.349307076796867 
1782	 0.349296392281083 
1783	 0.349236741112348 
1784	 0.34917926740746 
1785	 0.349116780974872 
1786	 0.349057107954958 
1787	 0.348987397716126 
1788	 0.348933468554257 
1789	 0.348887856732921 
1790	 0.348865864525181 
1791	 0.348858065934804 
1792	 0.348847970010703 
1793	 0.348881346450741 
1794	 0.348841859755633 
1795	 0.348764306641954 
1796	 0.348697700086748 
1797	 0.34856979564063 
1798	 0.348506981007286 
1799	 0.348479223461021 
1800	 0.348463195446774 
1801	 0.341139721187909 
1802	 0.341287131617283 
1803	 0.341473153634948 
1804	 0.341670341075371 
1805	 0.341881257317137 
1806	 0.342071267557617 
1807	 0.342271244504411 
1808	 0.342430041322804 
1809	 0.342582670269614 
1810	 0.342687044516941 
1811	 0.342757447262943 
1812	 0.342789985318071 
1813	 0.342825896007938 
1814	 0.342853666434009 
1815	 0.342848808144918 
1816	 0.342857717986755 
1817	 0.342880893549185 
1818	 0.342878837423702 
1819	 0.342911207492585 
1820	 0.342978830625194 
1821	 0.343047197989396 
1822	 0.34309509926946 
1823	 0.343165838016484 
1824	 0.343234534271223 
1825	 0.343262812382834 
1826	 0.343302794852928 
1827	 0.343357837874744 
1828	 0.343361997785309 
1829	 0.343331444915699 
1830	 0.343311436978087 
1831	 0.343278811972844 
1832	 0.343200312385872 
1833	 0.343144326202811 
1834	 0.34311456458232 
1835	 0.343102455178808 
1836	 0.34310254407919 
1837	 0.343100387197866 
1838	 0.34309020133271 
1839	 0.343097967694822 
1840	 0.343113546121421 
1841	 0.343119201781929 
1842	 0.34312528766446 
1843	 0.343134296384751 
1844	 0.343118319433971 
1845	 0.343071631794735 
1846	 0.343015086033592 
1847	 0.342986887970899 
1848	 0.342932497737842 
1849	 0.342866421621061 
1850	 0.342829978855307 
1851	 0.342810891066211 
1852	 0.342790146684108 
1853	 0.342793457656607 
1854	 0.342813502428057 
1855	 0.342829483030267 
1856	 0.342840554447545 
1857	 0.342833458588915 
1858	 0.34279089456958 
1859	 0.342709502169673 
1860	 0.342610198245725 
1861	 0.342475005595252 
1862	 0.342320849964014 
1863	 0.342158139941871 
1864	 0.341986868244609 
1865	 0.341808677840349 
1866	 0.341583882090041 
1867	 0.341355607408299 
1868	 0.341157543732989 
1869	 0.340930961822505 
1870	 0.340705523045836 
1871	 0.340459991941971 
1872	 0.34020826060427 
1873	 0.339916900565364 
1874	 0.339625932991107 
1875	 0.339333627779687 
1876	 0.339038707399617 
1877	 0.338731173177446 
1878	 0.338370109003989 
1879	 0.337952020407329 
1880	 0.337480315143181 
1881	 0.336934756523437 
1882	 0.336372692553705 
1883	 0.335778674539955 
1884	 0.335127033982667 
1885	 0.334440019213704 
1886	 0.333702549567124 
1887	 0.332880272210817 
1888	 0.332021087214404 
1889	 0.331096606055665 
1890	 0.330100226332105 
1891	 0.329087602491811 
1892	 0.328006337708518 
1893	 0.326929598995899 
1894	 0.325835276075233 
1895	 0.324734286135066 
1896	 0.32358136255024 
1897	 0.32239957291698 
1898	 0.321206423569107 
1899	 0.32000068600246 
1900	 0.318816804320111 
1901	 0.317691755545481 
1902	 0.316610452363963 
1903	 0.315572688515315 
1904	 0.314571925964703 
1905	 0.313623213711723 
1906	 0.312706215179506 
1907	 0.311801673431681 
1908	 0.310948396355329 
1909	 0.310169163612506 
1910	 0.309407979869933 
1911	 0.308690685551928 
1912	 0.308028623097893 
1913	 0.307382380197312 
1914	 0.306740093018669 
1915	 0.306164190456007 
1916	 0.305646642873126 
1917	 0.305127383505911 
1918	 0.304666863212318 
1919	 0.304264664569898 
1920	 0.303857501307728 
1921	 0.30351232513791 
1922	 0.303205183386753 
1923	 0.302907086851088 
1924	 0.302661802960294 
1925	 0.3024711530792 
1926	 0.302301921718932 
1927	 0.302169623003575 
1928	 0.302060635468621 
1929	 0.30198043313719 
1930	 0.30190955167659 
1931	 0.301859916529847 
1932	 0.301857206041277 
1933	 0.301870933147837 
1934	 0.30191090339168 
1935	 0.301971461275014 
1936	 0.302058334066601 
1937	 0.302152735755966 
1938	 0.302264757769319 
1939	 0.302396567114285 
1940	 0.302540444164963 
1941	 0.302707203958854 
1942	 0.302898299183465 
1943	 0.303109940185816 
1944	 0.303328884948241 
1945	 0.303538652537167 
1946	 0.30375480772042 
1947	 0.303970741847223 
1948	 0.304192957658994 
1949	 0.304423502462258 
1950	 0.304654707045152 
1951	 0.304879323401485 
1952	 0.305125452917995 
1953	 0.305389350540882 
1954	 0.305636924752089 
1955	 0.30589605645482 
1956	 0.306140448822362 
1957	 0.306415983594264 
1958	 0.306697557084045 
1959	 0.306989890603188 
1960	 0.307316486104507 
1961	 0.307636947430855 
1962	 0.307942650900576 
1963	 0.308269663972306 
1964	 0.308630232017507 
1965	 0.308967867542893 
1966	 0.309297282868326 
1967	 0.309631633538132 
1968	 0.309954350886604 
1969	 0.310252256244475 
1970	 0.310572009455624 
1971	 0.310898942369195 
1972	 0.311227477997692 
1973	 0.311562643779361 
1974	 0.311899237284083 
1975	 0.31223827381554 
1976	 0.312577240942226 
1977	 0.312933331769658 
1978	 0.313272662115844 
1979	 0.313601260411775 
1980	 0.313951719889298 
1981	 0.314298569877958 
1982	 0.314642192702897 
1983	 0.314989998970368 
1984	 0.315343629364145 
1985	 0.315698967900256 
1986	 0.316064364427956 
1987	 0.316413018260642 
1988	 0.316761162542774 
1989	 0.317099390774368 
1990	 0.317439134087959 
1991	 0.317778371005189 
1992	 0.318134374090131 
1993	 0.318530223582999 
1994	 0.318881437213122 
1995	 0.319218013370015 
1996	 0.31955053611211 
1997	 0.31985018166979 
1998	 0.320172853634776 
1999	 0.320520214545432 
2000	 0.320842589513616 
2001	 0.321161267485803 
2002	 0.321465775457715 
2003	 0.321769622615355 
2004	 0.322081310540894 
2005	 0.322385533221809 
2006	 0.322699471803527 
2007	 0.323005496671947 
2008	 0.323296195212448 
2009	 0.323591100836405 
2010	 0.323892875835141 
2011	 0.324192273683669 
2012	 0.324478661658732 
2013	 0.324777681336824 
2014	 0.32508587061561 
2015	 0.325392222220136 
2016	 0.325697199975416 
2017	 0.326020220382339 
2018	 0.326350759184607 
2019	 0.326696537949473 
2020	 0.327030234516278 
2021	 0.327383772960991 
2022	 0.327710523232194 
2023	 0.328027113813244 
2024	 0.328326310709691 
2025	 0.328600960947011 
2026	 0.328878479431635 
2027	 0.329148435059666 
2028	 0.329403308455385 
2029	 0.329664519082392 
2030	 0.329937440768713 
2031	 0.33018121729086 
2032	 0.330396572958534 
2033	 0.330641974607136 
2034	 0.330874914681169 
2035	 0.331132289980221 
2036	 0.33144221137044 
2037	 0.331705246451245 
2038	 0.331967090159661 
2039	 0.332200011469634 
2040	 0.332401029518042 
2041	 0.332578980771968 
2042	 0.332771868045184 
2043	 0.332988808757961 
2044	 0.333204225415472 
2045	 0.333446360439958 
2046	 0.333663195717797 
2047	 0.333867282347751 
2048	 0.334076628020381 
2049	 0.33429445797951 
2050	 0.334487803298673 
2051	 0.334668728450584 
2052	 0.334848651975642 
2053	 0.335003496119202 
2054	 0.335169370691653 
2055	 0.335333125533345 
2056	 0.335518354530172 
2057	 0.335687062432412 
2058	 0.335846238225975 
2059	 0.336017089595695 
2060	 0.336192909938787 
2061	 0.33636412417668 
2062	 0.336539310713788 
2063	 0.336716038134913 
2064	 0.336891699043045 
2065	 0.337062693527506 
2066	 0.337235506433823 
2067	 0.337407751030553 
2068	 0.337591281027639 
2069	 0.337736361754187 
2070	 0.337904932572779 
2071	 0.338083709211296 
2072	 0.338249982713471 
2073	 0.338414420008226 
2074	 0.338576529162227 
2075	 0.33871809940842 
2076	 0.338887483909304 
2077	 0.339079299288001 
2078	 0.339252112249742 
2079	 0.339431878213528 
2080	 0.339608531572591 
2081	 0.339783289915107 
2082	 0.339936523992878 
2083	 0.340075227729672 
2084	 0.340224925296115 
2085	 0.340361601231778 
2086	 0.34047690586099 
2087	 0.340596293700797 
2088	 0.340713734780622 
2089	 0.340841437716124 
2090	 0.340957690157708 
2091	 0.341089187474708 
2092	 0.34125236008298 
2093	 0.34138868818096 
2094	 0.341503613896142 
2095	 0.341636766090343 
2096	 0.341777886369392 
2097	 0.341909554062817 
2098	 0.342055487822897 
2099	 0.342181431077919 
2100	 0.342307588745145 
2101	 0.342412481756156 
2102	 0.342540449501481 
2103	 0.342675440442268 
2104	 0.342814222680711 
2105	 0.342942665193634 
2106	 0.343112856091921 
2107	 0.34330045793483 
2108	 0.343505427589481 
2109	 0.343755834179019 
2110	 0.34399410433741 
2111	 0.344258495461401 
2112	 0.344487996826414 
2113	 0.344711978385382 
2114	 0.344920140900241 
2115	 0.345103851563907 
2116	 0.345248353872473 
2117	 0.345413348305344 
2118	 0.345568749595246 
2119	 0.34572791702844 
2120	 0.345874605454143 
2121	 0.346055059349734 
2122	 0.34627158965735 
2123	 0.346445130448011 
2124	 0.34663035259672 
2125	 0.346789419425648 
2126	 0.346891514355213 
2127	 0.347019656895131 
2128	 0.347177928431376 
2129	 0.347300209022519 
2130	 0.34740303322913 
2131	 0.347506296898984 
2132	 0.347589049124239 
2133	 0.347644187758674 
2134	 0.3476975564389 
2135	 0.347752738733363 
2136	 0.347778234829295 
2137	 0.347790293628561 
2138	 0.347771940127961 
2139	 0.347713388098095 
2140	 0.347666226333421 
2141	 0.347606128716496 
2142	 0.347532868472751 
2143	 0.347455134701677 
2144	 0.347371578646248 
2145	 0.347278772289893 
2146	 0.347165764950352 
2147	 0.347060865033561 
2148	 0.346914514084673 
2149	 0.346761549691445 
2150	 0.346575263127453 
2151	 0.346400149344172 
2152	 0.346220129262321 
2153	 0.346031837725681 
2154	 0.345834707740191 
2155	 0.34563781077858 
2156	 0.345448606296438 
2157	 0.345229585319689 
2158	 0.344999091743162 
2159	 0.34475256173284 
2160	 0.344475066152069 
2161	 0.344198505289985 
2162	 0.343904438834519 
2163	 0.343624298033783 
2164	 0.343350241197405 
2165	 0.34305169968593 
2166	 0.342796179190433 
2167	 0.342566992227508 
2168	 0.342326017433574 
2169	 0.342105602352266 
2170	 0.34186519241542 
2171	 0.34162442779565 
2172	 0.341358718918131 
2173	 0.341074830248204 
2174	 0.340794126044243 
2175	 0.340487225328615 
2176	 0.34019799766869 
2177	 0.339923181485203 
2178	 0.339637187055228 
2179	 0.339333650759475 
2180	 0.339055217241868 
2181	 0.338791227094262 
2182	 0.33852429333119 
2183	 0.338268750278331 
2184	 0.338017092388851 
2185	 0.337770533187099 
2186	 0.337520649478226 
2187	 0.337273596543784 
2188	 0.337048475001504 
2189	 0.336792376032099 
2190	 0.336513176920239 
2191	 0.33624598088398 
2192	 0.335975067284584 
2193	 0.335698251542837 
2194	 0.335399142157906 
2195	 0.335143409235384 
2196	 0.334886821926012 
2197	 0.334662076096271 
2198	 0.334473361781013 
2199	 0.334308788587851 
2200	 0.334157071660909 
2201	 0.334039896641292 
2202	 0.333980153932577 
2203	 0.333916643549809 
2204	 0.333857228275926 
2205	 0.3338211445618 
2206	 0.333766374720914 
2207	 0.333688280242789 
2208	 0.333657467047814 
2209	 0.333638347425869 
2210	 0.333640535120748 
2211	 0.333678532517314 
2212	 0.333716487381062 
2213	 0.333761820178135 
2214	 0.333822529954675 
2215	 0.333910775603228 
2216	 0.333989917442906 
2217	 0.334097378894201 
2218	 0.33416109902267 
2219	 0.334198503125848 
2220	 0.334235458135929 
2221	 0.334229358326701 
2222	 0.334258231937896 
2223	 0.334288131309554 
2224	 0.334317830206659 
2225	 0.334322227901862 
2226	 0.334315523748024 
2227	 0.334293336823086 
2228	 0.334251217906822 
2229	 0.33420983273401 
2230	 0.334162059573852 
2231	 0.334102305629313 
2232	 0.334015767914765 
2233	 0.333957921742054 
2234	 0.333904070086433 
2235	 0.333853396997758 
2236	 0.333821616187361 
2237	 0.333784476742664 
2238	 0.333728240346691 
2239	 0.333697903443417 
2240	 0.333706730649742 
2241	 0.333683041984959 
2242	 0.333668785313917 
2243	 0.333627691098997 
2244	 0.333553837947914 
2245	 0.333470964606924 
2246	 0.333390491144521 
2247	 0.333303653518447 
2248	 0.333241194251069 
2249	 0.333193509648781 
2250	 0.333140460489739 
2251	 0.33310060997797 
2252	 0.333059237033723 
2253	 0.333014221531032 
2254	 0.332973947173454 
2255	 0.332932036233664 
2256	 0.332902868498117 
2257	 0.33287833917827 
2258	 0.332866999879304 
2259	 0.332872107013456 
2260	 0.332882887076236 
2261	 0.332900392451585 
2262	 0.332920378658788 
2263	 0.332963975349411 
2264	 0.332984618976411 
2265	 0.332979645914588 
2266	 0.333004987943488 
2267	 0.333050753877067 
2268	 0.333071852717123 
2269	 0.333085322882952 
2270	 0.333121590475532 
2271	 0.33315637591959 
2272	 0.333160731949837 
2273	 0.333208340795521 
2274	 0.333277732729716 
2275	 0.333302406445402 
2276	 0.333300403945525 
2277	 0.333312182404296 
2278	 0.333290280294283 
2279	 0.333317655296417 
2280	 0.333369339331448 
2281	 0.333429302618466 
2282	 0.333538182145814 
2283	 0.333597325036969 
2284	 0.333645332322973 
2285	 0.33368372373658 
2286	 0.333693303062893 
2287	 0.333704795296336 
2288	 0.333680673472042 
2289	 0.333711986826025 
2290	 0.333779517177196 
2291	 0.333831499931068 
2292	 0.333925201538584 
2293	 0.333994784295549 
2294	 0.334022429645044 
2295	 0.334067918399839 
2296	 0.334120147285672 
2297	 0.334182855125491 
2298	 0.334250984214087 
2299	 0.334304787226135 
2300	 0.334353911237015 
2301	 0.334404501994544 
2302	 0.334435165416826 
2303	 0.33447613579426 
2304	 0.33453774395286 
2305	 0.334599398646492 
2306	 0.334637890987516 
2307	 0.334667393371396 
2308	 0.334702680916534 
2309	 0.334736247587737 
2310	 0.334750777616457 
2311	 0.334771438581398 
2312	 0.334756442672254 
2313	 0.334687894683973 
2314	 0.334638911058482 
2315	 0.334576987459676 
2316	 0.334550229283625 
2317	 0.334524754229303 
2318	 0.334527549661978 
2319	 0.334574748668061 
2320	 0.334603166772162 
2321	 0.334633255057926 
2322	 0.334683289807844 
2323	 0.334749103970409 
2324	 0.334805536636551 
2325	 0.334904292238348 
2326	 0.334949464352458 
2327	 0.334964151782447 
2328	 0.33492697139129 
2329	 0.33496061621966 
2330	 0.334969852860211 
2331	 0.335017798906144 
2332	 0.335094688706989 
2333	 0.33509510255644 
2334	 0.335072423675629 
2335	 0.335078495227303 
2336	 0.335116848287017 
2337	 0.335139640191596 
2338	 0.335159060894128 
2339	 0.335194416609403 
2340	 0.335169468122043 
2341	 0.335165431395468 
2342	 0.335200584616888 
2343	 0.335121158943205 
2344	 0.334988670150073 
2345	 0.334874863065844 
2346	 0.334702452944054 
2347	 0.334571097695878 
2348	 0.334463889105484 
2349	 0.334384599454957 
2350	 0.334345605381612 
2351	 0.334255414899286 
2352	 0.334180314265088 
2353	 0.334042067868653 
2354	 0.333785249198839 
2355	 0.333656119122357 
2356	 0.333583158353685 
2357	 0.333492368493212 
2358	 0.333469265701148 
2359	 0.333393726438478 
2360	 0.333272717754724 
2361	 0.333158433963235 
2362	 0.333070423418814 
2363	 0.332940502687749 
2364	 0.33272142384633 
2365	 0.332585888528515 
2366	 0.332511701987483 
2367	 0.332371706855201 
2368	 0.332257828526769 
2369	 0.332121162514306 
2370	 0.331924246491869 
2371	 0.331708168927723 
2372	 0.331562483922828 
2373	 0.331445157322742 
2374	 0.331332912439748 
2375	 0.331117077475641 
2376	 0.330892743717725 
2377	 0.330674479539446 
2378	 0.330460831359423 
2379	 0.3302788896613 
2380	 0.330035412472259 
2381	 0.329771709104249 
2382	 0.329504447426827 
2383	 0.329297949288624 
2384	 0.329143545581892 
2385	 0.328984760946626 
2386	 0.328753502382774 
2387	 0.328450011391731 
2388	 0.328243048295769 
2389	 0.327993077695348 
2390	 0.327732653338198 
2391	 0.327589984358677 
2392	 0.327339149861831 
2393	 0.327079392429727 
2394	 0.326922561646229 
2395	 0.326713694580488 
2396	 0.326476867027232 
2397	 0.326214089109031 
2398	 0.32585294020411 
2399	 0.325454544457094 
2400	 0.325154972135805 
2401	 0.32488757984208 
2402	 0.324572223036018 
2403	 0.324314760704973 
2404	 0.324088534652729 
2405	 0.32389428972097 
2406	 0.323776617730882 
2407	 0.323679234410811 
2408	 0.323543512717261 
2409	 0.323287573851643 
2410	 0.322989724093513 
2411	 0.32273137491066 
2412	 0.322399744714278 
2413	 0.32207869894994 
2414	 0.321888125428874 
2415	 0.321678941585351 
2416	 0.321442550372691 
2417	 0.321284941517572 
2418	 0.320985117254748 
2419	 0.320531259505303 
2420	 0.3201729650289 
2421	 0.319774442823469 
2422	 0.319410700759608 
2423	 0.319073461408016 
2424	 0.318780311007401 
2425	 0.318533915082551 
2426	 0.318222034426844 
2427	 0.317963876804069 
2428	 0.317771082559996 
2429	 0.317493688695724 
2430	 0.317289857554406 
2431	 0.31722308358255 
2432	 0.317020730041191 
2433	 0.31680267226919 
2434	 0.316535682976791 
2435	 0.316206741630926 
2436	 0.315852994239533 
2437	 0.315431914860021 
2438	 0.315059299402751 
2439	 0.314645014418137 
2440	 0.314325160850527 
2441	 0.3140192957017 
2442	 0.313782135934595 
2443	 0.313726779360268 
2444	 0.313512178903765 
2445	 0.31326585177795 
2446	 0.312990078367017 
2447	 0.31262458094497 
2448	 0.312333555694038 
2449	 0.312063240199538 
2450	 0.31172363896954 
2451	 0.311308523597756 
2452	 0.310956225365555 
2453	 0.310621493440253 
2454	 0.310383698702666 
2455	 0.310287769026557 
2456	 0.310063689903603 
2457	 0.309780447900435 
2458	 0.309527283054936 
2459	 0.309226465197445 
2460	 0.308923305917817 
2461	 0.30867658986386 
2462	 0.308359673360433 
2463	 0.307960821416542 
2464	 0.307690751919046 
2465	 0.307500478882605 
2466	 0.307170248525306 
2467	 0.306804581537914 
2468	 0.306450288950432 
2469	 0.305912868564407 
2470	 0.30579645931423 
2471	 0.305802137788008 
2472	 0.305795790561832 
2473	 0.305575967657666 
2474	 0.305290318596778 
2475	 0.305024919815622 
2476	 0.304734941581908 
2477	 0.304587799777732 
2478	 0.304311235774998 
2479	 0.303972757729163 
2480	 0.303702786194451 
2481	 0.30330738655044 
2482	 0.303059232862121 
2483	 0.303047853044272 
2484	 0.302759423592262 
2485	 0.302389146987913 
2486	 0.302268527941381 
2487	 0.301922295667035 
2488	 0.301629171296254 
2489	 0.301509308490275 
2490	 0.301287734615215 
2491	 0.301135058070582 
2492	 0.301005713243931 
2493	 0.300947721184729 
2494	 0.300730103352776 
2495	 0.30032585534925 
2496	 0.300148917976644 
2497	 0.299882821479881 
2498	 0.299584469704468 
2499	 0.299683226416707 
2500	 0.299546157557051 
