Wavelength	MM200003.asd
350	 5.23984674260995E-02 
351	 5.10477054630363E-02 
352	 5.16941803099761E-02 
353	 5.35124314339664E-02 
354	 5.24018295220995E-02 
355	 5.11280830198693E-02 
356	 5.08931241137873E-02 
357	 5.20890635289861E-02 
358	 5.36421314732259E-02 
359	 0.055613352905092 
360	 5.76529798830788E-02 
361	 5.87250097897127E-02 
362	 5.33586645861288E-02 
363	 5.06033058938832E-02 
364	 5.32549009931183E-02 
365	 5.20501089374219E-02 
366	 5.04063629030351E-02 
367	 5.03583659787623E-02 
368	 5.28416158533143E-02 
369	 5.64300544750801E-02 
370	 0.055310980511909 
371	 5.23192808802853E-02 
372	 5.52890676353555E-02 
373	 5.71041165191756E-02 
374	 5.76879686343344E-02 
375	 5.74012325359173E-02 
376	 5.55114116720235E-02 
377	 5.52546440300396E-02 
378	 0.055553258083925 
379	 5.48981743490243E-02 
380	 5.62371158306438E-02 
381	 5.63499652053308E-02 
382	 5.57744001947232E-02 
383	 5.76297505086523E-02 
384	 5.82735261581633E-02 
385	 5.84687265475697E-02 
386	 5.90191236076385E-02 
387	 5.95564599597302E-02 
388	 6.03803229914489E-02 
389	 6.06260232761624E-02 
390	 5.97703819219424E-02 
391	 6.05304396120094E-02 
392	 6.11474350298093E-02 
393	 6.15197035719108E-02 
394	 0.062966879587508 
395	 6.33222134333614E-02 
396	 6.42646718908337E-02 
397	 6.63962278194434E-02 
398	 6.67333084749169E-02 
399	 6.67401129243853E-02 
400	 6.70322254148544E-02 
401	 6.76891760148913E-02 
402	 6.74942524061233E-02 
403	 6.71594640502931E-02 
404	 6.73148415717419E-02 
405	 6.83206834793592E-02 
406	 6.91030472974476E-02 
407	 6.94187833356592E-02 
408	 6.93682889536513E-02 
409	 6.93900736931649E-02 
410	 6.92047033403054E-02 
411	 6.93109031021579E-02 
412	 7.03646927280106E-02 
413	 7.16952849264161E-02 
414	 7.19396177540617E-02 
415	 7.12754041901226E-02 
416	 7.18416193655752E-02 
417	 7.15465269861677E-02 
418	 7.13906435842692E-02 
419	 7.23329616313978E-02 
420	 7.27731845300865E-02 
421	 7.24391831826781E-02 
422	 7.19788561069402E-02 
423	 0.072431319417477 
424	 7.23589247309958E-02 
425	 0.072378946454284 
426	 7.27437592673112E-02 
427	 7.25787137760711E-02 
428	 7.22387523527819E-02 
429	 0.071975683699613 
430	 7.19845642813066E-02 
431	 7.24257220144209E-02 
432	 7.19937562683836E-02 
433	 7.10638585257885E-02 
434	 7.15466680077962E-02 
435	 7.16465928727753E-02 
436	 7.14702368448606E-02 
437	 0.071348578582774 
438	 7.11415302722467E-02 
439	 7.12499346222103E-02 
440	 7.16368729398369E-02 
441	 7.19912375654791E-02 
442	 7.17242852666474E-02 
443	 0.071929385074845 
444	 7.26764188681296E-02 
445	 7.22426038591212E-02 
446	 7.25273251227837E-02 
447	 7.31016881585285E-02 
448	 0.073164815655316 
449	 7.33549818801074E-02 
450	 7.35374415762288E-02 
451	 7.36328704087912E-02 
452	 0.073640549095948 
453	 7.37878093127675E-02 
454	 7.39705232710755E-02 
455	 7.41501802477821E-02 
456	 7.46634016358396E-02 
457	 7.47997465363016E-02 
458	 7.46862844914612E-02 
459	 7.47696670707778E-02 
460	 7.46483235357918E-02 
461	 0.074734524349636 
462	 7.50775803937386E-02 
463	 7.51358792065356E-02 
464	 7.51162974670171E-02 
465	 7.52552101314295E-02 
466	 7.56043793728692E-02 
467	 7.54082011879607E-02 
468	 7.54178451930072E-02 
469	 7.56819327389377E-02 
470	 7.56795835584677E-02 
471	 7.57326205527736E-02 
472	 7.58017851265716E-02 
473	 7.58188602035613E-02 
474	 7.57652273916321E-02 
475	 7.58152489423119E-02 
476	 7.59571689482749E-02 
477	 7.60819726230701E-02 
478	 0.076076503438935 
479	 7.60724512694237E-02 
480	 7.61317667144043E-02 
481	 7.61866475843247E-02 
482	 7.63742791158229E-02 
483	 7.65579323887736E-02 
484	 7.65588649668615E-02 
485	 0.076313054297704 
486	 7.62930779786021E-02 
487	 7.64713013851612E-02 
488	 7.64237395992296E-02 
489	 7.65518450608011E-02 
490	 7.67307457893171E-02 
491	 7.68161850945377E-02 
492	 7.68512731183439E-02 
493	 7.67106491755024E-02 
494	 0.076604027268151 
495	 7.68277310704915E-02 
496	 0.077050836069448 
497	 7.70915113506565E-02 
498	 7.69921006414082E-02 
499	 7.70909828257558E-02 
500	 7.72600260711984E-02 
501	 7.73259614276744E-02 
502	 7.72052352732963E-02 
503	 7.72710284882887E-02 
504	 7.73747248090808E-02 
505	 7.74001673329326E-02 
506	 7.72972448666661E-02 
507	 7.74558346691374E-02 
508	 7.76766831260663E-02 
509	 7.77531009572102E-02 
510	 7.77844588390013E-02 
511	 7.77590672974641E-02 
512	 0.077716421965724 
513	 7.77196134331111E-02 
514	 0.07777782714815 
515	 7.79326955141068E-02 
516	 7.81325973473705E-02 
517	 7.81682406697654E-02 
518	 0.07811591117073 
519	 7.80856362661171E-02 
520	 7.81644299246199E-02 
521	 7.82305913202322E-02 
522	 7.83637336212198E-02 
523	 7.85213256226608E-02 
524	 7.85289028214928E-02 
525	 7.85721597357056E-02 
526	 7.86130094685842E-02 
527	 7.86130353850043E-02 
528	 7.86984116347906E-02 
529	 7.87623869081659E-02 
530	 0.078855230979833 
531	 0.079100867871624 
532	 7.91917330805218E-02 
533	 7.92535307008984E-02 
534	 7.93714761184618E-02 
535	 7.94056578784203E-02 
536	 7.94698754447884E-02 
537	 7.95750575658364E-02 
538	 7.96885896918293E-02 
539	 7.97781475061129E-02 
540	 7.98710601152915E-02 
541	 7.99801557896649E-02 
542	 8.00912912756654E-02 
543	 8.02472670501378E-02 
544	 8.03923619653597E-02 
545	 8.04886144889196E-02 
546	 8.06876778246961E-02 
547	 8.08502687597869E-02 
548	 8.09547949781988E-02 
549	 8.10879893178392E-02 
550	 8.13227956442212E-02 
551	 8.15280972774444E-02 
552	 0.081646348858688 
553	 8.19186292918773E-02 
554	 8.21624611854017E-02 
555	 0.082364882147538 
556	 8.26000251477602E-02 
557	 8.28700322184921E-02 
558	 8.31754172133412E-02 
559	 8.35084933796554E-02 
560	 8.38519333000126E-02 
561	 8.41868787532308E-02 
562	 8.45385757181776E-02 
563	 8.49425502113133E-02 
564	 0.085404941195195 
565	 8.58080529044966E-02 
566	 8.61795325739599E-02 
567	 8.67121499246237E-02 
568	 8.72562397241202E-02 
569	 8.77773395191953E-02 
570	 0.088280320023895 
571	 8.87978008157043E-02 
572	 8.93946402605067E-02 
573	 9.00363380122226E-02 
574	 9.06254326102128E-02 
575	 9.12550875756367E-02 
576	 9.19436342334227E-02 
577	 9.26735511500438E-02 
578	 9.33630842030639E-02 
579	 9.41774684741897E-02 
580	 9.50633443852773E-02 
581	 9.58947269637083E-02 
582	 9.67755442547942E-02 
583	 9.76416335151653E-02 
584	 9.84712062578569E-02 
585	 9.93221946798441E-02 
586	 0.100266024012574 
587	 0.101251333348266 
588	 0.102212258027982 
589	 0.103213434938032 
590	 0.104233537478428 
591	 0.105240639969546 
592	 0.106202940261037 
593	 0.107196949187728 
594	 0.108200170825018 
595	 0.109189731888484 
596	 0.11020471537411 
597	 0.111227431644758 
598	 0.112199415874242 
599	 0.113067276783933 
600	 0.11400012114173 
601	 0.11494708772346 
602	 0.115844413051285 
603	 0.116650805171135 
604	 0.117481458671268 
605	 0.118333302305343 
606	 0.11915932702265 
607	 0.119930893267924 
608	 0.120696782237159 
609	 0.121475152079946 
610	 0.122244332775254 
611	 0.122920003478318 
612	 0.123541717144631 
613	 0.12415535637819 
614	 0.124718633169303 
615	 0.125261923079236 
616	 0.125793976175529 
617	 0.126304562630961 
618	 0.12678297439617 
619	 0.127208475636733 
620	 0.127592372263597 
621	 0.128017674977772 
622	 0.128409901546497 
623	 0.128752556317162 
624	 0.129065856502603 
625	 0.129441408218003 
626	 0.129824911527003 
627	 0.130169609824977 
628	 0.130454548876686 
629	 0.130819257686628 
630	 0.13116985723884 
631	 0.131405786192398 
632	 0.131658191191918 
633	 0.131966005153342 
634	 0.132301463058864 
635	 0.132588099547214 
636	 0.132866957619464 
637	 0.133167217817025 
638	 0.133489291287883 
639	 0.13377008920744 
640	 0.134014229344612 
641	 0.134282114165088 
642	 0.134637358933393 
643	 0.134950062204897 
644	 0.135210206256494 
645	 0.135465425233486 
646	 0.13582968472969 
647	 0.136144157098331 
648	 0.136415366129819 
649	 0.136701573811182 
650	 0.137050224391105 
651	 0.137424730083046 
652	 0.137793571388102 
653	 0.138135776142872 
654	 0.13848511746402 
655	 0.138823713980914 
656	 0.139154138877864 
657	 0.139555572958227 
658	 0.139957301252428 
659	 0.140344452057937 
660	 0.140727754902221 
661	 0.141102480943828 
662	 0.141494300485155 
663	 0.141925743719835 
664	 0.142412845885601 
665	 0.142864165529529 
666	 0.143299869684883 
667	 0.143765296439187 
668	 0.144253433360306 
669	 0.144748909556935 
670	 0.145236638515251 
671	 0.14570438139834 
672	 0.14621277614147 
673	 0.146723790989391 
674	 0.147221415248989 
675	 0.147788576035595 
676	 0.148352897709929 
677	 0.148887991734034 
678	 0.149405310232913 
679	 0.150023400889827 
680	 0.150641568132851 
681	 0.151225340920259 
682	 0.15185350403548 
683	 0.152424589755276 
684	 0.152995319323744 
685	 0.153640717252134 
686	 0.154353560709329 
687	 0.155038686874535 
688	 0.15568786221237 
689	 0.156354890681367 
690	 0.157013572058658 
691	 0.157659762959304 
692	 0.158316784609856 
693	 0.159063228258002 
694	 0.159806616455966 
695	 0.160519345589941 
696	 0.161215533048751 
697	 0.161985867496681 
698	 0.162758712417185 
699	 0.163505844179441 
700	 0.164254035952971 
701	 0.164996703545189 
702	 0.165748853748591 
703	 0.166512164400875 
704	 0.167239275679067 
705	 0.167966080421971 
706	 0.168727571045966 
707	 0.169538293014566 
708	 0.170261412796208 
709	 0.171005479286354 
710	 0.171800393486225 
711	 0.1725259887092 
712	 0.173263123790633 
713	 0.174015830097495 
714	 0.17476426830208 
715	 0.175474773709516 
716	 0.176203727326633 
717	 0.176948563372983 
718	 0.177660255583726 
719	 0.17831007004755 
720	 0.178945121490394 
721	 0.179594282963661 
722	 0.180227350244185 
723	 0.180879625226298 
724	 0.181515222803215 
725	 0.182087554436996 
726	 0.182617411277967 
727	 0.183174974379465 
728	 0.183733310953931 
729	 0.184182482543572 
730	 0.184665336594105 
731	 0.185130159761963 
732	 0.18553170530808 
733	 0.185926475379165 
734	 0.186309608557411 
735	 0.186642771052658 
736	 0.186901610266786 
737	 0.187247121005057 
738	 0.187520289817197 
739	 0.187697386050539 
740	 0.187923163097099 
741	 0.188115757965282 
742	 0.18828955871728 
743	 0.188440366253043 
744	 0.188451373478674 
745	 0.188479349792507 
746	 0.18854427949874 
747	 0.188587012137968 
748	 0.188509963465453 
749	 0.188468075838628 
750	 0.188468507007383 
751	 0.188317828063406 
752	 0.188148751624813 
753	 0.187993694445072 
754	 0.187846168746741 
755	 0.187653549874951 
756	 0.187469362928499 
757	 0.187262963766883 
758	 0.18697448490923 
759	 0.186667716105454 
760	 0.186344133524989 
761	 0.186017365341641 
762	 0.185721201882669 
763	 0.18541399447579 
764	 0.185053293321411 
765	 0.184637662506531 
766	 0.18428118348897 
767	 0.183894622848161 
768	 0.183469512424212 
769	 0.183041891095846 
770	 0.182648011426219 
771	 0.182239445098161 
772	 0.181795976052841 
773	 0.181341135320373 
774	 0.180896304456946 
775	 0.180449505312325 
776	 0.17998895640342 
777	 0.179526603067411 
778	 0.179073654634735 
779	 0.178599864540331 
780	 0.178071510536188 
781	 0.177553410261355 
782	 0.177099447798362 
783	 0.176677025452649 
784	 0.176173450477532 
785	 0.175710974292972 
786	 0.175260166488772 
787	 0.174782377696334 
788	 0.174281668228289 
789	 0.173807634298884 
790	 0.17336736089981 
791	 0.172939960295774 
792	 0.172469006412599 
793	 0.172000658896416 
794	 0.171542923817889 
795	 0.171071009010871 
796	 0.170632826297637 
797	 0.170208955166057 
798	 0.169772967653339 
799	 0.169303365232608 
800	 0.168881102632646 
801	 0.168477705292459 
802	 0.168046089501632 
803	 0.16760546756627 
804	 0.167217900272 
805	 0.166871256206685 
806	 0.166506142085713 
807	 0.166104403733306 
808	 0.165683397981164 
809	 0.165279262093245 
810	 0.164939871643789 
811	 0.164601307072649 
812	 0.164263119200542 
813	 0.163938000778857 
814	 0.163642204863582 
815	 0.163272887601497 
816	 0.162884741344658 
817	 0.162577059836863 
818	 0.162287075377484 
819	 0.162026684593239 
820	 0.161775588837089 
821	 0.161487668138459 
822	 0.161173829663876 
823	 0.160880576788733 
824	 0.160623864081772 
825	 0.16036162405385 
826	 0.160114589183251 
827	 0.159878883167775 
828	 0.159647579611336 
829	 0.159426051086261 
830	 0.159188815047097 
831	 0.158943709462535 
832	 0.158718024764512 
833	 0.158540848857811 
834	 0.158389207233824 
835	 0.158228110334116 
836	 0.158023946490226 
837	 0.157843226238125 
838	 0.157704997908063 
839	 0.157584125565191 
840	 0.157396677189061 
841	 0.157265419055223 
842	 0.157134615491155 
843	 0.156957545646576 
844	 0.156881357736135 
845	 0.156782064765244 
846	 0.15665074766449 
847	 0.156543988677162 
848	 0.156545250214437 
849	 0.156529992764733 
850	 0.156445542864642 
851	 0.156321304216989 
852	 0.156211710291121 
853	 0.156159102994251 
854	 0.156158367763616 
855	 0.156143813793355 
856	 0.156102385357964 
857	 0.156077222642011 
858	 0.156090429930715 
859	 0.156070716338494 
860	 0.156068442776545 
861	 0.156087930075132 
862	 0.156113611902038 
863	 0.156118557325503 
864	 0.156148106059797 
865	 0.156210808070586 
866	 0.156279342266983 
867	 0.156260713733405 
868	 0.156298579156491 
869	 0.156423818178163 
870	 0.156529925507738 
871	 0.156579390308264 
872	 0.156631137779517 
873	 0.156739401978146 
874	 0.15691824831616 
875	 0.157071231188249 
876	 0.157170815793671 
877	 0.157240153357664 
878	 0.157371108840997 
879	 0.157569163999464 
880	 0.157720305131151 
881	 0.157753291617263 
882	 0.157948772373476 
883	 0.15816616786553 
884	 0.15835231290788 
885	 0.158516340966077 
886	 0.158682157727147 
887	 0.158898922058301 
888	 0.159119854531415 
889	 0.159242540439413 
890	 0.159443254694574 
891	 0.159737405479336 
892	 0.160056728002004 
893	 0.160270391380171 
894	 0.160473623478635 
895	 0.160740760255228 
896	 0.161072642422743 
897	 0.161350224315818 
898	 0.161630457374005 
899	 0.161933106356334 
900	 0.162253708470507 
901	 0.16254537624649 
902	 0.162854241770634 
903	 0.163197939860156 
904	 0.163578054296017 
905	 0.163989246027971 
906	 0.164339292550251 
907	 0.164665970042055 
908	 0.16504397242742 
909	 0.165373584032433 
910	 0.165720664792894 
911	 0.166129295362701 
912	 0.166598630599663 
913	 0.166989960629876 
914	 0.167423679730031 
915	 0.167893975137596 
916	 0.168281957524522 
917	 0.168672581417616 
918	 0.169169462654935 
919	 0.169745488146685 
920	 0.170233990753335 
921	 0.1707385826046 
922	 0.171223300233101 
923	 0.171693720849771 
924	 0.172240942521504 
925	 0.172812708721483 
926	 0.173367386829881 
927	 0.173899290483203 
928	 0.174460526292228 
929	 0.175075504455063 
930	 0.175647491835294 
931	 0.176150421041922 
932	 0.176793765652855 
933	 0.177412678219713 
934	 0.17801520505351 
935	 0.178638797325592 
936	 0.179250036150704 
937	 0.179870761184886 
938	 0.180547086619451 
939	 0.181286782315663 
940	 0.18195349947686 
941	 0.182622975106305 
942	 0.183323364670432 
943	 0.184057728286645 
944	 0.184813227665333 
945	 0.185548708535 
946	 0.186281819858191 
947	 0.187043379130189 
948	 0.187801093322043 
949	 0.188516453820022 
950	 0.189210660051337 
951	 0.189956897623022 
952	 0.190912328762382 
953	 0.191736606031122 
954	 0.192456583930074 
955	 0.193294461795795 
956	 0.194222085735472 
957	 0.195000456131624 
958	 0.195741254705128 
959	 0.196699959943279 
960	 0.197587624383597 
961	 0.198475151130087 
962	 0.199392626361664 
963	 0.200311551184232 
964	 0.201115075500528 
965	 0.201983602300497 
966	 0.202962687579298 
967	 0.203958967677591 
968	 0.204737602700322 
969	 0.205644481056638 
970	 0.206641743100775 
971	 0.20748451069314 
972	 0.208565779427593 
973	 0.209645706191484 
974	 0.21060073605959 
975	 0.211467334586166 
976	 0.212471965624444 
977	 0.213520241982065 
978	 0.214521941697513 
979	 0.215440740497567 
980	 0.216417754805849 
981	 0.217332482319898 
982	 0.218201842510405 
983	 0.219141310113654 
984	 0.220237760010865 
985	 0.221298279020018 
986	 0.222332154084228 
987	 0.223433693775076 
988	 0.224451314555249 
989	 0.225474074989292 
990	 0.226453986688999 
991	 0.227346028675236 
992	 0.228478844566808 
993	 0.229417201379295 
994	 0.230301693228422 
995	 0.231395710260979 
996	 0.232252035293851 
997	 0.233300775275163 
998	 0.234371376687901 
999	 0.235217532306192 
1000	 0.236238488316345 
1001	 0.237737226282427 
1002	 0.238668088603306 
1003	 0.239614156462061 
1004	 0.240512599433161 
1005	 0.241366375404324 
1006	 0.242250974523822 
1007	 0.24313979293141 
1008	 0.243973398209208 
1009	 0.244840735127598 
1010	 0.245745315634781 
1011	 0.246588344170353 
1012	 0.247442401954082 
1013	 0.248312156302778 
1014	 0.24912344887368 
1015	 0.249937232408509 
1016	 0.250770308224814 
1017	 0.251551870865287 
1018	 0.252282853089373 
1019	 0.252994920646085 
1020	 0.2537918420732 
1021	 0.25457690453857 
1022	 0.255335113411648 
1023	 0.256082483203127 
1024	 0.256767835466417 
1025	 0.257425182687749 
1026	 0.258079270599417 
1027	 0.258794997569777 
1028	 0.259531969321894 
1029	 0.260207392393747 
1030	 0.260851389614665 
1031	 0.26150377463484 
1032	 0.262142543986195 
1033	 0.262785511655238 
1034	 0.263422977916019 
1035	 0.264026357585998 
1036	 0.264624090526986 
1037	 0.265190600254417 
1038	 0.265734692852725 
1039	 0.266344396246074 
1040	 0.266954141548852 
1041	 0.267511143005364 
1042	 0.268060248236724 
1043	 0.268570596974631 
1044	 0.269110085683515 
1045	 0.269642447790717 
1046	 0.270215646484554 
1047	 0.270774962461662 
1048	 0.271356708380488 
1049	 0.271942681495416 
1050	 0.272487351100094 
1051	 0.273031890939772 
1052	 0.273578959318006 
1053	 0.274121125488347 
1054	 0.274675752281022 
1055	 0.275237535164657 
1056	 0.275828306081701 
1057	 0.276389532498961 
1058	 0.2769093404527 
1059	 0.27745554206745 
1060	 0.278001058851926 
1061	 0.278567135969994 
1062	 0.279112845248728 
1063	 0.279709467434981 
1064	 0.280329501512584 
1065	 0.280866970761097 
1066	 0.281459286881992 
1067	 0.282019542358714 
1068	 0.28250737058339 
1069	 0.283087915188192 
1070	 0.28364235329435 
1071	 0.284175355060932 
1072	 0.28473267295673 
1073	 0.285326074664954 
1074	 0.285860003710934 
1075	 0.286344454144753 
1076	 0.286878768056781 
1077	 0.287452821277091 
1078	 0.287993907654901 
1079	 0.288549725756285 
1080	 0.289083027337483 
1081	 0.289575803632817 
1082	 0.290100385398523 
1083	 0.290622595272451 
1084	 0.291172108696539 
1085	 0.29169986973716 
1086	 0.292210260072778 
1087	 0.292717156428122 
1088	 0.293214510422168 
1089	 0.293724549816812 
1090	 0.294237144533212 
1091	 0.294729825311222 
1092	 0.295209984314261 
1093	 0.2956996533649 
1094	 0.296172056846116 
1095	 0.296600585470966 
1096	 0.297047773454739 
1097	 0.297511276745584 
1098	 0.29796658875753 
1099	 0.298421671102724 
1100	 0.298888796523228 
1101	 0.29936996620361 
1102	 0.299829899790399 
1103	 0.300302754395836 
1104	 0.300734149810661 
1105	 0.301159142678093 
1106	 0.301582676288858 
1107	 0.301990475815976 
1108	 0.302437583346721 
1109	 0.302884138404783 
1110	 0.303316139411709 
1111	 0.303759110355966 
1112	 0.304223345193109 
1113	 0.30464988090841 
1114	 0.305066894469154 
1115	 0.30547708819569 
1116	 0.305848964696944 
1117	 0.3062543186814 
1118	 0.306680259672867 
1119	 0.307089971629883 
1120	 0.307507822133583 
1121	 0.3079199308345 
1122	 0.308324673491042 
1123	 0.308724068762306 
1124	 0.309134720249529 
1125	 0.309558987814584 
1126	 0.309970201688213 
1127	 0.310378030779783 
1128	 0.310786299735998 
1129	 0.31118233232947 
1130	 0.311594488966123 
1131	 0.312031539264268 
1132	 0.312436561747476 
1133	 0.31284104060609 
1134	 0.313228088146975 
1135	 0.313588231598255 
1136	 0.31394314991518 
1137	 0.314290964469721 
1138	 0.314642924311797 
1139	 0.315010303750981 
1140	 0.315386283323364 
1141	 0.315750007199486 
1142	 0.316132299696805 
1143	 0.316488422870232 
1144	 0.316809534418207 
1145	 0.317156395793228 
1146	 0.317524036927378 
1147	 0.317861839256694 
1148	 0.318193603752858 
1149	 0.318524749616407 
1150	 0.318839791962941 
1151	 0.319142927428167 
1152	 0.319467417886125 
1153	 0.319792965222288 
1154	 0.320118117098958 
1155	 0.320451233807019 
1156	 0.320762646304659 
1157	 0.321073404723291 
1158	 0.321366107843789 
1159	 0.321631907706571 
1160	 0.321915578150597 
1161	 0.322191034301979 
1162	 0.322479407263618 
1163	 0.322778261789961 
1164	 0.323074699360095 
1165	 0.32337788143285 
1166	 0.323686142168906 
1167	 0.323969568497356 
1168	 0.324268163414758 
1169	 0.324542969633109 
1170	 0.324799456033989 
1171	 0.325062170944773 
1172	 0.325313069036126 
1173	 0.325576071431403 
1174	 0.325846001189533 
1175	 0.326111915636952 
1176	 0.326394761009446 
1177	 0.326650008937321 
1178	 0.326876870681966 
1179	 0.327124129998215 
1180	 0.327367047305659 
1181	 0.327613426703085 
1182	 0.327872042432935 
1183	 0.328138840407767 
1184	 0.328386706509894 
1185	 0.328621540459236 
1186	 0.32886044999541 
1187	 0.32909318006902 
1188	 0.329331605002959 
1189	 0.32958442082305 
1190	 0.32980757482349 
1191	 0.330013071374932 
1192	 0.330228828879933 
1193	 0.330422523088764 
1194	 0.330636164051802 
1195	 0.330878836612087 
1196	 0.331101095370507 
1197	 0.331328140280386 
1198	 0.331535481768668 
1199	 0.33173005327442 
1200	 0.331907245834503 
1201	 0.332090552218041 
1202	 0.332259798964078 
1203	 0.332440789780501 
1204	 0.332630571175102 
1205	 0.332809799781153 
1206	 0.332989232271377 
1207	 0.333161044018814 
1208	 0.333319667995027 
1209	 0.333488423114398 
1210	 0.333663234882266 
1211	 0.333828633864551 
1212	 0.333998139482452 
1213	 0.334158725985772 
1214	 0.334310541358646 
1215	 0.334456228916457 
1216	 0.334596465704448 
1217	 0.334729445924408 
1218	 0.3348676202906 
1219	 0.335003338094541 
1220	 0.335134358565774 
1221	 0.335269432897046 
1222	 0.335395577461661 
1223	 0.335510635013141 
1224	 0.335628216050184 
1225	 0.335746656065768 
1226	 0.33586007234147 
1227	 0.335974403250859 
1228	 0.336078119222426 
1229	 0.33616463635561 
1230	 0.336264734290369 
1231	 0.336367280675556 
1232	 0.336466009108344 
1233	 0.336566504200823 
1234	 0.336675371426876 
1235	 0.33678210791445 
1236	 0.33687797828436 
1237	 0.336992525787556 
1238	 0.337135997405562 
1239	 0.337240313991271 
1240	 0.337328767110044 
1241	 0.337427195463177 
1242	 0.337504771382747 
1243	 0.337596347777511 
1244	 0.337708033254185 
1245	 0.337809320017031 
1246	 0.337914539164869 
1247	 0.338003033875398 
1248	 0.338079000374837 
1249	 0.338154401694104 
1250	 0.338236178847452 
1251	 0.338315394087655 
1252	 0.33839126954421 
1253	 0.338479447984476 
1254	 0.338553665865892 
1255	 0.338606279393378 
1256	 0.338677724567782 
1257	 0.338761682568808 
1258	 0.338836575077335 
1259	 0.338914696895868 
1260	 0.33898437469185 
1261	 0.339061409743298 
1262	 0.339110583493426 
1263	 0.3391322935041 
1264	 0.33916714445888 
1265	 0.339177152614941 
1266	 0.339205822445524 
1267	 0.33925303342242 
1268	 0.3393079752869 
1269	 0.339349196037999 
1270	 0.339393575506291 
1271	 0.339428531757817 
1272	 0.339449568977515 
1273	 0.339479897309785 
1274	 0.339494464290136 
1275	 0.339546154126186 
1276	 0.339616910264637 
1277	 0.339692286930379 
1278	 0.339794087110877 
1279	 0.339888332443715 
1280	 0.339982741822829 
1281	 0.340079120262654 
1282	 0.340165734226401 
1283	 0.340283138340437 
1284	 0.340426498046496 
1285	 0.340555123482091 
1286	 0.340706309564993 
1287	 0.340858680076838 
1288	 0.340997368094109 
1289	 0.34111919700331 
1290	 0.341258483495041 
1291	 0.341397378119392 
1292	 0.341547529627162 
1293	 0.341711300117455 
1294	 0.341857497477826 
1295	 0.342001390436124 
1296	 0.342151588847046 
1297	 0.342295187622927 
1298	 0.342443842246446 
1299	 0.342614967524038 
1300	 0.342758293820729 
1301	 0.34288081760082 
1302	 0.343006694028625 
1303	 0.343122779267669 
1304	 0.3432361120924 
1305	 0.343358099251167 
1306	 0.343474954565753 
1307	 0.343563367368534 
1308	 0.343635564377213 
1309	 0.343702528560653 
1310	 0.343738458510843 
1311	 0.343803215106468 
1312	 0.343882714010475 
1313	 0.343943689167257 
1314	 0.344016979149078 
1315	 0.344057875449502 
1316	 0.344055661085473 
1317	 0.344091425803656 
1318	 0.344135118880352 
1319	 0.344166946157321 
1320	 0.344232875816106 
1321	 0.344256912003543 
1322	 0.344240757942829 
1323	 0.344230322038429 
1324	 0.34423263914535 
1325	 0.344211904000407 
1326	 0.34420835485512 
1327	 0.344220484205596 
1328	 0.344223616616703 
1329	 0.344217468326749 
1330	 0.344205070987945 
1331	 0.344189289311916 
1332	 0.344172017011479 
1333	 0.344142244848742 
1334	 0.344122071371671 
1335	 0.344104009598664 
1336	 0.3440876927268 
1337	 0.344072340612333 
1338	 0.344058870928109 
1339	 0.344050170079885 
1340	 0.344040729920037 
1341	 0.344043134070923 
1342	 0.344026041415262 
1343	 0.344003652764348 
1344	 0.343966890538073 
1345	 0.343928495020593 
1346	 0.343902899073355 
1347	 0.343870348142185 
1348	 0.343846649352127 
1349	 0.343818830107858 
1350	 0.343766183313087 
1351	 0.34373400273995 
1352	 0.343709123258442 
1353	 0.343690227590671 
1354	 0.343678053526475 
1355	 0.343666982247598 
1356	 0.34367180643797 
1357	 0.343650275094407 
1358	 0.343606427549596 
1359	 0.343588434083035 
1360	 0.343558387172602 
1361	 0.343552908925966 
1362	 0.343589190425288 
1363	 0.343601831453344 
1364	 0.343605714321723 
1365	 0.343621564665455 
1366	 0.343642621488792 
1367	 0.343646342534776 
1368	 0.343684552821888 
1369	 0.34370993806916 
1370	 0.343708644399969 
1371	 0.343716374416768 
1372	 0.343702625678449 
1373	 0.343675336491957 
1374	 0.343645297601024 
1375	 0.343620966724062 
1376	 0.343558253339852 
1377	 0.343479513751314 
1378	 0.343382214252892 
1379	 0.343240777330854 
1380	 0.34313011324544 
1381	 0.343001723907259 
1382	 0.342907296400242 
1383	 0.342848752370666 
1384	 0.342768723897673 
1385	 0.342719011127915 
1386	 0.342632020572881 
1387	 0.342524914070579 
1388	 0.342400317163792 
1389	 0.342264493665247 
1390	 0.342088321637705 
1391	 0.341916492756042 
1392	 0.341714138343536 
1393	 0.341477394467226 
1394	 0.341261129591167 
1395	 0.341012329451238 
1396	 0.340761466949884 
1397	 0.340520912451048 
1398	 0.340287822993478 
1399	 0.340043268209794 
1400	 0.339800726222228 
1401	 0.339549915883107 
1402	 0.339290118353487 
1403	 0.339031493143019 
1404	 0.338753006414322 
1405	 0.338510027154135 
1406	 0.338280996925868 
1407	 0.338060696938726 
1408	 0.337867203464014 
1409	 0.337667469817301 
1410	 0.337454395838848 
1411	 0.337270694028319 
1412	 0.337087499762773 
1413	 0.336937991994196 
1414	 0.336847333358118 
1415	 0.336779299308135 
1416	 0.336761605695993 
1417	 0.33677888844796 
1418	 0.336776506249758 
1419	 0.336772499881768 
1420	 0.336779565534823 
1421	 0.336774309181586 
1422	 0.336764814138356 
1423	 0.336773650691844 
1424	 0.336761997645526 
1425	 0.336729527619766 
1426	 0.336706261442667 
1427	 0.336678981625956 
1428	 0.33666476050928 
1429	 0.336650443047588 
1430	 0.336650874316433 
1431	 0.336669727566067 
1432	 0.336675329636837 
1433	 0.336683943423161 
1434	 0.336694607527321 
1435	 0.336687474518063 
1436	 0.336709659500019 
1437	 0.336760068474336 
1438	 0.336792172236891 
1439	 0.33683569993434 
1440	 0.336871591423095 
1441	 0.336869636504179 
1442	 0.33688392002862 
1443	 0.336900997183004 
1444	 0.336895970065983 
1445	 0.33690799585175 
1446	 0.336916665005735 
1447	 0.336926684681972 
1448	 0.33695563750128 
1449	 0.336979942267416 
1450	 0.336998099368222 
1451	 0.337010932307875 
1452	 0.337008695571682 
1453	 0.337029687698798 
1454	 0.337053561169871 
1455	 0.337083521300779 
1456	 0.337143481056928 
1457	 0.337163998309069 
1458	 0.33716688438719 
1459	 0.337174353404291 
1460	 0.337158590879903 
1461	 0.337160884363974 
1462	 0.337169280211245 
1463	 0.337185435023515 
1464	 0.337209032932941 
1465	 0.337232693164119 
1466	 0.337264447482247 
1467	 0.337300078892621 
1468	 0.337328854390258 
1469	 0.337372845954731 
1470	 0.33742950328045 
1471	 0.337490285095903 
1472	 0.337550934047463 
1473	 0.337635282141224 
1474	 0.337713156618208 
1475	 0.337785160719425 
1476	 0.33787681506047 
1477	 0.3379503923247 
1478	 0.338030267132066 
1479	 0.338119325201139 
1480	 0.33821052159098 
1481	 0.338324934905504 
1482	 0.338417581914414 
1483	 0.338509405702782 
1484	 0.33860247181462 
1485	 0.3386784356803 
1486	 0.338770072940804 
1487	 0.338875066387747 
1488	 0.338977593711131 
1489	 0.339083426019543 
1490	 0.33918391901082 
1491	 0.339295005556506 
1492	 0.33938831564123 
1493	 0.339463941828383 
1494	 0.339546976932551 
1495	 0.339620005731397 
1496	 0.339702171580223 
1497	 0.339789948678569 
1498	 0.339882804253072 
1499	 0.339982186427195 
1500	 0.340080128956481 
1501	 0.340187353508739 
1502	 0.340282752067285 
1503	 0.340369898671419 
1504	 0.340459151704995 
1505	 0.340548146766241 
1506	 0.340649890584394 
1507	 0.340750098984798 
1508	 0.340836058616902 
1509	 0.340915552028727 
1510	 0.340977916431501 
1511	 0.341039698846745 
1512	 0.341119035000101 
1513	 0.341209103528013 
1514	 0.341296851399411 
1515	 0.341412891720288 
1516	 0.341530221648987 
1517	 0.341607594556218 
1518	 0.341664826793988 
1519	 0.341732563664459 
1520	 0.341769876310782 
1521	 0.341824697777459 
1522	 0.34190044925768 
1523	 0.341962308378699 
1524	 0.342011130904637 
1525	 0.342066528735334 
1526	 0.342126335945359 
1527	 0.342181193011569 
1528	 0.342231049781126 
1529	 0.342286699487629 
1530	 0.342348776055238 
1531	 0.342404307020449 
1532	 0.342455134260723 
1533	 0.342508281065481 
1534	 0.342556919493008 
1535	 0.342613422334653 
1536	 0.342678990042383 
1537	 0.342737108319884 
1538	 0.342795757601246 
1539	 0.342851187757911 
1540	 0.342907456102437 
1541	 0.342954604426218 
1542	 0.34299924092251 
1543	 0.343034938601023 
1544	 0.343049910394729 
1545	 0.343074820065339 
1546	 0.343096864421436 
1547	 0.343127276999588 
1548	 0.343161664572554 
1549	 0.343205982875777 
1550	 0.343265604307507 
1551	 0.343305674013592 
1552	 0.343333012764255 
1553	 0.343371069734405 
1554	 0.343384513759812 
1555	 0.343413337946635 
1556	 0.343471964520142 
1557	 0.343510264123329 
1558	 0.343566956856478 
1559	 0.343632093268314 
1560	 0.343670997546938 
1561	 0.343696461443858 
1562	 0.343728836758197 
1563	 0.343735450130771 
1564	 0.343780764800992 
1565	 0.343850866954695 
1566	 0.343908141036299 
1567	 0.343980041224134 
1568	 0.344037930714309 
1569	 0.34408945872164 
1570	 0.344135451809014 
1571	 0.344176017287413 
1572	 0.344220973990227 
1573	 0.344267921102291 
1574	 0.344289427632799 
1575	 0.344300512421902 
1576	 0.344314275636974 
1577	 0.344301646065813 
1578	 0.344314096645264 
1579	 0.344347614381285 
1580	 0.344371211330717 
1581	 0.344397939662259 
1582	 0.344417186195444 
1583	 0.344428926741916 
1584	 0.344446704453016 
1585	 0.344459062475957 
1586	 0.34448029888619 
1587	 0.344505708687161 
1588	 0.344538920767932 
1589	 0.344597227037199 
1590	 0.344625783669518 
1591	 0.344643545743462 
1592	 0.344662966009161 
1593	 0.344654763202393 
1594	 0.344662407741298 
1595	 0.344680546629922 
1596	 0.344704097169393 
1597	 0.344738526695163 
1598	 0.34476635886521 
1599	 0.344809825285486 
1600	 0.344829151808417 
1601	 0.344818613476601 
1602	 0.344824660296885 
1603	 0.344820566711722 
1604	 0.344829476645637 
1605	 0.344867373408747 
1606	 0.34488671720047 
1607	 0.344897908260381 
1608	 0.344908983469338 
1609	 0.344925918964674 
1610	 0.344930178991357 
1611	 0.34493184445946 
1612	 0.344945663483995 
1613	 0.344919464809665 
1614	 0.344890532006596 
1615	 0.344903693492517 
1616	 0.344902083115268 
1617	 0.344920446742479 
1618	 0.344967405594994 
1619	 0.344980642615315 
1620	 0.344998517603857 
1621	 0.345014226432349 
1622	 0.345032619428536 
1623	 0.345040343932803 
1624	 0.34504173974933 
1625	 0.345042089573125 
1626	 0.345035160081454 
1627	 0.345035349746607 
1628	 0.345040095306092 
1629	 0.345033733859923 
1630	 0.345023503309514 
1631	 0.345015988813035 
1632	 0.344997014866634 
1633	 0.344998005009287 
1634	 0.345011889421917 
1635	 0.345021932098709 
1636	 0.345038798968542 
1637	 0.345053053790714 
1638	 0.345059746019966 
1639	 0.345085992922201 
1640	 0.345137050155977 
1641	 0.345147022630605 
1642	 0.345151119530931 
1643	 0.3451492867461 
1644	 0.345109405449124 
1645	 0.345101787205109 
1646	 0.34511274514459 
1647	 0.345118541168317 
1648	 0.34513256626229 
1649	 0.345133011010843 
1650	 0.345120439247606 
1651	 0.345133378537132 
1652	 0.3451571338319 
1653	 0.345164028972329 
1654	 0.345191411069526 
1655	 0.345187894703438 
1656	 0.345146118242675 
1657	 0.34512671969251 
1658	 0.345106018910361 
1659	 0.345094010031079 
1660	 0.345092725096801 
1661	 0.345081082677443 
1662	 0.345068469823017 
1663	 0.345058916124887 
1664	 0.345039758347742 
1665	 0.345035347145071 
1666	 0.345039138332483 
1667	 0.345050863654925 
1668	 0.345081891791595 
1669	 0.34508998100772 
1670	 0.345096561422564 
1671	 0.345098205447327 
1672	 0.345082627162165 
1673	 0.345072783996726 
1674	 0.345060506309276 
1675	 0.345060670340491 
1676	 0.345057360087649 
1677	 0.34506910025542 
1678	 0.345112731465342 
1679	 0.345124054142981 
1680	 0.345135544271791 
1681	 0.345122743745103 
1682	 0.345073791568081 
1683	 0.345047159017277 
1684	 0.345010326165072 
1685	 0.344991396336303 
1686	 0.344990078698387 
1687	 0.344985560998776 
1688	 0.344982232153095 
1689	 0.344987664961927 
1690	 0.344998012566104 
1691	 0.345014523383158 
1692	 0.345050756131613 
1693	 0.34506501503583 
1694	 0.345070342385737 
1695	 0.345080695439379 
1696	 0.345088221258511 
1697	 0.34508478102496 
1698	 0.345082576760209 
1699	 0.345071975648689 
1700	 0.345042517461218 
1701	 0.345017650981336 
1702	 0.345002705268796 
1703	 0.344967622219854 
1704	 0.344917167675409 
1705	 0.344871782108704 
1706	 0.344799974360324 
1707	 0.344767331068832 
1708	 0.344764267810431 
1709	 0.344740896713174 
1710	 0.344725592719258 
1711	 0.344718346849025 
1712	 0.344691054561799 
1713	 0.34469361673386 
1714	 0.344742676830152 
1715	 0.344745255455304 
1716	 0.344735550956561 
1717	 0.344723804068852 
1718	 0.344697159860627 
1719	 0.344660884924241 
1720	 0.344616028771933 
1721	 0.344580409152536 
1722	 0.344543402769895 
1723	 0.344485430952222 
1724	 0.34442159038993 
1725	 0.344365682771897 
1726	 0.344275194633129 
1727	 0.34422887853322 
1728	 0.344228552282149 
1729	 0.344195322318132 
1730	 0.344161601099095 
1731	 0.344124513360066 
1732	 0.344085881092814 
1733	 0.344025801474767 
1734	 0.343959393497022 
1735	 0.343882606680482 
1736	 0.343770931244934 
1737	 0.343688014329447 
1738	 0.343612232590775 
1739	 0.343545278503524 
1740	 0.343496563851959 
1741	 0.343430898137212 
1742	 0.343362805325485 
1743	 0.343300407908922 
1744	 0.343231571177249 
1745	 0.34316305637098 
1746	 0.343102258362107 
1747	 0.343039014406054 
1748	 0.342969889907716 
1749	 0.342924068214357 
1750	 0.342881649842413 
1751	 0.342830093244457 
1752	 0.342782390650111 
1753	 0.342698681602653 
1754	 0.342615974634168 
1755	 0.342571446627978 
1756	 0.342513136610359 
1757	 0.342486197351258 
1758	 0.342478564543657 
1759	 0.342411100720854 
1760	 0.342344387593651 
1761	 0.342278801783602 
1762	 0.342183811050194 
1763	 0.342097728609857 
1764	 0.342025856488533 
1765	 0.341969491916108 
1766	 0.341918314546136 
1767	 0.341882766293381 
1768	 0.341855902170147 
1769	 0.341820063154845 
1770	 0.341769446894822 
1771	 0.341720064727434 
1772	 0.341665430551785 
1773	 0.341536673359023 
1774	 0.341436364208811 
1775	 0.341361568007656 
1776	 0.341266858996793 
1777	 0.341279464368265 
1778	 0.34129352616749 
1779	 0.341275473657697 
1780	 0.341286324387706 
1781	 0.341245353340279 
1782	 0.341203369180579 
1783	 0.341168090910663 
1784	 0.341119220712688 
1785	 0.341064529065694 
1786	 0.341006489308249 
1787	 0.340921495048877 
1788	 0.340875228695854 
1789	 0.340852658789464 
1790	 0.340832556298704 
1791	 0.340854633104984 
1792	 0.340827432746104 
1793	 0.340771707719067 
1794	 0.3407158905745 
1795	 0.340628913833018 
1796	 0.340555360435634 
1797	 0.340485458101659 
1798	 0.340435396954845 
1799	 0.340380697941033 
1800	 0.340361813346351 
1801	 0.333464023148391 
1802	 0.333562484462805 
1803	 0.3337109913013 
1804	 0.333869331848339 
1805	 0.334054988940676 
1806	 0.334267200842491 
1807	 0.33446055109611 
1808	 0.334620664870227 
1809	 0.334778537152734 
1810	 0.334900212539698 
1811	 0.33499098606549 
1812	 0.33505767277849 
1813	 0.335089123748344 
1814	 0.335095580102241 
1815	 0.335091152876232 
1816	 0.335108531730618 
1817	 0.335141238462246 
1818	 0.335199303543604 
1819	 0.335245299839794 
1820	 0.335298411591718 
1821	 0.335345030488251 
1822	 0.335400454551857 
1823	 0.335450551813946 
1824	 0.335488605774849 
1825	 0.335511593593617 
1826	 0.335515709282926 
1827	 0.335511037750795 
1828	 0.335487635574807 
1829	 0.335438210127253 
1830	 0.33541175075133 
1831	 0.335378320678799 
1832	 0.33534440644028 
1833	 0.335323653957361 
1834	 0.335276925306393 
1835	 0.335253087174192 
1836	 0.335238127791361 
1837	 0.335194788025941 
1838	 0.335176290841426 
1839	 0.335182380084953 
1840	 0.335199515629892 
1841	 0.335193675663882 
1842	 0.335224572204512 
1843	 0.335284849949257 
1844	 0.335302430432816 
1845	 0.335292582285455 
1846	 0.335262033714846 
1847	 0.335213075669133 
1848	 0.335135734472479 
1849	 0.335071342711658 
1850	 0.335049620991063 
1851	 0.335069641408838 
1852	 0.335089614351119 
1853	 0.33512883379961 
1854	 0.335172024580943 
1855	 0.335191988399002 
1856	 0.335186417463345 
1857	 0.335151334970383 
1858	 0.335113605639185 
1859	 0.335043336038667 
1860	 0.334945285882355 
1861	 0.334823565333786 
1862	 0.334688772595716 
1863	 0.334517139682888 
1864	 0.334346449597749 
1865	 0.334201697802647 
1866	 0.334032774455743 
1867	 0.333844620923417 
1868	 0.333645451965487 
1869	 0.333419997891246 
1870	 0.333171050596328 
1871	 0.332915377324895 
1872	 0.332650374214225 
1873	 0.332389037058849 
1874	 0.332092917232721 
1875	 0.331805784488555 
1876	 0.331522183960669 
1877	 0.331198249425198 
1878	 0.330860459931323 
1879	 0.330478220198363 
1880	 0.330034235362407 
1881	 0.329528470953051 
1882	 0.32899645688326 
1883	 0.328420943552969 
1884	 0.327794407546502 
1885	 0.32714079378791 
1886	 0.326431401789735 
1887	 0.325631646342087 
1888	 0.324814599959152 
1889	 0.323957870392535 
1890	 0.323068973813073 
1891	 0.322141994166053 
1892	 0.321170833142626 
1893	 0.320172653665733 
1894	 0.319144698317378 
1895	 0.318070920555894 
1896	 0.316951257564434 
1897	 0.315824430626041 
1898	 0.314664473057893 
1899	 0.313517881156985 
1900	 0.312400353088248 
1901	 0.311301927679324 
1902	 0.310249024673688 
1903	 0.309214161643455 
1904	 0.308242125443312 
1905	 0.307312612237269 
1906	 0.30645312859345 
1907	 0.3056293638604 
1908	 0.304839480165712 
1909	 0.304098718155878 
1910	 0.303372755002211 
1911	 0.302681405536437 
1912	 0.302027613996224 
1913	 0.301411014248018 
1914	 0.3008302157036 
1915	 0.300276327321786 
1916	 0.299754371146173 
1917	 0.299275597702415 
1918	 0.298814271337068 
1919	 0.298385795346679 
1920	 0.298024213824759 
1921	 0.297677482540541 
1922	 0.297372324819091 
1923	 0.297119017826326 
1924	 0.296874339618437 
1925	 0.296644660985529 
1926	 0.296462575264115 
1927	 0.296310926549185 
1928	 0.29618599738872 
1929	 0.296105245419657 
1930	 0.296047131991382 
1931	 0.296017019859859 
1932	 0.296000519836284 
1933	 0.295979861425572 
1934	 0.296006670610044 
1935	 0.29604804080067 
1936	 0.296100824107564 
1937	 0.296174600035714 
1938	 0.296285713055968 
1939	 0.296394424961082 
1940	 0.296501371956942 
1941	 0.296638445143129 
1942	 0.296810197876123 
1943	 0.296993532537425 
1944	 0.297175597255647 
1945	 0.297370767411757 
1946	 0.297575334609548 
1947	 0.297776302624955 
1948	 0.297992554002972 
1949	 0.298250068138678 
1950	 0.298470831046962 
1951	 0.298663577735907 
1952	 0.298877166305035 
1953	 0.29910915779006 
1954	 0.299351319075387 
1955	 0.299610463180611 
1956	 0.299874878575719 
1957	 0.300147323898434 
1958	 0.300413446409381 
1959	 0.30069414348108 
1960	 0.300998626827168 
1961	 0.301298208923465 
1962	 0.301596993838214 
1963	 0.301902173413471 
1964	 0.302210617484354 
1965	 0.30253198692693 
1966	 0.302870440294063 
1967	 0.303177040903723 
1968	 0.303488769092729 
1969	 0.303810729914225 
1970	 0.304107086808167 
1971	 0.304375362141592 
1972	 0.30467204521631 
1973	 0.304955041414063 
1974	 0.305264073547881 
1975	 0.3056069844194 
1976	 0.305932623187214 
1977	 0.306258307720344 
1978	 0.30659395406507 
1979	 0.306915165508341 
1980	 0.307265399075326 
1981	 0.307604870149545 
1982	 0.307952361670621 
1983	 0.308291697592176 
1984	 0.308618162625421 
1985	 0.308954781591835 
1986	 0.309306991913751 
1987	 0.309648790938816 
1988	 0.309994423733399 
1989	 0.310327839769321 
1990	 0.310669298277233 
1991	 0.310976064599662 
1992	 0.311301971280154 
1993	 0.311634012530965 
1994	 0.311968743775555 
1995	 0.312308068959745 
1996	 0.312639120750971 
1997	 0.31297184227378 
1998	 0.31329605076124 
1999	 0.313611244509961 
2000	 0.313925914510786 
2001	 0.314232975042344 
2002	 0.314544618152408 
2003	 0.314863884625202 
2004	 0.315183038001117 
2005	 0.315498344453698 
2006	 0.315817618546099 
2007	 0.316137717409717 
2008	 0.316461195773678 
2009	 0.316767635118132 
2010	 0.317080813933091 
2011	 0.317372579512717 
2012	 0.31762451727152 
2013	 0.317897537788646 
2014	 0.318170586705012 
2015	 0.318448772142811 
2016	 0.318715722987607 
2017	 0.319016709332248 
2018	 0.319320843424787 
2019	 0.319646622276814 
2020	 0.319943199871227 
2021	 0.3202443717418 
2022	 0.320537204497925 
2023	 0.320809356595792 
2024	 0.321082230137866 
2025	 0.321356665498779 
2026	 0.321628827687122 
2027	 0.321903496938759 
2028	 0.322150353111567 
2029	 0.322404484691063 
2030	 0.322661601504113 
2031	 0.322919642174798 
2032	 0.323167825598953 
2033	 0.323425773191435 
2034	 0.323695983792274 
2035	 0.323955239546299 
2036	 0.324222408848717 
2037	 0.324463430138304 
2038	 0.324690223060072 
2039	 0.324914875427128 
2040	 0.325122463505311 
2041	 0.325322274639171 
2042	 0.325528089966154 
2043	 0.325728850842677 
2044	 0.325937274695848 
2045	 0.326149481939186 
2046	 0.32635042139687 
2047	 0.326551600691326 
2048	 0.326752190329381 
2049	 0.326942534475685 
2050	 0.327135359990791 
2051	 0.327341067401221 
2052	 0.32752989110263 
2053	 0.327694842914667 
2054	 0.327876668181207 
2055	 0.328066458704878 
2056	 0.328249413279939 
2057	 0.32842640939177 
2058	 0.328615904740791 
2059	 0.328774549857683 
2060	 0.328903632164802 
2061	 0.329051605316447 
2062	 0.329182278145615 
2063	 0.32933998898128 
2064	 0.329512321315261 
2065	 0.32969083411149 
2066	 0.329897459384173 
2067	 0.330084992815198 
2068	 0.330282413905258 
2069	 0.330454636457982 
2070	 0.330623645259865 
2071	 0.330775530504021 
2072	 0.330938188356668 
2073	 0.331094139133405 
2074	 0.331258899347724 
2075	 0.331426485316906 
2076	 0.331599078075704 
2077	 0.331778344483689 
2078	 0.331956923193791 
2079	 0.33215981702297 
2080	 0.332325786790197 
2081	 0.3324781437373 
2082	 0.332618342160412 
2083	 0.332730864950567 
2084	 0.332827914617108 
2085	 0.332952200275237 
2086	 0.333083789068319 
2087	 0.333209457471534 
2088	 0.33334718609527 
2089	 0.333472959066568 
2090	 0.33358718483665 
2091	 0.333708074145666 
2092	 0.333816021661343 
2093	 0.333952354154883 
2094	 0.334112235919538 
2095	 0.334255711311934 
2096	 0.334416948226138 
2097	 0.334566001795149 
2098	 0.334706559208529 
2099	 0.334828215362793 
2100	 0.334951621588022 
2101	 0.335071389643466 
2102	 0.335191859748079 
2103	 0.335290822911574 
2104	 0.335425074162325 
2105	 0.335572776639227 
2106	 0.335732476143459 
2107	 0.335908171306847 
2108	 0.336096386969237 
2109	 0.336298208478907 
2110	 0.336508508778163 
2111	 0.336757779489258 
2112	 0.336975052178055 
2113	 0.337186338226782 
2114	 0.337397447068012 
2115	 0.337570629591497 
2116	 0.337706506758944 
2117	 0.337860327138763 
2118	 0.33798564478382 
2119	 0.338149133738192 
2120	 0.338326238881866 
2121	 0.338517008923312 
2122	 0.338757150403542 
2123	 0.338938756225122 
2124	 0.339113149121345 
2125	 0.339266030607023 
2126	 0.339373200655188 
2127	 0.339486523182111 
2128	 0.339601601936564 
2129	 0.339699085199511 
2130	 0.339776237289726 
2131	 0.339852260803431 
2132	 0.339917871599417 
2133	 0.339974089603054 
2134	 0.340019356342098 
2135	 0.340051226007718 
2136	 0.340086145321622 
2137	 0.340122708812301 
2138	 0.340135079664845 
2139	 0.340151705428374 
2140	 0.340131167523619 
2141	 0.340080160166453 
2142	 0.34001169146898 
2143	 0.339891936191871 
2144	 0.339803925985942 
2145	 0.339728806947348 
2146	 0.339629508567306 
2147	 0.339539811879607 
2148	 0.339437570665373 
2149	 0.339307448454924 
2150	 0.339137398538959 
2151	 0.338977075688508 
2152	 0.338802771438657 
2153	 0.338638642548202 
2154	 0.338472092400424 
2155	 0.338301833063824 
2156	 0.338153618922105 
2157	 0.337961966280573 
2158	 0.337745276523638 
2159	 0.337521238591316 
2160	 0.337276975743792 
2161	 0.337018917555338 
2162	 0.336729378815852 
2163	 0.336460398657623 
2164	 0.336192602774527 
2165	 0.335910368331967 
2166	 0.335643115962495 
2167	 0.335404030331915 
2168	 0.335133196842579 
2169	 0.334832469503426 
2170	 0.334569522451679 
2171	 0.334323376000982 
2172	 0.334056033141877 
2173	 0.333811294433683 
2174	 0.333534707406835 
2175	 0.333223768413791 
2176	 0.332919183162841 
2177	 0.332593977046872 
2178	 0.332290202317069 
2179	 0.331986303413969 
2180	 0.331692442585971 
2181	 0.331415276789027 
2182	 0.331144329565797 
2183	 0.330886932305547 
2184	 0.330618080315182 
2185	 0.33035851117358 
2186	 0.330106690165432 
2187	 0.329856228482397 
2188	 0.329608167006253 
2189	 0.329359205642971 
2190	 0.32912384052348 
2191	 0.328867295340221 
2192	 0.328592515108134 
2193	 0.328327864757298 
2194	 0.328040724207596 
2195	 0.327788964257159 
2196	 0.327540449189143 
2197	 0.327330687266376 
2198	 0.327150551916825 
2199	 0.326993153905981 
2200	 0.326882332301375 
2201	 0.326767156579748 
2202	 0.326658319111629 
2203	 0.326572790668497 
2204	 0.326501411454526 
2205	 0.326445524694967 
2206	 0.326387098891055 
2207	 0.326342545873695 
2208	 0.326306738690079 
2209	 0.32625076111736 
2210	 0.326256125984471 
2211	 0.326318264495746 
2212	 0.326354767768922 
2213	 0.326418077388406 
2214	 0.326466033382078 
2215	 0.326492027914293 
2216	 0.326537906419402 
2217	 0.326605456970577 
2218	 0.326655816094963 
2219	 0.326720424361677 
2220	 0.326751412915528 
2221	 0.32672424175832 
2222	 0.326759750060975 
2223	 0.326765343410042 
2224	 0.326760211156227 
2225	 0.326756846140738 
2226	 0.326765947447533 
2227	 0.326744353590038 
2228	 0.326712724558201 
2229	 0.326655671356281 
2230	 0.326574017703201 
2231	 0.326496704578908 
2232	 0.326377727202152 
2233	 0.326306944735426 
2234	 0.326253483177749 
2235	 0.326211612851979 
2236	 0.326205221958022 
2237	 0.326180436704888 
2238	 0.326156844460733 
2239	 0.326133479319529 
2240	 0.326107180969482 
2241	 0.326080029027596 
2242	 0.326072301256432 
2243	 0.326031198523358 
2244	 0.325959551698219 
2245	 0.325901828589488 
2246	 0.325820609185507 
2247	 0.325748881360887 
2248	 0.325688741962756 
2249	 0.325638356691647 
2250	 0.325595097892841 
2251	 0.325555822723125 
2252	 0.325541316733102 
2253	 0.325561942622759 
2254	 0.325544412642718 
2255	 0.325532989811369 
2256	 0.325497315489706 
2257	 0.325416154632115 
2258	 0.325373278427358 
2259	 0.325338836717524 
2260	 0.325309032379563 
2261	 0.325279421068533 
2262	 0.325276504981163 
2263	 0.325291634338657 
2264	 0.325310003275752 
2265	 0.325364566124605 
2266	 0.325400120562371 
2267	 0.325416159495122 
2268	 0.325451183260276 
2269	 0.325486760751049 
2270	 0.325533903681722 
2271	 0.325612622738159 
2272	 0.325657960151612 
2273	 0.325686630660817 
2274	 0.325746230429389 
2275	 0.325795182764069 
2276	 0.325840644794441 
2277	 0.325888931925001 
2278	 0.325939465967286 
2279	 0.325980206874695 
2280	 0.32601550300528 
2281	 0.326050215754269 
2282	 0.326085518102286 
2283	 0.326127860543003 
2284	 0.326171187274139 
2285	 0.326208305352876 
2286	 0.326240658455078 
2287	 0.326277757258962 
2288	 0.326302321646648 
2289	 0.326352169162227 
2290	 0.326434559927914 
2291	 0.326489992067681 
2292	 0.326537481021126 
2293	 0.326596958174912 
2294	 0.326647086308843 
2295	 0.32670238151749 
2296	 0.326771706591282 
2297	 0.326841209667793 
2298	 0.326901885449882 
2299	 0.326991400518871 
2300	 0.327084667892088 
2301	 0.327169547178972 
2302	 0.327247809630176 
2303	 0.327304058441188 
2304	 0.327346751710217 
2305	 0.327386331307713 
2306	 0.327424335290143 
2307	 0.32744325551593 
2308	 0.327480904101853 
2309	 0.327558464866009 
2310	 0.327561461803911 
2311	 0.327525474039875 
2312	 0.327496253837304 
2313	 0.327410998038132 
2314	 0.327362201109048 
2315	 0.327334224876269 
2316	 0.327328330355425 
2317	 0.327334777251997 
2318	 0.327339404143973 
2319	 0.327374277402149 
2320	 0.327385398856619 
2321	 0.327357714991808 
2322	 0.327382219827523 
2323	 0.327438832820637 
2324	 0.327479786476502 
2325	 0.327563971054711 
2326	 0.327606840366006 
2327	 0.32760355191057 
2328	 0.327621953184164 
2329	 0.327664994707232 
2330	 0.327689655868961 
2331	 0.327743112017828 
2332	 0.327817845670169 
2333	 0.327861187261475 
2334	 0.327872556373411 
2335	 0.327945749222725 
2336	 0.327993590707504 
2337	 0.328002403850087 
2338	 0.328080794387266 
2339	 0.328054461415557 
2340	 0.327978262345217 
2341	 0.327990665022964 
2342	 0.327921530729359 
2343	 0.327809366045562 
2344	 0.327773878852031 
2345	 0.327712980124524 
2346	 0.327600997454499 
2347	 0.327532494744573 
2348	 0.327525958790035 
2349	 0.327459123053952 
2350	 0.327365555706386 
2351	 0.327281173065518 
2352	 0.327210042216414 
2353	 0.327065006524835 
2354	 0.326837004673814 
2355	 0.326703286885808 
2356	 0.326557186497005 
2357	 0.326447051131692 
2358	 0.32644357139287 
2359	 0.326366426226402 
2360	 0.32625277868519 
2361	 0.326144612647758 
2362	 0.326042728279295 
2363	 0.325902107729322 
2364	 0.325721963597099 
2365	 0.325547915599795 
2366	 0.325337168586877 
2367	 0.325167783068069 
2368	 0.325037074553342 
2369	 0.324896727002896 
2370	 0.324789116780782 
2371	 0.324610630628005 
2372	 0.324429390342051 
2373	 0.324188389900168 
2374	 0.323993719216453 
2375	 0.323851488612508 
2376	 0.323706618141052 
2377	 0.323565303750226 
2378	 0.323324667978455 
2379	 0.323059681595844 
2380	 0.322852386062476 
2381	 0.322656267298443 
2382	 0.322481589790929 
2383	 0.322336399295645 
2384	 0.322171164529773 
2385	 0.321999099224094 
2386	 0.321808693019396 
2387	 0.321576739650103 
2388	 0.321267528394518 
2389	 0.320943979655007 
2390	 0.320729510147141 
2391	 0.320533562696204 
2392	 0.320363424840031 
2393	 0.320221211882841 
2394	 0.319995954493168 
2395	 0.319747404637563 
2396	 0.31951965931162 
2397	 0.319239162711576 
2398	 0.318933242306839 
2399	 0.318646220046912 
2400	 0.318374756158975 
2401	 0.318097577605289 
2402	 0.317811095370938 
2403	 0.317545611563409 
2404	 0.317276909767281 
2405	 0.31703826142023 
2406	 0.316876805250414 
2407	 0.316793420990308 
2408	 0.316670360664237 
2409	 0.316519852366215 
2410	 0.316317297826449 
2411	 0.315946276164553 
2412	 0.315618978091698 
2413	 0.315339661346096 
2414	 0.31508401890029 
2415	 0.314852715484069 
2416	 0.314608510395391 
2417	 0.314426951563574 
2418	 0.314125365380024 
2419	 0.313697086551154 
2420	 0.313382963562562 
2421	 0.313021758605963 
2422	 0.312717638997221 
2423	 0.312526602506975 
2424	 0.312321408790787 
2425	 0.312143771687306 
2426	 0.311870171518911 
2427	 0.311590873596513 
2428	 0.311293342117333 
2429	 0.31086171203419 
2430	 0.310581369894674 
2431	 0.310398757620905 
2432	 0.310208423638935 
2433	 0.31011137613854 
2434	 0.309888663571828 
2435	 0.30961427347126 
2436	 0.309304340717893 
2437	 0.308902826689713 
2438	 0.308571512040743 
2439	 0.308257210284329 
2440	 0.307918637471002 
2441	 0.307540295252632 
2442	 0.307193477544687 
2443	 0.306897308972702 
2444	 0.306611792035387 
2445	 0.306334338513913 
2446	 0.306148182447595 
2447	 0.30600184075048 
2448	 0.305721902844507 
2449	 0.305472033283817 
2450	 0.305173008785193 
2451	 0.304756797040722 
2452	 0.304463466093117 
2453	 0.304264577513135 
2454	 0.30398909951374 
2455	 0.303628274519411 
2456	 0.303284405662461 
2457	 0.302967881774814 
2458	 0.302620757535521 
2459	 0.302256727674454 
2460	 0.301992491873057 
2461	 0.30175698326307 
2462	 0.301406712933073 
2463	 0.301086527123846 
2464	 0.300821908685488 
2465	 0.300457556554299 
2466	 0.300187404933601 
2467	 0.300069764144345 
2468	 0.299741177946731 
2469	 0.299261326264423 
2470	 0.299120383728314 
2471	 0.298872862438916 
2472	 0.298708028435071 
2473	 0.298642756512351 
2474	 0.298309879531301 
2475	 0.297993730895883 
2476	 0.297907962053367 
2477	 0.297773081182795 
2478	 0.297470448200604 
2479	 0.29710881901304 
2480	 0.296898351841623 
2481	 0.296756079353615 
2482	 0.296549028546327 
2483	 0.296447551208026 
2484	 0.296196696015099 
2485	 0.295779693545377 
2486	 0.295480199388502 
2487	 0.295155393046168 
2488	 0.295022609551109 
2489	 0.295001364347947 
2490	 0.295022810665059 
2491	 0.295133115371356 
2492	 0.294905458812933 
2493	 0.294507421402979 
2494	 0.29419015080859 
2495	 0.293937218911233 
2496	 0.293852288521837 
2497	 0.293821185638068 
2498	 0.293590038373122 
2499	 0.293289372259388 
2500	 0.293089330320077 
