Wavelength	MM300008.asd
350	 6.17275620869338E-02 
351	 6.65457457766503E-02 
352	 6.22276534265957E-02 
353	 5.16079024935677E-02 
354	 0.061562975949455 
355	 6.13968103523647E-02 
356	 5.59231357669949E-02 
357	 5.69575002067368E-02 
358	 6.83153314511966E-02 
359	 0.066069391714433 
360	 5.65517357948334E-02 
361	 6.27130363194705E-02 
362	 6.00993245681819E-02 
363	 5.85695064909097E-02 
364	 6.25848518170516E-02 
365	 0.062247043831641 
366	 5.93183591430176E-02 
367	 5.73761372538101E-02 
368	 5.89094814513139E-02 
369	 6.02700426069668E-02 
370	 5.86832478669396E-02 
371	 0.056762114368096 
372	 5.98062757441882E-02 
373	 6.02087311081339E-02 
374	 5.98666080586189E-02 
375	 6.06759836546443E-02 
376	 6.24897923921945E-02 
377	 6.11560908674616E-02 
378	 5.95551760684838E-02 
379	 6.10928038410106E-02 
380	 6.17340879069576E-02 
381	 6.20345942836948E-02 
382	 6.23568459990392E-02 
383	 6.27641404821074E-02 
384	 6.26908673871787E-02 
385	 6.22155801102173E-02 
386	 6.20090399645244E-02 
387	 6.37131211422274E-02 
388	 6.56052837061977E-02 
389	 6.66338388040531E-02 
390	 6.62741817577114E-02 
391	 0.064993437048242 
392	 6.45838959472222E-02 
393	 6.54064016118958E-02 
394	 6.65365566336999E-02 
395	 6.72530049187405E-02 
396	 6.81631527254932E-02 
397	 6.93460515546124E-02 
398	 6.90987745304402E-02 
399	 6.96048831909356E-02 
400	 7.10628056403991E-02 
401	 7.25261412967112E-02 
402	 7.12982779935966E-02 
403	 7.05271250808676E-02 
404	 7.09782129921585E-02 
405	 7.07292789397123E-02 
406	 7.20435654776701E-02 
407	 7.34874928852161E-02 
408	 7.37182583689706E-02 
409	 7.34359104054751E-02 
410	 0.072424247912723 
411	 7.15660104509086E-02 
412	 7.20204542386751E-02 
413	 7.33363256498426E-02 
414	 0.074211713849322 
415	 7.43288496843599E-02 
416	 7.46645121669564E-02 
417	 7.46132341874391E-02 
418	 7.46794106907934E-02 
419	 7.52830469599213E-02 
420	 7.58751055219541E-02 
421	 0.075263686959792 
422	 7.42719981616862E-02 
423	 7.47820203594715E-02 
424	 7.52467606791955E-02 
425	 7.53676212105006E-02 
426	 7.52277598909265E-02 
427	 7.52830893323347E-02 
428	 7.50700425025309E-02 
429	 7.47896977464682E-02 
430	 7.47323479963008E-02 
431	 7.45107711438529E-02 
432	 7.43202102097276E-02 
433	 7.43329013489547E-02 
434	 7.46417070711677E-02 
435	 7.43313691478471E-02 
436	 7.42056830515733E-02 
437	 7.46872057414707E-02 
438	 7.42284179062976E-02 
439	 7.43066903895497E-02 
440	 7.47937858793553E-02 
441	 7.48420207892603E-02 
442	 7.48212809210002E-02 
443	 7.49769705519222E-02 
444	 7.53073046766276E-02 
445	 7.54636820833617E-02 
446	 7.57432571161762E-02 
447	 7.59781733367788E-02 
448	 7.60169535515383E-02 
449	 7.63396776076235E-02 
450	 7.66792235729174E-02 
451	 7.69412209257096E-02 
452	 7.71895300919922E-02 
453	 7.72287891283648E-02 
454	 7.72107406251088E-02 
455	 7.72852639076073E-02 
456	 7.74537610958233E-02 
457	 7.76248265063068E-02 
458	 7.77637544552403E-02 
459	 7.78744312781032E-02 
460	 7.80370517703972E-02 
461	 7.80606730993495E-02 
462	 7.80218948675468E-02 
463	 7.84058592274885E-02 
464	 7.85190990268166E-02 
465	 7.85933450505944E-02 
466	 7.89040317971549E-02 
467	 7.87877021982905E-02 
468	 7.88592968564655E-02 
469	 7.91250341201085E-02 
470	 7.90975322636296E-02 
471	 7.89481408593603E-02 
472	 7.89464817904776E-02 
473	 7.92027540231345E-02 
474	 7.94745229989607E-02 
475	 7.93684042835038E-02 
476	 7.91779421004491E-02 
477	 7.93925035949755E-02 
478	 7.93886694811228E-02 
479	 7.93606957577186E-02 
480	 7.94464582787189E-02 
481	 7.96133300990395E-02 
482	 7.95966782811822E-02 
483	 7.95644498962228E-02 
484	 7.97075986820961E-02 
485	 7.97952424937308E-02 
486	 0.079747534425237 
487	 7.96354910482346E-02 
488	 7.96424650846782E-02 
489	 7.96840168754703E-02 
490	 7.97579516537278E-02 
491	 7.98774472580999E-02 
492	 8.00955305643645E-02 
493	 8.00959923145894E-02 
494	 8.00083944161499E-02 
495	 0.080131478688452 
496	 8.02650678250976E-02 
497	 8.02720242786666E-02 
498	 8.01907972193024E-02 
499	 8.03074748928166E-02 
500	 8.03926802674603E-02 
501	 8.03958488843439E-02 
502	 8.03505785843559E-02 
503	 8.04117596137995E-02 
504	 8.04711773103561E-02 
505	 8.05025269786029E-02 
506	 8.05591214027481E-02 
507	 8.05341338186465E-02 
508	 0.080671938438292 
509	 8.10227436235272E-02 
510	 8.09372466479741E-02 
511	 8.08978126708597E-02 
512	 8.09326260699683E-02 
513	 8.08590144646488E-02 
514	 8.09036185958564E-02 
515	 8.10020553092709E-02 
516	 8.10867340507606E-02 
517	 0.081146042670084 
518	 8.11297931236372E-02 
519	 0.081141138334182 
520	 8.12871188528487E-02 
521	 8.14405746660028E-02 
522	 8.14198739844803E-02 
523	 8.13216801998128E-02 
524	 8.15207908054414E-02 
525	 8.16131807663935E-02 
526	 8.15955865659293E-02 
527	 8.15688168404888E-02 
528	 8.16579960997014E-02 
529	 8.17613855915991E-02 
530	 8.18204542116678E-02 
531	 8.18172762251512E-02 
532	 0.081825206620307 
533	 0.081927007107407 
534	 8.21061855715576E-02 
535	 8.21394320251376E-02 
536	 8.21943636840965E-02 
537	 8.22697025348975E-02 
538	 8.23140992518158E-02 
539	 8.24032864827835E-02 
540	 8.24395813210741E-02 
541	 8.24484046946214E-02 
542	 8.26368528658884E-02 
543	 8.27109853599427E-02 
544	 8.27728991109002E-02 
545	 8.29550967343037E-02 
546	 8.30552572166957E-02 
547	 8.31367154275769E-02 
548	 8.32371175231769E-02 
549	 8.33643641169156E-02 
550	 8.35048000090495E-02 
551	 8.36137116648614E-02 
552	 8.36992691511645E-02 
553	 8.39300575916955E-02 
554	 8.41135698367768E-02 
555	 0.084238608711335 
556	 8.43918821014608E-02 
557	 8.46054321859282E-02 
558	 8.48224492954469E-02 
559	 8.50173629893648E-02 
560	 8.52380936573279E-02 
561	 8.54664017916006E-02 
562	 8.57012407924123E-02 
563	 8.59459697359845E-02 
564	 8.62003501863524E-02 
565	 8.64584502039625E-02 
566	 8.67453153197291E-02 
567	 8.71186586693289E-02 
568	 8.75037750325165E-02 
569	 8.78672057774704E-02 
570	 8.82084584904364E-02 
571	 8.85937732383921E-02 
572	 8.90283361190733E-02 
573	 8.94720066180558E-02 
574	 8.98599897828008E-02 
575	 9.02447441552339E-02 
576	 9.06937279826549E-02 
577	 9.12068034210175E-02 
578	 9.16259056250465E-02 
579	 9.20884900243927E-02 
580	 9.26226142858984E-02 
581	 9.32124017938647E-02 
582	 9.38820601426477E-02 
583	 9.45529674843554E-02 
584	 9.51786889502767E-02 
585	 9.57701804656191E-02 
586	 9.63650454929162E-02 
587	 9.69673513064836E-02 
588	 9.75710140326145E-02 
589	 9.81789548136593E-02 
590	 0.098808814570986 
591	 9.94578250925761E-02 
592	 0.100105845708434 
593	 0.10072956680389 
594	 0.101377150683512 
595	 0.10207117977362 
596	 0.102732329616931 
597	 0.103397550736595 
598	 0.104070921717191 
599	 0.104743701894661 
600	 0.105439780317086 
601	 0.106079120897009 
602	 0.106648069515459 
603	 0.107276247145708 
604	 0.107867888632687 
605	 0.108427111821038 
606	 0.108987236293025 
607	 0.10954524359099 
608	 0.110063974823027 
609	 0.110556401403539 
610	 0.11109367953543 
611	 0.11158555852367 
612	 0.112078601283942 
613	 0.11259993714192 
614	 0.113006804117405 
615	 0.113361345473221 
616	 0.113722809052506 
617	 0.114136158863163 
618	 0.114530341858699 
619	 0.114826812778202 
620	 0.115042383014481 
621	 0.115400841707735 
622	 0.115729298576915 
623	 0.116010145458844 
624	 0.116284268287002 
625	 0.11655609929523 
626	 0.116808340436322 
627	 0.117044982459312 
628	 0.117300131195812 
629	 0.117568266713995 
630	 0.117810962275682 
631	 0.118002917908752 
632	 0.118200056581562 
633	 0.118416239468629 
634	 0.118638944048524 
635	 0.118837833873318 
636	 0.11906199589194 
637	 0.119269960964447 
638	 0.11944086508714 
639	 0.119639883918909 
640	 0.11986864043098 
641	 0.120093225956474 
642	 0.120277206897295 
643	 0.120525775954161 
644	 0.12074693569768 
645	 0.120911878378825 
646	 0.121107979401132 
647	 0.121340345846981 
648	 0.121555574273137 
649	 0.121722237378054 
650	 0.121988729478923 
651	 0.12223577466014 
652	 0.122429114978914 
653	 0.122618741830601 
654	 0.122864124430399 
655	 0.123115172852109 
656	 0.123334055450677 
657	 0.123561915767555 
658	 0.123833893806581 
659	 0.12412591935597 
660	 0.124388094303119 
661	 0.124635293314913 
662	 0.124893293821283 
663	 0.125165874082045 
664	 0.125421978730549 
665	 0.125731478010812 
666	 0.126029981131288 
667	 0.126260739993659 
668	 0.126558872491501 
669	 0.126877774729887 
670	 0.127204265076044 
671	 0.127553620799831 
672	 0.12789506243953 
673	 0.128213981350286 
674	 0.128518712263241 
675	 0.128862350506128 
676	 0.129211433066431 
677	 0.1295628009172 
678	 0.129921162332244 
679	 0.130253528625312 
680	 0.13060833225081 
681	 0.131002972709038 
682	 0.13140644838033 
683	 0.131794121565931 
684	 0.132170372114162 
685	 0.132556734745474 
686	 0.133002005610469 
687	 0.133438970075598 
688	 0.133867165770507 
689	 0.134324578790749 
690	 0.134675586518414 
691	 0.135069716924602 
692	 0.135580058177762 
693	 0.136051766479963 
694	 0.136498274418803 
695	 0.1369171230039 
696	 0.137322250985262 
697	 0.137809755147919 
698	 0.138306862442716 
699	 0.138765702453453 
700	 0.139179379136941 
701	 0.139667215098937 
702	 0.140178376496931 
703	 0.140655821459804 
704	 0.141138775209119 
705	 0.141616567474268 
706	 0.142096589334466 
707	 0.142588965025524 
708	 0.143054546470697 
709	 0.143513164093071 
710	 0.143986260169176 
711	 0.144491603621235 
712	 0.144941162284619 
713	 0.14537704700699 
714	 0.14585761678567 
715	 0.146354319617055 
716	 0.146801805603945 
717	 0.147213938405143 
718	 0.14765599276475 
719	 0.148066316995474 
720	 0.148466045950789 
721	 0.148876972959713 
722	 0.149301803374487 
723	 0.149730343299876 
724	 0.150114205294558 
725	 0.150425908781264 
726	 0.150802283976168 
727	 0.151152898387821 
728	 0.151462404384004 
729	 0.151790564706587 
730	 0.15207660435494 
731	 0.152335183966286 
732	 0.152591558456384 
733	 0.152867339713998 
734	 0.153107416919613 
735	 0.153299904820608 
736	 0.153460098070211 
737	 0.153637164406439 
738	 0.153798800491076 
739	 0.153929939229136 
740	 0.154041916318905 
741	 0.154179829617646 
742	 0.154276781548333 
743	 0.154290510481489 
744	 0.154307103470551 
745	 0.154328174487368 
746	 0.154346177989746 
747	 0.154346353049097 
748	 0.15431977018508 
749	 0.154271134980636 
750	 0.154209186900265 
751	 0.154144749964599 
752	 0.154026491401511 
753	 0.153895534788597 
754	 0.153785542191928 
755	 0.153643524063481 
756	 0.153483983385436 
757	 0.153295669933193 
758	 0.153069144716435 
759	 0.152899789885746 
760	 0.152714955321178 
761	 0.152490008244816 
762	 0.152279775838477 
763	 0.152061627540296 
764	 0.151807634394889 
765	 0.151518822720093 
766	 0.151286465892534 
767	 0.151036603080238 
768	 0.150743041144498 
769	 0.150416592381141 
770	 0.150130546515113 
771	 0.149877453572392 
772	 0.149607139684547 
773	 0.149234749571856 
774	 0.14892973500877 
775	 0.148657195078928 
776	 0.148353892216978 
777	 0.148011403146739 
778	 0.147671118809511 
779	 0.14736158639771 
780	 0.147087658939423 
781	 0.146760655568947 
782	 0.146454809649672 
783	 0.146170019853877 
784	 0.145821342517773 
785	 0.145502886222104 
786	 0.145192289581535 
787	 0.144864448646824 
788	 0.144542112721184 
789	 0.144223352409611 
790	 0.143906258071858 
791	 0.143592608384622 
792	 0.143309537711066 
793	 0.143015250042098 
794	 0.142699060008198 
795	 0.142384453495818 
796	 0.1421232614075 
797	 0.141848866087443 
798	 0.141530764898921 
799	 0.141236324552095 
800	 0.140986268742092 
801	 0.140722973359526 
802	 0.140403896927004 
803	 0.140147892207523 
804	 0.139890242688792 
805	 0.139617682169209 
806	 0.139352708334649 
807	 0.139102758031474 
808	 0.138860025277998 
809	 0.138622095120802 
810	 0.138395134765971 
811	 0.138153090652006 
812	 0.137905675259904 
813	 0.137668549226674 
814	 0.137449447841449 
815	 0.137245109328065 
816	 0.137031687346185 
817	 0.136795171476073 
818	 0.136618952166722 
819	 0.136445565488073 
820	 0.136248819586635 
821	 0.136039625897463 
822	 0.13584153438062 
823	 0.135663231754631 
824	 0.135494325412386 
825	 0.135297880613596 
826	 0.13516722439443 
827	 0.135060413362218 
828	 0.134915900516222 
829	 0.134736889172662 
830	 0.134546531608517 
831	 0.134389534118911 
832	 0.134297631225262 
833	 0.134179325611817 
834	 0.134015741670015 
835	 0.133842544803923 
836	 0.133734076616462 
837	 0.133645837450501 
838	 0.133559786952679 
839	 0.133468695800228 
840	 0.133377731064004 
841	 0.133281713038362 
842	 0.133164239040502 
843	 0.133037228520069 
844	 0.133015454064405 
845	 0.13294060177714 
846	 0.132845691348389 
847	 0.132824637198011 
848	 0.132756188161372 
849	 0.13267137346913 
850	 0.132618421092527 
851	 0.132635372745968 
852	 0.132586406613315 
853	 0.132519554929756 
854	 0.132472612284299 
855	 0.132428027101614 
856	 0.132428040708351 
857	 0.132418220111765 
858	 0.13236822322125 
859	 0.132364214094586 
860	 0.132400774866129 
861	 0.132435442362832 
862	 0.132431886173863 
863	 0.132451840619278 
864	 0.132468625943852 
865	 0.132467717033848 
866	 0.13245193487564 
867	 0.132471589816206 
868	 0.132502632908502 
869	 0.132541862910029 
870	 0.132609894503896 
871	 0.132653180446005 
872	 0.132690651160306 
873	 0.132748250293219 
874	 0.132841261296181 
875	 0.132892567451877 
876	 0.132937832055226 
877	 0.133012978619133 
878	 0.133070965020743 
879	 0.133181936574635 
880	 0.13327846371534 
881	 0.133298750539387 
882	 0.133410599381864 
883	 0.133518521094739 
884	 0.133614905001345 
885	 0.133739744253285 
886	 0.133884076076533 
887	 0.134007888095574 
888	 0.134101506048723 
889	 0.134188838856946 
890	 0.134321539370299 
891	 0.134461521985987 
892	 0.134594172059476 
893	 0.134748526528743 
894	 0.134913667240334 
895	 0.135054311448593 
896	 0.135187105822958 
897	 0.135425886823566 
898	 0.135654204381248 
899	 0.135820130676062 
900	 0.135937150324293 
901	 0.13613687091161 
902	 0.136323555556792 
903	 0.13648439077327 
904	 0.136639773097853 
905	 0.136813431025893 
906	 0.137040008302778 
907	 0.137294847923826 
908	 0.137541873248245 
909	 0.13785929715525 
910	 0.138113419731109 
911	 0.138319826324718 
912	 0.13858059923186 
913	 0.138806178691369 
914	 0.139033001351221 
915	 0.139261192708224 
916	 0.139466288805468 
917	 0.139789534795609 
918	 0.140101186461782 
919	 0.140355582550267 
920	 0.140642164812882 
921	 0.140969181705804 
922	 0.141284933497354 
923	 0.141582150228737 
924	 0.141931429560348 
925	 0.142249834950442 
926	 0.142539843078994 
927	 0.142840763885551 
928	 0.143218521509024 
929	 0.143541573510499 
930	 0.143856153496431 
931	 0.144208739261567 
932	 0.144534156151213 
933	 0.144927419359209 
934	 0.145355942758202 
935	 0.145761845934513 
936	 0.146140180319067 
937	 0.146419515397086 
938	 0.146747491954626 
939	 0.147246456131464 
940	 0.147700539737375 
941	 0.148124157472194 
942	 0.148561023398466 
943	 0.149032186237425 
944	 0.149407686925903 
945	 0.149804444497174 
946	 0.150239865468934 
947	 0.150686139086569 
948	 0.151159439378269 
949	 0.151607915860538 
950	 0.152053635041377 
951	 0.152544226506388 
952	 0.153039226344312 
953	 0.15354625526041 
954	 0.154031042532134 
955	 0.154465826761313 
956	 0.154966953074381 
957	 0.155570851729123 
958	 0.156147419335951 
959	 0.156539699815499 
960	 0.156995149516614 
961	 0.157554244502881 
962	 0.158156008594656 
963	 0.158697910221697 
964	 0.159205047975792 
965	 0.159811521637654 
966	 0.160478239976065 
967	 0.161063298390104 
968	 0.161586330514463 
969	 0.162166754982174 
970	 0.162804359644613 
971	 0.163408172612985 
972	 0.163929555329226 
973	 0.164524940298352 
974	 0.165141786829464 
975	 0.165644988687992 
976	 0.166351761838742 
977	 0.167031942978957 
978	 0.167614074057797 
979	 0.168189461614056 
980	 0.168959020782411 
981	 0.169630743133368 
982	 0.170224435987321 
983	 0.17092416210169 
984	 0.171553335578599 
985	 0.172180969268365 
986	 0.172832219708782 
987	 0.173494208299379 
988	 0.174147277955046 
989	 0.174791477014781 
990	 0.175460338120534 
991	 0.176179561424652 
992	 0.176887958274331 
993	 0.177420210163322 
994	 0.178000876366763 
995	 0.178855747026921 
996	 0.179475897418491 
997	 0.180165649399049 
998	 0.180879337869616 
999	 0.181514261967559 
1000	 0.182302280956109 
1001	 0.184526408048672 
1002	 0.185211213462561 
1003	 0.185922150392985 
1004	 0.186604206530287 
1005	 0.187273011071884 
1006	 0.187974324036627 
1007	 0.188699336242427 
1008	 0.189357792149483 
1009	 0.190000028732036 
1010	 0.190662267166053 
1011	 0.191247538509939 
1012	 0.191822670985065 
1013	 0.192476025862178 
1014	 0.193083865194847 
1015	 0.19368707121858 
1016	 0.194363594838315 
1017	 0.194976810392445 
1018	 0.195563804318581 
1019	 0.196146022941562 
1020	 0.19677283527544 
1021	 0.197322394172359 
1022	 0.197905363025337 
1023	 0.198566630980686 
1024	 0.199115747021041 
1025	 0.199630874057062 
1026	 0.200235383049087 
1027	 0.200802920055352 
1028	 0.201340683549203 
1029	 0.201923382576117 
1030	 0.202480046714594 
1031	 0.20302417999258 
1032	 0.203531683142806 
1033	 0.204087225461016 
1034	 0.204655891065378 
1035	 0.205190765339446 
1036	 0.205715228484816 
1037	 0.206223697185558 
1038	 0.206718763704334 
1039	 0.207227127689767 
1040	 0.207759122085607 
1041	 0.208317118855067 
1042	 0.20885781390295 
1043	 0.20934417307069 
1044	 0.209851610470734 
1045	 0.210342128517727 
1046	 0.210868199640218 
1047	 0.211397513340162 
1048	 0.211958493051648 
1049	 0.21253253251898 
1050	 0.213027190799026 
1051	 0.213525978166502 
1052	 0.214030951991435 
1053	 0.214502319287348 
1054	 0.214988247800999 
1055	 0.215478855943642 
1056	 0.216009701389814 
1057	 0.216523964461577 
1058	 0.217045410864641 
1059	 0.217562410868144 
1060	 0.218087645326235 
1061	 0.218569037993132 
1062	 0.219052707429381 
1063	 0.219554042300338 
1064	 0.22002508165789 
1065	 0.220511511746719 
1066	 0.221019530824979 
1067	 0.221556066984515 
1068	 0.222090340497332 
1069	 0.222596664124358 
1070	 0.223104235463587 
1071	 0.223593162476929 
1072	 0.224094506536349 
1073	 0.224587081760041 
1074	 0.225078684899814 
1075	 0.225580964135318 
1076	 0.22608250156005 
1077	 0.226482534170309 
1078	 0.226969736700026 
1079	 0.227484358215247 
1080	 0.227922981391763 
1081	 0.228381818880606 
1082	 0.22885947961672 
1083	 0.229338614605208 
1084	 0.229780692419672 
1085	 0.230257901026519 
1086	 0.230783326913144 
1087	 0.231277408432303 
1088	 0.231759168948143 
1089	 0.232226348307395 
1090	 0.232693653109623 
1091	 0.23318808866748 
1092	 0.233677363401191 
1093	 0.234170630378145 
1094	 0.234696333610954 
1095	 0.235199161953137 
1096	 0.235694178633085 
1097	 0.236189493139165 
1098	 0.236678846863928 
1099	 0.237144497931769 
1100	 0.237652281303255 
1101	 0.23815781824825 
1102	 0.238696843658142 
1103	 0.239286347495581 
1104	 0.239861613667272 
1105	 0.240384803692957 
1106	 0.240944317666824 
1107	 0.241495925646157 
1108	 0.242028294739372 
1109	 0.242652197892558 
1110	 0.243232895083813 
1111	 0.243778575625863 
1112	 0.244283783970072 
1113	 0.244840393300868 
1114	 0.245368802771217 
1115	 0.245948762815268 
1116	 0.246616207785282 
1117	 0.24721612456517 
1118	 0.247793120154255 
1119	 0.248355875210246 
1120	 0.248964765582039 
1121	 0.249556370312183 
1122	 0.250141995407556 
1123	 0.250771421252709 
1124	 0.251382569802351 
1125	 0.251962389301569 
1126	 0.252571665234824 
1127	 0.253224216493119 
1128	 0.253827609236513 
1129	 0.254409150901282 
1130	 0.254993630645957 
1131	 0.255556279149269 
1132	 0.25613458210842 
1133	 0.256699859592074 
1134	 0.257296638585233 
1135	 0.257928689001729 
1136	 0.258540520491679 
1137	 0.259147772992808 
1138	 0.259743987994912 
1139	 0.260313176110223 
1140	 0.260842367897805 
1141	 0.261386691764077 
1142	 0.261919617264062 
1143	 0.262463814403571 
1144	 0.263002501594408 
1145	 0.26354758708327 
1146	 0.264109423117754 
1147	 0.264657571704847 
1148	 0.265196598363233 
1149	 0.265742611203733 
1150	 0.266283680788681 
1151	 0.266834788188414 
1152	 0.267367104827654 
1153	 0.267901972510903 
1154	 0.268456476752296 
1155	 0.269020503252916 
1156	 0.269561797786115 
1157	 0.27011402433627 
1158	 0.270659999103422 
1159	 0.271193051880286 
1160	 0.271717460161576 
1161	 0.272248776797737 
1162	 0.272765010745963 
1163	 0.273250719932268 
1164	 0.273746411171989 
1165	 0.274232143801529 
1166	 0.27474709886438 
1167	 0.275257639447728 
1168	 0.275777679456563 
1169	 0.276290861395565 
1170	 0.276814497324456 
1171	 0.277329009930492 
1172	 0.277843818856718 
1173	 0.278338121675151 
1174	 0.278825484426452 
1175	 0.279307808459913 
1176	 0.279773911926747 
1177	 0.280240528364026 
1178	 0.280706978001605 
1179	 0.28117094180736 
1180	 0.28162726426935 
1181	 0.282079933071506 
1182	 0.282527824405099 
1183	 0.282988294485563 
1184	 0.283429808783175 
1185	 0.2838657323656 
1186	 0.284292303803144 
1187	 0.284706387447905 
1188	 0.285124742597986 
1189	 0.285550055159225 
1190	 0.285943954286373 
1191	 0.286317343327465 
1192	 0.286702803832485 
1193	 0.287071997672408 
1194	 0.287444656327169 
1195	 0.287830726222221 
1196	 0.288209456785053 
1197	 0.288571546636179 
1198	 0.288941494773099 
1199	 0.289314872181979 
1200	 0.289704971063038 
1201	 0.290061757535906 
1202	 0.290403355361842 
1203	 0.290754201645496 
1204	 0.291103910379824 
1205	 0.291429414454242 
1206	 0.291750755901025 
1207	 0.292065621599574 
1208	 0.292338320687742 
1209	 0.292646039347261 
1210	 0.292994421608433 
1211	 0.29330414008845 
1212	 0.29360084978456 
1213	 0.293899087238869 
1214	 0.294181482767451 
1215	 0.294458323521385 
1216	 0.29473256033936 
1217	 0.295017487025586 
1218	 0.295278396598917 
1219	 0.295517209620477 
1220	 0.295766116821383 
1221	 0.296012298406058 
1222	 0.296255867152355 
1223	 0.296492928486029 
1224	 0.296739525661422 
1225	 0.296992808725836 
1226	 0.297237147900068 
1227	 0.297486997117983 
1228	 0.297728933432865 
1229	 0.297957184628388 
1230	 0.298189583193619 
1231	 0.298434216292663 
1232	 0.298660867586804 
1233	 0.298878670947371 
1234	 0.299090101473266 
1235	 0.299292903262214 
1236	 0.29947899980699 
1237	 0.299672657533625 
1238	 0.299871586510094 
1239	 0.300053389903953 
1240	 0.300223929124767 
1241	 0.300396754052223 
1242	 0.300557516631672 
1243	 0.300724591136157 
1244	 0.3008883081849 
1245	 0.301064749431612 
1246	 0.301249298686015 
1247	 0.301432414574746 
1248	 0.301632148340346 
1249	 0.301827534514063 
1250	 0.301996773681578 
1251	 0.30214421641162 
1252	 0.302284517227985 
1253	 0.302397941009925 
1254	 0.302525735615026 
1255	 0.302653017770813 
1256	 0.302772727151983 
1257	 0.302882612928706 
1258	 0.303004260133494 
1259	 0.30312897086735 
1260	 0.303250341235848 
1261	 0.303384657874755 
1262	 0.303502293144863 
1263	 0.303604045519337 
1264	 0.303710151261841 
1265	 0.303814416345933 
1266	 0.303915703930762 
1267	 0.304016271652726 
1268	 0.304108851148958 
1269	 0.304212894032464 
1270	 0.304315903446509 
1271	 0.304424431953684 
1272	 0.304543206998657 
1273	 0.304657169727328 
1274	 0.304766510452408 
1275	 0.304883209663919 
1276	 0.305008016200648 
1277	 0.305127593474733 
1278	 0.3052480218767 
1279	 0.305367618619742 
1280	 0.305495214514127 
1281	 0.305602713093934 
1282	 0.305691463865873 
1283	 0.305792469202981 
1284	 0.30589005577508 
1285	 0.305979755347979 
1286	 0.306084184201138 
1287	 0.306204610441229 
1288	 0.306283742079856 
1289	 0.306338323932003 
1290	 0.306402971598537 
1291	 0.306442773650313 
1292	 0.306506373699727 
1293	 0.306591988842482 
1294	 0.306657809426687 
1295	 0.306727597358874 
1296	 0.306778140197591 
1297	 0.306816082349727 
1298	 0.306845022385975 
1299	 0.306864946295027 
1300	 0.306870509880549 
1301	 0.306850863276211 
1302	 0.306841160244883 
1303	 0.306820994045722 
1304	 0.306807643422215 
1305	 0.306799012740594 
1306	 0.306811498779918 
1307	 0.306812728583704 
1308	 0.306804403939247 
1309	 0.306803307004307 
1310	 0.306808712095634 
1311	 0.306795999594367 
1312	 0.306771720634523 
1313	 0.306760129281484 
1314	 0.306744046611979 
1315	 0.306725778747281 
1316	 0.306724049632966 
1317	 0.306706484745972 
1318	 0.306663298194964 
1319	 0.306637738389006 
1320	 0.306614649795375 
1321	 0.306598919580331 
1322	 0.306586459500364 
1323	 0.30658611650128 
1324	 0.306604652634132 
1325	 0.306612561533421 
1326	 0.306628102931604 
1327	 0.306656394975528 
1328	 0.306641945319294 
1329	 0.306629713685846 
1330	 0.306634951293223 
1331	 0.306634786265324 
1332	 0.306644465302936 
1333	 0.306680356584178 
1334	 0.306697905304072 
1335	 0.306699397821377 
1336	 0.306723498091088 
1337	 0.306769092368361 
1338	 0.306786977483302 
1339	 0.306787692908312 
1340	 0.306811358062553 
1341	 0.306822632580506 
1342	 0.306853815418915 
1343	 0.306922563143442 
1344	 0.306977180450182 
1345	 0.307009040526435 
1346	 0.307046035527596 
1347	 0.307075254029921 
1348	 0.307099254230825 
1349	 0.307131117122768 
1350	 0.307170870496652 
1351	 0.307216678688083 
1352	 0.307270241000208 
1353	 0.307321691316302 
1354	 0.307387619109263 
1355	 0.30742979667506 
1356	 0.307468671027887 
1357	 0.307491450131984 
1358	 0.307488376743161 
1359	 0.307500766519426 
1360	 0.307515491404033 
1361	 0.307516569982294 
1362	 0.30752154357596 
1363	 0.307514236073158 
1364	 0.307504240119152 
1365	 0.30746944653699 
1366	 0.307430688627553 
1367	 0.307364311832026 
1368	 0.307257428114276 
1369	 0.307129440505555 
1370	 0.307006940398466 
1371	 0.306881411782485 
1372	 0.306745551032835 
1373	 0.306592095270853 
1374	 0.306418030254304 
1375	 0.306227580033064 
1376	 0.30600045920129 
1377	 0.305767117173485 
1378	 0.305469050015711 
1379	 0.30513096312709 
1380	 0.304734449401372 
1381	 0.304287822288167 
1382	 0.303797603486174 
1383	 0.303253710848495 
1384	 0.302673776162924 
1385	 0.302074958504378 
1386	 0.301402193576532 
1387	 0.300678943498393 
1388	 0.299902280001989 
1389	 0.299077699957686 
1390	 0.298168946718133 
1391	 0.297216006644248 
1392	 0.296210096994189 
1393	 0.295139134818653 
1394	 0.294049699063086 
1395	 0.292910946321196 
1396	 0.291737924529083 
1397	 0.290559857159618 
1398	 0.289343975162924 
1399	 0.288138508751141 
1400	 0.286915847686227 
1401	 0.285724203538231 
1402	 0.284521041402712 
1403	 0.283365815373091 
1404	 0.282232055890425 
1405	 0.281140712432867 
1406	 0.280079300648403 
1407	 0.279050554546143 
1408	 0.278037495749997 
1409	 0.277101201535164 
1410	 0.276181669095302 
1411	 0.275368345694631 
1412	 0.27463277492283 
1413	 0.273976255413935 
1414	 0.273406297241842 
1415	 0.272900233603005 
1416	 0.272484653590113 
1417	 0.272111600359749 
1418	 0.271780658359203 
1419	 0.271504878873194 
1420	 0.271223019885273 
1421	 0.270962640317492 
1422	 0.270730013903494 
1423	 0.270489259924625 
1424	 0.270259455264393 
1425	 0.270039979147709 
1426	 0.269836330503422 
1427	 0.269634166135278 
1428	 0.269457802524128 
1429	 0.269307518291289 
1430	 0.269161961201396 
1431	 0.269025170147705 
1432	 0.268901119418727 
1433	 0.268789589512633 
1434	 0.26869151818776 
1435	 0.268602794051371 
1436	 0.268534315703457 
1437	 0.268490210603562 
1438	 0.268443537903948 
1439	 0.268407655315415 
1440	 0.268378260769487 
1441	 0.268346912619382 
1442	 0.268331804188893 
1443	 0.268339860544314 
1444	 0.268359021883742 
1445	 0.268391470007796 
1446	 0.268423919291629 
1447	 0.268437628426402 
1448	 0.268456131385753 
1449	 0.26848025163985 
1450	 0.268512622223096 
1451	 0.268549731417704 
1452	 0.268598153088155 
1453	 0.268644147855621 
1454	 0.268688413427232 
1455	 0.268740945873552 
1456	 0.268794352499399 
1457	 0.268870799488157 
1458	 0.268951239790865 
1459	 0.269059365252208 
1460	 0.269198937171704 
1461	 0.269333773085721 
1462	 0.269477885054922 
1463	 0.269634482403136 
1464	 0.269783458078617 
1465	 0.269969868986496 
1466	 0.270188671137185 
1467	 0.270418472431721 
1468	 0.27067908649113 
1469	 0.270936827706583 
1470	 0.271200812043385 
1471	 0.271468462244015 
1472	 0.271761525377413 
1473	 0.272072492775534 
1474	 0.272411504849256 
1475	 0.272761285139524 
1476	 0.273091446125647 
1477	 0.273438524792108 
1478	 0.273797011236804 
1479	 0.274142212916307 
1480	 0.27451018395767 
1481	 0.274882161211218 
1482	 0.275246339623245 
1483	 0.2756038310798 
1484	 0.275980010836024 
1485	 0.276358972833355 
1486	 0.276740882567102 
1487	 0.277143439571944 
1488	 0.277520917276011 
1489	 0.277890883884298 
1490	 0.278259602283844 
1491	 0.278617636807187 
1492	 0.278974612391855 
1493	 0.279323858854137 
1494	 0.279681022543315 
1495	 0.280046713018625 
1496	 0.280395152039302 
1497	 0.280737272111277 
1498	 0.281084655696135 
1499	 0.281421652723668 
1500	 0.281760291436389 
1501	 0.282116988515818 
1502	 0.2824518434351 
1503	 0.282770665400976 
1504	 0.283083069530773 
1505	 0.283395321566638 
1506	 0.283707497352985 
1507	 0.284018454956038 
1508	 0.28432580472903 
1509	 0.284602772115489 
1510	 0.284870190973611 
1511	 0.285158679830078 
1512	 0.285441324194689 
1513	 0.28574117377532 
1514	 0.286060470662007 
1515	 0.286365436316051 
1516	 0.286667264557923 
1517	 0.286950784284133 
1518	 0.287233283161461 
1519	 0.287490031578665 
1520	 0.287714025723605 
1521	 0.287953028089199 
1522	 0.288185157784979 
1523	 0.288419475499605 
1524	 0.288654950916781 
1525	 0.288889854327938 
1526	 0.289118670150396 
1527	 0.289355519642626 
1528	 0.289602912700352 
1529	 0.289837485494631 
1530	 0.290079000473589 
1531	 0.290301092871428 
1532	 0.290512086804948 
1533	 0.290708037791833 
1534	 0.290871045186067 
1535	 0.29106116362338 
1536	 0.291252881840152 
1537	 0.291445960400413 
1538	 0.291657940385122 
1539	 0.291860016812281 
1540	 0.292049886359352 
1541	 0.292244229615099 
1542	 0.292446989400649 
1543	 0.2926424540666 
1544	 0.292842730080924 
1545	 0.293027069729403 
1546	 0.293208322578345 
1547	 0.293362386431559 
1548	 0.293516919306991 
1549	 0.293674977603471 
1550	 0.293830071994124 
1551	 0.293998889452692 
1552	 0.294159190512241 
1553	 0.294301281365526 
1554	 0.294458559963579 
1555	 0.294609685126947 
1556	 0.294755152785139 
1557	 0.294905163523594 
1558	 0.295024039611175 
1559	 0.295140612204068 
1560	 0.295271828067758 
1561	 0.295401594327118 
1562	 0.295537452300914 
1563	 0.295689177363332 
1564	 0.295831134951022 
1565	 0.295963990614554 
1566	 0.296106957039417 
1567	 0.296264910773909 
1568	 0.296399717032165 
1569	 0.296531446894305 
1570	 0.296651879471932 
1571	 0.296756332307463 
1572	 0.296859111383372 
1573	 0.29694957381831 
1574	 0.297051047008206 
1575	 0.297149368703218 
1576	 0.297248409534979 
1577	 0.297362160345181 
1578	 0.297459888216821 
1579	 0.297547181934119 
1580	 0.297635485453425 
1581	 0.297713101250814 
1582	 0.297797957411202 
1583	 0.297888695037245 
1584	 0.297969213093595 
1585	 0.298044597734279 
1586	 0.298127926513729 
1587	 0.298207618679082 
1588	 0.298291117914521 
1589	 0.298393464814936 
1590	 0.298473778969494 
1591	 0.298534659931999 
1592	 0.298608105404035 
1593	 0.298670244262073 
1594	 0.298745387083992 
1595	 0.298845939337304 
1596	 0.298925033715439 
1597	 0.2990026831469 
1598	 0.299071881425887 
1599	 0.299108184293922 
1600	 0.299174467108721 
1601	 0.299268539359388 
1602	 0.299335113633346 
1603	 0.299409814897247 
1604	 0.299469310249084 
1605	 0.299488119975983 
1606	 0.299528304730436 
1607	 0.299571715745205 
1608	 0.299625852175975 
1609	 0.299694364532852 
1610	 0.299746428496812 
1611	 0.299825704902089 
1612	 0.29989365865607 
1613	 0.299939477379032 
1614	 0.300000378400298 
1615	 0.300035763397404 
1616	 0.300069259430263 
1617	 0.300099209327563 
1618	 0.30011913737935 
1619	 0.300163863729553 
1620	 0.300190434180411 
1621	 0.300214506878694 
1622	 0.300247429892694 
1623	 0.30026970086733 
1624	 0.300266076552926 
1625	 0.30029483050531 
1626	 0.300343165437628 
1627	 0.300372544159698 
1628	 0.300411687983178 
1629	 0.300427442789183 
1630	 0.300416672320638 
1631	 0.300436160931284 
1632	 0.300448455552943 
1633	 0.300489741522549 
1634	 0.300566252899169 
1635	 0.300616310026634 
1636	 0.300675765269871 
1637	 0.300710928156884 
1638	 0.300732042721565 
1639	 0.300740444971491 
1640	 0.300731647517217 
1641	 0.300726585042615 
1642	 0.300704601298465 
1643	 0.30069737217851 
1644	 0.300698714211718 
1645	 0.300692414016235 
1646	 0.30067543672433 
1647	 0.300687171095743 
1648	 0.300714053123199 
1649	 0.300729963664754 
1650	 0.30076776268732 
1651	 0.300780976969951 
1652	 0.300766063214549 
1653	 0.300771456835422 
1654	 0.300787890830878 
1655	 0.300789512000306 
1656	 0.300789573826554 
1657	 0.300785462639302 
1658	 0.300767417848546 
1659	 0.300758376448557 
1660	 0.300767011510736 
1661	 0.300740682784553 
1662	 0.300688968942929 
1663	 0.300658024309611 
1664	 0.300607139190605 
1665	 0.300582625894433 
1666	 0.300591257906083 
1667	 0.300580678606058 
1668	 0.300564804982712 
1669	 0.300555081515213 
1670	 0.300536923347148 
1671	 0.300541546107485 
1672	 0.300567422743589 
1673	 0.300578364786608 
1674	 0.300603499217251 
1675	 0.300607596309147 
1676	 0.300602523091556 
1677	 0.300577330586262 
1678	 0.300527543711839 
1679	 0.300493994793223 
1680	 0.300445729807509 
1681	 0.300408875604295 
1682	 0.300389225849576 
1683	 0.300361225903959 
1684	 0.300330328025396 
1685	 0.300296893918024 
1686	 0.300260440868407 
1687	 0.300230655043893 
1688	 0.300196956130766 
1689	 0.300169190907534 
1690	 0.300162233865767 
1691	 0.300129240066332 
1692	 0.300078872482161 
1693	 0.300038121713135 
1694	 0.299976467168663 
1695	 0.299949575785383 
1696	 0.29995792582748 
1697	 0.299938202307382 
1698	 0.299930988059818 
1699	 0.299893413872011 
1700	 0.299824401134104 
1701	 0.29976186450523 
1702	 0.299693088443558 
1703	 0.299619688062323 
1704	 0.299521818937308 
1705	 0.299466264619625 
1706	 0.299440705157594 
1707	 0.299381714297915 
1708	 0.299333747652314 
1709	 0.299275156259243 
1710	 0.299168300280184 
1711	 0.299114104628157 
1712	 0.299099250474537 
1713	 0.299065634478275 
1714	 0.299048221218707 
1715	 0.299009054641391 
1716	 0.298960251454639 
1717	 0.298904646177702 
1718	 0.298839586228463 
1719	 0.298764408205916 
1720	 0.298683111705652 
1721	 0.298583888099668 
1722	 0.298456066963297 
1723	 0.298360689380048 
1724	 0.298264706271337 
1725	 0.29817373836398 
1726	 0.298113442367381 
1727	 0.298024386318834 
1728	 0.297923178244447 
1729	 0.297812781383128 
1730	 0.29769669014021 
1731	 0.297559096135767 
1732	 0.297386983522137 
1733	 0.297251072006337 
1734	 0.297127980174755 
1735	 0.296986127736919 
1736	 0.296850281921102 
1737	 0.296717329516677 
1738	 0.296562121556654 
1739	 0.296426740602423 
1740	 0.296319681493795 
1741	 0.296183161430595 
1742	 0.296027950570541 
1743	 0.295894157857293 
1744	 0.295774368611682 
1745	 0.2956281103187 
1746	 0.295473308997368 
1747	 0.29530979452806 
1748	 0.295159377891582 
1749	 0.295031962593831 
1750	 0.294896890602982 
1751	 0.294759121033808 
1752	 0.294606983817378 
1753	 0.294424867090719 
1754	 0.294278195354819 
1755	 0.294155919107906 
1756	 0.294018094655134 
1757	 0.293908619028293 
1758	 0.293807097805422 
1759	 0.293695449894434 
1760	 0.293578132052898 
1761	 0.29343602586109 
1762	 0.293276381507635 
1763	 0.29311349707356 
1764	 0.292948472973082 
1765	 0.292802585252603 
1766	 0.292656189756833 
1767	 0.292464124586144 
1768	 0.292280531712185 
1769	 0.292102227476666 
1770	 0.291955004252712 
1771	 0.2918750967685 
1772	 0.291782447517586 
1773	 0.291687648322502 
1774	 0.29160225947523 
1775	 0.291495973172206 
1776	 0.29137255997904 
1777	 0.291244106685182 
1778	 0.291131154411782 
1779	 0.291026758875516 
1780	 0.29090505391564 
1781	 0.290795895861531 
1782	 0.290705791515076 
1783	 0.290588988559149 
1784	 0.290521789491494 
1785	 0.290504823811499 
1786	 0.290456478522199 
1787	 0.290418678796679 
1788	 0.290383045672444 
1789	 0.2903379595509 
1790	 0.290294732530406 
1791	 0.290263156879986 
1792	 0.290223136986415 
1793	 0.290173327433295 
1794	 0.290122490322158 
1795	 0.290074619346321 
1796	 0.29001361904467 
1797	 0.289930081866715 
1798	 0.289873324539939 
1799	 0.28982152885239 
1800	 0.289784117916794 
1801	 0.286109704456681 
1802	 0.286069719605137 
1803	 0.28607831484861 
1804	 0.28605676993699 
1805	 0.286039083395704 
1806	 0.286028775970788 
1807	 0.285980786306965 
1808	 0.285976968236243 
1809	 0.286009578310983 
1810	 0.286004886722377 
1811	 0.285988833537772 
1812	 0.286014496559606 
1813	 0.286019379705683 
1814	 0.285969615252741 
1815	 0.285967064409372 
1816	 0.285970715808441 
1817	 0.285961361635481 
1818	 0.285952192184752 
1819	 0.285934680619281 
1820	 0.285922935194595 
1821	 0.285873477117252 
1822	 0.285831009355734 
1823	 0.285760466803996 
1824	 0.285688791767496 
1825	 0.285632118137672 
1826	 0.28554846373713 
1827	 0.285472715133435 
1828	 0.285393574997955 
1829	 0.285313990386484 
1830	 0.285221174207962 
1831	 0.285124975708134 
1832	 0.285022309050714 
1833	 0.284906245882553 
1834	 0.284794310984591 
1835	 0.284683793170944 
1836	 0.284565371633876 
1837	 0.284444538187522 
1838	 0.28432261183029 
1839	 0.284191389995626 
1840	 0.284053392863144 
1841	 0.283911501387454 
1842	 0.283778847749043 
1843	 0.283631185639495 
1844	 0.283485479045077 
1845	 0.283316298832325 
1846	 0.283081763272555 
1847	 0.282850565713885 
1848	 0.282601938934388 
1849	 0.282325020554998 
1850	 0.282055089284318 
1851	 0.281796921580811 
1852	 0.281513787103999 
1853	 0.281202527893045 
1854	 0.280875314420166 
1855	 0.280527958885374 
1856	 0.280161010590807 
1857	 0.279775643891352 
1858	 0.279362121769552 
1859	 0.27889792472752 
1860	 0.278383513426214 
1861	 0.27781906066483 
1862	 0.277210940575255 
1863	 0.276546773764019 
1864	 0.275822332939057 
1865	 0.275024706615449 
1866	 0.274148033591064 
1867	 0.27322359830141 
1868	 0.27222905200536 
1869	 0.271153017726664 
1870	 0.270005069527923 
1871	 0.268751973617136 
1872	 0.267399241099719 
1873	 0.265968175415779 
1874	 0.264474187870164 
1875	 0.262862359881287 
1876	 0.261155364702016 
1877	 0.259346295121312 
1878	 0.257378426857496 
1879	 0.255297228122061 
1880	 0.253117236535837 
1881	 0.250807827180466 
1882	 0.24841412714055 
1883	 0.245934456177413 
1884	 0.243307747846605 
1885	 0.240596820388307 
1886	 0.237762965454076 
1887	 0.234789416803 
1888	 0.231754697210346 
1889	 0.228649528610741 
1890	 0.225507626132245 
1891	 0.222404942000258 
1892	 0.219260255768896 
1893	 0.216196329479319 
1894	 0.213157844828725 
1895	 0.210163371243861 
1896	 0.207205920366096 
1897	 0.204348593190334 
1898	 0.201544764235151 
1899	 0.19883325112624 
1900	 0.196267037314307 
1901	 0.193783307489495 
1902	 0.191447886060887 
1903	 0.18928131799355 
1904	 0.187201261103783 
1905	 0.185219862196088 
1906	 0.183393259320445 
1907	 0.18167863474952 
1908	 0.180047989793478 
1909	 0.178582473799484 
1910	 0.177220977118794 
1911	 0.175968303569887 
1912	 0.17481781271091 
1913	 0.173736382694321 
1914	 0.172732395927668 
1915	 0.171822416219177 
1916	 0.17099693150189 
1917	 0.170254680520624 
1918	 0.169608202307506 
1919	 0.169021298710902 
1920	 0.168506521580376 
1921	 0.168069844190303 
1922	 0.167675938802389 
1923	 0.167332458437844 
1924	 0.167056592580524 
1925	 0.166842350927468 
1926	 0.166678733627823 
1927	 0.166574703233167 
1928	 0.166534562467322 
1929	 0.166528220345967 
1930	 0.166554959826698 
1931	 0.166621414510024 
1932	 0.166715752925353 
1933	 0.16687204954437 
1934	 0.16705622050222 
1935	 0.167275082514657 
1936	 0.167545460836495 
1937	 0.167835877455707 
1938	 0.168150236925084 
1939	 0.168497685533329 
1940	 0.168886668922492 
1941	 0.169283704802925 
1942	 0.169696823414804 
1943	 0.170133346282397 
1944	 0.170597225540332 
1945	 0.171074653005313 
1946	 0.171578541243254 
1947	 0.172126743067513 
1948	 0.172665694406121 
1949	 0.17320751347741 
1950	 0.173779363863925 
1951	 0.174377699020054 
1952	 0.174969438011447 
1953	 0.175579569773711 
1954	 0.176195372753268 
1955	 0.176793338347897 
1956	 0.177390904019154 
1957	 0.178006392496593 
1958	 0.178625841759957 
1959	 0.179264719989704 
1960	 0.179927770092461 
1961	 0.180584329078181 
1962	 0.181254898424393 
1963	 0.181924095821387 
1964	 0.182586135088528 
1965	 0.183251702658514 
1966	 0.183961650344345 
1967	 0.184659805012316 
1968	 0.185371781393359 
1969	 0.186102423244446 
1970	 0.186840421117728 
1971	 0.187603149354825 
1972	 0.188335718058795 
1973	 0.189057411585762 
1974	 0.189791159090809 
1975	 0.190515375292356 
1976	 0.191230291658454 
1977	 0.191987140017868 
1978	 0.192737775299423 
1979	 0.193460790220722 
1980	 0.194186980728916 
1981	 0.194920120094265 
1982	 0.195644900493829 
1983	 0.196386020736876 
1984	 0.197159221909321 
1985	 0.197899147071639 
1986	 0.198638122522326 
1987	 0.199357440914764 
1988	 0.200046336722967 
1989	 0.200733518351703 
1990	 0.20145005638855 
1991	 0.202160744259179 
1992	 0.202882562640017 
1993	 0.203630829949282 
1994	 0.20436291188293 
1995	 0.205089188730799 
1996	 0.205813539515609 
1997	 0.206553311426097 
1998	 0.207270192459204 
1999	 0.207960990325713 
2000	 0.208664408903939 
2001	 0.209379876320317 
2002	 0.210059121020953 
2003	 0.210750052280244 
2004	 0.211440960404126 
2005	 0.212108905071074 
2006	 0.212749175541506 
2007	 0.213408144178453 
2008	 0.214059569699174 
2009	 0.214717316778624 
2010	 0.215387864542339 
2011	 0.216046334731399 
2012	 0.216702527458012 
2013	 0.217353843601304 
2014	 0.217992063229372 
2015	 0.218644730783051 
2016	 0.219297743637776 
2017	 0.219928489569631 
2018	 0.22055835874679 
2019	 0.221177999845429 
2020	 0.221806513540934 
2021	 0.222448366786554 
2022	 0.223054312199015 
2023	 0.223659160028366 
2024	 0.224242814533965 
2025	 0.224779320141754 
2026	 0.225328970837833 
2027	 0.225873239175949 
2028	 0.226419586163851 
2029	 0.226969936631342 
2030	 0.227521443960905 
2031	 0.228067700884221 
2032	 0.228619253819313 
2033	 0.229162115525843 
2034	 0.229696181440388 
2035	 0.230229714550628 
2036	 0.230770051415818 
2037	 0.231293092957391 
2038	 0.231802459618057 
2039	 0.232310957717427 
2040	 0.232817252825512 
2041	 0.233307033919781 
2042	 0.233790980402967 
2043	 0.234265758951255 
2044	 0.234741354814876 
2045	 0.235197524577751 
2046	 0.235677860244144 
2047	 0.23617226958719 
2048	 0.236659758658433 
2049	 0.237175309102816 
2050	 0.237646879136828 
2051	 0.238093995840832 
2052	 0.238538633685828 
2053	 0.238956885055486 
2054	 0.239373545102416 
2055	 0.239785063529755 
2056	 0.240201986072016 
2057	 0.240596895433909 
2058	 0.240962663150513 
2059	 0.241363292905824 
2060	 0.241764172047224 
2061	 0.242173588024115 
2062	 0.24261201112566 
2063	 0.243030414917929 
2064	 0.24345219529101 
2065	 0.243852818536637 
2066	 0.244242896316114 
2067	 0.244625398454542 
2068	 0.244995394996465 
2069	 0.245345670924262 
2070	 0.245702347430968 
2071	 0.246060086838273 
2072	 0.246400429893484 
2073	 0.246721010643837 
2074	 0.247064626893966 
2075	 0.24740669152939 
2076	 0.247752755364461 
2077	 0.248122670289424 
2078	 0.24846885022326 
2079	 0.248799175548092 
2080	 0.249133451418856 
2081	 0.249456523459357 
2082	 0.24978723360083 
2083	 0.250120150626827 
2084	 0.250462149410172 
2085	 0.250787381128954 
2086	 0.251098521335752 
2087	 0.251441384087922 
2088	 0.2517906851839 
2089	 0.252135680024145 
2090	 0.252516225853981 
2091	 0.252858002876475 
2092	 0.25317918304101 
2093	 0.253489910307649 
2094	 0.253780826258136 
2095	 0.254073940579149 
2096	 0.25433736717683 
2097	 0.254626511685131 
2098	 0.254927413961114 
2099	 0.255235767904019 
2100	 0.255544056480943 
2101	 0.255875848866651 
2102	 0.256171457151093 
2103	 0.256452167781145 
2104	 0.256731798324091 
2105	 0.256980558992827 
2106	 0.257262263617279 
2107	 0.257557101817049 
2108	 0.257852935394841 
2109	 0.258158624391198 
2110	 0.258472804536616 
2111	 0.258798685032513 
2112	 0.259116479617013 
2113	 0.259457466790792 
2114	 0.259775488244862 
2115	 0.260064615240633 
2116	 0.260325327437035 
2117	 0.260599860950747 
2118	 0.260844553270321 
2119	 0.261123488426252 
2120	 0.261443602127309 
2121	 0.261709853497794 
2122	 0.261960914573213 
2123	 0.262207670989269 
2124	 0.262405632099215 
2125	 0.262642109109332 
2126	 0.262907479648623 
2127	 0.263157759882291 
2128	 0.263438468574195 
2129	 0.263674524805271 
2130	 0.263886237533543 
2131	 0.264080541462778 
2132	 0.264253769810102 
2133	 0.264380009273516 
2134	 0.264540780686985 
2135	 0.264725237177121 
2136	 0.264847966790689 
2137	 0.264959378178251 
2138	 0.26504565329775 
2139	 0.265055042393567 
2140	 0.265112208433336 
2141	 0.265200654436043 
2142	 0.265253817896683 
2143	 0.265312150474988 
2144	 0.265342622117636 
2145	 0.265340842680399 
2146	 0.265329447836366 
2147	 0.265285636519417 
2148	 0.265250545534699 
2149	 0.265229266863658 
2150	 0.265213205103026 
2151	 0.26517806118972 
2152	 0.265172967485448 
2153	 0.26510352726135 
2154	 0.264990413368357 
2155	 0.264869369896832 
2156	 0.26470315103067 
2157	 0.2645600776587 
2158	 0.264423882588888 
2159	 0.264262325349387 
2160	 0.264092902957429 
2161	 0.263920154807128 
2162	 0.263722955256402 
2163	 0.263526378439969 
2164	 0.263318455478603 
2165	 0.263134954484416 
2166	 0.262943837855978 
2167	 0.262743681112063 
2168	 0.262553878226318 
2169	 0.262391066399806 
2170	 0.262184086162303 
2171	 0.261954789867436 
2172	 0.261730875251651 
2173	 0.261481818102736 
2174	 0.261248641524819 
2175	 0.261050311308989 
2176	 0.260799896867687 
2177	 0.260523369180606 
2178	 0.26024259567804 
2179	 0.259915199301494 
2180	 0.259611171443823 
2181	 0.259331639222916 
2182	 0.259027403490129 
2183	 0.258704546772852 
2184	 0.258389539309086 
2185	 0.25807985990843 
2186	 0.257761393381126 
2187	 0.257445809642226 
2188	 0.257133972607035 
2189	 0.256837223385265 
2190	 0.256518096837029 
2191	 0.256253604452012 
2192	 0.256025636658256 
2193	 0.255816522648717 
2194	 0.255647059984144 
2195	 0.255473137172932 
2196	 0.255326011930833 
2197	 0.255169193479022 
2198	 0.25499245069104 
2199	 0.254852269870271 
2200	 0.254730875916298 
2201	 0.254618842528592 
2202	 0.25452936729496 
2203	 0.254449583525151 
2204	 0.254398847098894 
2205	 0.254354424455262 
2206	 0.254350098253667 
2207	 0.254383857383701 
2208	 0.254431850079027 
2209	 0.254507900544182 
2210	 0.254593282950113 
2211	 0.25470799147311 
2212	 0.254823574221008 
2213	 0.254960745679446 
2214	 0.255078772866272 
2215	 0.25520819200389 
2216	 0.255312928567648 
2217	 0.255402513092992 
2218	 0.255479280730838 
2219	 0.255539599779434 
2220	 0.255593853044832 
2221	 0.255638865813062 
2222	 0.255668254106882 
2223	 0.255690835322332 
2224	 0.255712872877199 
2225	 0.255696841609933 
2226	 0.255649850559086 
2227	 0.255616126091484 
2228	 0.255567832707811 
2229	 0.25550622183833 
2230	 0.255445543699226 
2231	 0.255371962340532 
2232	 0.25526611983082 
2233	 0.255177029993264 
2234	 0.255095704867882 
2235	 0.255008528309481 
2236	 0.254918724086649 
2237	 0.254824840413034 
2238	 0.254741249467717 
2239	 0.254633082545326 
2240	 0.254499031378568 
2241	 0.254377197273536 
2242	 0.254228146118264 
2243	 0.254109596516436 
2244	 0.254018357167338 
2245	 0.253932274528808 
2246	 0.253827957977375 
2247	 0.253722010762355 
2248	 0.253610865130182 
2249	 0.253471595766632 
2250	 0.253368181493033 
2251	 0.253294465637913 
2252	 0.253184489087793 
2253	 0.253058584255412 
2254	 0.252959018607248 
2255	 0.252848678784465 
2256	 0.252758496897852 
2257	 0.252700773971268 
2258	 0.25262986781731 
2259	 0.252549738537479 
2260	 0.252483185631338 
2261	 0.252437191846105 
2262	 0.252380353410742 
2263	 0.252313751508086 
2264	 0.252264060950385 
2265	 0.252223191126653 
2266	 0.252172899140313 
2267	 0.252139619156624 
2268	 0.252087744477791 
2269	 0.252014894140633 
2270	 0.251946509888784 
2271	 0.25185617785124 
2272	 0.251808224178376 
2273	 0.251756357200987 
2274	 0.251658592977897 
2275	 0.251576974129527 
2276	 0.251485100403579 
2277	 0.251407489304248 
2278	 0.251328858912655 
2279	 0.251267598940441 
2280	 0.251231985344953 
2281	 0.251170848118139 
2282	 0.251102800935388 
2283	 0.251042898351385 
2284	 0.250969011555316 
2285	 0.250915481240427 
2286	 0.250906838753378 
2287	 0.250838202126393 
2288	 0.250747591872452 
2289	 0.25064642984829 
2290	 0.250463691743064 
2291	 0.250366827914105 
2292	 0.250339030713421 
2293	 0.250264491119057 
2294	 0.250217808486677 
2295	 0.25014179310546 
2296	 0.250011742851018 
2297	 0.249899777279261 
2298	 0.249793897952992 
2299	 0.249693224169047 
2300	 0.249596432221034 
2301	 0.249474319206666 
2302	 0.249334801008243 
2303	 0.249185353461072 
2304	 0.249021717748413 
2305	 0.248834848370227 
2306	 0.248679522343691 
2307	 0.248545912363139 
2308	 0.248392431439145 
2309	 0.248253006491498 
2310	 0.248090386310317 
2311	 0.247907811081081 
2312	 0.247717569432097 
2313	 0.247507958665516 
2314	 0.247305165259833 
2315	 0.247091228825047 
2316	 0.246898621794 
2317	 0.246699884103905 
2318	 0.246537291394876 
2319	 0.246427689232171 
2320	 0.246264548633218 
2321	 0.246112128464666 
2322	 0.24593523113721 
2323	 0.245695043534855 
2324	 0.245483849799043 
2325	 0.245271373819691 
2326	 0.24508008575859 
2327	 0.244900424307424 
2328	 0.244738450757445 
2329	 0.244596164665408 
2330	 0.244417406348485 
2331	 0.24419113365324 
2332	 0.243966048924834 
2333	 0.243709269967415 
2334	 0.243461371569494 
2335	 0.243240810309664 
2336	 0.243003516216218 
2337	 0.242783292136666 
2338	 0.242573250665181 
2339	 0.242332204071847 
2340	 0.2420635458818 
2341	 0.241791345155735 
2342	 0.241529948415323 
2343	 0.241264241635476 
2344	 0.241013521053723 
2345	 0.240703697050028 
2346	 0.240319896850458 
2347	 0.239981203678456 
2348	 0.239631952066058 
2349	 0.239304606115584 
2350	 0.239031603951254 
2351	 0.238703381515998 
2352	 0.238333715194991 
2353	 0.237992541302938 
2354	 0.23761336286248 
2355	 0.237302485567511 
2356	 0.23708772428462 
2357	 0.236773651953255 
2358	 0.236422735487569 
2359	 0.236110658863344 
2360	 0.235753043670692 
2361	 0.235422843672358 
2362	 0.235165208685661 
2363	 0.234859780109365 
2364	 0.234528314612134 
2365	 0.234191897874088 
2366	 0.233854679545338 
2367	 0.233492715644181 
2368	 0.233084505775105 
2369	 0.232695508518466 
2370	 0.232313002606327 
2371	 0.231907293980538 
2372	 0.231488594698849 
2373	 0.231093367482482 
2374	 0.230680089457459 
2375	 0.230276870466836 
2376	 0.229932650931131 
2377	 0.229562046461657 
2378	 0.229086753694346 
2379	 0.228607506148978 
2380	 0.228137445335253 
2381	 0.22771137980631 
2382	 0.227386797166035 
2383	 0.227078786547031 
2384	 0.226772968132954 
2385	 0.226365963653277 
2386	 0.225888158001899 
2387	 0.225435529373811 
2388	 0.224887192721909 
2389	 0.224345032258659 
2390	 0.223914156920833 
2391	 0.223461073218182 
2392	 0.222960765477941 
2393	 0.222481485487671 
2394	 0.221980765304447 
2395	 0.221486191702721 
2396	 0.221043677529173 
2397	 0.220585401384282 
2398	 0.220073389200551 
2399	 0.219495836428675 
2400	 0.218966110931533 
2401	 0.218487213245717 
2402	 0.217981539870823 
2403	 0.217505982136968 
2404	 0.217071394074965 
2405	 0.216618785346646 
2406	 0.216169083002546 
2407	 0.2157829361127 
2408	 0.215328501493234 
2409	 0.21482623005318 
2410	 0.214369408215186 
2411	 0.213890185281782 
2412	 0.213389665430166 
2413	 0.212885471251032 
2414	 0.212373994823351 
2415	 0.211857763439219 
2416	 0.211329131413047 
2417	 0.210784151693711 
2418	 0.210236483179099 
2419	 0.209672801394884 
2420	 0.209135900001724 
2421	 0.208620905401444 
2422	 0.208130994075437 
2423	 0.207661491081295 
2424	 0.207131279936237 
2425	 0.206603911024655 
2426	 0.206080482974511 
2427	 0.205538272206948 
2428	 0.204967520240846 
2429	 0.204342650225435 
2430	 0.203774883925842 
2431	 0.203181321246296 
2432	 0.202686529248173 
2433	 0.202357371528445 
2434	 0.201897412967405 
2435	 0.201371735062436 
2436	 0.200901304215311 
2437	 0.200392273404219 
2438	 0.199968772756784 
2439	 0.199704964063381 
2440	 0.199225067309432 
2441	 0.198651771117947 
2442	 0.198100007204123 
2443	 0.197417932195953 
2444	 0.19682018972626 
2445	 0.196287116634393 
2446	 0.195694745783596 
2447	 0.195025930127063 
2448	 0.194488208229733 
2449	 0.194095379728378 
2450	 0.193609147437363 
2451	 0.193191592441875 
2452	 0.192649029338436 
2453	 0.191849721121648 
2454	 0.191267479996557 
2455	 0.190776934353474 
2456	 0.190242894639681 
2457	 0.18983038217645 
2458	 0.189412299469831 
2459	 0.188882830817389 
2460	 0.188376164087704 
2461	 0.187973946094861 
2462	 0.187503844494747 
2463	 0.187028567353292 
2464	 0.186572051031352 
2465	 0.186083723795329 
2466	 0.18558696674941 
2467	 0.185034057693417 
2468	 0.184567001534041 
2469	 0.184132136911767 
2470	 0.183781833214693 
2471	 0.183479205818805 
2472	 0.182966155685229 
2473	 0.182401127445787 
2474	 0.181822865781328 
2475	 0.181186463737799 
2476	 0.180593021048569 
2477	 0.180156909572099 
2478	 0.179611348404009 
2479	 0.179014051208633 
2480	 0.178760285169541 
2481	 0.178344680529618 
2482	 0.177817639601873 
2483	 0.177554209689453 
2484	 0.177076277849995 
2485	 0.176615611377643 
2486	 0.176372778265539 
2487	 0.175943912884439 
2488	 0.17546379767991 
2489	 0.174993011942273 
2490	 0.174470359252425 
2491	 0.174094056439778 
2492	 0.173890598250974 
2493	 0.173638736946048 
2494	 0.173432547590511 
2495	 0.173086677379186 
2496	 0.172502497379862 
2497	 0.172081396535152 
2498	 0.171690964975446 
2499	 0.171468145803431 
2500	 0.171358836034432 
