Wavelength	MM300009.asd
350	 0.063400759950499 
351	 6.40659096687064E-02 
352	 5.90479633510373E-02 
353	 5.00797435128489E-02 
354	 5.48119591187239E-02 
355	 5.70039011291572E-02 
356	 0.059123645403938 
357	 6.46691359745566E-02 
358	 6.17320651109128E-02 
359	 5.64213192888549E-02 
360	 0.054003418292833 
361	 5.76703840657162E-02 
362	 6.00073119447988E-02 
363	 5.99470853757973E-02 
364	 5.84179896011183E-02 
365	 5.77962928741374E-02 
366	 5.73922599923079E-02 
367	 5.62782753617378E-02 
368	 5.46868663461888E-02 
369	 5.78832399363099E-02 
370	 5.90799644191436E-02 
371	 5.85932618426521E-02 
372	 6.11183097876035E-02 
373	 5.96362932375039E-02 
374	 5.87235951020967E-02 
375	 6.11518672395506E-02 
376	 6.44276865404194E-02 
377	 6.32104438587437E-02 
378	 6.08779958007354E-02 
379	 6.19932014120131E-02 
380	 6.38903962156156E-02 
381	 0.062758543568865 
382	 6.12391534930868E-02 
383	 6.57050969099532E-02 
384	 6.45190764596483E-02 
385	 6.24157300434352E-02 
386	 6.33233041358573E-02 
387	 6.51220771449837E-02 
388	 6.72877511199774E-02 
389	 6.85587889803664E-02 
390	 6.78086149029019E-02 
391	 6.46831988491527E-02 
392	 6.40508292503938E-02 
393	 6.59369595082006E-02 
394	 6.63223724612852E-02 
395	 6.69205683634423E-02 
396	 6.79434926941606E-02 
397	 0.068961418206684 
398	 6.84591547637283E-02 
399	 6.92094212987636E-02 
400	 7.03860888685818E-02 
401	 7.02086713600737E-02 
402	 6.95421365558561E-02 
403	 6.98660501712442E-02 
404	 7.08976472805991E-02 
405	 7.06790653765865E-02 
406	 7.14224063240409E-02 
407	 7.27139538625908E-02 
408	 7.34930427474593E-02 
409	 7.23114616151009E-02 
410	 7.07942701031668E-02 
411	 7.07582540641734E-02 
412	 7.32752934992244E-02 
413	 7.42784638345644E-02 
414	 7.39844450891956E-02 
415	 7.34751750478153E-02 
416	 7.43430360940819E-02 
417	 0.073921810571731 
418	 0.07393192541548 
419	 7.56462487310669E-02 
420	 7.52528223910122E-02 
421	 7.41745689211411E-02 
422	 7.38142795977994E-02 
423	 7.51481933642891E-02 
424	 7.54875211069097E-02 
425	 7.50002890182877E-02 
426	 7.43664248736316E-02 
427	 7.44051484793471E-02 
428	 7.48077092864404E-02 
429	 7.49184860508484E-02 
430	 7.43154963508859E-02 
431	 0.074340672653097 
432	 7.42466353299923E-02 
433	 7.39365334568512E-02 
434	 0.074006405942319 
435	 7.41962464286108E-02 
436	 7.42153843562643E-02 
437	 7.39775264331372E-02 
438	 7.38772396005005E-02 
439	 7.41954769866315E-02 
440	 7.46572595687662E-02 
441	 7.47633519270094E-02 
442	 0.074732918489867 
443	 7.48611698502522E-02 
444	 0.075191929151219 
445	 7.53990557442563E-02 
446	 7.55152687373932E-02 
447	 7.57446228288931E-02 
448	 0.076153072982743 
449	 7.59321221040644E-02 
450	 7.61323767150501E-02 
451	 7.67235789919746E-02 
452	 7.67719309728454E-02 
453	 7.69673988430672E-02 
454	 7.72331523844796E-02 
455	 7.74032964072645E-02 
456	 7.74014640805955E-02 
457	 7.74438145964747E-02 
458	 7.75886223113229E-02 
459	 7.77910571863793E-02 
460	 7.78803101292142E-02 
461	 0.077895997179135 
462	 7.78985273258176E-02 
463	 7.79350277347263E-02 
464	 7.83710510121421E-02 
465	 0.078786742936558 
466	 7.87587527286438E-02 
467	 7.87878826701248E-02 
468	 7.87466228888084E-02 
469	 7.86568345066678E-02 
470	 7.86681316104688E-02 
471	 7.88409348402188E-02 
472	 7.90028841080202E-02 
473	 7.90505420799793E-02 
474	 7.91344068752653E-02 
475	 7.92141317705238E-02 
476	 7.92093402993092E-02 
477	 7.90807187725907E-02 
478	 7.92331414569484E-02 
479	 7.93113384006659E-02 
480	 7.92251377925381E-02 
481	 7.93388524162269E-02 
482	 7.94102720534322E-02 
483	 7.95736748506699E-02 
484	 7.99069278643734E-02 
485	 7.98885944608721E-02 
486	 7.96222359540802E-02 
487	 7.94308620514435E-02 
488	 7.97426869212604E-02 
489	 7.98360789986933E-02 
490	 7.98072821326735E-02 
491	 7.98183180431237E-02 
492	 7.98134488775282E-02 
493	 7.98041040247236E-02 
494	 7.98278700377413E-02 
495	 7.99295499220434E-02 
496	 8.01419314987028E-02 
497	 8.01227848272445E-02 
498	 7.99176482723336E-02 
499	 8.01987425007061E-02 
500	 0.080237391442333 
501	 8.01342611434163E-02 
502	 8.01702391316078E-02 
503	 8.02759864147251E-02 
504	 8.03712541144925E-02 
505	 8.04192500760414E-02 
506	 8.04277614720216E-02 
507	 8.04317851267631E-02 
508	 8.05673655407006E-02 
509	 8.08213732464091E-02 
510	 8.07398448024055E-02 
511	 8.06270963485645E-02 
512	 8.06261069463201E-02 
513	 8.07645936016401E-02 
514	 8.08589618477796E-02 
515	 8.09060316000124E-02 
516	 8.09565771902877E-02 
517	 8.11254946930898E-02 
518	 8.11605083737018E-02 
519	 8.11036276895751E-02 
520	 8.11022267722151E-02 
521	 0.081305327900471 
522	 8.13206384063889E-02 
523	 8.11896287619083E-02 
524	 8.14204440115653E-02 
525	 8.14428936744915E-02 
526	 8.14110952490523E-02 
527	 8.15112085746407E-02 
528	 8.14885549054066E-02 
529	 8.15506004686629E-02 
530	 8.16845273750274E-02 
531	 8.17368711343691E-02 
532	 8.17096576628313E-02 
533	 8.18351377318673E-02 
534	 8.21132083298446E-02 
535	 8.19611482470426E-02 
536	 8.20012178095641E-02 
537	 8.22049436550884E-02 
538	 8.23083437566005E-02 
539	 8.23333016687082E-02 
540	 8.23519144167754E-02 
541	 8.24141532928831E-02 
542	 8.25340807672655E-02 
543	 8.26495345884923E-02 
544	 8.27370981738946E-02 
545	 8.28018603837571E-02 
546	 8.29038571021383E-02 
547	 8.30404705069749E-02 
548	 8.31753590768417E-02 
549	 0.083250875608163 
550	 8.33218836294063E-02 
551	 8.34552902166528E-02 
552	 8.36592646857937E-02 
553	 8.37946352869388E-02 
554	 8.38866957982009E-02 
555	 8.40252011724549E-02 
556	 0.084303541745407 
557	 8.44881352828149E-02 
558	 8.46855581164737E-02 
559	 0.084946654239527 
560	 8.51567883317955E-02 
561	 8.53461699746048E-02 
562	 8.55749681748809E-02 
563	 8.58819775600585E-02 
564	 8.61186038455228E-02 
565	 8.63656328578107E-02 
566	 8.66641679210964E-02 
567	 8.69956281064032E-02 
568	 8.73739222981416E-02 
569	 8.77630704808786E-02 
570	 8.81313689778015E-02 
571	 8.84974995742614E-02 
572	 8.88976754131699E-02 
573	 8.93338223431186E-02 
574	 0.089778703414304 
575	 0.090176389035035 
576	 9.05666582629142E-02 
577	 9.09890341000923E-02 
578	 9.14424543399112E-02 
579	 9.19690435049546E-02 
580	 9.25375215891954E-02 
581	 9.30979201364669E-02 
582	 9.37243010953442E-02 
583	 9.43791740793644E-02 
584	 9.50232645797806E-02 
585	 9.56292746330689E-02 
586	 9.62560918434997E-02 
587	 9.68590114030798E-02 
588	 9.74051340331114E-02 
589	 9.80506124316438E-02 
590	 9.87059781794325E-02 
591	 9.93388909639586E-02 
592	 9.99777926314531E-02 
593	 0.100591959468597 
594	 0.101225473941984 
595	 0.101904796102206 
596	 0.102579411167141 
597	 0.103240234629516 
598	 0.103902555921593 
599	 0.104594068093789 
600	 0.10529528491647 
601	 0.105952070803035 
602	 0.106546457094428 
603	 0.107129228922476 
604	 0.107736137955193 
605	 0.108315974207592 
606	 0.108813911925246 
607	 0.109342239316526 
608	 0.10990379312004 
609	 0.110462441921274 
610	 0.110948897085229 
611	 0.111415810843313 
612	 0.111898221670242 
613	 0.11239457507499 
614	 0.112801532120392 
615	 0.113207114199871 
616	 0.113600073970039 
617	 0.113910288669888 
618	 0.114274966861163 
619	 0.114615559016161 
620	 0.114890983988666 
621	 0.115208063950024 
622	 0.11552491009233 
623	 0.115835935276932 
624	 0.116137392656514 
625	 0.116353155582806 
626	 0.116592440951682 
627	 0.11687602610163 
628	 0.117089631891716 
629	 0.117327437024796 
630	 0.117582573069114 
631	 0.117820393585385 
632	 0.118000634045648 
633	 0.118227006010693 
634	 0.11849402771304 
635	 0.118707438526138 
636	 0.118898255105824 
637	 0.119081922922224 
638	 0.119271715411893 
639	 0.119480410106051 
640	 0.119703230729853 
641	 0.119923650030764 
642	 0.120124640109471 
643	 0.120335541784332 
644	 0.120545388216289 
645	 0.120748743269708 
646	 0.120952646018289 
647	 0.121185057289591 
648	 0.121390432307202 
649	 0.12153682473518 
650	 0.121798069044498 
651	 0.122057236625011 
652	 0.122266387829785 
653	 0.122451586280612 
654	 0.122717538544622 
655	 0.122959552252713 
656	 0.123126325954652 
657	 0.123402912694487 
658	 0.123653900314493 
659	 0.123887369446591 
660	 0.124167348346969 
661	 0.124438410051042 
662	 0.124735231387167 
663	 0.12504248588119 
664	 0.125259432033178 
665	 0.125514012614378 
666	 0.125807274942855 
667	 0.126109515932792 
668	 0.126430207626831 
669	 0.126743282399935 
670	 0.127043962306694 
671	 0.12734656748997 
672	 0.127671180478059 
673	 0.128025243559497 
674	 0.128395815028148 
675	 0.12872868862517 
676	 0.129060829228576 
677	 0.129397467073858 
678	 0.129734561803208 
679	 0.130098612729824 
680	 0.130475931692016 
681	 0.130859383284269 
682	 0.131255625821581 
683	 0.13163635050932 
684	 0.132012053020989 
685	 0.132407917525975 
686	 0.132863208298332 
687	 0.133313379003135 
688	 0.133743982486135 
689	 0.134173712346479 
690	 0.13453179005307 
691	 0.134933812481209 
692	 0.135427711695965 
693	 0.135878604815051 
694	 0.136312219017219 
695	 0.136747298347648 
696	 0.137201612635405 
697	 0.137677199782119 
698	 0.138145260880074 
699	 0.138600717311653 
700	 0.139063809741826 
701	 0.139515378315278 
702	 0.139969390566504 
703	 0.14043933717742 
704	 0.140920495322794 
705	 0.141406971613987 
706	 0.141898757337983 
707	 0.142396380760158 
708	 0.142884862815553 
709	 0.143352558549769 
710	 0.143807173956433 
711	 0.144284846465908 
712	 0.144743100794368 
713	 0.145203523685403 
714	 0.145692070688291 
715	 0.146186194079219 
716	 0.146619902426689 
717	 0.147019594732212 
718	 0.147469887740622 
719	 0.147890837872332 
720	 0.148304398247881 
721	 0.148725796395615 
722	 0.149129610657315 
723	 0.149543552114675 
724	 0.1499369405405 
725	 0.150277002272586 
726	 0.150626191450509 
727	 0.15094090369859 
728	 0.151234326836924 
729	 0.151570735395603 
730	 0.151891560187237 
731	 0.152162175656995 
732	 0.152391237250487 
733	 0.152682619402998 
734	 0.152925578136044 
735	 0.15312495518507 
736	 0.153320715845301 
737	 0.153444896229683 
738	 0.153589296688731 
739	 0.153762504530851 
740	 0.153873069313609 
741	 0.153990735428937 
742	 0.154070844322689 
743	 0.154087639838223 
744	 0.154131896052816 
745	 0.154133988981234 
746	 0.154134429125705 
747	 0.154195520792758 
748	 0.154147454521075 
749	 0.154073357693898 
750	 0.154018494344717 
751	 0.153953887613187 
752	 0.1538414492044 
753	 0.15372247114442 
754	 0.15362459679748 
755	 0.153477876823591 
756	 0.153312007323234 
757	 0.153130106176024 
758	 0.152928099496562 
759	 0.152751238389351 
760	 0.152540116154328 
761	 0.15229843246494 
762	 0.152117705489423 
763	 0.151870784947605 
764	 0.151586549833653 
765	 0.151321190698786 
766	 0.151099829488921 
767	 0.150859396384436 
768	 0.150560062973395 
769	 0.150201365360719 
770	 0.149945557169703 
771	 0.14969024061646 
772	 0.149385091736347 
773	 0.149072575768234 
774	 0.148781509900592 
775	 0.148489453522366 
776	 0.148176176485444 
777	 0.147863990693498 
778	 0.147535026478576 
779	 0.147218864640595 
780	 0.146946544769319 
781	 0.146618014760049 
782	 0.146297170334255 
783	 0.146000638482132 
784	 0.145684230772115 
785	 0.145371930374018 
786	 0.145036439857221 
787	 0.144678303634617 
788	 0.14438761624413 
789	 0.14409304161634 
790	 0.143769626465262 
791	 0.143425350880555 
792	 0.14313861817909 
793	 0.142863512057669 
794	 0.142572963683824 
795	 0.1422658536366 
796	 0.141966157068684 
797	 0.141675765104311 
798	 0.141392281436595 
799	 0.141111270740697 
800	 0.140861998471814 
801	 0.14059503289921 
802	 0.140274889935733 
803	 0.140011941895932 
804	 0.139767430582881 
805	 0.13952429584685 
806	 0.139278620016785 
807	 0.139002961098719 
808	 0.138728612358401 
809	 0.138479592068554 
810	 0.138259510705096 
811	 0.138049839468676 
812	 0.137809622877679 
813	 0.137533206265923 
814	 0.137318008053683 
815	 0.137116324638664 
816	 0.136913810271782 
817	 0.136710737436802 
818	 0.136516650164908 
819	 0.136310041990201 
820	 0.136090734272989 
821	 0.13588064157139 
822	 0.135718472960292 
823	 0.135544828623452 
824	 0.135339573229366 
825	 0.135170163996725 
826	 0.135044489037619 
827	 0.134916776403399 
828	 0.134747709415883 
829	 0.134568104666827 
830	 0.134398822717875 
831	 0.134275218837421 
832	 0.134210423798398 
833	 0.134066783207788 
834	 0.133893308904678 
835	 0.133734220454941 
836	 0.133612278547451 
837	 0.133517470488334 
838	 0.13342533365213 
839	 0.133325003544704 
840	 0.133232735084002 
841	 0.133158953460252 
842	 0.133065241796898 
843	 0.132939465395593 
844	 0.132899491972566 
845	 0.132817689248332 
846	 0.132726158465922 
847	 0.132704299136197 
848	 0.132638352967476 
849	 0.132559313842237 
850	 0.132503313399765 
851	 0.132494819421219 
852	 0.132478781809143 
853	 0.132433744000793 
854	 0.132370398745486 
855	 0.132335620932729 
856	 0.132301960005928 
857	 0.13227829389024 
858	 0.132269756336997 
859	 0.132250354304384 
860	 0.132248239241509 
861	 0.132264190438715 
862	 0.132293196804422 
863	 0.132360204858836 
864	 0.132373358004066 
865	 0.132331605091261 
866	 0.132299335589837 
867	 0.132337547945294 
868	 0.132369420233391 
869	 0.132383867609429 
870	 0.132445981063817 
871	 0.132529912095983 
872	 0.132568674211445 
873	 0.132569772084773 
874	 0.132665122310319 
875	 0.132752969235964 
876	 0.132817604135216 
877	 0.13287070500371 
878	 0.132934054067866 
879	 0.133027748396252 
880	 0.1331267759846 
881	 0.133207724594943 
882	 0.13333185542959 
883	 0.133427002769442 
884	 0.133510681141357 
885	 0.133640813877433 
886	 0.133782740846897 
887	 0.133897564016104 
888	 0.133987049587138 
889	 0.134090486177381 
890	 0.134250759114694 
891	 0.13436340882678 
892	 0.134441497034524 
893	 0.134652961643142 
894	 0.134838703780309 
895	 0.13496500258005 
896	 0.13507796256463 
897	 0.135315291430508 
898	 0.135523868771734 
899	 0.13568342300781 
900	 0.135831575716585 
901	 0.136059307583384 
902	 0.13625900924425 
903	 0.136423461412465 
904	 0.136582848785091 
905	 0.136755584854377 
906	 0.136966005182987 
907	 0.137202700616749 
908	 0.137449476062239 
909	 0.137774253481954 
910	 0.13804948108007 
911	 0.138258816666477 
912	 0.13846813417599 
913	 0.138691092617777 
914	 0.138928244495622 
915	 0.139165102490644 
916	 0.139386289976617 
917	 0.139667008676817 
918	 0.139974092481806 
919	 0.140273834805954 
920	 0.140553839521285 
921	 0.140869560611647 
922	 0.141178800676565 
923	 0.141487705555678 
924	 0.141888116219521 
925	 0.142155094131012 
926	 0.142446439810896 
927	 0.142840563241476 
928	 0.143121019460651 
929	 0.143416920916125 
930	 0.14379268870455 
931	 0.14422232489113 
932	 0.144516378025755 
933	 0.144895640093817 
934	 0.145289456666958 
935	 0.145616827245899 
936	 0.146029149612734 
937	 0.146367785782324 
938	 0.146745359421151 
939	 0.147260041483961 
940	 0.147643061300629 
941	 0.148063324803933 
942	 0.148498439249077 
943	 0.148893704471494 
944	 0.149388223731314 
945	 0.149804048398187 
946	 0.150176218388427 
947	 0.150613083528798 
948	 0.151054882653067 
949	 0.151545694140388 
950	 0.152022879948734 
951	 0.152425081991949 
952	 0.152976856252921 
953	 0.153434070039993 
954	 0.153846483058601 
955	 0.154397141170482 
956	 0.154962905708495 
957	 0.155432890347287 
958	 0.155883231628883 
959	 0.156449670092887 
960	 0.156897512198728 
961	 0.157474264694078 
962	 0.158117510831231 
963	 0.158605758642548 
964	 0.159161019108466 
965	 0.159730505411645 
966	 0.160321222997982 
967	 0.160966136251649 
968	 0.161538187308357 
969	 0.162089553705579 
970	 0.162679133814707 
971	 0.163320809229679 
972	 0.163820865975978 
973	 0.164355719553751 
974	 0.164964475233267 
975	 0.165589982204399 
976	 0.166335805647355 
977	 0.167000659811301 
978	 0.167558169727767 
979	 0.168120029305386 
980	 0.168749495445123 
981	 0.169483682268385 
982	 0.170214572299817 
983	 0.170810679036753 
984	 0.171500823647521 
985	 0.17204440401836 
986	 0.172584180355819 
987	 0.173378560798384 
988	 0.174060745727886 
989	 0.174751340989535 
990	 0.175441144172382 
991	 0.176083081661017 
992	 0.176828024309503 
993	 0.177417527513413 
994	 0.177993237531514 
995	 0.178762247219475 
996	 0.179390240886442 
997	 0.180050061195848 
998	 0.180724714934158 
999	 0.181386629769703 
1000	 0.18227501831829 
1001	 0.184496175133224 
1002	 0.185151106894493 
1003	 0.185796641638317 
1004	 0.186439963486317 
1005	 0.187077653306926 
1006	 0.187715496857805 
1007	 0.188349503307034 
1008	 0.188999201153916 
1009	 0.18961844718412 
1010	 0.190311575270058 
1011	 0.191031081114468 
1012	 0.191656165369427 
1013	 0.192290769053065 
1014	 0.192934577486 
1015	 0.19348455878398 
1016	 0.19407332411352 
1017	 0.194678260954193 
1018	 0.195288395809153 
1019	 0.195899604716141 
1020	 0.196545293229685 
1021	 0.19712266491975 
1022	 0.19772263620396 
1023	 0.198276803374687 
1024	 0.198825210683011 
1025	 0.199449408034766 
1026	 0.200009345499025 
1027	 0.200587657394264 
1028	 0.201193916623047 
1029	 0.201758178569256 
1030	 0.202307463038421 
1031	 0.202831105442972 
1032	 0.203323012056126 
1033	 0.203802915376955 
1034	 0.204320808268293 
1035	 0.204871152790601 
1036	 0.205470438565725 
1037	 0.206019951600137 
1038	 0.206506323797323 
1039	 0.207030762438715 
1040	 0.207535033361135 
1041	 0.208035794209721 
1042	 0.208572492127365 
1043	 0.209067444599523 
1044	 0.209573583557629 
1045	 0.210067966361764 
1046	 0.210599196719723 
1047	 0.211135961124908 
1048	 0.211675565857683 
1049	 0.212203332571362 
1050	 0.212750837073033 
1051	 0.213265136759557 
1052	 0.213747246468687 
1053	 0.214303804837677 
1054	 0.214807726680261 
1055	 0.21525797525966 
1056	 0.215771897926599 
1057	 0.216273704724637 
1058	 0.216730173321005 
1059	 0.217224421950495 
1060	 0.217753732103995 
1061	 0.218295025819565 
1062	 0.218779427990996 
1063	 0.219267035771118 
1064	 0.219823028219462 
1065	 0.220281706804511 
1066	 0.220745811745654 
1067	 0.221310083346603 
1068	 0.221794529043178 
1069	 0.22227610701226 
1070	 0.222795411332912 
1071	 0.223357006015719 
1072	 0.223846309350923 
1073	 0.224331793347529 
1074	 0.2248203738029 
1075	 0.225268749457792 
1076	 0.225699321636304 
1077	 0.226223466590623 
1078	 0.226718649259411 
1079	 0.227174805548137 
1080	 0.227687298611934 
1081	 0.22817934439651 
1082	 0.228620881426104 
1083	 0.22910612443096 
1084	 0.229631065145315 
1085	 0.230123125923848 
1086	 0.230591954485313 
1087	 0.231090016105648 
1088	 0.231597121052627 
1089	 0.232105774330984 
1090	 0.23257107825136 
1091	 0.233077168751075 
1092	 0.233577964843132 
1093	 0.234011509341365 
1094	 0.234529320492015 
1095	 0.235038875115864 
1096	 0.235508562983752 
1097	 0.236024096038615 
1098	 0.236504996652977 
1099	 0.236929310327628 
1100	 0.237426843342842 
1101	 0.237954462698597 
1102	 0.238470452694672 
1103	 0.239006847669783 
1104	 0.239559895138823 
1105	 0.240101978865516 
1106	 0.240663493945718 
1107	 0.241225592097129 
1108	 0.241778085928051 
1109	 0.242324016132861 
1110	 0.24286399046795 
1111	 0.243423017516984 
1112	 0.243997371772697 
1113	 0.244577919203714 
1114	 0.245173074625152 
1115	 0.245758831016891 
1116	 0.246349593469724 
1117	 0.246935783464271 
1118	 0.247508289691469 
1119	 0.248095508476567 
1120	 0.248720893698515 
1121	 0.249331916634555 
1122	 0.249911650849389 
1123	 0.250504471697004 
1124	 0.25110148812936 
1125	 0.251662820609569 
1126	 0.252270540157163 
1127	 0.252940740059505 
1128	 0.253543165293775 
1129	 0.254118190527497 
1130	 0.254706999141279 
1131	 0.255270794470206 
1132	 0.255852471917062 
1133	 0.256459085925116 
1134	 0.257045312944923 
1135	 0.257635472387221 
1136	 0.258191427177234 
1137	 0.258748681863798 
1138	 0.259317405781782 
1139	 0.259887664066045 
1140	 0.260475225863689 
1141	 0.261035873007954 
1142	 0.261574963639666 
1143	 0.262135627828586 
1144	 0.262701635553738 
1145	 0.26324207810414 
1146	 0.263789444638395 
1147	 0.264330557458204 
1148	 0.264825728500428 
1149	 0.265358000760853 
1150	 0.265925014455808 
1151	 0.266476411129747 
1152	 0.267014855274446 
1153	 0.267547516576911 
1154	 0.268087227260746 
1155	 0.268614598254864 
1156	 0.269152020094893 
1157	 0.269711556080476 
1158	 0.270246563906129 
1159	 0.270758310532189 
1160	 0.271290979764648 
1161	 0.271840826137181 
1162	 0.272364188179516 
1163	 0.272892044370552 
1164	 0.273405054479332 
1165	 0.273885881412551 
1166	 0.274373993386322 
1167	 0.274890609937885 
1168	 0.275386957408189 
1169	 0.275879508640237 
1170	 0.276370532274942 
1171	 0.276865537030369 
1172	 0.277355796112673 
1173	 0.277837644589556 
1174	 0.278322637121232 
1175	 0.27880724233138 
1176	 0.279286170630184 
1177	 0.279756213024919 
1178	 0.280225633611025 
1179	 0.280694217454174 
1180	 0.281156402327795 
1181	 0.281610370914649 
1182	 0.282056899488675 
1183	 0.282521267211281 
1184	 0.282965158962082 
1185	 0.283391501924074 
1186	 0.283823850966249 
1187	 0.284264391804392 
1188	 0.284682891488719 
1189	 0.285095950037782 
1190	 0.285488830806506 
1191	 0.28585689766399 
1192	 0.286233747893445 
1193	 0.286591409341654 
1194	 0.286966371987793 
1195	 0.28735122140538 
1196	 0.287736070510005 
1197	 0.288145062383435 
1198	 0.288526329453793 
1199	 0.288896051345446 
1200	 0.289259426739904 
1201	 0.289612420786173 
1202	 0.289939076717146 
1203	 0.290284434567651 
1204	 0.29064616647113 
1205	 0.290975937096907 
1206	 0.291289977768402 
1207	 0.291609288093793 
1208	 0.29191103173856 
1209	 0.292218881521914 
1210	 0.292540810704001 
1211	 0.292848510923168 
1212	 0.293147802526659 
1213	 0.293440459481599 
1214	 0.293724525935725 
1215	 0.294007975055684 
1216	 0.294287424953198 
1217	 0.294560651195607 
1218	 0.294831367358314 
1219	 0.295109693601728 
1220	 0.295360549471937 
1221	 0.295579367563407 
1222	 0.295834386601187 
1223	 0.296092507069084 
1224	 0.296348785265917 
1225	 0.296637671571905 
1226	 0.296896584341401 
1227	 0.29714134304554 
1228	 0.297371440822874 
1229	 0.297577613529655 
1230	 0.297795923293682 
1231	 0.298008021142416 
1232	 0.298215163435221 
1233	 0.298422375699965 
1234	 0.298636541644078 
1235	 0.298849047933715 
1236	 0.299059790117659 
1237	 0.299258380021628 
1238	 0.299468187845966 
1239	 0.29965075849926 
1240	 0.299800748823725 
1241	 0.299966076677281 
1242	 0.300119602397223 
1243	 0.300289190322171 
1244	 0.300471580503538 
1245	 0.300648056468209 
1246	 0.300839113828141 
1247	 0.301014180626772 
1248	 0.30118619243811 
1249	 0.301340061566987 
1250	 0.301487576991105 
1251	 0.301640691262281 
1252	 0.301783566163236 
1253	 0.301919930457572 
1254	 0.302054715771114 
1255	 0.302182224397725 
1256	 0.302312498813501 
1257	 0.302446522034093 
1258	 0.302570649835936 
1259	 0.302687605012924 
1260	 0.30280843099341 
1261	 0.302930537824421 
1262	 0.303040535160637 
1263	 0.303152262911778 
1264	 0.303252519221473 
1265	 0.303326494995291 
1266	 0.303415211540488 
1267	 0.303504064704806 
1268	 0.303597430580615 
1269	 0.303699136116821 
1270	 0.303807762897966 
1271	 0.303921890004432 
1272	 0.304049866948562 
1273	 0.304162077305634 
1274	 0.304272266276395 
1275	 0.304385786062068 
1276	 0.304487086974248 
1277	 0.304604149756757 
1278	 0.304733743769853 
1279	 0.304859664384103 
1280	 0.305008087071956 
1281	 0.305122539918058 
1282	 0.305218014369778 
1283	 0.305314922038278 
1284	 0.305398102233879 
1285	 0.305459573334476 
1286	 0.305548550728613 
1287	 0.305655487454576 
1288	 0.305755246939783 
1289	 0.305869651638489 
1290	 0.305954746291851 
1291	 0.306026309231607 
1292	 0.306103424066655 
1293	 0.306170157039479 
1294	 0.306231357686859 
1295	 0.306305129909572 
1296	 0.306351217316461 
1297	 0.306371362768684 
1298	 0.30639565629744 
1299	 0.306411049704277 
1300	 0.306419951155957 
1301	 0.306414021287104 
1302	 0.306416466604689 
1303	 0.306416396173887 
1304	 0.306415506164791 
1305	 0.306433823225135 
1306	 0.306466489434272 
1307	 0.306476273569788 
1308	 0.30648851805422 
1309	 0.306487219631218 
1310	 0.306473120356039 
1311	 0.306448605404941 
1312	 0.306394594474865 
1313	 0.306384611566302 
1314	 0.306382069721933 
1315	 0.306380519320049 
1316	 0.306430379967353 
1317	 0.306435757328493 
1318	 0.306398629285548 
1319	 0.306382199456048 
1320	 0.306361887824109 
1321	 0.306344046774926 
1322	 0.30632558054602 
1323	 0.306322848233914 
1324	 0.306330924965313 
1325	 0.306330294551155 
1326	 0.306321420983299 
1327	 0.306337541901621 
1328	 0.306327852880207 
1329	 0.306305365148354 
1330	 0.306304962869032 
1331	 0.306307785398801 
1332	 0.306322801226373 
1333	 0.306362610801433 
1334	 0.306377728945442 
1335	 0.306388839884145 
1336	 0.306403836570631 
1337	 0.306401732280283 
1338	 0.306415934764715 
1339	 0.306444241433277 
1340	 0.306469368326353 
1341	 0.30649462761448 
1342	 0.306528327789739 
1343	 0.306580648640206 
1344	 0.306607802044873 
1345	 0.306622044171678 
1346	 0.306661221173928 
1347	 0.306700499143455 
1348	 0.306732666183255 
1349	 0.306776165032991 
1350	 0.306819449305943 
1351	 0.3068727766558 
1352	 0.306936978013484 
1353	 0.306972367860876 
1354	 0.307014800407389 
1355	 0.30703484608854 
1356	 0.307011182612015 
1357	 0.307018624771858 
1358	 0.307029334023077 
1359	 0.307048054541158 
1360	 0.307094697728708 
1361	 0.307107375904754 
1362	 0.3071183860965 
1363	 0.307111710672977 
1364	 0.307086135824233 
1365	 0.307038912546354 
1366	 0.306970670118089 
1367	 0.306906220229435 
1368	 0.306813945495887 
1369	 0.306699753315683 
1370	 0.306589011756192 
1371	 0.306470208522768 
1372	 0.306334523555414 
1373	 0.306174516333415 
1374	 0.305986298399846 
1375	 0.30577308406538 
1376	 0.305532291822999 
1377	 0.305278239965083 
1378	 0.304967136260695 
1379	 0.304624577116188 
1380	 0.304238025565853 
1381	 0.303812189246855 
1382	 0.303327733875355 
1383	 0.30279947837559 
1384	 0.302226485039274 
1385	 0.301613159881876 
1386	 0.300934535623614 
1387	 0.300212044066487 
1388	 0.299437944603075 
1389	 0.298612205223117 
1390	 0.297710153184965 
1391	 0.296769598292014 
1392	 0.295767949427705 
1393	 0.294697782420619 
1394	 0.29359718310855 
1395	 0.292445723216343 
1396	 0.291272551828108 
1397	 0.290084920300587 
1398	 0.288853068755606 
1399	 0.287640619460195 
1400	 0.286404146432057 
1401	 0.285219846037158 
1402	 0.284050981106839 
1403	 0.282904540291856 
1404	 0.281778629513474 
1405	 0.280692452782393 
1406	 0.279615177898219 
1407	 0.278587407282389 
1408	 0.277589856159348 
1409	 0.276658206061943 
1410	 0.275743937633852 
1411	 0.274930279454586 
1412	 0.274185923034925 
1413	 0.273529530579656 
1414	 0.272953020053852 
1415	 0.272442017706362 
1416	 0.272003059601731 
1417	 0.271607683193822 
1418	 0.271268221245376 
1419	 0.270968534854984 
1420	 0.270691101329796 
1421	 0.270454926455314 
1422	 0.270208536849484 
1423	 0.269966587765187 
1424	 0.269737297981268 
1425	 0.269506000791135 
1426	 0.269302919552095 
1427	 0.269122438047548 
1428	 0.268946193532947 
1429	 0.268781589127655 
1430	 0.268634763360657 
1431	 0.268492607639688 
1432	 0.268379645105068 
1433	 0.26829903904352 
1434	 0.268215415574726 
1435	 0.268153044301348 
1436	 0.268085479196923 
1437	 0.268004059583564 
1438	 0.267954723478808 
1439	 0.267924170427126 
1440	 0.267896658737177 
1441	 0.267885097672316 
1442	 0.267888267624639 
1443	 0.267897207528073 
1444	 0.2679056180254 
1445	 0.267936441511267 
1446	 0.267981580323425 
1447	 0.268008104804862 
1448	 0.268031347553582 
1449	 0.268043036430479 
1450	 0.268057695546937 
1451	 0.268097905937652 
1452	 0.268154190541499 
1453	 0.26821500780506 
1454	 0.268299350554168 
1455	 0.268368548504864 
1456	 0.268430062410604 
1457	 0.268506684494163 
1458	 0.268579321741951 
1459	 0.268677014865132 
1460	 0.268788997397275 
1461	 0.26891795402123 
1462	 0.269060583260309 
1463	 0.269221400324123 
1464	 0.269399657973903 
1465	 0.269593235758584 
1466	 0.269806997505511 
1467	 0.270036659511763 
1468	 0.270280412824413 
1469	 0.270540304874859 
1470	 0.270824765241782 
1471	 0.2711095418929 
1472	 0.271400425626692 
1473	 0.27170592045725 
1474	 0.272019095224395 
1475	 0.272337317165916 
1476	 0.272678047260092 
1477	 0.273037402979949 
1478	 0.273395279937619 
1479	 0.273756702237587 
1480	 0.274116672793354 
1481	 0.274470263906937 
1482	 0.274833682824134 
1483	 0.275203996229442 
1484	 0.275577587219105 
1485	 0.275953846662794 
1486	 0.276331621556221 
1487	 0.276715052785022 
1488	 0.27709423415904 
1489	 0.277479509413356 
1490	 0.277854383631607 
1491	 0.278227636216567 
1492	 0.278589934669983 
1493	 0.278936912880825 
1494	 0.279294376054026 
1495	 0.279651945149058 
1496	 0.279999627878074 
1497	 0.280343177933538 
1498	 0.280693790625182 
1499	 0.281048428017605 
1500	 0.281394665847372 
1501	 0.281751440836739 
1502	 0.28208721271613 
1503	 0.282408336439907 
1504	 0.282707493311048 
1505	 0.283023889690448 
1506	 0.283332292497518 
1507	 0.283621959434952 
1508	 0.283929749092618 
1509	 0.284222349808783 
1510	 0.284501222425638 
1511	 0.284796370368211 
1512	 0.285086073448281 
1513	 0.285368711996626 
1514	 0.285660036410682 
1515	 0.28594469310879 
1516	 0.28622695915344 
1517	 0.286508121011163 
1518	 0.286792377981959 
1519	 0.287055929736325 
1520	 0.287311336610261 
1521	 0.287557450493554 
1522	 0.287783661848509 
1523	 0.288019671431827 
1524	 0.288248779200839 
1525	 0.288494013135159 
1526	 0.288743087588648 
1527	 0.288997779810319 
1528	 0.289282760376501 
1529	 0.289526186043048 
1530	 0.289757402433587 
1531	 0.28997626911209 
1532	 0.290159947820099 
1533	 0.290359585462246 
1534	 0.290563777241456 
1535	 0.290757315578122 
1536	 0.290944539042115 
1537	 0.291133896269426 
1538	 0.291317055415605 
1539	 0.291501042757372 
1540	 0.291684363257063 
1541	 0.291874146018726 
1542	 0.292066706542401 
1543	 0.2922566630638 
1544	 0.292461181917145 
1545	 0.292644049276627 
1546	 0.292812436716551 
1547	 0.292976749666672 
1548	 0.293129268073174 
1549	 0.293287849144143 
1550	 0.293452389795389 
1551	 0.293612289364354 
1552	 0.293781356335915 
1553	 0.293949525561351 
1554	 0.294096609057272 
1555	 0.294245278642913 
1556	 0.294386897446183 
1557	 0.294511054009921 
1558	 0.294643784528278 
1559	 0.294783032158431 
1560	 0.294920838144655 
1561	 0.295054695138799 
1562	 0.295199181670177 
1563	 0.295354257936417 
1564	 0.29549808013094 
1565	 0.295640171356294 
1566	 0.295787498387243 
1567	 0.295934840313277 
1568	 0.296070010870355 
1569	 0.296209602051183 
1570	 0.296337167362549 
1571	 0.296453695554014 
1572	 0.296561636578237 
1573	 0.296661625241605 
1574	 0.296759512961002 
1575	 0.29683486927698 
1576	 0.29693228908071 
1577	 0.297051177435528 
1578	 0.297149301754646 
1579	 0.2972481907731 
1580	 0.297334946646244 
1581	 0.297400756485838 
1582	 0.297471649149982 
1583	 0.297533211834212 
1584	 0.297609871587283 
1585	 0.297695690050867 
1586	 0.297779922422663 
1587	 0.297874130499806 
1588	 0.297962717612685 
1589	 0.298039134336416 
1590	 0.29812662406935 
1591	 0.298229628320554 
1592	 0.298320101490469 
1593	 0.298417286958488 
1594	 0.298497224589113 
1595	 0.298544181958254 
1596	 0.298618416513024 
1597	 0.298716343079203 
1598	 0.298783350518269 
1599	 0.298843675083228 
1600	 0.298906204490338 
1601	 0.29894287167999 
1602	 0.298987187589848 
1603	 0.299056465534924 
1604	 0.299106368431029 
1605	 0.299125070977325 
1606	 0.299165986856299 
1607	 0.299218041586559 
1608	 0.299260694733596 
1609	 0.299318531436233 
1610	 0.299380059171561 
1611	 0.299449477954138 
1612	 0.29951850917802 
1613	 0.299579418411629 
1614	 0.299652121596602 
1615	 0.299700781740145 
1616	 0.299740218043197 
1617	 0.299787929287114 
1618	 0.299814881039611 
1619	 0.299846914153129 
1620	 0.299881822158339 
1621	 0.299920224073292 
1622	 0.299968395790737 
1623	 0.299998968609141 
1624	 0.300030431704592 
1625	 0.30003893243051 
1626	 0.300017993618592 
1627	 0.300030407453897 
1628	 0.300044257153173 
1629	 0.300060992774615 
1630	 0.30009568699711 
1631	 0.300125180743293 
1632	 0.300137433120977 
1633	 0.300185189776249 
1634	 0.300270544790756 
1635	 0.300310091575911 
1636	 0.300347825220407 
1637	 0.300373255945488 
1638	 0.300369408584291 
1639	 0.300374133338655 
1640	 0.300384151913862 
1641	 0.300386088088146 
1642	 0.300369053967422 
1643	 0.300372076345443 
1644	 0.300390553301479 
1645	 0.300389891768236 
1646	 0.300380973455769 
1647	 0.300386638715238 
1648	 0.300381644562371 
1649	 0.300399260949619 
1650	 0.300450553178847 
1651	 0.300469737023899 
1652	 0.300481630422233 
1653	 0.300493457674059 
1654	 0.300494949881841 
1655	 0.300494065472101 
1656	 0.300495567218555 
1657	 0.300488958854579 
1658	 0.300470478110593 
1659	 0.300453383237836 
1660	 0.300434331483452 
1661	 0.300416015968696 
1662	 0.300387769252636 
1663	 0.300375275279913 
1664	 0.300379316286757 
1665	 0.300365042006255 
1666	 0.300348545545463 
1667	 0.300332799869364 
1668	 0.300307457437832 
1669	 0.300283415050757 
1670	 0.300255043548343 
1671	 0.300245979247952 
1672	 0.300239829253884 
1673	 0.300239384402505 
1674	 0.300272667041711 
1675	 0.300269216436037 
1676	 0.300249397615512 
1677	 0.300223633414175 
1678	 0.300176736347132 
1679	 0.300140159656792 
1680	 0.300110955272325 
1681	 0.30005941097413 
1682	 0.299982351851197 
1683	 0.299940485785595 
1684	 0.299893647723575 
1685	 0.299867383880015 
1686	 0.299888375271566 
1687	 0.299873797476889 
1688	 0.299846359705842 
1689	 0.29982023562362 
1690	 0.299783297636006 
1691	 0.299754835152767 
1692	 0.299727845922256 
1693	 0.299700884033815 
1694	 0.299679659154407 
1695	 0.299649015063202 
1696	 0.299615411206456 
1697	 0.299581468762987 
1698	 0.299543831488241 
1699	 0.299502958176984 
1700	 0.299470607430883 
1701	 0.299410501824659 
1702	 0.299331434509154 
1703	 0.299255547385188 
1704	 0.299145348151018 
1705	 0.299083611431055 
1706	 0.299048557700123 
1707	 0.299002075895427 
1708	 0.298981806668154 
1709	 0.298940412965249 
1710	 0.298879900476316 
1711	 0.298833952445433 
1712	 0.298789438456943 
1713	 0.298750779875241 
1714	 0.29872198455665 
1715	 0.298681860508289 
1716	 0.298648401197711 
1717	 0.298595645959954 
1718	 0.298533095041133 
1719	 0.298454057699869 
1720	 0.298360365038715 
1721	 0.298258621211276 
1722	 0.298135887528565 
1723	 0.298020216006278 
1724	 0.29788893824082 
1725	 0.297793006605517 
1726	 0.29771824050987 
1727	 0.297630998876035 
1728	 0.297560213816364 
1729	 0.297468515975017 
1730	 0.297363670939497 
1731	 0.297251003117782 
1732	 0.297139858643151 
1733	 0.297011343149381 
1734	 0.296856289037964 
1735	 0.296718121153861 
1736	 0.296576261181659 
1737	 0.296444365197131 
1738	 0.29631752377562 
1739	 0.296197635703658 
1740	 0.296093417450906 
1741	 0.295961710107431 
1742	 0.295821809108081 
1743	 0.295686045208038 
1744	 0.295542462458384 
1745	 0.295387740027373 
1746	 0.295227185070492 
1747	 0.295096273638566 
1748	 0.294945508150302 
1749	 0.294779109225747 
1750	 0.29462902551519 
1751	 0.294457894201421 
1752	 0.294268065080459 
1753	 0.294120972706621 
1754	 0.293990578603273 
1755	 0.293842012246924 
1756	 0.293716724042253 
1757	 0.293585186808293 
1758	 0.293432184377167 
1759	 0.293292335716595 
1760	 0.293144947617661 
1761	 0.292993567477852 
1762	 0.29285259200898 
1763	 0.292711263512727 
1764	 0.292560862843474 
1765	 0.292410209175422 
1766	 0.292256929436495 
1767	 0.292095642810692 
1768	 0.291942873909119 
1769	 0.291789146278645 
1770	 0.291652089873426 
1771	 0.291546729872621 
1772	 0.291411783860451 
1773	 0.29129164881377 
1774	 0.291203657030168 
1775	 0.291096380945377 
1776	 0.291001894359784 
1777	 0.290904644817363 
1778	 0.290785483379878 
1779	 0.290642933572564 
1780	 0.29050867939111 
1781	 0.290403982509581 
1782	 0.290320037083611 
1783	 0.2903113950501 
1784	 0.290267640215113 
1785	 0.290230846472684 
1786	 0.290178606518663 
1787	 0.290084519897297 
1788	 0.290023006404983 
1789	 0.289977514588834 
1790	 0.289933494081909 
1791	 0.289927042775287 
1792	 0.289879876323209 
1793	 0.289801542083198 
1794	 0.289741197797802 
1795	 0.289665567931288 
1796	 0.289588904975561 
1797	 0.289513650659796 
1798	 0.289453683767132 
1799	 0.289390089294425 
1800	 0.289347198046362 
1801	 0.285703130212466 
1802	 0.285676641486286 
1803	 0.285666509923534 
1804	 0.285637480699994 
1805	 0.285609242043973 
1806	 0.285588682587687 
1807	 0.285559174464859 
1808	 0.285565774739243 
1809	 0.285619270957035 
1810	 0.285644211897507 
1811	 0.285690038344914 
1812	 0.285705761528038 
1813	 0.285673645749318 
1814	 0.285641110828873 
1815	 0.285637627445013 
1816	 0.285635260710358 
1817	 0.285628872212191 
1818	 0.28566770498637 
1819	 0.285636025295712 
1820	 0.285560816997975 
1821	 0.285490733553146 
1822	 0.285410176127593 
1823	 0.285332587631265 
1824	 0.28527341108744 
1825	 0.285209892806057 
1826	 0.285153896455969 
1827	 0.285062295175534 
1828	 0.284981007706327 
1829	 0.284918225475486 
1830	 0.284824825402601 
1831	 0.284708488758593 
1832	 0.284603940853144 
1833	 0.28447850642021 
1834	 0.284340260461278 
1835	 0.284245313911505 
1836	 0.284144435897475 
1837	 0.284036202593296 
1838	 0.28394183196495 
1839	 0.283819951691227 
1840	 0.283673597588805 
1841	 0.283511887722159 
1842	 0.283383737721713 
1843	 0.283234747946337 
1844	 0.283065187578673 
1845	 0.282907010190709 
1846	 0.282689280313668 
1847	 0.282452998648975 
1848	 0.282214259940902 
1849	 0.281948343293422 
1850	 0.281678982743182 
1851	 0.281419014257451 
1852	 0.281110988143119 
1853	 0.280773044496182 
1854	 0.280448843581158 
1855	 0.280094381865322 
1856	 0.279745052431573 
1857	 0.279386955585638 
1858	 0.278965727036223 
1859	 0.278507971108303 
1860	 0.277991860903591 
1861	 0.277422306231353 
1862	 0.276791560413796 
1863	 0.276121507654269 
1864	 0.275393477750607 
1865	 0.274591491112962 
1866	 0.273711095134547 
1867	 0.272778390986617 
1868	 0.271780056516051 
1869	 0.270699412375373 
1870	 0.26955348403839 
1871	 0.268291828687936 
1872	 0.266934765571126 
1873	 0.265475101830103 
1874	 0.26393005626654 
1875	 0.262276604340556 
1876	 0.260564990550572 
1877	 0.258750474395884 
1878	 0.256808527575055 
1879	 0.254771535675945 
1880	 0.25259999539515 
1881	 0.250275796742065 
1882	 0.247871779433554 
1883	 0.245364504343843 
1884	 0.242711546972634 
1885	 0.239986560046922 
1886	 0.23715705716232 
1887	 0.234185930713456 
1888	 0.231138841074481 
1889	 0.228025658384886 
1890	 0.224873342925801 
1891	 0.221767437076162 
1892	 0.21862917918762 
1893	 0.215556689261137 
1894	 0.212502748043069 
1895	 0.209513167911136 
1896	 0.206525159688367 
1897	 0.203655383952676 
1898	 0.200860335631959 
1899	 0.198147943982288 
1900	 0.195579582358084 
1901	 0.193108665347217 
1902	 0.190778868554176 
1903	 0.188599997472918 
1904	 0.186519623319602 
1905	 0.184548108172441 
1906	 0.18272838677765 
1907	 0.181021059980009 
1908	 0.17941761899228 
1909	 0.177951128880534 
1910	 0.17659503934502 
1911	 0.17535162519427 
1912	 0.174208354420192 
1913	 0.173138389746452 
1914	 0.172164846108178 
1915	 0.171261994585005 
1916	 0.170431542964076 
1917	 0.169686416843212 
1918	 0.169029556649801 
1919	 0.168433008048125 
1920	 0.167923999827154 
1921	 0.167483852314237 
1922	 0.167095931663173 
1923	 0.166777204945813 
1924	 0.16649985967037 
1925	 0.16626013753359 
1926	 0.166096056008108 
1927	 0.165990344172147 
1928	 0.165948197851847 
1929	 0.165961996096406 
1930	 0.166007510276179 
1931	 0.166083728786841 
1932	 0.166172695426344 
1933	 0.166321821482235 
1934	 0.166526107120686 
1935	 0.166744404452621 
1936	 0.166999283270312 
1937	 0.167288569659571 
1938	 0.167593695043005 
1939	 0.167940051382917 
1940	 0.168340520159877 
1941	 0.168753856302897 
1942	 0.169177555953451 
1943	 0.169638832455785 
1944	 0.170103480603154 
1945	 0.170586404270405 
1946	 0.171079737912274 
1947	 0.17157966829962 
1948	 0.172106309867836 
1949	 0.172657065912401 
1950	 0.173215123050372 
1951	 0.173790745898181 
1952	 0.174389622121947 
1953	 0.174987465972343 
1954	 0.175593503687362 
1955	 0.176202326309816 
1956	 0.17681658660809 
1957	 0.177440953663991 
1958	 0.178061619519546 
1959	 0.178700983351181 
1960	 0.179363482042041 
1961	 0.180025526013903 
1962	 0.180697059656132 
1963	 0.181373237691305 
1964	 0.182055460838292 
1965	 0.182735336620625 
1966	 0.183433023804677 
1967	 0.184144784230031 
1968	 0.184869270007985 
1969	 0.185616208718616 
1970	 0.186359034094964 
1971	 0.187125424474801 
1972	 0.187867056305692 
1973	 0.188594129522789 
1974	 0.189329386485416 
1975	 0.1900664403175 
1976	 0.190784102840305 
1977	 0.191520020023923 
1978	 0.192255560471121 
1979	 0.192977602759813 
1980	 0.193713045042701 
1981	 0.194442609276448 
1982	 0.195169856718738 
1983	 0.195903650449134 
1984	 0.196633747646016 
1985	 0.197374754223756 
1986	 0.198142524502214 
1987	 0.19888429982491 
1988	 0.199625811687222 
1989	 0.200348364324948 
1990	 0.201057729616438 
1991	 0.201768529216366 
1992	 0.202493554442257 
1993	 0.203230620489447 
1994	 0.203961020517302 
1995	 0.204701214581389 
1996	 0.205429663878905 
1997	 0.20615777810182 
1998	 0.206872836629339 
1999	 0.207576405900039 
2000	 0.208280081895323 
2001	 0.208974115749896 
2002	 0.209667745953651 
2003	 0.210364713311867 
2004	 0.211053361230483 
2005	 0.211717955773272 
2006	 0.212360918137837 
2007	 0.213004825045376 
2008	 0.213617588862899 
2009	 0.214259600105328 
2010	 0.214914710265107 
2011	 0.215565691547797 
2012	 0.216236190086205 
2013	 0.21688803328862 
2014	 0.217527294114635 
2015	 0.218166834546053 
2016	 0.218801751026701 
2017	 0.219422680042884 
2018	 0.220048580903623 
2019	 0.220678869397793 
2020	 0.221293065176599 
2021	 0.22189999918217 
2022	 0.22250307796334 
2023	 0.223095746653955 
2024	 0.223684803342332 
2025	 0.224270278593931 
2026	 0.224851148176012 
2027	 0.225430973905304 
2028	 0.225996326005377 
2029	 0.226555838970902 
2030	 0.227110119231088 
2031	 0.227658356005961 
2032	 0.228193093134813 
2033	 0.228734261430782 
2034	 0.229276156835524 
2035	 0.229812474604674 
2036	 0.230350523644055 
2037	 0.230875331074702 
2038	 0.231390713759051 
2039	 0.231903544304456 
2040	 0.232412646942437 
2041	 0.232913747806137 
2042	 0.233392287420177 
2043	 0.233869704442709 
2044	 0.234347387239185 
2045	 0.234807253206069 
2046	 0.235282375810899 
2047	 0.235776821911468 
2048	 0.236250339958762 
2049	 0.236718394894599 
2050	 0.237180099650425 
2051	 0.23763468360704 
2052	 0.238079991663585 
2053	 0.238517751594892 
2054	 0.238948628587037 
2055	 0.23937413002755 
2056	 0.239787915831098 
2057	 0.240190284025086 
2058	 0.240575569147167 
2059	 0.240980181636895 
2060	 0.241376107468895 
2061	 0.24178191538575 
2062	 0.242211475609906 
2063	 0.242619694326184 
2064	 0.243022258428257 
2065	 0.243416914577076 
2066	 0.243808894651064 
2067	 0.244186955310787 
2068	 0.24454948315551 
2069	 0.244909102440914 
2070	 0.245265731707389 
2071	 0.245608215722373 
2072	 0.24596479146584 
2073	 0.246323212312659 
2074	 0.246685794934724 
2075	 0.247063546945984 
2076	 0.247421447788608 
2077	 0.247770225691423 
2078	 0.2481236361008 
2079	 0.248478532723798 
2080	 0.24881572482085 
2081	 0.249144159117798 
2082	 0.249475016992968 
2083	 0.249779680435737 
2084	 0.25010415467904 
2085	 0.250432838227485 
2086	 0.250770469797283 
2087	 0.251113932002866 
2088	 0.251473060059834 
2089	 0.251810348048964 
2090	 0.252152984161688 
2091	 0.252482662642867 
2092	 0.252790838505688 
2093	 0.253103001893412 
2094	 0.253423776428881 
2095	 0.253724587059279 
2096	 0.253995518488411 
2097	 0.254289350991206 
2098	 0.254604683006542 
2099	 0.254882359540889 
2100	 0.255168667546517 
2101	 0.255464205651582 
2102	 0.255754428519831 
2103	 0.25602471513034 
2104	 0.256310858483787 
2105	 0.256614255802104 
2106	 0.256905702160963 
2107	 0.257184858758435 
2108	 0.257480023665144 
2109	 0.257778574667875 
2110	 0.258084699708927 
2111	 0.258401325206218 
2112	 0.258719155218132 
2113	 0.259051267565229 
2114	 0.259378836787703 
2115	 0.259679360422967 
2116	 0.259971319775372 
2117	 0.260255056098492 
2118	 0.260517081234928 
2119	 0.260776409571186 
2120	 0.261029286765263 
2121	 0.261286328313658 
2122	 0.261526371176273 
2123	 0.261777571944291 
2124	 0.262052585148315 
2125	 0.262300989500839 
2126	 0.262537333752673 
2127	 0.262770475178112 
2128	 0.262991697528041 
2129	 0.263207670106074 
2130	 0.263422976135107 
2131	 0.263625314607777 
2132	 0.263821809775992 
2133	 0.264017977551645 
2134	 0.264180335270793 
2135	 0.264330410628773 
2136	 0.264456314999613 
2137	 0.264554044408902 
2138	 0.264636166311589 
2139	 0.264694820844909 
2140	 0.264747614116517 
2141	 0.264767282967745 
2142	 0.264801031580797 
2143	 0.264835563120704 
2144	 0.264868391740496 
2145	 0.264916082456702 
2146	 0.264939734047898 
2147	 0.264952667618253 
2148	 0.264953008615188 
2149	 0.264944419711378 
2150	 0.26492535707699 
2151	 0.264877584486779 
2152	 0.264814359307 
2153	 0.264738998223763 
2154	 0.264627941706262 
2155	 0.264529033737202 
2156	 0.26444938582197 
2157	 0.264323605688004 
2158	 0.264181735865807 
2159	 0.264012045070516 
2160	 0.263782783256977 
2161	 0.26357964084963 
2162	 0.263347328531257 
2163	 0.263151986689822 
2164	 0.262985189825922 
2165	 0.262831571077515 
2166	 0.262657941214643 
2167	 0.262506590123814 
2168	 0.262312589070829 
2169	 0.262083667323802 
2170	 0.261867844260985 
2171	 0.261646964787066 
2172	 0.261413702138555 
2173	 0.261169544315092 
2174	 0.260930378863281 
2175	 0.260695154714848 
2176	 0.260434335771309 
2177	 0.260171866548986 
2178	 0.259890033416624 
2179	 0.259548660645703 
2180	 0.259250879539707 
2181	 0.258982563141196 
2182	 0.258693964879031 
2183	 0.25841898477195 
2184	 0.25813598322649 
2185	 0.257835520849201 
2186	 0.257509271625505 
2187	 0.257189346660599 
2188	 0.256854711633619 
2189	 0.256545732640777 
2190	 0.256219101199249 
2191	 0.255943969698567 
2192	 0.255694778303791 
2193	 0.255476601292634 
2194	 0.255306045315482 
2195	 0.255131159567136 
2196	 0.254983991514991 
2197	 0.254836466778397 
2198	 0.254687195526056 
2199	 0.254555830815568 
2200	 0.254433086142123 
2201	 0.254329638827508 
2202	 0.254245619243086 
2203	 0.254167877600736 
2204	 0.25411709067836 
2205	 0.254084777001646 
2206	 0.254077104293968 
2207	 0.254090767930866 
2208	 0.254127932859451 
2209	 0.254191315131312 
2210	 0.254273374068926 
2211	 0.254387178099156 
2212	 0.254501145800909 
2213	 0.25463741720615 
2214	 0.254767168349375 
2215	 0.254918986253164 
2216	 0.255039811023444 
2217	 0.255162690911536 
2218	 0.25525727275046 
2219	 0.25532239402853 
2220	 0.255373338025744 
2221	 0.255401885772107 
2222	 0.255423826081806 
2223	 0.255414886193384 
2224	 0.255399899885044 
2225	 0.255386790493032 
2226	 0.255362611938063 
2227	 0.25533473220725 
2228	 0.255313411284408 
2229	 0.255270903561894 
2230	 0.25521524336204 
2231	 0.255148251953585 
2232	 0.255054436062393 
2233	 0.254987174417221 
2234	 0.254926331099149 
2235	 0.254850914486555 
2236	 0.254796161971936 
2237	 0.254707540848745 
2238	 0.254581222573521 
2239	 0.254466880103468 
2240	 0.254350261418026 
2241	 0.254226345773689 
2242	 0.254077373289121 
2243	 0.253958680038905 
2244	 0.253865372738474 
2245	 0.253745361774154 
2246	 0.253648068546035 
2247	 0.253548420112393 
2248	 0.253423216039709 
2249	 0.253260632526907 
2250	 0.253142540030673 
2251	 0.253035126381728 
2252	 0.252921584996083 
2253	 0.252816565195511 
2254	 0.252718864324978 
2255	 0.252625860342412 
2256	 0.252519704646181 
2257	 0.252417147234178 
2258	 0.252324555841394 
2259	 0.252202391005382 
2260	 0.252122449773612 
2261	 0.252100368019788 
2262	 0.252036712389214 
2263	 0.251952782445343 
2264	 0.251897944807661 
2265	 0.251851926136447 
2266	 0.251793227448081 
2267	 0.251757989228024 
2268	 0.251704336317615 
2269	 0.251626109107293 
2270	 0.251535438829398 
2271	 0.251468305409946 
2272	 0.251426217593318 
2273	 0.251364952445547 
2274	 0.251287162424766 
2275	 0.251235271203852 
2276	 0.251191771461482 
2277	 0.251129286017178 
2278	 0.251077265283536 
2279	 0.251023666737813 
2280	 0.250934456716153 
2281	 0.250893270093557 
2282	 0.250900188433789 
2283	 0.250864301984679 
2284	 0.250831852013911 
2285	 0.250777878263631 
2286	 0.250690803119885 
2287	 0.250617709993896 
2288	 0.250547042437028 
2289	 0.250467839206122 
2290	 0.250382958381822 
2291	 0.25029830029894 
2292	 0.250205637030662 
2293	 0.250118736185726 
2294	 0.250034296069498 
2295	 0.249948722142729 
2296	 0.249874026441804 
2297	 0.249784698093762 
2298	 0.249678063792381 
2299	 0.249541764946947 
2300	 0.249397152253435 
2301	 0.249247432913046 
2302	 0.249090212554045 
2303	 0.248978314492951 
2304	 0.248875077532774 
2305	 0.248740222971514 
2306	 0.248596151524196 
2307	 0.248452960765577 
2308	 0.248281929368995 
2309	 0.248065295448658 
2310	 0.247892577238346 
2311	 0.247748515697007 
2312	 0.247548714361276 
2313	 0.247327494941356 
2314	 0.247127215949194 
2315	 0.246889322345192 
2316	 0.246682281025523 
2317	 0.246511736330884 
2318	 0.246330041537445 
2319	 0.24613886843137 
2320	 0.245960956546337 
2321	 0.245825128764194 
2322	 0.245655682253688 
2323	 0.245466240516133 
2324	 0.245259150192112 
2325	 0.245005194880134 
2326	 0.244792085848351 
2327	 0.244560965259091 
2328	 0.244412349201644 
2329	 0.244274580451792 
2330	 0.244061863965154 
2331	 0.243856653569201 
2332	 0.243631089430142 
2333	 0.243407108321759 
2334	 0.243217443868033 
2335	 0.243005428930554 
2336	 0.242767083295579 
2337	 0.242517588109789 
2338	 0.242271673657252 
2339	 0.242005356398744 
2340	 0.241748994324503 
2341	 0.241530816830854 
2342	 0.241310022932578 
2343	 0.241049077423184 
2344	 0.240765197078376 
2345	 0.240457818554762 
2346	 0.240081778077548 
2347	 0.239722610090185 
2348	 0.239355326289154 
2349	 0.239018895899592 
2350	 0.238656008150082 
2351	 0.238344740449061 
2352	 0.238116612164876 
2353	 0.237816722589721 
2354	 0.237487359598235 
2355	 0.237187697190393 
2356	 0.236899916350157 
2357	 0.236571389092024 
2358	 0.236226438363672 
2359	 0.235914777313586 
2360	 0.23557430527263 
2361	 0.235233747483381 
2362	 0.234946361919886 
2363	 0.234620833678018 
2364	 0.234255245362296 
2365	 0.233895056124435 
2366	 0.233511452043994 
2367	 0.233168809297034 
2368	 0.232841263866902 
2369	 0.232510393171534 
2370	 0.232211816684559 
2371	 0.231923369616491 
2372	 0.2315421792504 
2373	 0.23110514144696 
2374	 0.230675931611554 
2375	 0.230182544306235 
2376	 0.229698742105269 
2377	 0.229303721387454 
2378	 0.228853129383882 
2379	 0.228389775543957 
2380	 0.22798339199362 
2381	 0.227557388985548 
2382	 0.227155555152314 
2383	 0.226772667078608 
2384	 0.22636606838023 
2385	 0.225915142008392 
2386	 0.225479005816846 
2387	 0.225074565741416 
2388	 0.224585764165477 
2389	 0.224076348225542 
2390	 0.223543305536065 
2391	 0.222997156823192 
2392	 0.222609825786195 
2393	 0.222224455815168 
2394	 0.221783800579612 
2395	 0.221355162081917 
2396	 0.220812820530532 
2397	 0.220287411448355 
2398	 0.219810625470971 
2399	 0.219289474040784 
2400	 0.218801745225702 
2401	 0.218343661298679 
2402	 0.217911541962922 
2403	 0.217480516582904 
2404	 0.217030331831705 
2405	 0.216529983889415 
2406	 0.215978542537298 
2407	 0.215499742665188 
2408	 0.214990082560859 
2409	 0.214456351598638 
2410	 0.214012003209729 
2411	 0.213514054877111 
2412	 0.213028441171105 
2413	 0.212528222339677 
2414	 0.211935228072866 
2415	 0.211375698479273 
2416	 0.210852405288352 
2417	 0.210367501902467 
2418	 0.209872398161558 
2419	 0.209428049523387 
2420	 0.208894428622098 
2421	 0.208262815684334 
2422	 0.207742527175444 
2423	 0.207259299962946 
2424	 0.206758395067169 
2425	 0.20633184905453 
2426	 0.205837663544749 
2427	 0.205253119498709 
2428	 0.204757947490504 
2429	 0.204311403510707 
2430	 0.20381417893175 
2431	 0.203328049006072 
2432	 0.202812617940897 
2433	 0.20226206422427 
2434	 0.201730954694964 
2435	 0.201211172953685 
2436	 0.20069763964788 
2437	 0.200165645071441 
2438	 0.199603353490126 
2439	 0.199040295746393 
2440	 0.198557839720533 
2441	 0.198044849594798 
2442	 0.197592036961796 
2443	 0.197289659726357 
2444	 0.19682771444665 
2445	 0.196300048385656 
2446	 0.195845671334081 
2447	 0.195365975409396 
2448	 0.194825181185077 
2449	 0.194312682123517 
2450	 0.193754972047157 
2451	 0.193079280439784 
2452	 0.192531845512094 
2453	 0.192088054127557 
2454	 0.191490059395111 
2455	 0.190806110688006 
2456	 0.190262115895971 
2457	 0.189696892889331 
2458	 0.18916286106915 
2459	 0.188779820191291 
2460	 0.188358819928463 
2461	 0.187878386336399 
2462	 0.187394430116184 
2463	 0.186989173896181 
2464	 0.186475995711288 
2465	 0.185827104052142 
2466	 0.1852901451505 
2467	 0.184784726808827 
2468	 0.184298487588124 
2469	 0.183842112457265 
2470	 0.18340467933783 
2471	 0.182941966961767 
2472	 0.182408841174898 
2473	 0.181885588924353 
2474	 0.181317295107981 
2475	 0.180789973004844 
2476	 0.180156736471956 
2477	 0.179645779537203 
2478	 0.17932255327937 
2479	 0.178976635827447 
2480	 0.178785063255691 
2481	 0.178351388338044 
2482	 0.177737236975129 
2483	 0.177190510316653 
2484	 0.176701942302521 
2485	 0.1763674493061 
2486	 0.175976286004299 
2487	 0.175626010329307 
2488	 0.175227944581857 
2489	 0.174671751715403 
2490	 0.174137899984316 
2491	 0.173654067911056 
2492	 0.17317564855889 
2493	 0.172745073169522 
2494	 0.172487227891609 
2495	 0.172269434053186 
2496	 0.171969270781623 
2497	 0.171715085521881 
2498	 0.171537040533414 
2499	 0.171203174238374 
2500	 0.170930806188808 
