Wavelength	MM400004.asd
350	 5.01212626807307E-02 
351	 4.96226013339022E-02 
352	 0.04365627443423 
353	 4.27348332812152E-02 
354	 4.35322253928153E-02 
355	 3.95975907143711E-02 
356	 3.86900827907633E-02 
357	 4.64419028458149E-02 
358	 4.73671811225241E-02 
359	 4.63844334640376E-02 
360	 4.61160203765679E-02 
361	 4.67101791806385E-02 
362	 0.042485721339324 
363	 4.25784229072225E-02 
364	 4.75466567677776E-02 
365	 4.20085479624014E-02 
366	 4.08455921073762E-02 
367	 4.23831389095473E-02 
368	 4.19563605701978E-02 
369	 4.20748841771073E-02 
370	 4.34698281122405E-02 
371	 4.38204224626389E-02 
372	 3.98768531215514E-02 
373	 4.22853909631412E-02 
374	 4.40901705372016E-02 
375	 0.042311868519961 
376	 4.51281910371006E-02 
377	 4.32154428937523E-02 
378	 4.01613470187749E-02 
379	 4.14093520614642E-02 
380	 4.31318488355075E-02 
381	 4.34743300517947E-02 
382	 4.37606003082128E-02 
383	 4.69382188474475E-02 
384	 4.46669414458251E-02 
385	 4.24898264264461E-02 
386	 4.44391596194194E-02 
387	 4.84260420836664E-02 
388	 4.83263042971845E-02 
389	 4.58654062799227E-02 
390	 4.50102278745916E-02 
391	 4.60527977694332E-02 
392	 0.046860756889207 
393	 4.70478483734198E-02 
394	 4.77355190349183E-02 
395	 4.76674433445844E-02 
396	 4.75112422657888E-02 
397	 4.78735932819878E-02 
398	 4.87359627817685E-02 
399	 4.82592073975866E-02 
400	 4.82548917460482E-02 
401	 5.06791710638248E-02 
402	 5.04672949867453E-02 
403	 4.90810714838614E-02 
404	 4.81236786832593E-02 
405	 0.048766865380917 
406	 0.049444217251727 
407	 5.01415594008946E-02 
408	 5.08039383132556E-02 
409	 5.03950645528593E-02 
410	 4.97678746446555E-02 
411	 4.94466290262868E-02 
412	 4.97017647513348E-02 
413	 0.050470533013822 
414	 5.04472243516467E-02 
415	 0.049685788101824 
416	 5.00407784858422E-02 
417	 5.00144007259822E-02 
418	 4.98429290797934E-02 
419	 4.99537158889809E-02 
420	 4.99779698280243E-02 
421	 4.98638154647064E-02 
422	 4.99784404967601E-02 
423	 5.07839838343315E-02 
424	 0.050750594625539 
425	 5.04239686834392E-02 
426	 5.03210244906934E-02 
427	 0.050423350028804 
428	 5.03394651793565E-02 
429	 5.02067895361178E-02 
430	 5.02575947263516E-02 
431	 5.02505958437879E-02 
432	 5.02401144052986E-02 
433	 5.01636518273556E-02 
434	 4.98582570299116E-02 
435	 5.00159724671183E-02 
436	 5.01683655936652E-02 
437	 4.99407448880977E-02 
438	 4.97585211226135E-02 
439	 4.99553716528444E-02 
440	 5.01882367158838E-02 
441	 4.99136988357163E-02 
442	 5.00073079925574E-02 
443	 5.03284160148571E-02 
444	 0.050585157180612 
445	 5.04210842917585E-02 
446	 5.02032569119084E-02 
447	 0.05007464374245 
448	 5.00970976453588E-02 
449	 5.02873041217791E-02 
450	 5.06129879208474E-02 
451	 5.08569961453645E-02 
452	 5.06929725039584E-02 
453	 5.06401294665425E-02 
454	 0.050559916879016 
455	 5.04070097807587E-02 
456	 5.07134027696821E-02 
457	 5.06819175747218E-02 
458	 5.05026681043914E-02 
459	 5.07150724212386E-02 
460	 5.08098431241801E-02 
461	 5.06757792766766E-02 
462	 5.04750111416671E-02 
463	 5.06931243099396E-02 
464	 5.08732587802637E-02 
465	 5.08619256722022E-02 
466	 5.06995221386581E-02 
467	 5.07965025420454E-02 
468	 5.10840480437257E-02 
469	 5.12045592826959E-02 
470	 5.06855754869454E-02 
471	 5.09133298983007E-02 
472	 5.11507167046346E-02 
473	 5.08810218257833E-02 
474	 5.09807281377576E-02 
475	 5.10106184506522E-02 
476	 5.09606060019376E-02 
477	 5.09780518860437E-02 
478	 5.09821204083657E-02 
479	 5.10137242619777E-02 
480	 5.10570603793999E-02 
481	 5.10065613866104E-02 
482	 5.09172572103715E-02 
483	 5.08481159059156E-02 
484	 5.08584366960162E-02 
485	 5.10205338017635E-02 
486	 5.10943960281718E-02 
487	 5.10458771116696E-02 
488	 5.10214755809363E-02 
489	 5.10926710327824E-02 
490	 5.11785844732673E-02 
491	 5.11745210048112E-02 
492	 5.09608364896868E-02 
493	 5.08728340449231E-02 
494	 5.09673808781252E-02 
495	 5.11318933735856E-02 
496	 5.11256538140245E-02 
497	 5.11005507670089E-02 
498	 5.11442055665762E-02 
499	 5.11925433174908E-02 
500	 0.051174305162562 
501	 0.051134181184774 
502	 5.11271804986017E-02 
503	 5.10546162629543E-02 
504	 5.11503089830588E-02 
505	 5.13204296316055E-02 
506	 5.11937038493503E-02 
507	 5.11893417505377E-02 
508	 5.12959654801053E-02 
509	 5.13917479754369E-02 
510	 5.12749955757871E-02 
511	 0.05128161196948 
512	 5.13716269048543E-02 
513	 5.13267157835845E-02 
514	 5.12952573075906E-02 
515	 5.13179794213335E-02 
516	 5.13838861106687E-02 
517	 0.051419341159256 
518	 5.14453886968318E-02 
519	 5.14278484766627E-02 
520	 5.13531194037717E-02 
521	 5.13904948344672E-02 
522	 5.14221515237122E-02 
523	 5.14108888248678E-02 
524	 5.14199943489277E-02 
525	 5.14234396693632E-02 
526	 5.14615347296703E-02 
527	 5.15411634559676E-02 
528	 5.15141315325361E-02 
529	 5.15433492486685E-02 
530	 5.16426475698546E-02 
531	 5.17238324397699E-02 
532	 5.17502831829052E-02 
533	 5.17666548094973E-02 
534	 5.18124855045038E-02 
535	 5.19045234919068E-02 
536	 5.18883718867334E-02 
537	 5.18626614787697E-02 
538	 5.19871382053723E-02 
539	 5.20895498882485E-02 
540	 5.21251486169129E-02 
541	 5.21091918686602E-02 
542	 5.21175762377461E-02 
543	 5.21800534802433E-02 
544	 5.22600701108023E-02 
545	 5.23216477859209E-02 
546	 5.24301735459963E-02 
547	 5.24869759186459E-02 
548	 5.25122076089439E-02 
549	 5.26199766772671E-02 
550	 5.26447720024826E-02 
551	 5.27061551007291E-02 
552	 5.28791471682056E-02 
553	 5.29950945805192E-02 
554	 0.053075773704237 
555	 0.05316947540618 
556	 5.33250851956126E-02 
557	 5.34065856006176E-02 
558	 5.35844028545754E-02 
559	 5.38813988969372E-02 
560	 5.40039120194903E-02 
561	 5.41132330988819E-02 
562	 5.42738116138244E-02 
563	 5.45054532075146E-02 
564	 0.054756012092248 
565	 5.49876751695804E-02 
566	 5.51937808295215E-02 
567	 5.54017980046588E-02 
568	 5.57496424166121E-02 
569	 5.60888408311488E-02 
570	 5.63004749690505E-02 
571	 5.66060387536544E-02 
572	 5.69509767100988E-02 
573	 5.73089466110083E-02 
574	 5.76707791203396E-02 
575	 5.79753509990116E-02 
576	 5.82964818663265E-02 
577	 5.86794594187188E-02 
578	 5.90586771204457E-02 
579	 5.94732618031994E-02 
580	 0.059932836189492 
581	 6.04328095330119E-02 
582	 6.09604251982089E-02 
583	 6.15007487879204E-02 
584	 6.20458336373152E-02 
585	 6.26002755217097E-02 
586	 6.31090548780032E-02 
587	 6.36020250211364E-02 
588	 6.41308686649547E-02 
589	 6.47274644396746E-02 
590	 6.52857940664792E-02 
591	 6.57934713372152E-02 
592	 0.06632871199445 
593	 6.68938203840755E-02 
594	 6.74799674843114E-02 
595	 6.80596608180112E-02 
596	 0.068558667095039 
597	 6.91277758769994E-02 
598	 6.97477549412356E-02 
599	 0.070315627890693 
600	 0.070875008623396 
601	 0.071412319170424 
602	 7.19162546084384E-02 
603	 7.23877160075177E-02 
604	 7.28820658859885E-02 
605	 7.33940655880821E-02 
606	 7.38898484796434E-02 
607	 7.43154115070064E-02 
608	 0.074765022452207 
609	 0.075233986086573 
610	 7.55994499529211E-02 
611	 7.60177910379235E-02 
612	 7.64370616535579E-02 
613	 7.67890309762284E-02 
614	 7.71349589012944E-02 
615	 7.74587481806079E-02 
616	 7.77514072639038E-02 
617	 7.80136416106556E-02 
618	 7.83178551807897E-02 
619	 7.85835040945277E-02 
620	 7.87809424224283E-02 
621	 7.90372582437019E-02 
622	 7.93069735890677E-02 
623	 7.95222670432542E-02 
624	 7.96403334343447E-02 
625	 0.079869077062818 
626	 8.00895954788029E-02 
627	 8.02530015568582E-02 
628	 8.04372687181163E-02 
629	 8.06292290519408E-02 
630	 8.08179628926351E-02 
631	 0.080988708248047 
632	 8.11093839812298E-02 
633	 8.12631652322159E-02 
634	 8.14526991096586E-02 
635	 8.16155088409239E-02 
636	 8.17949916707423E-02 
637	 0.08196744973447 
638	 8.21097602519125E-02 
639	 8.22186834390543E-02 
640	 8.23795731799032E-02 
641	 8.25761173810515E-02 
642	 8.27463198034034E-02 
643	 8.28994945825699E-02 
644	 0.083063374095753 
645	 8.32420628983632E-02 
646	 0.083401911262659 
647	 8.35705341040154E-02 
648	 0.083737234359004 
649	 8.38985088818171E-02 
650	 8.41329445555901E-02 
651	 8.43381190985038E-02 
652	 8.45044012440904E-02 
653	 8.47053942492238E-02 
654	 8.49238960299944E-02 
655	 8.51142299107457E-02 
656	 8.52769691924954E-02 
657	 8.55466095264562E-02 
658	 8.58012706687668E-02 
659	 8.60240161448173E-02 
660	 8.62442981831946E-02 
661	 0.086439064723749 
662	 8.66483537821824E-02 
663	 0.086896766090354 
664	 8.71808187673385E-02 
665	 8.74156520945756E-02 
666	 8.76653523853486E-02 
667	 8.79931255551897E-02 
668	 8.82683522361572E-02 
669	 8.85085714260832E-02 
670	 8.87720996152588E-02 
671	 8.91325414829327E-02 
672	 0.089399965849999 
673	 8.96732051648594E-02 
674	 9.00271804333933E-02 
675	 9.03596730257125E-02 
676	 9.07017334350873E-02 
677	 9.10192424115073E-02 
678	 0.091277508563877 
679	 9.16158675194621E-02 
680	 9.20094946383539E-02 
681	 9.24134657431008E-02 
682	 9.27782367819526E-02 
683	 9.31381435313537E-02 
684	 9.35127277522286E-02 
685	 9.39105502809938E-02 
686	 9.43147204473812E-02 
687	 9.47285043474951E-02 
688	 9.51349829680902E-02 
689	 9.55101267146303E-02 
690	 9.59194615177119E-02 
691	 9.63482453691036E-02 
692	 0.096779769555178 
693	 9.72186744745897E-02 
694	 9.76692878532231E-02 
695	 9.81236524820789E-02 
696	 9.85728524639579E-02 
697	 9.90308385591659E-02 
698	 9.94874012717188E-02 
699	 0.09994117466055 
700	 0.100400811491685 
701	 0.100878059218181 
702	 0.101368622193539 
703	 0.101860893581772 
704	 0.102334880538824 
705	 0.102822613444823 
706	 0.103313509465671 
707	 0.103779638582655 
708	 0.104248568969273 
709	 0.104763956661044 
710	 0.105305892636182 
711	 0.105763845212099 
712	 0.106234519194613 
713	 0.106725912263352 
714	 0.107215948782175 
715	 0.107661712085418 
716	 0.108121633250156 
717	 0.108595774941731 
718	 0.109043334965772 
719	 0.109508568624176 
720	 0.109964760771736 
721	 0.110392398733968 
722	 0.110803042864581 
723	 0.111239235134978 
724	 0.111675509940113 
725	 0.112068338474279 
726	 0.112421299180357 
727	 0.112748788345713 
728	 0.11307121024912 
729	 0.113409447274208 
730	 0.113717969034295 
731	 0.114015137503865 
732	 0.114315988511279 
733	 0.114599890991586 
734	 0.114870510697116 
735	 0.115104003026753 
736	 0.11527708215021 
737	 0.115431052782354 
738	 0.115597211201507 
739	 0.115767415933436 
740	 0.115892715262218 
741	 0.115983468832015 
742	 0.116053223635214 
743	 0.116114907312993 
744	 0.116178035112637 
745	 0.11621187827669 
746	 0.11622370776269 
747	 0.11623247510858 
748	 0.116199909530494 
749	 0.116125803072463 
750	 0.116036988872573 
751	 0.115985986653674 
752	 0.115917179072633 
753	 0.11579661340845 
754	 0.115624812265834 
755	 0.115483503797642 
756	 0.115320653247019 
757	 0.115137168327906 
758	 0.114957534810707 
759	 0.114767444247748 
760	 0.114551025603232 
761	 0.114321435656138 
762	 0.114125968386539 
763	 0.113860265722014 
764	 0.113593238789214 
765	 0.113376918300443 
766	 0.11308785808996 
767	 0.112800954762962 
768	 0.112515869568797 
769	 0.112204084042156 
770	 0.111927276659001 
771	 0.111634523832401 
772	 0.111312968918444 
773	 0.111006170140593 
774	 0.110711161608939 
775	 0.110395660022631 
776	 0.110047771268697 
777	 0.109728750241159 
778	 0.109413055170549 
779	 0.109099100404906 
780	 0.108790295667052 
781	 0.108454741192564 
782	 0.108142673830386 
783	 0.107845310250188 
784	 0.107492302686731 
785	 0.1071920675874 
786	 0.106886954050547 
787	 0.106539094844468 
788	 0.106237386889199 
789	 0.105923093703628 
790	 0.105598455062989 
791	 0.105285467613929 
792	 0.104986215970323 
793	 0.104686095157876 
794	 0.10438205108663 
795	 0.104083161016842 
796	 0.103799997503543 
797	 0.103513756860656 
798	 0.103220667690009 
799	 0.102952502835222 
800	 0.102684555376362 
801	 0.102403563827983 
802	 0.102113987770271 
803	 0.101872963727211 
804	 0.10162674220748 
805	 0.101355402786463 
806	 0.101069217233956 
807	 0.10081055676563 
808	 0.100576185536849 
809	 0.100354790605583 
810	 0.100132404633956 
811	 0.099923660018376 
812	 9.96989339189615E-02 
813	 0.099449642774327 
814	 9.92523254124439E-02 
815	 9.90295939649183E-02 
816	 9.88048707954775E-02 
817	 9.86237235324053E-02 
818	 9.84082775777343E-02 
819	 9.82108077742637E-02 
820	 9.80425760547246E-02 
821	 9.78750355884966E-02 
822	 9.77219024483745E-02 
823	 9.75505684599476E-02 
824	 9.73553039984488E-02 
825	 9.71827612330044E-02 
826	 0.097047472490351 
827	 9.69136460411761E-02 
828	 0.096754342538837 
829	 9.66230743009883E-02 
830	 9.64577330996713E-02 
831	 9.63037841629212E-02 
832	 9.62315972691019E-02 
833	 9.61252306350432E-02 
834	 9.59845819577832E-02 
835	 9.58383426667417E-02 
836	 9.57305025050788E-02 
837	 9.56424197313034E-02 
838	 9.55498623162117E-02 
839	 9.54480587601514E-02 
840	 9.53670836125053E-02 
841	 9.52896360560551E-02 
842	 9.52019190241029E-02 
843	 9.51132347005728E-02 
844	 9.51079547308815E-02 
845	 9.50594924066275E-02 
846	 9.49753482552229E-02 
847	 9.49146749549056E-02 
848	 9.48203732012089E-02 
849	 9.47635385060849E-02 
850	 0.094757264732276 
851	 9.47568651110292E-02 
852	 9.47407770730433E-02 
853	 9.46919742639888E-02 
854	 9.46300022172006E-02 
855	 0.09462044211538 
856	 9.46247724421602E-02 
857	 9.46336461235383E-02 
858	 9.46449108793798E-02 
859	 9.46600529280273E-02 
860	 9.46603912805622E-02 
861	 9.46662258635387E-02 
862	 0.094699720702669 
863	 9.47280358085455E-02 
864	 9.47412194774768E-02 
865	 9.47461687219411E-02 
866	 9.47587280321062E-02 
867	 9.47736547779321E-02 
868	 9.47993626599822E-02 
869	 9.48474289825443E-02 
870	 9.49276862878793E-02 
871	 9.50049537635026E-02 
872	 9.50725994554246E-02 
873	 9.51340837114425E-02 
874	 9.51993283385202E-02 
875	 9.52891670673163E-02 
876	 9.53678247708724E-02 
877	 9.54161322423988E-02 
878	 9.54954025912121E-02 
879	 9.55790489376723E-02 
880	 9.56713885383572E-02 
881	 0.095780654822003 
882	 9.58914125593623E-02 
883	 9.59984449616958E-02 
884	 9.61132962535187E-02 
885	 9.62483238362281E-02 
886	 9.63614759628189E-02 
887	 9.64867442484612E-02 
888	 9.66125548293694E-02 
889	 9.66989616894905E-02 
890	 9.68675250298055E-02 
891	 9.70254969187732E-02 
892	 9.71557186024585E-02 
893	 9.73598336430418E-02 
894	 9.74797837567795E-02 
895	 9.75943332612235E-02 
896	 9.77776310658805E-02 
897	 9.80099862905782E-02 
898	 9.81885848171553E-02 
899	 9.83507586746571E-02 
900	 9.85541109725599E-02 
901	 9.88038951300961E-02 
902	 9.90119839778766E-02 
903	 9.92029933488906E-02 
904	 9.94179084795544E-02 
905	 9.95918562404867E-02 
906	 0.099768827933071 
907	 0.099964158352502 
908	 0.100191869334894 
909	 0.10055080908083 
910	 0.100821771837504 
911	 0.101017924977527 
912	 0.101296371212075 
913	 0.101575021593054 
914	 0.101826574593961 
915	 0.102055788963129 
916	 0.102297584871546 
917	 0.102602288127608 
918	 0.10294400669435 
919	 0.103268321185735 
920	 0.103514994204304 
921	 0.103806285193123 
922	 0.10412916369296 
923	 0.104464171042956 
924	 0.104818805591553 
925	 0.105153485252795 
926	 0.105514293164035 
927	 0.10590011295141 
928	 0.106192324966241 
929	 0.106571956459634 
930	 0.106979690424574 
931	 0.107353371599032 
932	 0.107773474641023 
933	 0.108203278695876 
934	 0.108628173617816 
935	 0.109036696874523 
936	 0.109408877079489 
937	 0.109752184085642 
938	 0.110164402734019 
939	 0.110693688731878 
940	 0.111128713646777 
941	 0.111584049388871 
942	 0.112040185957388 
943	 0.112456735887628 
944	 0.112924994494977 
945	 0.113384592075254 
946	 0.113839810659281 
947	 0.114321398906061 
948	 0.114835320263193 
949	 0.115320686723105 
950	 0.115807102695143 
951	 0.116351100591141 
952	 0.116883147986718 
953	 0.117426624399799 
954	 0.117970711135874 
955	 0.118501291006806 
956	 0.119100133244729 
957	 0.119696221880316 
958	 0.120253776500887 
959	 0.120780876151076 
960	 0.121346756891917 
961	 0.121955613359207 
962	 0.122575250031331 
963	 0.123160810395893 
964	 0.123718843469294 
965	 0.124349737907163 
966	 0.125015138709401 
967	 0.125613392227933 
968	 0.126277203465189 
969	 0.126954871281493 
970	 0.127624948538622 
971	 0.128288235838623 
972	 0.128903761871972 
973	 0.12953695422059 
974	 0.130191673681215 
975	 0.130849177953366 
976	 0.131665455306849 
977	 0.132366364474362 
978	 0.133005312687977 
979	 0.133802343683564 
980	 0.134511892581513 
981	 0.135176894652998 
982	 0.135828094595384 
983	 0.136491871877005 
984	 0.137265103768971 
985	 0.137987674710954 
986	 0.138653830352187 
987	 0.139355267248599 
988	 0.140129749793483 
989	 0.140902061060407 
990	 0.141608402857852 
991	 0.142249583519848 
992	 0.143043910682336 
993	 0.143698049417962 
994	 0.144354786052602 
995	 0.145226177442642 
996	 0.145930403495386 
997	 0.146621196739579 
998	 0.147405709368779 
999	 0.148284715659399 
1000	 0.148991158829312 
1001	 0.150434956518224 
1002	 0.151185301904214 
1003	 0.151941310722414 
1004	 0.152666896694509 
1005	 0.153426118449141 
1006	 0.154160507813417 
1007	 0.154863435336326 
1008	 0.155538611003899 
1009	 0.156205634040275 
1010	 0.156868623170106 
1011	 0.15749059997508 
1012	 0.158175975682628 
1013	 0.158943574895007 
1014	 0.159630600713711 
1015	 0.160296796941884 
1016	 0.160954542962708 
1017	 0.161588875607536 
1018	 0.162153656397798 
1019	 0.162799897313746 
1020	 0.163474802943155 
1021	 0.164108902252287 
1022	 0.164742251615564 
1023	 0.165352421990224 
1024	 0.165950150317831 
1025	 0.166531868997902 
1026	 0.167101602542013 
1027	 0.167706329118885 
1028	 0.168307677972624 
1029	 0.168899733540639 
1030	 0.169444952672068 
1031	 0.1699618739955 
1032	 0.170430097978191 
1033	 0.17093516484997 
1034	 0.171445442798683 
1035	 0.171964078804069 
1036	 0.172536209337234 
1037	 0.173100543870385 
1038	 0.17362543262545 
1039	 0.174142772863059 
1040	 0.174644987967644 
1041	 0.17511851947181 
1042	 0.17561816309446 
1043	 0.176132316555118 
1044	 0.176640638502668 
1045	 0.177159359112431 
1046	 0.177698792103713 
1047	 0.178238019874921 
1048	 0.178764434780211 
1049	 0.179281783737709 
1050	 0.179803718493741 
1051	 0.180267848338929 
1052	 0.180679468303449 
1053	 0.181156190873356 
1054	 0.181615168474907 
1055	 0.182074465816049 
1056	 0.182632747980479 
1057	 0.183139301119153 
1058	 0.183619576381174 
1059	 0.184118121869803 
1060	 0.184625950002676 
1061	 0.185095061969137 
1062	 0.185586897361919 
1063	 0.186120297171076 
1064	 0.186612152539398 
1065	 0.187036320133929 
1066	 0.18749710511705 
1067	 0.187972337046142 
1068	 0.188394566308422 
1069	 0.188878919144338 
1070	 0.18935576564421 
1071	 0.189820037954701 
1072	 0.19026308512768 
1073	 0.190713722479948 
1074	 0.191162662828183 
1075	 0.191586337754441 
1076	 0.192014012470772 
1077	 0.192456571458277 
1078	 0.192893229103405 
1079	 0.193308256193549 
1080	 0.193730113646085 
1081	 0.194173795801584 
1082	 0.19456064753838 
1083	 0.194966124931742 
1084	 0.19536271188275 
1085	 0.195777643516843 
1086	 0.196193983510122 
1087	 0.196636324621882 
1088	 0.197108302294819 
1089	 0.197541582394634 
1090	 0.197995227717778 
1091	 0.198413781621493 
1092	 0.198794450455654 
1093	 0.19918106740765 
1094	 0.19957896867035 
1095	 0.19997054187686 
1096	 0.200379342233474 
1097	 0.200801407078179 
1098	 0.201225993589343 
1099	 0.201657719369613 
1100	 0.202088571949372 
1101	 0.202524195420211 
1102	 0.20295585496099 
1103	 0.203379578017661 
1104	 0.203809491885635 
1105	 0.204259928276957 
1106	 0.204733903569704 
1107	 0.205189283091349 
1108	 0.205641274754897 
1109	 0.206094177690154 
1110	 0.206537591504296 
1111	 0.206987942341286 
1112	 0.207446627306523 
1113	 0.207897145526383 
1114	 0.208336384369523 
1115	 0.208802648853666 
1116	 0.209292857890451 
1117	 0.209768424732539 
1118	 0.210264398359243 
1119	 0.210718465051976 
1120	 0.211167686174005 
1121	 0.211618584875853 
1122	 0.212076296218137 
1123	 0.212523330141026 
1124	 0.212982769444419 
1125	 0.213454462933798 
1126	 0.213916921627573 
1127	 0.214376153028957 
1128	 0.214839536068005 
1129	 0.21530316179576 
1130	 0.215753392083717 
1131	 0.216209232258215 
1132	 0.216655002044946 
1133	 0.217075500065675 
1134	 0.21751425327815 
1135	 0.217967576325865 
1136	 0.218401819926015 
1137	 0.218828891809868 
1138	 0.219262935107737 
1139	 0.219707837587333 
1140	 0.220155904088917 
1141	 0.2205895519154 
1142	 0.221046622873823 
1143	 0.221464243758924 
1144	 0.221843501026549 
1145	 0.222239138964003 
1146	 0.22263054099091 
1147	 0.223015344992903 
1148	 0.223393409407425 
1149	 0.223773348804233 
1150	 0.224152522979643 
1151	 0.224525649540336 
1152	 0.224894117422081 
1153	 0.225278683228578 
1154	 0.225650937223787 
1155	 0.226024751728706 
1156	 0.226379580943419 
1157	 0.226721723574433 
1158	 0.22706532480668 
1159	 0.227393920572916 
1160	 0.227730982845632 
1161	 0.228079095375561 
1162	 0.228418373742436 
1163	 0.22876125540278 
1164	 0.229087457661441 
1165	 0.229403742608921 
1166	 0.229712961821701 
1167	 0.230029975189585 
1168	 0.23032843415602 
1169	 0.230628479462143 
1170	 0.230936015629026 
1171	 0.231227046050997 
1172	 0.231506358833831 
1173	 0.231780028584406 
1174	 0.232044385397996 
1175	 0.232309153147298 
1176	 0.232564413828871 
1177	 0.232824025739353 
1178	 0.233083801451522 
1179	 0.23334526217076 
1180	 0.233610675557149 
1181	 0.233870448590611 
1182	 0.234133026807207 
1183	 0.234392883395453 
1184	 0.234637047946198 
1185	 0.234871960613982 
1186	 0.235102102228544 
1187	 0.235315222741617 
1188	 0.235542089435367 
1189	 0.235785920772164 
1190	 0.235993642433036 
1191	 0.236173512992124 
1192	 0.236381991127038 
1193	 0.236576131913728 
1194	 0.236785391796339 
1195	 0.237037763768613 
1196	 0.237261416071202 
1197	 0.237476403728969 
1198	 0.237677773907238 
1199	 0.237868308206291 
1200	 0.238043765318109 
1201	 0.238228704929271 
1202	 0.238404266598131 
1203	 0.238585333260232 
1204	 0.23878188892836 
1205	 0.238953495039628 
1206	 0.239114978188166 
1207	 0.23926840919706 
1208	 0.239392593510098 
1209	 0.239545110014395 
1210	 0.239708436855566 
1211	 0.239865885419312 
1212	 0.240043225707498 
1213	 0.240203915242367 
1214	 0.240349623849641 
1215	 0.240494574671732 
1216	 0.240635765585046 
1217	 0.240773330723109 
1218	 0.240908082594394 
1219	 0.24103934637032 
1220	 0.24116694462901 
1221	 0.241291190696339 
1222	 0.24141323152874 
1223	 0.241531271651354 
1224	 0.24164824330424 
1225	 0.241756793368013 
1226	 0.241876337226968 
1227	 0.242014717756066 
1228	 0.242126455579921 
1229	 0.242217708914363 
1230	 0.242328394094982 
1231	 0.24243442878618 
1232	 0.242537989587452 
1233	 0.242646523944749 
1234	 0.242778867544357 
1235	 0.242887430540128 
1236	 0.242984829254537 
1237	 0.243072159071517 
1238	 0.243150436059631 
1239	 0.243233415454397 
1240	 0.243300972070674 
1241	 0.243379602051524 
1242	 0.243466761588643 
1243	 0.243555982861222 
1244	 0.243639426407407 
1245	 0.243735430440547 
1246	 0.243853931227102 
1247	 0.2439567126968 
1248	 0.244067717975251 
1249	 0.244163329242085 
1250	 0.244227707667035 
1251	 0.244288803996332 
1252	 0.244359507246424 
1253	 0.244423371294425 
1254	 0.244487409289327 
1255	 0.2445625901958 
1256	 0.244626299803345 
1257	 0.244674959398129 
1258	 0.24473032919969 
1259	 0.244783503959988 
1260	 0.244847530036741 
1261	 0.244921040873595 
1262	 0.244984036510337 
1263	 0.245057148455386 
1264	 0.245117221149532 
1265	 0.245158215788224 
1266	 0.245205398443289 
1267	 0.245250618785597 
1268	 0.245295250774821 
1269	 0.245345697458922 
1270	 0.245395775449791 
1271	 0.245451396410823 
1272	 0.245512593901131 
1273	 0.24557654329285 
1274	 0.245638206388654 
1275	 0.245716220204288 
1276	 0.245800371596397 
1277	 0.245898123554799 
1278	 0.246021883946045 
1279	 0.246129927521329 
1280	 0.246245277627203 
1281	 0.246349624359622 
1282	 0.246444631607801 
1283	 0.246534326033914 
1284	 0.246623718323149 
1285	 0.246692642458738 
1286	 0.2467781853255 
1287	 0.246879027887686 
1288	 0.246959122468045 
1289	 0.24704967251396 
1290	 0.247116649750953 
1291	 0.247160157440247 
1292	 0.247203223837493 
1293	 0.247240734158957 
1294	 0.247271375989644 
1295	 0.247289309202854 
1296	 0.247306438379082 
1297	 0.24732293824234 
1298	 0.247329324652133 
1299	 0.24733007216038 
1300	 0.247322021376627 
1301	 0.247286038430463 
1302	 0.247276555055989 
1303	 0.247277431063769 
1304	 0.247277163059567 
1305	 0.247283775521776 
1306	 0.247288027977125 
1307	 0.247263475475852 
1308	 0.247237004192743 
1309	 0.247219656285342 
1310	 0.247208184291433 
1311	 0.247185461430966 
1312	 0.247155272341674 
1313	 0.247140591451594 
1314	 0.24712885379718 
1315	 0.247107827399954 
1316	 0.247092874850456 
1317	 0.247080943951597 
1318	 0.247056292392247 
1319	 0.247043852970401 
1320	 0.247049199400804 
1321	 0.247048109950722 
1322	 0.247040331842096 
1323	 0.247033675007471 
1324	 0.247056238017255 
1325	 0.247079300639607 
1326	 0.247099736211243 
1327	 0.247135802616285 
1328	 0.247178938801354 
1329	 0.247230333642472 
1330	 0.247290267155116 
1331	 0.247376249651332 
1332	 0.247444921799242 
1333	 0.247504789581447 
1334	 0.247574182396587 
1335	 0.247643660507578 
1336	 0.247721194479924 
1337	 0.247811338330535 
1338	 0.247890292195707 
1339	 0.247970467042426 
1340	 0.248047514320322 
1341	 0.24810995127459 
1342	 0.248189719829237 
1343	 0.248286195030203 
1344	 0.248364677179584 
1345	 0.248453749068022 
1346	 0.248538320859671 
1347	 0.248626611182619 
1348	 0.248723113172362 
1349	 0.248797908077164 
1350	 0.248882883813469 
1351	 0.248988243262597 
1352	 0.249102474163698 
1353	 0.249205825707229 
1354	 0.249337536390355 
1355	 0.249436137809498 
1356	 0.249501260543384 
1357	 0.249580235554315 
1358	 0.249663229088113 
1359	 0.249740206587119 
1360	 0.249803817770938 
1361	 0.249878115943163 
1362	 0.249962751169109 
1363	 0.250036487528876 
1364	 0.250116150466015 
1365	 0.250183808322714 
1366	 0.250245919723995 
1367	 0.250291516494595 
1368	 0.250316462856861 
1369	 0.250348475586855 
1370	 0.250379565310264 
1371	 0.250400421877616 
1372	 0.250431018275769 
1373	 0.250460131175029 
1374	 0.25047418168716 
1375	 0.250480807283637 
1376	 0.250472650522694 
1377	 0.250460793708401 
1378	 0.250420736477641 
1379	 0.250361317215188 
1380	 0.250284606786086 
1381	 0.250179333656101 
1382	 0.250076834833798 
1383	 0.24996989753028 
1384	 0.249842548147221 
1385	 0.249713662295073 
1386	 0.249557146216038 
1387	 0.249368979053183 
1388	 0.249180853046815 
1389	 0.248990234395399 
1390	 0.248766417690638 
1391	 0.248535274449137 
1392	 0.2482925337982 
1393	 0.248020465973335 
1394	 0.247733397181206 
1395	 0.24742032376667 
1396	 0.247080931616743 
1397	 0.24673645712068 
1398	 0.246366971261111 
1399	 0.246000901303026 
1400	 0.245631592362584 
1401	 0.245259195953469 
1402	 0.244871625891344 
1403	 0.244495610896741 
1404	 0.244121649371758 
1405	 0.243750872460457 
1406	 0.243385397780931 
1407	 0.243019607556814 
1408	 0.242643240962448 
1409	 0.242289088866842 
1410	 0.241936751620478 
1411	 0.241609278513958 
1412	 0.241298926600753 
1413	 0.241011544138934 
1414	 0.240739243214479 
1415	 0.240489029937226 
1416	 0.240269419758317 
1417	 0.240059343654274 
1418	 0.239863387926076 
1419	 0.239679610527556 
1420	 0.239497829193917 
1421	 0.239326507915341 
1422	 0.239183695969474 
1423	 0.239058334592989 
1424	 0.238940806132136 
1425	 0.238849831707201 
1426	 0.238750982147685 
1427	 0.238650904302275 
1428	 0.238562771362511 
1429	 0.238481913953471 
1430	 0.238405019716923 
1431	 0.238328082254139 
1432	 0.238273676697006 
1433	 0.238237902040063 
1434	 0.238196961427138 
1435	 0.238163230013225 
1436	 0.238142176112287 
1437	 0.238121193637602 
1438	 0.238110581998442 
1439	 0.238127006280154 
1440	 0.238129922719076 
1441	 0.238119741811672 
1442	 0.238118933665747 
1443	 0.238106923879772 
1444	 0.238118935199317 
1445	 0.238153338177524 
1446	 0.238179692022407 
1447	 0.238222664241045 
1448	 0.238261554631429 
1449	 0.238274280900373 
1450	 0.238294501284458 
1451	 0.238327180043785 
1452	 0.238359872890325 
1453	 0.238401441900168 
1454	 0.238466147688834 
1455	 0.238508878025974 
1456	 0.238540549814419 
1457	 0.23858043566066 
1458	 0.238619849522255 
1459	 0.238658256822181 
1460	 0.238696882180551 
1461	 0.238741153409088 
1462	 0.238771273916824 
1463	 0.238828016919778 
1464	 0.238905961171901 
1465	 0.238982157604276 
1466	 0.239075100057337 
1467	 0.2391684064423 
1468	 0.239257858119328 
1469	 0.239356573048003 
1470	 0.239463955326147 
1471	 0.239573880757241 
1472	 0.239682767334892 
1473	 0.239804632103078 
1474	 0.239939791452241 
1475	 0.240056265863275 
1476	 0.240191597378891 
1477	 0.240339360373575 
1478	 0.240480668527242 
1479	 0.240637217515382 
1480	 0.24078353095926 
1481	 0.240910940858447 
1482	 0.241032089273051 
1483	 0.241134297046296 
1484	 0.241255734458055 
1485	 0.241367880030514 
1486	 0.241505240976325 
1487	 0.241674089505954 
1488	 0.241811438410399 
1489	 0.241943462776087 
1490	 0.242081555813994 
1491	 0.24220424193243 
1492	 0.242340659746456 
1493	 0.242498868530234 
1494	 0.242638477781328 
1495	 0.242768322996924 
1496	 0.242897714064666 
1497	 0.243019952528986 
1498	 0.243145323596838 
1499	 0.243283213604716 
1500	 0.243401944424792 
1501	 0.243501581681164 
1502	 0.243612272220249 
1503	 0.243719787892609 
1504	 0.243818873605093 
1505	 0.243931100200282 
1506	 0.244056700780995 
1507	 0.244173549934505 
1508	 0.24428475021997 
1509	 0.244393597513825 
1510	 0.244500240446941 
1511	 0.244621434523957 
1512	 0.244735509407162 
1513	 0.24484588848915 
1514	 0.24497084354117 
1515	 0.245088872555208 
1516	 0.245205943311542 
1517	 0.245310741132461 
1518	 0.245411158753902 
1519	 0.245517337509764 
1520	 0.245616573863292 
1521	 0.24570675031112 
1522	 0.245801224496826 
1523	 0.245890101921545 
1524	 0.245960327337044 
1525	 0.246041004480156 
1526	 0.246133830033808 
1527	 0.246218484706525 
1528	 0.246294577572144 
1529	 0.246374233284363 
1530	 0.24645956287539 
1531	 0.246534788787779 
1532	 0.246603438831815 
1533	 0.246673589221396 
1534	 0.246731958037083 
1535	 0.246805124682342 
1536	 0.246890271001171 
1537	 0.246967303197537 
1538	 0.247053243958048 
1539	 0.247129978237388 
1540	 0.247188638247594 
1541	 0.247260111385321 
1542	 0.247346870872586 
1543	 0.247413182162429 
1544	 0.247473304057031 
1545	 0.247535874833357 
1546	 0.247588334075891 
1547	 0.247630293312265 
1548	 0.247696151578602 
1549	 0.24776013482783 
1550	 0.247823015021208 
1551	 0.247891940147402 
1552	 0.247951642848873 
1553	 0.247993487256464 
1554	 0.248029525603121 
1555	 0.248087069485974 
1556	 0.248147579349537 
1557	 0.248218089112214 
1558	 0.248302655802888 
1559	 0.248351672981067 
1560	 0.248405208015951 
1561	 0.248457312193627 
1562	 0.248500605785386 
1563	 0.248525656423982 
1564	 0.248570955616602 
1565	 0.248619189816287 
1566	 0.248664908505992 
1567	 0.248717444868684 
1568	 0.248772793883678 
1569	 0.248829632802997 
1570	 0.248880060698736 
1571	 0.248937283423059 
1572	 0.24898510525575 
1573	 0.249014077470996 
1574	 0.249057811134646 
1575	 0.249107400462081 
1576	 0.249159523536801 
1577	 0.24923353576506 
1578	 0.249272395761742 
1579	 0.24929400913363 
1580	 0.249313214715782 
1581	 0.249297673001459 
1582	 0.249311845356643 
1583	 0.249342477691214 
1584	 0.249373227466976 
1585	 0.249416559000154 
1586	 0.249453232115376 
1587	 0.24948203591474 
1588	 0.249522995214617 
1589	 0.249572001286082 
1590	 0.249616326915868 
1591	 0.249673022319384 
1592	 0.249718523144314 
1593	 0.249755534376548 
1594	 0.249790176344567 
1595	 0.249813874783048 
1596	 0.249844302654268 
1597	 0.249876755444546 
1598	 0.249905479558512 
1599	 0.249941507738316 
1600	 0.249970051813106 
1601	 0.249977198042191 
1602	 0.250005691784199 
1603	 0.250052890921494 
1604	 0.250084682288544 
1605	 0.250127247258048 
1606	 0.250159139117116 
1607	 0.250176810323228 
1608	 0.250180532019746 
1609	 0.250201906947397 
1610	 0.250220030370398 
1611	 0.250257179237551 
1612	 0.2503074276105 
1613	 0.250345102792908 
1614	 0.250387881115989 
1615	 0.250431296187087 
1616	 0.250448394925931 
1617	 0.25046062492482 
1618	 0.2504925381536 
1619	 0.250510677190652 
1620	 0.25052293422372 
1621	 0.250547477933478 
1622	 0.250582739601536 
1623	 0.250614067856049 
1624	 0.250650110580171 
1625	 0.250676004008362 
1626	 0.250700336826752 
1627	 0.250721120009203 
1628	 0.250738559718409 
1629	 0.2507420212875 
1630	 0.250744898654311 
1631	 0.250729930329732 
1632	 0.25068416472952 
1633	 0.250670560295908 
1634	 0.250658583326771 
1635	 0.250657800490973 
1636	 0.250670908691782 
1637	 0.250691976442188 
1638	 0.250728682682196 
1639	 0.250746116390788 
1640	 0.25076710726651 
1641	 0.250785767358267 
1642	 0.250788054097982 
1643	 0.25080013152815 
1644	 0.250826810243885 
1645	 0.250837259151251 
1646	 0.25083339607412 
1647	 0.25084156751136 
1648	 0.250847834596035 
1649	 0.250864404484234 
1650	 0.250901212995869 
1651	 0.250907317251816 
1652	 0.250902261331895 
1653	 0.250900925674458 
1654	 0.25087519490447 
1655	 0.250875975675872 
1656	 0.250897137408301 
1657	 0.250909417692274 
1658	 0.250924897933418 
1659	 0.25093939398504 
1660	 0.250961228600279 
1661	 0.250964278216222 
1662	 0.250961457937735 
1663	 0.250951673638718 
1664	 0.250921104252984 
1665	 0.250903782074368 
1666	 0.250879767171046 
1667	 0.250878657681306 
1668	 0.250895272408898 
1669	 0.250902428272509 
1670	 0.250929388739245 
1671	 0.250931951378322 
1672	 0.250909781315343 
1673	 0.250906103511385 
1674	 0.250903433560582 
1675	 0.250900330364289 
1676	 0.250912344305216 
1677	 0.250902485547285 
1678	 0.250871344434856 
1679	 0.250859648452327 
1680	 0.250858384985465 
1681	 0.250833796914872 
1682	 0.250792928476037 
1683	 0.250781703660862 
1684	 0.250764428218382 
1685	 0.250757947225473 
1686	 0.250784920592694 
1687	 0.250799829533473 
1688	 0.250798350724115 
1689	 0.250814809887246 
1690	 0.250858975950454 
1691	 0.250877917185792 
1692	 0.250893300072642 
1693	 0.25089273166844 
1694	 0.250864086352701 
1695	 0.25086159784907 
1696	 0.250866784856146 
1697	 0.250861670784857 
1698	 0.250870996696246 
1699	 0.250860673225179 
1700	 0.250831968165861 
1701	 0.25080282098575 
1702	 0.25077884013208 
1703	 0.250725094950093 
1704	 0.250622513415408 
1705	 0.250582390727882 
1706	 0.250552058311887 
1707	 0.250536326996486 
1708	 0.250582688375657 
1709	 0.250577664936115 
1710	 0.250533696176873 
1711	 0.250524754450758 
1712	 0.250519258555915 
1713	 0.250520710323442 
1714	 0.250545911192783 
1715	 0.250556729412807 
1716	 0.250572659944608 
1717	 0.250559433464911 
1718	 0.250531648381634 
1719	 0.250504402508889 
1720	 0.250455380258955 
1721	 0.250412388583545 
1722	 0.250367242517655 
1723	 0.250334194766193 
1724	 0.25029868900171 
1725	 0.250268158665958 
1726	 0.250257314786113 
1727	 0.250236642594021 
1728	 0.250214245440769 
1729	 0.250172772068802 
1730	 0.250126424648396 
1731	 0.250074719069614 
1732	 0.249997480538738 
1733	 0.249946106510917 
1734	 0.249907988196586 
1735	 0.249860558882236 
1736	 0.249808153712533 
1737	 0.249778881671993 
1738	 0.249771617936545 
1739	 0.249721561185396 
1740	 0.249671819355977 
1741	 0.249605549291126 
1742	 0.249492241261189 
1743	 0.249425830897354 
1744	 0.249393136839274 
1745	 0.249316447407142 
1746	 0.249230914815617 
1747	 0.249131007449497 
1748	 0.249017607545942 
1749	 0.248943946901148 
1750	 0.248893840767963 
1751	 0.248865574183858 
1752	 0.248830921629046 
1753	 0.248769417415934 
1754	 0.248700011777782 
1755	 0.248627108234118 
1756	 0.248555403064387 
1757	 0.248477401949563 
1758	 0.248423410191401 
1759	 0.248362045434696 
1760	 0.24829691341444 
1761	 0.24825406384945 
1762	 0.248184396892168 
1763	 0.248119518534043 
1764	 0.248048510892714 
1765	 0.247969435631408 
1766	 0.247927564044961 
1767	 0.247878638426799 
1768	 0.247828779108307 
1769	 0.247791422298307 
1770	 0.247753038837502 
1771	 0.247726062875359 
1772	 0.247708436378513 
1773	 0.247698074078787 
1774	 0.247670429768873 
1775	 0.247622940067563 
1776	 0.247565351526918 
1777	 0.247514481381376 
1778	 0.247481382912946 
1779	 0.24743807770701 
1780	 0.247400956383013 
1781	 0.247364438883625 
1782	 0.247334530816497 
1783	 0.247350592247802 
1784	 0.247339974621766 
1785	 0.247336028367982 
1786	 0.247317550732213 
1787	 0.247262367655242 
1788	 0.247243687845715 
1789	 0.24724970174774 
1790	 0.247239091987326 
1791	 0.247232768734609 
1792	 0.247226798910915 
1793	 0.247208504554589 
1794	 0.247192357011 
1795	 0.247192791949013 
1796	 0.247171655964855 
1797	 0.247132169383696 
1798	 0.247105997586881 
1799	 0.247057240826776 
1800	 0.247057470743788 
1801	 0.243346342648252 
1802	 0.243372820734081 
1803	 0.243442145729462 
1804	 0.243491199178898 
1805	 0.243528538356458 
1806	 0.243573957888711 
1807	 0.243597422489396 
1808	 0.243606479114478 
1809	 0.243617853220174 
1810	 0.243630926139663 
1811	 0.243625454717409 
1812	 0.243594669819509 
1813	 0.243640427381992 
1814	 0.243662730413957 
1815	 0.243671514497813 
1816	 0.243730928260851 
1817	 0.243773742103231 
1818	 0.24382217211284 
1819	 0.243841058911848 
1820	 0.243863447483183 
1821	 0.243859966455976 
1822	 0.243819269050908 
1823	 0.243787181876634 
1824	 0.24377709786287 
1825	 0.243762837701268 
1826	 0.243763528396792 
1827	 0.243772825921433 
1828	 0.243765424698668 
1829	 0.243752636369734 
1830	 0.243741858185949 
1831	 0.243716494162811 
1832	 0.243701509733499 
1833	 0.243713368979373 
1834	 0.243698058639122 
1835	 0.243702400186432 
1836	 0.243714124985509 
1837	 0.243672914124578 
1838	 0.243637588164067 
1839	 0.243602884110885 
1840	 0.243555550732479 
1841	 0.243493938752911 
1842	 0.243472526186338 
1843	 0.24346125864456 
1844	 0.243436774950167 
1845	 0.243389166950993 
1846	 0.243334517292433 
1847	 0.243266121304783 
1848	 0.24317595349021 
1849	 0.243086330118334 
1850	 0.242983030537483 
1851	 0.242860403311212 
1852	 0.242725179602902 
1853	 0.242599336836769 
1854	 0.24249096104272 
1855	 0.242385088496147 
1856	 0.242292842063595 
1857	 0.242214841182464 
1858	 0.242100862754133 
1859	 0.241969428344956 
1860	 0.241825246726142 
1861	 0.241660924861007 
1862	 0.241488122681071 
1863	 0.24130710938907 
1864	 0.241082137979825 
1865	 0.24083261107702 
1866	 0.240542383437762 
1867	 0.240207105228003 
1868	 0.239865274953372 
1869	 0.239528012430448 
1870	 0.239157893559165 
1871	 0.238734672285648 
1872	 0.238274082790371 
1873	 0.237798983549483 
1874	 0.237274955740415 
1875	 0.236682743929463 
1876	 0.236083387914642 
1877	 0.235442997238754 
1878	 0.234728069254533 
1879	 0.233966267782376 
1880	 0.233152563591726 
1881	 0.232280438963734 
1882	 0.231365085605207 
1883	 0.230400873694641 
1884	 0.229384025985758 
1885	 0.228317800024317 
1886	 0.22719329283125 
1887	 0.225993902884308 
1888	 0.224726534428837 
1889	 0.223427832329587 
1890	 0.222094640037211 
1891	 0.220730084973364 
1892	 0.21931418287638 
1893	 0.217902621349803 
1894	 0.216463475129973 
1895	 0.215010359792845 
1896	 0.213541080977998 
1897	 0.212092660952811 
1898	 0.210645321418923 
1899	 0.209178201098595 
1900	 0.207758445008831 
1901	 0.206367331708937 
1902	 0.20502935179792 
1903	 0.203737871963926 
1904	 0.202494847769951 
1905	 0.201293681796271 
1906	 0.200156777375025 
1907	 0.199051802972992 
1908	 0.19800672716021 
1909	 0.197033640664003 
1910	 0.196115804729977 
1911	 0.195272405162561 
1912	 0.194479910897769 
1913	 0.193739810214919 
1914	 0.19306050410655 
1915	 0.19241984968665 
1916	 0.191823972993314 
1917	 0.191283258028381 
1918	 0.190788250006308 
1919	 0.190321731355276 
1920	 0.189915287835252 
1921	 0.189550650237281 
1922	 0.189223734298745 
1923	 0.188942426381502 
1924	 0.188695314696355 
1925	 0.188495074443107 
1926	 0.188318445096287 
1927	 0.188177376244747 
1928	 0.188058970801457 
1929	 0.187972745512795 
1930	 0.187907931237594 
1931	 0.187863205780555 
1932	 0.187863989567071 
1933	 0.187897768605533 
1934	 0.18795737395408 
1935	 0.188038468259434 
1936	 0.188157102523659 
1937	 0.18828309986391 
1938	 0.188417675386537 
1939	 0.188579311908771 
1940	 0.188766693127228 
1941	 0.188974359247481 
1942	 0.189188637834771 
1943	 0.189429951407683 
1944	 0.189660287952231 
1945	 0.189890182196498 
1946	 0.190134587129604 
1947	 0.190390775034586 
1948	 0.190636202115803 
1949	 0.190870879046905 
1950	 0.191143894930464 
1951	 0.191427261131814 
1952	 0.191721807383634 
1953	 0.192043890693497 
1954	 0.192360199785678 
1955	 0.192650491713625 
1956	 0.192949249840121 
1957	 0.193267094660594 
1958	 0.193582787523509 
1959	 0.193939509423907 
1960	 0.194337183906827 
1961	 0.19472072282049 
1962	 0.195147323077704 
1963	 0.195541295075102 
1964	 0.195921022630424 
1965	 0.196276925362793 
1966	 0.196639184337043 
1967	 0.197007430463875 
1968	 0.197394237059852 
1969	 0.197800523319319 
1970	 0.198196293568614 
1971	 0.198604635412988 
1972	 0.199005370953602 
1973	 0.199391744400293 
1974	 0.199789527257516 
1975	 0.200204937235912 
1976	 0.200598933310281 
1977	 0.200996895487215 
1978	 0.201403333345843 
1979	 0.201791918111478 
1980	 0.202210838793505 
1981	 0.202620831919246 
1982	 0.203029173711588 
1983	 0.203442506721713 
1984	 0.203866414406902 
1985	 0.204280409500197 
1986	 0.204706642509214 
1987	 0.205109715097001 
1988	 0.205498691394602 
1989	 0.205874877460736 
1990	 0.2062582116801 
1991	 0.206643140730123 
1992	 0.207030815433752 
1993	 0.207434572760504 
1994	 0.207826712919441 
1995	 0.208204815415176 
1996	 0.208594504331562 
1997	 0.208990621267321 
1998	 0.209387580579326 
1999	 0.209795309776548 
2000	 0.21019070848861 
2001	 0.210584607508952 
2002	 0.210972507917997 
2003	 0.211353040889861 
2004	 0.211730788434478 
2005	 0.212106281826442 
2006	 0.212480946558903 
2007	 0.212853614173083 
2008	 0.213226177203899 
2009	 0.213586075795921 
2010	 0.213944927279324 
2011	 0.214295776602862 
2012	 0.214615238653944 
2013	 0.214963238782833 
2014	 0.215332959371562 
2015	 0.215684872152482 
2016	 0.216050625769955 
2017	 0.216409482356732 
2018	 0.216751034529791 
2019	 0.217073299652834 
2020	 0.21739738805226 
2021	 0.217711023949028 
2022	 0.218027238780406 
2023	 0.218346406384032 
2024	 0.218651893707293 
2025	 0.218936438669243 
2026	 0.219239413105764 
2027	 0.219548049315436 
2028	 0.219843996168865 
2029	 0.220156459657441 
2030	 0.220489346154041 
2031	 0.220809300736943 
2032	 0.221139099210419 
2033	 0.221439645504737 
2034	 0.221727502486489 
2035	 0.222013687179795 
2036	 0.222285030172527 
2037	 0.222545553760746 
2038	 0.222801848870165 
2039	 0.22305123165603 
2040	 0.22328009521853 
2041	 0.223503928463176 
2042	 0.223744816350135 
2043	 0.223999275206117 
2044	 0.224243423321853 
2045	 0.224488238433132 
2046	 0.22473704532911 
2047	 0.224986689945692 
2048	 0.225231882389887 
2049	 0.225487295102956 
2050	 0.225728198700684 
2051	 0.225958794624229 
2052	 0.226184589684741 
2053	 0.226400782139525 
2054	 0.226615303323282 
2055	 0.226815904971187 
2056	 0.227026970937946 
2057	 0.227241875516216 
2058	 0.22746019761244 
2059	 0.227679711534316 
2060	 0.227914210428833 
2061	 0.228126448822927 
2062	 0.228319533986869 
2063	 0.228531883441115 
2064	 0.228744168384965 
2065	 0.228956109888126 
2066	 0.229189203097042 
2067	 0.229403342502361 
2068	 0.229611446279254 
2069	 0.229799150310832 
2070	 0.22999400463898 
2071	 0.230187116082649 
2072	 0.230371649827703 
2073	 0.230545627322083 
2074	 0.230730958914707 
2075	 0.230914011362926 
2076	 0.231096599190357 
2077	 0.231280947300533 
2078	 0.231473181727647 
2079	 0.231669325445154 
2080	 0.231860543408391 
2081	 0.232067726976471 
2082	 0.232257889670802 
2083	 0.232429251537712 
2084	 0.232606531308575 
2085	 0.232775266458774 
2086	 0.232933556940449 
2087	 0.233101728518298 
2088	 0.23326839728856 
2089	 0.233437956734289 
2090	 0.233614627001221 
2091	 0.233785530586354 
2092	 0.233954110530752 
2093	 0.234121929772322 
2094	 0.2342909719887 
2095	 0.234455894854816 
2096	 0.234609863210246 
2097	 0.234776319209316 
2098	 0.234952024385532 
2099	 0.235122044314697 
2100	 0.235284416892707 
2101	 0.235449610904685 
2102	 0.235610684925111 
2103	 0.235749583122735 
2104	 0.235915172406231 
2105	 0.236100359917987 
2106	 0.236275753165059 
2107	 0.236450886612811 
2108	 0.236635666313652 
2109	 0.23682163222573 
2110	 0.237011502414519 
2111	 0.237216030264507 
2112	 0.237414625903803 
2113	 0.237611013786186 
2114	 0.237807531094315 
2115	 0.238003527385628 
2116	 0.238204219254779 
2117	 0.23839043563597 
2118	 0.238573699748459 
2119	 0.238746216011887 
2120	 0.238902187260343 
2121	 0.2390654346922 
2122	 0.239217616024795 
2123	 0.239385270697813 
2124	 0.239565007339479 
2125	 0.239737863066231 
2126	 0.239923798715697 
2127	 0.240093794098982 
2128	 0.240255865039175 
2129	 0.240408997913896 
2130	 0.240559574758248 
2131	 0.240694163073811 
2132	 0.240811031378435 
2133	 0.240914198977884 
2134	 0.241002220433696 
2135	 0.241080574394986 
2136	 0.241126464702717 
2137	 0.241143484904762 
2138	 0.241161017014716 
2139	 0.241139963531871 
2140	 0.241140182299867 
2141	 0.241147121078393 
2142	 0.241153770257991 
2143	 0.241179919504805 
2144	 0.241175663349521 
2145	 0.241158352019835 
2146	 0.241135443874772 
2147	 0.241092623072484 
2148	 0.241039866901827 
2149	 0.240986430680728 
2150	 0.240938497310252 
2151	 0.240865324129524 
2152	 0.240773734022962 
2153	 0.240681878020863 
2154	 0.240585886887825 
2155	 0.240468459978232 
2156	 0.240336412149757 
2157	 0.240201264411159 
2158	 0.240043156411311 
2159	 0.239890534477362 
2160	 0.239726227169762 
2161	 0.239581884611382 
2162	 0.239450168803558 
2163	 0.239309721045292 
2164	 0.239197085185435 
2165	 0.239052208952741 
2166	 0.238903514540438 
2167	 0.238730115170203 
2168	 0.238581278038027 
2169	 0.238434855948121 
2170	 0.238291083187315 
2171	 0.238167470027107 
2172	 0.238016022611073 
2173	 0.237839856413957 
2174	 0.237686005723179 
2175	 0.237521784721282 
2176	 0.237377326052729 
2177	 0.237271058023379 
2178	 0.237135948937239 
2179	 0.236997806595301 
2180	 0.236850903996943 
2181	 0.236679842645722 
2182	 0.2365171173028 
2183	 0.236361099134981 
2184	 0.236188859953506 
2185	 0.236031864655161 
2186	 0.235887395335527 
2187	 0.235721796618687 
2188	 0.235543880854482 
2189	 0.235384776376299 
2190	 0.235203504768714 
2191	 0.235067385885628 
2192	 0.234959033033587 
2193	 0.234866701449001 
2194	 0.234810456829481 
2195	 0.234743191188467 
2196	 0.234701491576327 
2197	 0.23463947704734 
2198	 0.234551290553211 
2199	 0.234486317634099 
2200	 0.234436752527848 
2201	 0.234375656225463 
2202	 0.234326322608202 
2203	 0.234258900756531 
2204	 0.234213959582024 
2205	 0.234157644437161 
2206	 0.234123525298663 
2207	 0.234124475775497 
2208	 0.234102848989736 
2209	 0.23406182053947 
2210	 0.234055959336531 
2211	 0.234066860494917 
2212	 0.234073397514694 
2213	 0.234104153204519 
2214	 0.23412128373947 
2215	 0.234128568550057 
2216	 0.234134918434102 
2217	 0.234151547476349 
2218	 0.234150992876106 
2219	 0.234121546881101 
2220	 0.234115313200479 
2221	 0.234133659532064 
2222	 0.234120826340268 
2223	 0.234075692283678 
2224	 0.234046409550176 
2225	 0.234021256583852 
2226	 0.233964580887183 
2227	 0.233941525902324 
2228	 0.233968522055079 
2229	 0.233943800126439 
2230	 0.233888115205227 
2231	 0.233852780726132 
2232	 0.233802773728099 
2233	 0.233781697464955 
2234	 0.233786445790755 
2235	 0.233777113548944 
2236	 0.233790128913113 
2237	 0.233768698020857 
2238	 0.233710518156252 
2239	 0.233678206214195 
2240	 0.233660733917778 
2241	 0.23361461145208 
2242	 0.233544684973006 
2243	 0.233505638231533 
2244	 0.233463037016672 
2245	 0.233417752172963 
2246	 0.233394601285461 
2247	 0.233386571301554 
2248	 0.233360684851026 
2249	 0.233304815913023 
2250	 0.233288428030545 
2251	 0.233300706129145 
2252	 0.233284106335355 
2253	 0.233264751501217 
2254	 0.233247249945963 
2255	 0.233222070255424 
2256	 0.233193557619838 
2257	 0.233166042931522 
2258	 0.233142132383285 
2259	 0.233106377033254 
2260	 0.233081579364491 
2261	 0.23306577944157 
2262	 0.233058361806777 
2263	 0.233049027365532 
2264	 0.23305170644283 
2265	 0.233089203498428 
2266	 0.23309759126508 
2267	 0.233094267103818 
2268	 0.233095115732007 
2269	 0.233093875252888 
2270	 0.23306309547556 
2271	 0.233070191032611 
2272	 0.233080491196277 
2273	 0.233040385978852 
2274	 0.233045832119988 
2275	 0.233048225641743 
2276	 0.233038916974503 
2277	 0.233041362041728 
2278	 0.233081405237806 
2279	 0.233079566114838 
2280	 0.233043575728676 
2281	 0.233050274349788 
2282	 0.233053040300655 
2283	 0.233075892761018 
2284	 0.233137667094702 
2285	 0.233180462821883 
2286	 0.233248895095514 
2287	 0.233264361606302 
2288	 0.233245464742642 
2289	 0.23323316030738 
2290	 0.23316624271098 
2291	 0.233149964084389 
2292	 0.233183513146479 
2293	 0.233186400938223 
2294	 0.233179459307729 
2295	 0.233183128860276 
2296	 0.233180248912593 
2297	 0.23317955138195 
2298	 0.233200322367749 
2299	 0.233207873063129 
2300	 0.233184915482611 
2301	 0.233185319544966 
2302	 0.233169419816332 
2303	 0.233165901633325 
2304	 0.233180357810825 
2305	 0.233158690231515 
2306	 0.233133488187585 
2307	 0.23310293711454 
2308	 0.233061462164427 
2309	 0.232999745297387 
2310	 0.232937729095813 
2311	 0.232868690935661 
2312	 0.232796724422662 
2313	 0.232711139505296 
2314	 0.232641598920176 
2315	 0.232587531917268 
2316	 0.232514169134551 
2317	 0.232410614122193 
2318	 0.232362103757658 
2319	 0.232320108397021 
2320	 0.232289173145741 
2321	 0.2323294547854 
2322	 0.232327465367503 
2323	 0.232303043319526 
2324	 0.232285812791457 
2325	 0.232261159056348 
2326	 0.232230969373848 
2327	 0.232196170489013 
2328	 0.232163807964974 
2329	 0.232113723497592 
2330	 0.232064868842435 
2331	 0.23201033458331 
2332	 0.231953749892435 
2333	 0.231914441657818 
2334	 0.231869458125789 
2335	 0.23179677066952 
2336	 0.231744384095385 
2337	 0.23169332414268 
2338	 0.231652014546895 
2339	 0.231621492871161 
2340	 0.231538429737322 
2341	 0.231490623213 
2342	 0.231429432302902 
2343	 0.231341234887879 
2344	 0.231320320670006 
2345	 0.231236571915982 
2346	 0.231116938299525 
2347	 0.230975569995319 
2348	 0.230797510187096 
2349	 0.23062844938928 
2350	 0.230406128427231 
2351	 0.23026033675357 
2352	 0.230161062597409 
2353	 0.230046986058382 
2354	 0.229997158560578 
2355	 0.229879380027243 
2356	 0.229715059919197 
2357	 0.229565530651826 
2358	 0.229383745150231 
2359	 0.229204962555207 
2360	 0.229028703563658 
2361	 0.228864425947998 
2362	 0.228712950940582 
2363	 0.228548299774014 
2364	 0.228372765642125 
2365	 0.228210254436997 
2366	 0.228044133447682 
2367	 0.22787591995546 
2368	 0.227713895651379 
2369	 0.227573163875886 
2370	 0.227466635560438 
2371	 0.227297346728404 
2372	 0.227098095413407 
2373	 0.226898228217218 
2374	 0.226650153815551 
2375	 0.226416749125057 
2376	 0.226229959857999 
2377	 0.226077616685802 
2378	 0.225892099705947 
2379	 0.225689021820294 
2380	 0.225513517279495 
2381	 0.225314514072289 
2382	 0.22515214477899 
2383	 0.22499412458805 
2384	 0.224805726021291 
2385	 0.224584601645753 
2386	 0.224294122722519 
2387	 0.22405889222714 
2388	 0.223818695682205 
2389	 0.223576743518629 
2390	 0.223378649682507 
2391	 0.223116948060634 
2392	 0.222885378872381 
2393	 0.222658373352988 
2394	 0.222458770405837 
2395	 0.222341280749087 
2396	 0.222103937019719 
2397	 0.22183755541744 
2398	 0.221629971162432 
2399	 0.221260642084211 
2400	 0.220921972898449 
2401	 0.220769636940166 
2402	 0.22052876156422 
2403	 0.220269259663942 
2404	 0.220065230296816 
2405	 0.219728648260322 
2406	 0.21937384697213 
2407	 0.219146377676834 
2408	 0.218945848084212 
2409	 0.218699131875114 
2410	 0.218493760368467 
2411	 0.218300051538447 
2412	 0.218047258772908 
2413	 0.217819236212546 
2414	 0.21751528019303 
2415	 0.217123745655223 
2416	 0.216822849341596 
2417	 0.216550908862756 
2418	 0.216218081087428 
2419	 0.215939929359901 
2420	 0.215639822215649 
2421	 0.215224347238673 
2422	 0.214920764289018 
2423	 0.214693164380139 
2424	 0.214428844936526 
2425	 0.2141162403263 
2426	 0.213949493195265 
2427	 0.213969900887404 
2428	 0.213792367750537 
2429	 0.213610527329033 
2430	 0.213387939615843 
2431	 0.212986602522837 
2432	 0.212632135642118 
2433	 0.212328708060322 
2434	 0.21201022903065 
2435	 0.211656981934378 
2436	 0.211314413508792 
2437	 0.211012397934555 
2438	 0.210670508473696 
2439	 0.210177570192284 
2440	 0.209891169282836 
2441	 0.209730890715982 
2442	 0.209538980581134 
2443	 0.209546182958216 
2444	 0.209340521939788 
2445	 0.208939982381287 
2446	 0.208694974119569 
2447	 0.208467609058771 
2448	 0.208214784801641 
2449	 0.20807196899241 
2450	 0.207766528435094 
2451	 0.207288598154071 
2452	 0.206891526039238 
2453	 0.206454546017784 
2454	 0.206075930097235 
2455	 0.205745922846423 
2456	 0.205452333634012 
2457	 0.205187290200086 
2458	 0.204918227628268 
2459	 0.204709974850306 
2460	 0.204495314557857 
2461	 0.204326520010438 
2462	 0.204018268970768 
2463	 0.203588292077149 
2464	 0.203262589311659 
2465	 0.202902359066788 
2466	 0.202589049982367 
2467	 0.202449611853855 
2468	 0.202096606485817 
2469	 0.201482731490145 
2470	 0.201039329669213 
2471	 0.20084004079806 
2472	 0.200751409982102 
2473	 0.200612005334517 
2474	 0.200409239271808 
2475	 0.199933147900998 
2476	 0.199469331498855 
2477	 0.199203091186492 
2478	 0.199022068792249 
2479	 0.199095003366642 
2480	 0.199044051207219 
2481	 0.198737332205806 
2482	 0.198404820656988 
2483	 0.198052035337032 
2484	 0.197694106166858 
2485	 0.197470730431878 
2486	 0.197296043563894 
2487	 0.196907564550458 
2488	 0.196595859156541 
2489	 0.196455812433561 
2490	 0.196256993233716 
2491	 0.19608211936512 
2492	 0.195921669047303 
2493	 0.195658511408747 
2494	 0.195354288297595 
2495	 0.195105854033883 
2496	 0.194909767928151 
2497	 0.194731980685676 
2498	 0.194648957379221 
2499	 0.194529074474354 
2500	 0.194241160357399 
