Wavelength	MM500008.asd
350	 4.99956636520034E-02 
351	 5.62198326100941E-02 
352	 5.68371939394277E-02 
353	 0.052111759899941 
354	 0.055351623349814 
355	 0.054410288701956 
356	 5.18747263683887E-02 
357	 5.29987428991434E-02 
358	 5.97221260861122E-02 
359	 5.89182165587361E-02 
360	 5.39040890445322E-02 
361	 5.68535137331223E-02 
362	 5.18887418280507E-02 
363	 4.84390091405032E-02 
364	 5.18814884325509E-02 
365	 5.75927308792195E-02 
366	 5.76700573693559E-02 
367	 5.50038365473749E-02 
368	 5.51350640004974E-02 
369	 6.07895635324679E-02 
370	 6.16615505132137E-02 
371	 5.84192513823722E-02 
372	 5.90529737481501E-02 
373	 6.17537391989861E-02 
374	 6.29269210123773E-02 
375	 6.14932889307234E-02 
376	 6.09678273594865E-02 
377	 6.00648327861838E-02 
378	 6.07311687566696E-02 
379	 6.40262563869542E-02 
380	 6.40523336340322E-02 
381	 6.22545358172046E-02 
382	 6.17289093083713E-02 
383	 6.58234694750214E-02 
384	 6.79195362361965E-02 
385	 6.68335898909305E-02 
386	 6.42754591099077E-02 
387	 6.54583032583074E-02 
388	 0.068339206732912 
389	 7.05498986867772E-02 
390	 7.02974472558409E-02 
391	 6.90348395896508E-02 
392	 0.069447215989706 
393	 0.07130332689127 
394	 7.20464281738623E-02 
395	 7.32407905912648E-02 
396	 7.38199040289363E-02 
397	 7.35182425591772E-02 
398	 7.45413164901872E-02 
399	 7.65156222306738E-02 
400	 7.80242351037602E-02 
401	 7.77990417265582E-02 
402	 7.77757030406779E-02 
403	 7.79384320465977E-02 
404	 7.82461223248973E-02 
405	 0.078763077786089 
406	 7.98510160072879E-02 
407	 0.080210717373366 
408	 7.94185001152636E-02 
409	 8.00189082874026E-02 
410	 8.06291577573445E-02 
411	 8.07437999416002E-02 
412	 8.05045172722933E-02 
413	 8.16388127126936E-02 
414	 8.18729036170934E-02 
415	 8.08940993179253E-02 
416	 8.12662502630467E-02 
417	 8.13698582531938E-02 
418	 8.13869211417458E-02 
419	 8.17264483081027E-02 
420	 8.22857943646897E-02 
421	 8.14289633992023E-02 
422	 8.02744035268851E-02 
423	 8.13132823982545E-02 
424	 8.14512665622226E-02 
425	 8.11196903381717E-02 
426	 8.08616549421342E-02 
427	 8.05370385802353E-02 
428	 8.01958945726824E-02 
429	 7.99700883385846E-02 
430	 7.99712779358696E-02 
431	 8.01657153625107E-02 
432	 7.99255808758024E-02 
433	 7.94647421162567E-02 
434	 7.97643158759651E-02 
435	 8.03623526898411E-02 
436	 8.07983686314053E-02 
437	 8.08760480002455E-02 
438	 8.10067595977395E-02 
439	 8.15877782149157E-02 
440	 8.22485346976284E-02 
441	 8.23651878082739E-02 
442	 8.27256493478893E-02 
443	 8.33068701833272E-02 
444	 0.083861164846429 
445	 8.39264102417152E-02 
446	 8.41494549425815E-02 
447	 8.45729957518161E-02 
448	 0.085029040987253 
449	 8.52757447264166E-02 
450	 8.55800768108791E-02 
451	 8.60313343213229E-02 
452	 8.65303021044653E-02 
453	 0.086623146769315 
454	 8.66279577525653E-02 
455	 8.69212691737516E-02 
456	 8.77770336734343E-02 
457	 8.80441109088117E-02 
458	 8.79035113539723E-02 
459	 8.81020152223977E-02 
460	 0.088481127954303 
461	 8.86240318012726E-02 
462	 8.85693691649114E-02 
463	 8.90261558294189E-02 
464	 8.91894201327918E-02 
465	 8.92177794680941E-02 
466	 8.94194938481692E-02 
467	 8.95474267638715E-02 
468	 8.98190291456722E-02 
469	 9.01264777060911E-02 
470	 9.01374712541665E-02 
471	 9.04333211143474E-02 
472	 9.06810276126027E-02 
473	 9.06528444715621E-02 
474	 9.07315076766681E-02 
475	 9.07244797177855E-02 
476	 9.07414672628047E-02 
477	 9.09854687548866E-02 
478	 9.13777310180389E-02 
479	 9.16507081833889E-02 
480	 9.16993850689806E-02 
481	 9.16519179817127E-02 
482	 9.17172921230495E-02 
483	 9.18445834792235E-02 
484	 9.19289057704258E-02 
485	 9.20091424659895E-02 
486	 9.20622609349705E-02 
487	 9.20728456134047E-02 
488	 0.092037365920248 
489	 9.19986946270005E-02 
490	 9.20868303028673E-02 
491	 9.23049281953069E-02 
492	 9.23292591161999E-02 
493	 9.22607019867187E-02 
494	 9.22613531453011E-02 
495	 9.24729664742406E-02 
496	 9.26016351935061E-02 
497	 9.26467381676141E-02 
498	 9.26854932073893E-02 
499	 9.28685472910326E-02 
500	 9.29349961835371E-02 
501	 9.29467255542819E-02 
502	 9.30126192026348E-02 
503	 9.29792417830376E-02 
504	 9.30295582186209E-02 
505	 9.31545658567776E-02 
506	 9.31719490368491E-02 
507	 0.093241077911914 
508	 9.32889011256112E-02 
509	 9.32591897052842E-02 
510	 9.32497711449567E-02 
511	 9.32834966879323E-02 
512	 9.33232934833139E-02 
513	 9.33094321074354E-02 
514	 9.32957414879211E-02 
515	 9.34112106732329E-02 
516	 9.36156425921877E-02 
517	 9.35665145268983E-02 
518	 0.093562450528443 
519	 9.35912238499484E-02 
520	 9.35807065304482E-02 
521	 9.36998122897486E-02 
522	 9.38051773200898E-02 
523	 9.38412821820969E-02 
524	 9.38625917005809E-02 
525	 9.39035707997821E-02 
526	 9.39441605797423E-02 
527	 9.39726451053656E-02 
528	 9.40523771587969E-02 
529	 9.41232107566793E-02 
530	 9.41972959181772E-02 
531	 9.43225294967708E-02 
532	 9.43572967219254E-02 
533	 9.44288377584336E-02 
534	 9.45713985511731E-02 
535	 9.45311301297008E-02 
536	 9.45694896008021E-02 
537	 9.46684306175084E-02 
538	 9.47260412704168E-02 
539	 9.48779673884393E-02 
540	 9.50012113198009E-02 
541	 9.50558084922309E-02 
542	 9.51348976377273E-02 
543	 9.52382791514672E-02 
544	 9.53493801722826E-02 
545	 9.54504310641933E-02 
546	 9.55553799291706E-02 
547	 9.56137496631167E-02 
548	 9.56858448089764E-02 
549	 9.59099225922238E-02 
550	 9.60307969618767E-02 
551	 9.61277718552579E-02 
552	 0.096296865594003 
553	 9.65199344323389E-02 
554	 9.67006455063075E-02 
555	 0.096851982472033 
556	 9.70430863727675E-02 
557	 0.097255488098171 
558	 9.74883702894867E-02 
559	 9.77410940626986E-02 
560	 9.80192800832319E-02 
561	 9.82073891158061E-02 
562	 9.83702788075414E-02 
563	 9.86216970221975E-02 
564	 9.89556432926959E-02 
565	 9.92600363630868E-02 
566	 9.95275379792693E-02 
567	 0.09987304005202 
568	 0.10029755430641 
569	 0.100766634788735 
570	 0.101234743527594 
571	 0.101661498962395 
572	 0.102096353500717 
573	 0.102554656091275 
574	 0.103024853951868 
575	 0.103493214295335 
576	 0.103953022004168 
577	 0.104392235684635 
578	 0.104759326655805 
579	 0.105279019752116 
580	 0.105935408889232 
581	 0.106611455503922 
582	 0.107324970482135 
583	 0.108058219603947 
584	 0.108789971142872 
585	 0.109499147025626 
586	 0.110165657381636 
587	 0.110801961104198 
588	 0.111431325246378 
589	 0.112063220549727 
590	 0.11275047383262 
591	 0.113492969188974 
592	 0.114242677668745 
593	 0.114961820300993 
594	 0.115699972805511 
595	 0.11648591515759 
596	 0.1172441993751 
597	 0.118040172258854 
598	 0.11885486518949 
599	 0.119632606295386 
600	 0.120406617713449 
601	 0.121157650422551 
602	 0.121860933120387 
603	 0.122487607995255 
604	 0.123153013404021 
605	 0.123822475469521 
606	 0.124431452481276 
607	 0.125079077854579 
608	 0.125701196841013 
609	 0.126288676609422 
610	 0.126905494459901 
611	 0.12750963265803 
612	 0.128103765101027 
613	 0.128690870671802 
614	 0.129258418872599 
615	 0.129729641205535 
616	 0.130139567785699 
617	 0.1305929500318 
618	 0.131034712064229 
619	 0.131402098621015 
620	 0.131705249332779 
621	 0.132115119490486 
622	 0.132505090276884 
623	 0.132843622417569 
624	 0.133149316789631 
625	 0.133516941438695 
626	 0.133857407195301 
627	 0.134136018946658 
628	 0.134407990981493 
629	 0.134729512144181 
630	 0.135039022566927 
631	 0.135269143611409 
632	 0.135456199927507 
633	 0.135723134918061 
634	 0.136039438643997 
635	 0.136258770562027 
636	 0.136534544629831 
637	 0.136796655327129 
638	 0.136994907653745 
639	 0.137215218884819 
640	 0.137487802098476 
641	 0.13778294994874 
642	 0.138042744155979 
643	 0.138267818597562 
644	 0.138493838571837 
645	 0.138741968905534 
646	 0.139007020408333 
647	 0.13926923939219 
648	 0.139511666832204 
649	 0.139743010598079 
650	 0.140070493483308 
651	 0.140392450547321 
652	 0.140667375777252 
653	 0.140918037744696 
654	 0.141241974340631 
655	 0.141536887062847 
656	 0.141755580268449 
657	 0.142084969160142 
658	 0.142401382864865 
659	 0.142691273549304 
660	 0.142996397187571 
661	 0.143373539286606 
662	 0.143726402602579 
663	 0.144026540349583 
664	 0.144363237289177 
665	 0.144727120868801 
666	 0.145114020923079 
667	 0.145505780486352 
668	 0.145831147073978 
669	 0.14614704262315 
670	 0.146511222439823 
671	 0.146966761553791 
672	 0.147386916185536 
673	 0.147799345732601 
674	 0.148233262052896 
675	 0.148649680980708 
676	 0.149089353946853 
677	 0.149538081595152 
678	 0.149966038678161 
679	 0.150420862647227 
680	 0.150850253422191 
681	 0.151267575920265 
682	 0.151781714308479 
683	 0.152230973922979 
684	 0.152674622895685 
685	 0.153198395479906 
686	 0.15376876416256 
687	 0.154318056737299 
688	 0.154833020192848 
689	 0.155344367962213 
690	 0.155888233494492 
691	 0.15642641123316 
692	 0.156955750725451 
693	 0.15757398657076 
694	 0.158150980926973 
695	 0.158690408262704 
696	 0.159244334999748 
697	 0.159829553775281 
698	 0.160438466274051 
699	 0.161047481855428 
700	 0.1616202074491 
701	 0.162207315839064 
702	 0.16280201660901 
703	 0.163396216110101 
704	 0.164019579308866 
705	 0.164634090879561 
706	 0.165241127526058 
707	 0.165860331996206 
708	 0.16648033921088 
709	 0.167100476795361 
710	 0.167717776031829 
711	 0.168328101037625 
712	 0.168880191017557 
713	 0.169454279087042 
714	 0.170108469808197 
715	 0.170667950919676 
716	 0.171220446509176 
717	 0.171795266594761 
718	 0.172372610052989 
719	 0.172949550174287 
720	 0.173468768746455 
721	 0.173927738380772 
722	 0.174436950060875 
723	 0.17501285802099 
724	 0.175569881970988 
725	 0.176012039664892 
726	 0.176393705477999 
727	 0.176799372862989 
728	 0.177250377819574 
729	 0.177703037272953 
730	 0.178082735635397 
731	 0.178447177551319 
732	 0.178826343974548 
733	 0.179116031498668 
734	 0.179419016394445 
735	 0.179711157792157 
736	 0.179931919357793 
737	 0.180140356523434 
738	 0.180343546434617 
739	 0.180521965516867 
740	 0.18063413099417 
741	 0.180767970877213 
742	 0.180888829644478 
743	 0.18096206435598 
744	 0.181027383649211 
745	 0.18108281131991 
746	 0.181106705962766 
747	 0.181077178177734 
748	 0.181047241465613 
749	 0.180979478539942 
750	 0.180876676533813 
751	 0.180797690720793 
752	 0.180678329805099 
753	 0.18053646559808 
754	 0.18038968359114 
755	 0.180195623896613 
756	 0.179989343603848 
757	 0.179774690335219 
758	 0.179540819456303 
759	 0.179298900007735 
760	 0.179028126601654 
761	 0.178736140130855 
762	 0.178467737260632 
763	 0.178156378467128 
764	 0.177828315076342 
765	 0.17751280794886 
766	 0.177178953368512 
767	 0.176861024340711 
768	 0.176510158998422 
769	 0.176068379400095 
770	 0.175728169097627 
771	 0.175377201799863 
772	 0.174969390888593 
773	 0.174570939292756 
774	 0.174202824545617 
775	 0.173824374282168 
776	 0.173406023346499 
777	 0.172986445089448 
778	 0.172588849148096 
779	 0.172207184880684 
780	 0.171817579840673 
781	 0.171391818293288 
782	 0.170996556646109 
783	 0.170622828140541 
784	 0.170181401965943 
785	 0.16975675721481 
786	 0.169357663580244 
787	 0.168967857210543 
788	 0.168542952419184 
789	 0.168164560668301 
790	 0.167801704995424 
791	 0.167393539006435 
792	 0.166967559149981 
793	 0.166568960602112 
794	 0.166211268860609 
795	 0.165875429702781 
796	 0.165511506359045 
797	 0.165133326311119 
798	 0.164755468410012 
799	 0.164369271271542 
800	 0.164022953097186 
801	 0.16368317567448 
802	 0.16332453351921 
803	 0.163066451301132 
804	 0.162737190416904 
805	 0.162359085353931 
806	 0.162062988440092 
807	 0.161732613193022 
808	 0.161403922338403 
809	 0.161101202623906 
810	 0.160811370747342 
811	 0.160528416909387 
812	 0.160234704912157 
813	 0.159934008170457 
814	 0.159696535558382 
815	 0.159434612618198 
816	 0.159169434729709 
817	 0.158947850664195 
818	 0.158694046898382 
819	 0.158419313495145 
820	 0.158157602272356 
821	 0.157949426017465 
822	 0.157723423321731 
823	 0.15750979793108 
824	 0.157318851145158 
825	 0.157103382644793 
826	 0.156904705803237 
827	 0.156709784074764 
828	 0.156503380412953 
829	 0.156305943386903 
830	 0.156143944169899 
831	 0.156002016252382 
832	 0.155846592339551 
833	 0.155682420765448 
834	 0.155505851635901 
835	 0.155335841077145 
836	 0.155206343666138 
837	 0.155059080717725 
838	 0.154926339786827 
839	 0.154823875789209 
840	 0.154714364355135 
841	 0.154627669926248 
842	 0.154520815643965 
843	 0.154377108394072 
844	 0.1543220884835 
845	 0.154290189680834 
846	 0.154217372487636 
847	 0.154075663131248 
848	 0.154019194241946 
849	 0.153982956709887 
850	 0.153933191772302 
851	 0.153877038069002 
852	 0.15382670482945 
853	 0.153783644797134 
854	 0.153754625376326 
855	 0.153755488275066 
856	 0.153728384629868 
857	 0.153692623603248 
858	 0.153678994529008 
859	 0.153697972157527 
860	 0.153719098110888 
861	 0.153732304383745 
862	 0.153745611568158 
863	 0.153806084152565 
864	 0.153860931469053 
865	 0.153875829951079 
866	 0.153850472601036 
867	 0.153901105988746 
868	 0.153965157049631 
869	 0.154010839462467 
870	 0.154058480126617 
871	 0.154146901871724 
872	 0.15424173711258 
873	 0.154332839054933 
874	 0.154468100102568 
875	 0.154603094941035 
876	 0.154696996733551 
877	 0.154745321682069 
878	 0.154820953100697 
879	 0.154994966218589 
880	 0.155170389065846 
881	 0.155242049012144 
882	 0.155339550623033 
883	 0.155497115171296 
884	 0.155692527565488 
885	 0.155871349510093 
886	 0.156005934509182 
887	 0.156172330066579 
888	 0.156376537679428 
889	 0.156561339733709 
890	 0.156745539467877 
891	 0.156905190456517 
892	 0.157066543109617 
893	 0.157313745095577 
894	 0.157552172643233 
895	 0.157744016278571 
896	 0.157910780059271 
897	 0.15815328608636 
898	 0.158433727281495 
899	 0.158675987682473 
900	 0.158865919806802 
901	 0.159185429625568 
902	 0.159421873941208 
903	 0.159642031106942 
904	 0.159951313140385 
905	 0.160208901518988 
906	 0.16052970203799 
907	 0.160853830740188 
908	 0.161088636816922 
909	 0.16143030370942 
910	 0.161786933650805 
911	 0.16212403175794 
912	 0.162456305842604 
913	 0.162783337880806 
914	 0.163121184340843 
915	 0.163471314575696 
916	 0.163826292762244 
917	 0.164224736921088 
918	 0.164652393110886 
919	 0.165067455410168 
920	 0.165420005239411 
921	 0.165886292863712 
922	 0.166353377453106 
923	 0.166767747241352 
924	 0.167232373663337 
925	 0.16757323274019 
926	 0.167945196781167 
927	 0.168428854305955 
928	 0.168840391887741 
929	 0.169350912369867 
930	 0.169913844833152 
931	 0.170454216362832 
932	 0.170967694083831 
933	 0.171485539388959 
934	 0.172006585619847 
935	 0.172519343362789 
936	 0.173014306275151 
937	 0.173478727042004 
938	 0.17399998860749 
939	 0.174630095726835 
940	 0.175195503309414 
941	 0.175744496626479 
942	 0.176357063717985 
943	 0.177060580516807 
944	 0.177638513598156 
945	 0.178196663758541 
946	 0.178794879805801 
947	 0.17943987828313 
948	 0.180025624794809 
949	 0.180671205022412 
950	 0.181351133622707 
951	 0.181992167256921 
952	 0.182704937702381 
953	 0.183339903696308 
954	 0.183978407388979 
955	 0.184774014933666 
956	 0.185493709757467 
957	 0.186255927837452 
958	 0.186996434350328 
959	 0.187603976354321 
960	 0.188413252530211 
961	 0.189168860504223 
962	 0.189890988618043 
963	 0.190740654431108 
964	 0.191445605245907 
965	 0.19218058810053 
966	 0.192986912295856 
967	 0.1938063943508 
968	 0.194700095752677 
969	 0.195530432665395 
970	 0.196358969863114 
971	 0.197314913255891 
972	 0.198046326953583 
973	 0.198791902332418 
974	 0.199645772220203 
975	 0.200556416912041 
976	 0.201442026686966 
977	 0.202420951913948 
978	 0.203394717161452 
979	 0.204195439145567 
980	 0.205143493304669 
981	 0.206003790979756 
982	 0.206839146506944 
983	 0.207855752990563 
984	 0.208874500168495 
985	 0.209832218152331 
986	 0.210714185500729 
987	 0.211549213442486 
988	 0.212395763983379 
989	 0.213380855204217 
990	 0.214395796152366 
991	 0.215293049700205 
992	 0.216354088178161 
993	 0.217285865372589 
994	 0.218193417308011 
995	 0.219268000714536 
996	 0.220245139617511 
997	 0.2211272297838 
998	 0.222006748156044 
999	 0.22299101590046 
1000	 0.224101866862437 
1001	 0.227654144131511 
1002	 0.228630156493021 
1003	 0.229628809852414 
1004	 0.230603893228357 
1005	 0.231604814552102 
1006	 0.232575641914683 
1007	 0.233534156224253 
1008	 0.23444542315019 
1009	 0.235294928751195 
1010	 0.236158873833257 
1011	 0.237000572424164 
1012	 0.237827170241959 
1013	 0.23875028595861 
1014	 0.239714087879309 
1015	 0.240663193087671 
1016	 0.241590042120195 
1017	 0.242500609721859 
1018	 0.243397710129867 
1019	 0.244250648737423 
1020	 0.24507683903329 
1021	 0.245913723274993 
1022	 0.246713029310501 
1023	 0.247530837261822 
1024	 0.248378476662395 
1025	 0.249254341695269 
1026	 0.250166049999776 
1027	 0.251014352228652 
1028	 0.251841276723977 
1029	 0.252672431822973 
1030	 0.253509416173954 
1031	 0.254323720657222 
1032	 0.255152778570883 
1033	 0.255946748397602 
1034	 0.256714596859558 
1035	 0.257450621102466 
1036	 0.258249299833611 
1037	 0.259093480463027 
1038	 0.259926161211277 
1039	 0.260776584112245 
1040	 0.261535293272029 
1041	 0.262275211295887 
1042	 0.263096076906204 
1043	 0.263919831042331 
1044	 0.264710532182601 
1045	 0.265513351156173 
1046	 0.266311425775711 
1047	 0.267087439898138 
1048	 0.267840267436437 
1049	 0.268609200875765 
1050	 0.269475087233222 
1051	 0.270341557698074 
1052	 0.271103977886166 
1053	 0.271859391083718 
1054	 0.272595381658578 
1055	 0.273291819471206 
1056	 0.274045270940922 
1057	 0.27477965428049 
1058	 0.275513050636563 
1059	 0.276269693954651 
1060	 0.277044042747221 
1061	 0.27778612334395 
1062	 0.278490522429736 
1063	 0.279197465653611 
1064	 0.279887298088386 
1065	 0.280517397984962 
1066	 0.281150513651347 
1067	 0.281856697140038 
1068	 0.282515029847235 
1069	 0.283179429275705 
1070	 0.28383110846771 
1071	 0.284481185200221 
1072	 0.285126384389878 
1073	 0.285750718459061 
1074	 0.286389496877404 
1075	 0.287047928199468 
1076	 0.287693995668005 
1077	 0.288334359961359 
1078	 0.288946142737161 
1079	 0.289541460283841 
1080	 0.290196116369708 
1081	 0.290838788721159 
1082	 0.291425152524237 
1083	 0.292041259568513 
1084	 0.292658317428877 
1085	 0.293279706962292 
1086	 0.293894868345676 
1087	 0.294547319023519 
1088	 0.29522993022775 
1089	 0.295883673501456 
1090	 0.296503298687539 
1091	 0.297077487598188 
1092	 0.297673813276669 
1093	 0.29827215082465 
1094	 0.298921787445861 
1095	 0.299647414840358 
1096	 0.30033668614448 
1097	 0.301055620046393 
1098	 0.301763738027332 
1099	 0.302486026993567 
1100	 0.30318667607975 
1101	 0.303849980990601 
1102	 0.304549882416869 
1103	 0.305234923083434 
1104	 0.306002462606387 
1105	 0.306780792129377 
1106	 0.307585946266575 
1107	 0.308373916076312 
1108	 0.309163400326186 
1109	 0.309963714469409 
1110	 0.310737863453998 
1111	 0.311539175173249 
1112	 0.312348535213142 
1113	 0.313178321195524 
1114	 0.314037423710692 
1115	 0.314892527317451 
1116	 0.315766007401424 
1117	 0.316630607834996 
1118	 0.317504444979448 
1119	 0.318324583803667 
1120	 0.319197476870818 
1121	 0.320097085088721 
1122	 0.320972040830126 
1123	 0.321870910718476 
1124	 0.322753052311281 
1125	 0.323602163803438 
1126	 0.324507292406194 
1127	 0.325439439068884 
1128	 0.326357472199971 
1129	 0.327313251744763 
1130	 0.328232244604524 
1131	 0.329105533265569 
1132	 0.330021441008655 
1133	 0.330964163090202 
1134	 0.331876116108172 
1135	 0.332777665928371 
1136	 0.333704815380747 
1137	 0.334617045717279 
1138	 0.335496310617944 
1139	 0.336387359614913 
1140	 0.337298932698991 
1141	 0.338176487201464 
1142	 0.339019418938198 
1143	 0.339893832730511 
1144	 0.340770050005995 
1145	 0.341641999060123 
1146	 0.34253498806142 
1147	 0.343403315326461 
1148	 0.344256350019123 
1149	 0.345108075475752 
1150	 0.345953369877421 
1151	 0.34679370744346 
1152	 0.347617983217773 
1153	 0.348427301427576 
1154	 0.349235445590679 
1155	 0.350029673898889 
1156	 0.35082381224113 
1157	 0.351626074944401 
1158	 0.35240536912191 
1159	 0.353161242749242 
1160	 0.35393273537196 
1161	 0.354707329321827 
1162	 0.355467090114053 
1163	 0.356229287713936 
1164	 0.356985949250385 
1165	 0.3577336290536 
1166	 0.358468866745114 
1167	 0.359211882035737 
1168	 0.359953711083072 
1169	 0.360665044049609 
1170	 0.361356811423625 
1171	 0.362042035519095 
1172	 0.362707780567407 
1173	 0.363372867952256 
1174	 0.36403445312001 
1175	 0.364686612715021 
1176	 0.365323874261311 
1177	 0.365968936975734 
1178	 0.366613658235985 
1179	 0.367252032045112 
1180	 0.367911370552256 
1181	 0.368535396504395 
1182	 0.369120311406716 
1183	 0.369728715653407 
1184	 0.370321627565982 
1185	 0.370896295043365 
1186	 0.371473075115734 
1187	 0.372057890854059 
1188	 0.372624765794182 
1189	 0.373188814945287 
1190	 0.373722764315972 
1191	 0.374234505265689 
1192	 0.374749467703166 
1193	 0.375233231167712 
1194	 0.375735362480705 
1195	 0.376256136143499 
1196	 0.376762245703709 
1197	 0.377270990408067 
1198	 0.377764776449191 
1199	 0.378248778768304 
1200	 0.378726077848618 
1201	 0.379189742784769 
1202	 0.379635915771129 
1203	 0.380087144629288 
1204	 0.380534872070615 
1205	 0.3809725099429 
1206	 0.381407447183197 
1207	 0.381834623449606 
1208	 0.382254373854553 
1209	 0.38266365505036 
1210	 0.383073176959302 
1211	 0.383463779826238 
1212	 0.383825609713698 
1213	 0.38419931219112 
1214	 0.384567216511536 
1215	 0.384935554030557 
1216	 0.385305404164448 
1217	 0.385685575606348 
1218	 0.386049666964633 
1219	 0.386412946540555 
1220	 0.386757255270559 
1221	 0.38708707383313 
1222	 0.387418750565459 
1223	 0.387734763869777 
1224	 0.388058916368985 
1225	 0.388391316877161 
1226	 0.388713535980247 
1227	 0.389037787168487 
1228	 0.389348362445936 
1229	 0.389641894734799 
1230	 0.38994281358089 
1231	 0.390237011354565 
1232	 0.390533844588377 
1233	 0.390833123982736 
1234	 0.391143934997371 
1235	 0.391436338268267 
1236	 0.391728843454789 
1237	 0.39199972576928 
1238	 0.39225793138538 
1239	 0.392507311393047 
1240	 0.392738893311286 
1241	 0.392970944579487 
1242	 0.393195619358131 
1243	 0.393416499691914 
1244	 0.393612778612156 
1245	 0.393840993556054 
1246	 0.394092926362555 
1247	 0.394329335333246 
1248	 0.394590544188356 
1249	 0.394830203629581 
1250	 0.395029436811388 
1251	 0.395222864656223 
1252	 0.395423495682277 
1253	 0.395617157815582 
1254	 0.395806628524529 
1255	 0.396001102744201 
1256	 0.396187515523941 
1257	 0.396369090865794 
1258	 0.396535097684483 
1259	 0.396685671658693 
1260	 0.396847441182082 
1261	 0.39698595532515 
1262	 0.397150742613611 
1263	 0.397351544862597 
1264	 0.397532549950734 
1265	 0.397710364088273 
1266	 0.397889584502514 
1267	 0.398066942331745 
1268	 0.398233169215446 
1269	 0.398409874277012 
1270	 0.398593738140027 
1271	 0.398775535554254 
1272	 0.398945679314816 
1273	 0.399147745156435 
1274	 0.399361176491458 
1275	 0.399582453484547 
1276	 0.399841194284922 
1277	 0.40006922774221 
1278	 0.400291243367807 
1279	 0.400507750338748 
1280	 0.400719279204995 
1281	 0.400914992113369 
1282	 0.401103596108274 
1283	 0.401277434919872 
1284	 0.401438785244735 
1285	 0.401580611868523 
1286	 0.401717200343511 
1287	 0.401844001932565 
1288	 0.401939533064417 
1289	 0.402014688006069 
1290	 0.402072637583578 
1291	 0.402102707138096 
1292	 0.402126733383578 
1293	 0.40215068309894 
1294	 0.402130307875895 
1295	 0.402088978094593 
1296	 0.402010788826378 
1297	 0.401877551258066 
1298	 0.401755320319937 
1299	 0.401613810439322 
1300	 0.401466451065365 
1301	 0.401308341182841 
1302	 0.401149071707143 
1303	 0.400980419009563 
1304	 0.400808414656786 
1305	 0.400625095429316 
1306	 0.400444517215881 
1307	 0.400272341309321 
1308	 0.400103723809841 
1309	 0.399942702210657 
1310	 0.399811831300445 
1311	 0.39964751762371 
1312	 0.399443084621582 
1313	 0.399301761404207 
1314	 0.399178879892281 
1315	 0.399059590231759 
1316	 0.398976680951738 
1317	 0.398891692548236 
1318	 0.398781301912552 
1319	 0.398717814309457 
1320	 0.398690473527756 
1321	 0.39867590570324 
1322	 0.398690047441413 
1323	 0.398707915232705 
1324	 0.398729794470671 
1325	 0.398750304674912 
1326	 0.39877568393654 
1327	 0.398808787325398 
1328	 0.398857574508539 
1329	 0.398948779438459 
1330	 0.399065118306992 
1331	 0.399207312790731 
1332	 0.399371774479265 
1333	 0.399589186681084 
1334	 0.39976505030224 
1335	 0.399938899802303 
1336	 0.400124349588936 
1337	 0.400291553338708 
1338	 0.400479860062388 
1339	 0.400685826468079 
1340	 0.400897753881998 
1341	 0.401129117796647 
1342	 0.401347671469462 
1343	 0.401569329169866 
1344	 0.401786890703477 
1345	 0.402018367755285 
1346	 0.402236277484908 
1347	 0.402467223864708 
1348	 0.402712024297794 
1349	 0.402939396210163 
1350	 0.403185597271667 
1351	 0.403435383994189 
1352	 0.403702756221773 
1353	 0.403957008446963 
1354	 0.404221501242927 
1355	 0.404450950207513 
1356	 0.404668107334515 
1357	 0.404878752316593 
1358	 0.405053901446225 
1359	 0.405256656167346 
1360	 0.40546905689367 
1361	 0.405674389834474 
1362	 0.40589589821176 
1363	 0.40609381385082 
1364	 0.406281298789808 
1365	 0.406460210569773 
1366	 0.40662174655332 
1367	 0.406784666368911 
1368	 0.406937638186045 
1369	 0.407075033031116 
1370	 0.407213002938382 
1371	 0.407346269801463 
1372	 0.407466818475676 
1373	 0.407580028340048 
1374	 0.407679744537259 
1375	 0.407760597094527 
1376	 0.407837675547133 
1377	 0.407929952636249 
1378	 0.407964626374811 
1379	 0.40798099785671 
1380	 0.407956787297915 
1381	 0.407875223693955 
1382	 0.407794666184375 
1383	 0.407697954615471 
1384	 0.40757459118041 
1385	 0.407458129989091 
1386	 0.407275480242216 
1387	 0.407046875590347 
1388	 0.406791200898912 
1389	 0.406500291971397 
1390	 0.406160105621848 
1391	 0.405789275606677 
1392	 0.405384116144201 
1393	 0.404924531954224 
1394	 0.40442395451778 
1395	 0.403902925091991 
1396	 0.403360348775279 
1397	 0.402790931414438 
1398	 0.402186811629873 
1399	 0.401588910375313 
1400	 0.400965428358647 
1401	 0.400347853653076 
1402	 0.399729822348415 
1403	 0.399117009717494 
1404	 0.39848957454518 
1405	 0.397886684108062 
1406	 0.397296390953623 
1407	 0.396704450834195 
1408	 0.396105367629217 
1409	 0.395549686453712 
1410	 0.39498119447933 
1411	 0.394492633752244 
1412	 0.394050842290536 
1413	 0.39365394988302 
1414	 0.393345819935492 
1415	 0.393080147037911 
1416	 0.392858387404391 
1417	 0.392661684478935 
1418	 0.392465984506628 
1419	 0.392287288247553 
1420	 0.392118455268775 
1421	 0.391962903700566 
1422	 0.391816596689363 
1423	 0.391666395915014 
1424	 0.391511023109695 
1425	 0.391353594629027 
1426	 0.391202641317793 
1427	 0.391042259707025 
1428	 0.39089485637744 
1429	 0.390763681120275 
1430	 0.390624704302064 
1431	 0.39048946088632 
1432	 0.390353818168969 
1433	 0.390208820872163 
1434	 0.390071645673821 
1435	 0.389931816682336 
1436	 0.389807290724781 
1437	 0.389684830885089 
1438	 0.389588491692166 
1439	 0.389523351336699 
1440	 0.389444143428725 
1441	 0.389357301550187 
1442	 0.389294668671579 
1443	 0.389225414580618 
1444	 0.389160807718538 
1445	 0.389139372294555 
1446	 0.389121744020384 
1447	 0.389091042637381 
1448	 0.3890862576978 
1449	 0.389089937920175 
1450	 0.389092743463969 
1451	 0.389121439908471 
1452	 0.389176064999679 
1453	 0.389229964496247 
1454	 0.389298450214669 
1455	 0.389367585019084 
1456	 0.389436366673363 
1457	 0.389523920520629 
1458	 0.389621890386792 
1459	 0.389730166425656 
1460	 0.389864964321116 
1461	 0.389984588150981 
1462	 0.39009782885592 
1463	 0.390218239082737 
1464	 0.390340673594803 
1465	 0.390466295149347 
1466	 0.390593525430495 
1467	 0.390731942180844 
1468	 0.390872227880942 
1469	 0.391017906676426 
1470	 0.391173223354632 
1471	 0.391341732995809 
1472	 0.391505780905188 
1473	 0.391651754365698 
1474	 0.391793984844773 
1475	 0.391930950266169 
1476	 0.392054009973904 
1477	 0.392204963202865 
1478	 0.392366457130252 
1479	 0.39251606119657 
1480	 0.392677785405689 
1481	 0.392839221095268 
1482	 0.392997217135472 
1483	 0.393144874015399 
1484	 0.393318556963625 
1485	 0.39350475993412 
1486	 0.393680515135115 
1487	 0.393876046643266 
1488	 0.394049482472722 
1489	 0.394194924303589 
1490	 0.394369192285682 
1491	 0.394555849837242 
1492	 0.394728794510446 
1493	 0.394910316298207 
1494	 0.395084614551811 
1495	 0.395254471739925 
1496	 0.395406775832064 
1497	 0.395556299847856 
1498	 0.395694567801859 
1499	 0.395800343002151 
1500	 0.395926483681047 
1501	 0.396059910357946 
1502	 0.396187582512713 
1503	 0.396314708158983 
1504	 0.396442878559041 
1505	 0.396585099768336 
1506	 0.396736739745951 
1507	 0.396891124172497 
1508	 0.397038992983941 
1509	 0.397152616939249 
1510	 0.397263122415201 
1511	 0.397395072656313 
1512	 0.397543622430175 
1513	 0.397700286576997 
1514	 0.397851707443221 
1515	 0.398007515926946 
1516	 0.398142005689437 
1517	 0.398274869634337 
1518	 0.398413806288879 
1519	 0.39854087262195 
1520	 0.398650555474748 
1521	 0.398760444511752 
1522	 0.398866029721939 
1523	 0.398973157790759 
1524	 0.399071220326502 
1525	 0.399178153275125 
1526	 0.399291086592194 
1527	 0.399401434612668 
1528	 0.399519424387608 
1529	 0.399622949515615 
1530	 0.399721447157663 
1531	 0.399817620541353 
1532	 0.399906392737785 
1533	 0.399984311109091 
1534	 0.400045458544636 
1535	 0.4001304810717 
1536	 0.400215256965724 
1537	 0.40030307828764 
1538	 0.400428169191783 
1539	 0.400515485288154 
1540	 0.400572832831033 
1541	 0.40064191952255 
1542	 0.400692999744826 
1543	 0.400756718386297 
1544	 0.400825786418391 
1545	 0.400905404363651 
1546	 0.401000996348239 
1547	 0.401081252002606 
1548	 0.40118149533483 
1549	 0.401307848393561 
1550	 0.401413229884976 
1551	 0.401532123692208 
1552	 0.401666029780261 
1553	 0.401756030427201 
1554	 0.401836170391103 
1555	 0.4019330788987 
1556	 0.401970943465071 
1557	 0.402004510256275 
1558	 0.402072036500857 
1559	 0.402119107740297 
1560	 0.402192154896118 
1561	 0.402304189094249 
1562	 0.402379370988482 
1563	 0.402439611420033 
1564	 0.402510781794322 
1565	 0.402573681705857 
1566	 0.402643555977855 
1567	 0.402728902602667 
1568	 0.40279356864609 
1569	 0.402851107868385 
1570	 0.402901886951663 
1571	 0.402932478231601 
1572	 0.402986608512684 
1573	 0.403038087141301 
1574	 0.40311018470422 
1575	 0.403205408452001 
1576	 0.403291881003669 
1577	 0.40340079466997 
1578	 0.403475740268991 
1579	 0.403536404293733 
1580	 0.403590839809737 
1581	 0.403627798348256 
1582	 0.40365921030747 
1583	 0.403672882898314 
1584	 0.403702593855037 
1585	 0.403715904999331 
1586	 0.403758984118993 
1587	 0.403838450623368 
1588	 0.403899782974931 
1589	 0.403982036302135 
1590	 0.404030383649956 
1591	 0.404027864961055 
1592	 0.404076673540165 
1593	 0.40413953128987 
1594	 0.404198912423827 
1595	 0.404295852430246 
1596	 0.404371352931183 
1597	 0.404430900802797 
1598	 0.404483282436499 
1599	 0.40454046990917 
1600	 0.404580689663408 
1601	 0.404589077284276 
1602	 0.404612072169797 
1603	 0.404630861702784 
1604	 0.404655651913058 
1605	 0.404696974791314 
1606	 0.404725935877912 
1607	 0.404746862673121 
1608	 0.404769914363734 
1609	 0.404797887800979 
1610	 0.404812447183986 
1611	 0.404854736540371 
1612	 0.404904483027009 
1613	 0.404940276468569 
1614	 0.404994451750901 
1615	 0.405036803360784 
1616	 0.405063576292864 
1617	 0.405093667290787 
1618	 0.405116164640071 
1619	 0.405149212042937 
1620	 0.405182440803375 
1621	 0.405192748376796 
1622	 0.405201789422104 
1623	 0.405194647054193 
1624	 0.405153936552486 
1625	 0.405143230803336 
1626	 0.40513740526328 
1627	 0.405137939382696 
1628	 0.405146274731718 
1629	 0.405161291431599 
1630	 0.405185927735804 
1631	 0.405206734723826 
1632	 0.405234491982663 
1633	 0.405253281826347 
1634	 0.40526867796301 
1635	 0.405281549174984 
1636	 0.405293841164193 
1637	 0.40529716426563 
1638	 0.405287345522999 
1639	 0.405294810855289 
1640	 0.405297136502608 
1641	 0.40532058006273 
1642	 0.405369346806206 
1643	 0.405399501225061 
1644	 0.405436734867384 
1645	 0.405456863352261 
1646	 0.405466587114465 
1647	 0.405469698402385 
1648	 0.405453023100143 
1649	 0.40546061096892 
1650	 0.405467426338388 
1651	 0.405486401578633 
1652	 0.405526841239016 
1653	 0.405557311927005 
1654	 0.405592603028753 
1655	 0.405615648601763 
1656	 0.405638540907408 
1657	 0.405649443713306 
1658	 0.405641415583902 
1659	 0.405646176492376 
1660	 0.405652674914275 
1661	 0.405654357572945 
1662	 0.405665778485518 
1663	 0.405655652011298 
1664	 0.405627202759402 
1665	 0.40560595897751 
1666	 0.405570184427508 
1667	 0.405552253045859 
1668	 0.405542176943712 
1669	 0.405537777494704 
1670	 0.405541542149947 
1671	 0.405549261605738 
1672	 0.405570060279194 
1673	 0.40557789359717 
1674	 0.405587000119933 
1675	 0.405589308260099 
1676	 0.405581785980595 
1677	 0.405575575176583 
1678	 0.405560848005372 
1679	 0.405561317664649 
1680	 0.40557718259817 
1681	 0.405567699532366 
1682	 0.405544703057573 
1683	 0.405544432702056 
1684	 0.405532986803294 
1685	 0.405539053438309 
1686	 0.405585472948124 
1687	 0.40559928846229 
1688	 0.405597428051874 
1689	 0.405597413433853 
1690	 0.405593532084705 
1691	 0.405582800088312 
1692	 0.405561496156178 
1693	 0.405547503098439 
1694	 0.405522918088069 
1695	 0.405520512846074 
1696	 0.405540258856355 
1697	 0.405543023424903 
1698	 0.405547614930047 
1699	 0.405550526258453 
1700	 0.405553303256464 
1701	 0.405539067225214 
1702	 0.405517218262741 
1703	 0.405498980646346 
1704	 0.405457003740145 
1705	 0.405441327139099 
1706	 0.405451899328665 
1707	 0.405440451649703 
1708	 0.40542938338334 
1709	 0.405408960970609 
1710	 0.40535327956354 
1711	 0.405358178375469 
1712	 0.405399879918294 
1713	 0.405415143421698 
1714	 0.405453883859008 
1715	 0.40547515604096 
1716	 0.405469984308087 
1717	 0.405478102336431 
1718	 0.40550853006837 
1719	 0.405504823720246 
1720	 0.405485217618138 
1721	 0.405448706573195 
1722	 0.405385311305092 
1723	 0.405340575293279 
1724	 0.405293278772734 
1725	 0.405231647299049 
1726	 0.405170655672005 
1727	 0.405111032590632 
1728	 0.405025991896808 
1729	 0.404968369496671 
1730	 0.404938347834094 
1731	 0.404883591445351 
1732	 0.40482196344822 
1733	 0.404775258689238 
1734	 0.404723736186461 
1735	 0.404677313003198 
1736	 0.404642510159288 
1737	 0.404609195772956 
1738	 0.404573927686585 
1739	 0.404545829980254 
1740	 0.404541477017582 
1741	 0.404495495482087 
1742	 0.404435533555393 
1743	 0.4043692957886 
1744	 0.404272894856191 
1745	 0.404195892659952 
1746	 0.404113689925598 
1747	 0.404049843252934 
1748	 0.404008729213748 
1749	 0.403969261800342 
1750	 0.403929708848931 
1751	 0.40385550681382 
1752	 0.403785937624322 
1753	 0.403724941038737 
1754	 0.403675923439389 
1755	 0.403657230005436 
1756	 0.403615957110207 
1757	 0.403567733067526 
1758	 0.403535744518456 
1759	 0.40349187042547 
1760	 0.403457798041257 
1761	 0.403431549061476 
1762	 0.403382303844931 
1763	 0.403327268632264 
1764	 0.403265504927491 
1765	 0.403183613468964 
1766	 0.403114332588927 
1767	 0.403074694994196 
1768	 0.40305297496506 
1769	 0.403053523629193 
1770	 0.403058620608012 
1771	 0.403052331676986 
1772	 0.40302355717539 
1773	 0.402984902079661 
1774	 0.402974265529375 
1775	 0.402956954003204 
1776	 0.402947904671794 
1777	 0.402953661846803 
1778	 0.402932669889362 
1779	 0.402900145742739 
1780	 0.402841271986502 
1781	 0.40279775968373 
1782	 0.402789700922786 
1783	 0.40280137958572 
1784	 0.402791766324761 
1785	 0.402764966739499 
1786	 0.402744420082412 
1787	 0.402708839568786 
1788	 0.402710554913277 
1789	 0.402731098247636 
1790	 0.402767031781948 
1791	 0.402827104071748 
1792	 0.402881934840314 
1793	 0.402952834001373 
1794	 0.403024795097556 
1795	 0.403130822225505 
1796	 0.403167802047716 
1797	 0.403167051654429 
1798	 0.40316573117078 
1799	 0.403104715871135 
1800	 0.40307000712089 
1801	 0.402681340274158 
1802	 0.4027018242371 
1803	 0.402743979126233 
1804	 0.402771041644632 
1805	 0.402838191957755 
1806	 0.402864664760721 
1807	 0.40283870267539 
1808	 0.402866480586423 
1809	 0.402927858803384 
1810	 0.402960415180255 
1811	 0.402999552157403 
1812	 0.403044338828781 
1813	 0.403075055128002 
1814	 0.403040930985507 
1815	 0.403011005887393 
1816	 0.403014306715946 
1817	 0.403007969385811 
1818	 0.402991324135008 
1819	 0.402993562520859 
1820	 0.403011724342143 
1821	 0.403015391059418 
1822	 0.403021999848009 
1823	 0.403019908416777 
1824	 0.403039822861247 
1825	 0.403074569276443 
1826	 0.403112468431815 
1827	 0.403122761428708 
1828	 0.403111950479329 
1829	 0.403078279144135 
1830	 0.403027414266481 
1831	 0.402928568842299 
1832	 0.402877430915898 
1833	 0.402858685076388 
1834	 0.402813320013289 
1835	 0.402831223696841 
1836	 0.402861162517228 
1837	 0.402852435553903 
1838	 0.402847732279568 
1839	 0.402844216978535 
1840	 0.402847304701181 
1841	 0.402837169593026 
1842	 0.402799665728845 
1843	 0.402742801788515 
1844	 0.40267698229927 
1845	 0.402591921115543 
1846	 0.402485668865052 
1847	 0.4024141907356 
1848	 0.402359264753242 
1849	 0.402280246588243 
1850	 0.402182801662957 
1851	 0.402083677205978 
1852	 0.401958515683109 
1853	 0.401837828735301 
1854	 0.401718508608004 
1855	 0.401604919252087 
1856	 0.401537058569834 
1857	 0.401435975061114 
1858	 0.401274913067361 
1859	 0.401106817408824 
1860	 0.400910247850536 
1861	 0.400673777067968 
1862	 0.400411742461846 
1863	 0.400144133383307 
1864	 0.399830469185086 
1865	 0.399484731745659 
1866	 0.399108444473094 
1867	 0.398707652035141 
1868	 0.398293923599106 
1869	 0.39786654137971 
1870	 0.397414254811915 
1871	 0.396918923377906 
1872	 0.396392299298966 
1873	 0.395847002318137 
1874	 0.395248540332258 
1875	 0.39459519683251 
1876	 0.393909740666155 
1877	 0.393149758422292 
1878	 0.39230617902328 
1879	 0.391401897157043 
1880	 0.390429704947117 
1881	 0.389383644106717 
1882	 0.388268252072664 
1883	 0.387097497258878 
1884	 0.385834614320142 
1885	 0.384485501816378 
1886	 0.383031470654404 
1887	 0.381495539050394 
1888	 0.379902934291434 
1889	 0.37822331481358 
1890	 0.37649431855047 
1891	 0.374741436192539 
1892	 0.372926947312822 
1893	 0.371086124812199 
1894	 0.369205989004125 
1895	 0.367314166177567 
1896	 0.365383845326693 
1897	 0.363468046155626 
1898	 0.361538861050331 
1899	 0.359634056938391 
1900	 0.357760203598602 
1901	 0.355891751367861 
1902	 0.354084882376211 
1903	 0.352333711006376 
1904	 0.350618273848033 
1905	 0.348935448241116 
1906	 0.347321382163503 
1907	 0.345736831716988 
1908	 0.344232388667588 
1909	 0.342802790623387 
1910	 0.341398196132393 
1911	 0.340097446331342 
1912	 0.338869685330763 
1913	 0.337708588401604 
1914	 0.336625822907841 
1915	 0.335604372983213 
1916	 0.334652730473035 
1917	 0.333759243895355 
1918	 0.332910708182173 
1919	 0.332114805525661 
1920	 0.331410696050767 
1921	 0.330753687523504 
1922	 0.330138919124729 
1923	 0.329578341526369 
1924	 0.329053300405749 
1925	 0.328545228372251 
1926	 0.32811000440012 
1927	 0.327724908768571 
1928	 0.327404953812781 
1929	 0.32714299965351 
1930	 0.326910347988495 
1931	 0.326713404782496 
1932	 0.326571285534804 
1933	 0.326475496115291 
1934	 0.32639845632278 
1935	 0.326376042137948 
1936	 0.326407815071106 
1937	 0.326467850938663 
1938	 0.326551364330145 
1939	 0.326704379231459 
1940	 0.326904514483131 
1941	 0.327160651800897 
1942	 0.327470752970486 
1943	 0.327802298311743 
1944	 0.328138183610185 
1945	 0.32848195220631 
1946	 0.328857805091924 
1947	 0.329242526251841 
1948	 0.329663967951456 
1949	 0.330140598078025 
1950	 0.330606218125684 
1951	 0.331078902529737 
1952	 0.331576076347853 
1953	 0.332083767593712 
1954	 0.332589145186366 
1955	 0.333107647113663 
1956	 0.333620240450903 
1957	 0.334124273842752 
1958	 0.334614319804565 
1959	 0.335112445124676 
1960	 0.335623237257769 
1961	 0.336108932507458 
1962	 0.336576507139948 
1963	 0.33705964006966 
1964	 0.337527246073864 
1965	 0.338004231414626 
1966	 0.338518262158893 
1967	 0.339015802285864 
1968	 0.339505706604526 
1969	 0.339989624594259 
1970	 0.34047562610453 
1971	 0.340956372740512 
1972	 0.341436227702279 
1973	 0.341908862298916 
1974	 0.342392899278024 
1975	 0.34287269919502 
1976	 0.343364222018775 
1977	 0.343870451346216 
1978	 0.344392693365863 
1979	 0.344906918597248 
1980	 0.345420859288396 
1981	 0.345939303461857 
1982	 0.346459023442316 
1983	 0.346977236365132 
1984	 0.347502548294842 
1985	 0.348025883007346 
1986	 0.348556855637193 
1987	 0.349068411688065 
1988	 0.349582952008751 
1989	 0.350067933252756 
1990	 0.350533342633978 
1991	 0.351018126196217 
1992	 0.351514142145546 
1993	 0.35202072779371 
1994	 0.352524659728304 
1995	 0.353049081483733 
1996	 0.3535525434717 
1997	 0.354040723142635 
1998	 0.354540373327226 
1999	 0.355032523148725 
2000	 0.355529497023797 
2001	 0.35603780498448 
2002	 0.356550265340038 
2003	 0.357027762371826 
2004	 0.357519275773479 
2005	 0.357994353789666 
2006	 0.358442208977462 
2007	 0.358914650572377 
2008	 0.359384501529942 
2009	 0.359872729610922 
2010	 0.360394480008654 
2011	 0.360882662334751 
2012	 0.361370678179896 
2013	 0.361852214188944 
2014	 0.362311024537835 
2015	 0.362767088599329 
2016	 0.363243431802472 
2017	 0.363716671606847 
2018	 0.364178443609736 
2019	 0.364636242075337 
2020	 0.36508943169414 
2021	 0.365528558004733 
2022	 0.365974827598045 
2023	 0.366435271409542 
2024	 0.366873339401174 
2025	 0.367294643844682 
2026	 0.367718804116067 
2027	 0.368132300010321 
2028	 0.368534709550505 
2029	 0.36896461329507 
2030	 0.369417786914798 
2031	 0.369849777850771 
2032	 0.370291576762826 
2033	 0.370716460439313 
2034	 0.371118809314885 
2035	 0.371529330033636 
2036	 0.371956274662642 
2037	 0.372350305043747 
2038	 0.37273208581466 
2039	 0.373100511655407 
2040	 0.373454976471847 
2041	 0.373773829913771 
2042	 0.374082782435536 
2043	 0.374437096895369 
2044	 0.374787264590546 
2045	 0.375149375088671 
2046	 0.375504407681344 
2047	 0.375877700036951 
2048	 0.376224147941974 
2049	 0.376554810905277 
2050	 0.376881570161012 
2051	 0.37718758701556 
2052	 0.37750928669739 
2053	 0.377846198618104 
2054	 0.378162696291844 
2055	 0.378472611298105 
2056	 0.378787638306858 
2057	 0.379082062701035 
2058	 0.379346870865607 
2059	 0.379631667837511 
2060	 0.379917689238791 
2061	 0.380203383557262 
2062	 0.380493420188125 
2063	 0.380776691827025 
2064	 0.381063526371681 
2065	 0.381337895824267 
2066	 0.381587555130191 
2067	 0.381862573623607 
2068	 0.382159675843711 
2069	 0.382431227351501 
2070	 0.38269732446156 
2071	 0.382975570904631 
2072	 0.383234530578314 
2073	 0.38345886945842 
2074	 0.383708471746943 
2075	 0.383970769752718 
2076	 0.384222999457713 
2077	 0.384474786953694 
2078	 0.384724277323484 
2079	 0.384973458611234 
2080	 0.385216225698685 
2081	 0.385433023888264 
2082	 0.385682036704614 
2083	 0.385936861404885 
2084	 0.386220720052886 
2085	 0.386476518835179 
2086	 0.386750347936452 
2087	 0.38700033089113 
2088	 0.38721908188313 
2089	 0.387453158917818 
2090	 0.387689611194511 
2091	 0.387931118747372 
2092	 0.388156956647301 
2093	 0.388411729661344 
2094	 0.388710891803658 
2095	 0.388971893026481 
2096	 0.389222653900493 
2097	 0.389478654680253 
2098	 0.389727666286283 
2099	 0.389954076763436 
2100	 0.390192316045651 
2101	 0.390445237561497 
2102	 0.390683482262676 
2103	 0.390903681995434 
2104	 0.391137952712028 
2105	 0.391363922188661 
2106	 0.391620947546507 
2107	 0.39190121274334 
2108	 0.392171292347733 
2109	 0.39246335085673 
2110	 0.392744740494295 
2111	 0.393006409615909 
2112	 0.393281047834045 
2113	 0.393559486634271 
2114	 0.393853118435128 
2115	 0.394136558073971 
2116	 0.394429632214671 
2117	 0.394695318630915 
2118	 0.394955607201917 
2119	 0.395194635024292 
2120	 0.395393152276009 
2121	 0.395628533486429 
2122	 0.395877487681164 
2123	 0.396105624396746 
2124	 0.396339852664627 
2125	 0.3965687790335 
2126	 0.39676738146365 
2127	 0.396986767571431 
2128	 0.397261993071795 
2129	 0.397471502201211 
2130	 0.397653878825688 
2131	 0.397821279746385 
2132	 0.397954694056461 
2133	 0.398032160797125 
2134	 0.398124290561332 
2135	 0.398217852571032 
2136	 0.398270970068985 
2137	 0.398301387395748 
2138	 0.398310217781333 
2139	 0.39827130352283 
2140	 0.398252757050634 
2141	 0.39821201760989 
2142	 0.398193921195268 
2143	 0.398211785065976 
2144	 0.398191951531255 
2145	 0.398163403315256 
2146	 0.398128684972107 
2147	 0.398069974942512 
2148	 0.398007159638292 
2149	 0.397931806346138 
2150	 0.397874059530444 
2151	 0.397747476067287 
2152	 0.397579048667349 
2153	 0.397400378051047 
2154	 0.397175635065485 
2155	 0.396961131566971 
2156	 0.396735462845848 
2157	 0.396508022584059 
2158	 0.396266775344426 
2159	 0.39602818999455 
2160	 0.395790732428995 
2161	 0.395549011705326 
2162	 0.395309070513119 
2163	 0.395059504571244 
2164	 0.394806561429194 
2165	 0.394550158893287 
2166	 0.394263976477518 
2167	 0.39396864368877 
2168	 0.393638540463699 
2169	 0.393262503457209 
2170	 0.392913462922599 
2171	 0.392550834198698 
2172	 0.392191438356877 
2173	 0.391839825562644 
2174	 0.391487643941059 
2175	 0.391121636056251 
2176	 0.390769639058327 
2177	 0.390445387608215 
2178	 0.390090644762253 
2179	 0.389714323361584 
2180	 0.389353701189335 
2181	 0.388990894314313 
2182	 0.388620598121684 
2183	 0.388270292105332 
2184	 0.387889668498876 
2185	 0.387514898367741 
2186	 0.387121854735103 
2187	 0.38674556382313 
2188	 0.386364675582606 
2189	 0.386010184156936 
2190	 0.385663604216995 
2191	 0.385329870602797 
2192	 0.385006772772314 
2193	 0.384715470498805 
2194	 0.384431096158122 
2195	 0.384182668675463 
2196	 0.383978714703502 
2197	 0.383784372940668 
2198	 0.383607298273972 
2199	 0.383455978150505 
2200	 0.383336710618472 
2201	 0.383223620829858 
2202	 0.383121984361122 
2203	 0.383041951241591 
2204	 0.382997051174214 
2205	 0.38297397290478 
2206	 0.382967754670679 
2207	 0.382991650938565 
2208	 0.383042417886418 
2209	 0.383103868038462 
2210	 0.383202442250339 
2211	 0.383358361976507 
2212	 0.383502789758249 
2213	 0.383679118114193 
2214	 0.383827088469544 
2215	 0.383965270190802 
2216	 0.384110514587213 
2217	 0.384264329048556 
2218	 0.384385591458788 
2219	 0.384531715077488 
2220	 0.384617954090021 
2221	 0.384654301974655 
2222	 0.384652467289473 
2223	 0.384636008027368 
2224	 0.384615678873541 
2225	 0.384636178137703 
2226	 0.384683520526588 
2227	 0.384706262202262 
2228	 0.384758057402273 
2229	 0.384753327117928 
2230	 0.384709213555707 
2231	 0.384666026002498 
2232	 0.384581534152585 
2233	 0.384546229113038 
2234	 0.384517821523362 
2235	 0.384500107158027 
2236	 0.384521968458012 
2237	 0.384523899990194 
2238	 0.384530396811594 
2239	 0.384515993911855 
2240	 0.384499413282869 
2241	 0.384462662572136 
2242	 0.384376203710703 
2243	 0.384323548990188 
2244	 0.384298566602252 
2245	 0.38423973083013 
2246	 0.384160416027301 
2247	 0.384120780274429 
2248	 0.384086020350317 
2249	 0.384035169991788 
2250	 0.384018317830932 
2251	 0.384060604885863 
2252	 0.384042657997426 
2253	 0.38399802473328 
2254	 0.383962064165725 
2255	 0.383920457524523 
2256	 0.383867411049929 
2257	 0.383805630197372 
2258	 0.383748918247235 
2259	 0.383673895124739 
2260	 0.383613743913995 
2261	 0.383548405340923 
2262	 0.383521607334231 
2263	 0.383519852295588 
2264	 0.383517269417493 
2265	 0.383560436776109 
2266	 0.383572538317837 
2267	 0.383572390197479 
2268	 0.383562690124046 
2269	 0.383546629438208 
2270	 0.383507638150467 
2271	 0.383473033691427 
2272	 0.383439251963003 
2273	 0.383363494598575 
2274	 0.383339472406151 
2275	 0.383333882314603 
2276	 0.383340680252509 
2277	 0.383355309048265 
2278	 0.383438296899605 
2279	 0.383416791076969 
2280	 0.383331727462106 
2281	 0.383291615947017 
2282	 0.383205648138893 
2283	 0.383179674434423 
2284	 0.383216935343452 
2285	 0.383222821388115 
2286	 0.383218393071654 
2287	 0.383239083079175 
2288	 0.383294951710949 
2289	 0.383303067983792 
2290	 0.383289356525288 
2291	 0.383303955286715 
2292	 0.383300350591291 
2293	 0.383297442058686 
2294	 0.383351511727187 
2295	 0.383343778526456 
2296	 0.383283468545214 
2297	 0.383230285936846 
2298	 0.383146152849282 
2299	 0.38307266775398 
2300	 0.382956184692624 
2301	 0.382857247571042 
2302	 0.382791102571367 
2303	 0.382717087776556 
2304	 0.382697713389887 
2305	 0.382670645350826 
2306	 0.38259646905311 
2307	 0.382503689049374 
2308	 0.382380011034225 
2309	 0.382186545820467 
2310	 0.382064672134944 
2311	 0.381936819285736 
2312	 0.381838269902531 
2313	 0.3818154047106 
2314	 0.381715088233367 
2315	 0.381603828411698 
2316	 0.381478277765777 
2317	 0.381276076706304 
2318	 0.381138945818263 
2319	 0.381045917100959 
2320	 0.380907435656588 
2321	 0.38078950346666 
2322	 0.380644766053975 
2323	 0.380443957860124 
2324	 0.380262454045976 
2325	 0.380073538902365 
2326	 0.37990022838283 
2327	 0.379720958478946 
2328	 0.379570373720113 
2329	 0.379462152989082 
2330	 0.379362763666928 
2331	 0.379237682835076 
2332	 0.379129741038399 
2333	 0.378965522115016 
2334	 0.378799812194585 
2335	 0.37870146611692 
2336	 0.378568981166478 
2337	 0.378422877035398 
2338	 0.378286613827036 
2339	 0.378108188729381 
2340	 0.377871910666492 
2341	 0.377650714311595 
2342	 0.377446126861155 
2343	 0.377207449513066 
2344	 0.37698266506048 
2345	 0.376728905245884 
2346	 0.376438467092252 
2347	 0.376161280951213 
2348	 0.375897395900243 
2349	 0.375602766023879 
2350	 0.375267317793728 
2351	 0.375001512341793 
2352	 0.374754097911092 
2353	 0.374479749650035 
2354	 0.374267382413524 
2355	 0.373992387944897 
2356	 0.373637053977105 
2357	 0.373316915342719 
2358	 0.372990071386296 
2359	 0.372697419940821 
2360	 0.37244851053493 
2361	 0.37214714447434 
2362	 0.371847148534393 
2363	 0.371524442024151 
2364	 0.371135742126998 
2365	 0.370782257381667 
2366	 0.370445487653373 
2367	 0.370104534674299 
2368	 0.369777261780261 
2369	 0.369443622838561 
2370	 0.369138631969844 
2371	 0.368754044776911 
2372	 0.368348472433489 
2373	 0.367915971120204 
2374	 0.367502328108323 
2375	 0.367118149684868 
2376	 0.366723689399707 
2377	 0.366372490961303 
2378	 0.365947154287354 
2379	 0.365517193499194 
2380	 0.365133406997642 
2381	 0.364742037766894 
2382	 0.364379874989404 
2383	 0.364023136566635 
2384	 0.363722233289762 
2385	 0.363339522037033 
2386	 0.362839868426062 
2387	 0.362390123356603 
2388	 0.361923810939217 
2389	 0.361489692334262 
2390	 0.361179861146473 
2391	 0.360847102116101 
2392	 0.3604821282575 
2393	 0.36012758210217 
2394	 0.359761802119899 
2395	 0.359457529062292 
2396	 0.359054697335033 
2397	 0.358571990516194 
2398	 0.358199928451179 
2399	 0.357787323170206 
2400	 0.35740998625557 
2401	 0.357084629501308 
2402	 0.356696766170602 
2403	 0.356283225683086 
2404	 0.355822261867135 
2405	 0.355469401350088 
2406	 0.355132887203318 
2407	 0.354667417472985 
2408	 0.354221399569337 
2409	 0.353732330704267 
2410	 0.353240682291822 
2411	 0.352840663444725 
2412	 0.352507645340256 
2413	 0.35216517300817 
2414	 0.351703019366579 
2415	 0.351209380495059 
2416	 0.350771274161306 
2417	 0.350308601397467 
2418	 0.349931173020271 
2419	 0.349635504659011 
2420	 0.349318395064023 
2421	 0.349064741834993 
2422	 0.348710440626078 
2423	 0.348321478874545 
2424	 0.347893518272911 
2425	 0.347393881907237 
2426	 0.346895694131447 
2427	 0.346379560507711 
2428	 0.345902188975509 
2429	 0.34537470285948 
2430	 0.344915248259249 
2431	 0.344523054436246 
2432	 0.344094993905863 
2433	 0.343717819217537 
2434	 0.343299549462885 
2435	 0.342793968777904 
2436	 0.342410766742323 
2437	 0.34213139853571 
2438	 0.341757604654379 
2439	 0.341411705614045 
2440	 0.341046177929816 
2441	 0.340566564636498 
2442	 0.340128377176457 
2443	 0.339738068638735 
2444	 0.339281238244838 
2445	 0.338810398545046 
2446	 0.338353754541182 
2447	 0.33787647872583 
2448	 0.337428219040526 
2449	 0.336965233449044 
2450	 0.336453252934622 
2451	 0.335981558383055 
2452	 0.335471159479899 
2453	 0.334868026818192 
2454	 0.334409787500376 
2455	 0.333983945937003 
2456	 0.333570722542203 
2457	 0.333296100002738 
2458	 0.332937120768666 
2459	 0.332488793977593 
2460	 0.332092650375993 
2461	 0.331681278383593 
2462	 0.331288128234817 
2463	 0.331029812194092 
2464	 0.330669442490971 
2465	 0.330173483377034 
2466	 0.329778589647918 
2467	 0.329392714264059 
2468	 0.328999536592467 
2469	 0.328633054414255 
2470	 0.328341811334196 
2471	 0.328219129866113 
2472	 0.328045442840783 
2473	 0.327807757423834 
2474	 0.327604362230163 
2475	 0.327152122133776 
2476	 0.326705302583008 
2477	 0.326323492486541 
2478	 0.325876379037283 
2479	 0.325464207985792 
2480	 0.325024798289219 
2481	 0.324649104100017 
2482	 0.324184789511672 
2483	 0.323798078717707 
2484	 0.32359847482822 
2485	 0.323488781339737 
2486	 0.323589131923605 
2487	 0.323435239465763 
2488	 0.323134345397415 
2489	 0.322888731065624 
2490	 0.322486043726232 
2491	 0.322273263393456 
2492	 0.322058125920031 
2493	 0.321705802328978 
2494	 0.321410774846453 
2495	 0.320993471155808 
2496	 0.320684876093999 
2497	 0.32053431221737 
2498	 0.320151890448059 
2499	 0.319763053647537 
2500	 0.319635975796914 
