Wavelength	MM600005.asd
350	 0.075014625137488 
351	 7.50024421256856E-02 
352	 6.90907372629084E-02 
353	 0.057156333346644 
354	 6.35616014462644E-02 
355	 6.99138531008149E-02 
356	 7.18908669419418E-02 
357	 7.06762174075121E-02 
358	 7.17841890214267E-02 
359	 7.32369402831869E-02 
360	 7.39885440580815E-02 
361	 7.36922400601059E-02 
362	 7.03691414572382E-02 
363	 6.99270103598962E-02 
364	 7.32752285321645E-02 
365	 7.24591864248236E-02 
366	 7.29203134586238E-02 
367	 7.37120698246732E-02 
368	 7.33629555000238E-02 
369	 7.52313283675378E-02 
370	 7.72614872995107E-02 
371	 0.07712024475721 
372	 0.07335914969164 
373	 7.47798658794388E-02 
374	 7.76449868575318E-02 
375	 7.91063167876845E-02 
376	 8.10202302365441E-02 
377	 8.11565824089864E-02 
378	 8.09821121401766E-02 
379	 8.20938581062601E-02 
380	 8.17974059609646E-02 
381	 8.06715915309645E-02 
382	 8.08168918037818E-02 
383	 8.47361784160926E-02 
384	 8.65553325476649E-02 
385	 8.67846293316403E-02 
386	 8.67882822079132E-02 
387	 8.76205399316823E-02 
388	 8.81353948776758E-02 
389	 8.89478955310698E-02 
390	 0.090528870708607 
391	 8.98417795556288E-02 
392	 9.01827377107301E-02 
393	 9.25407544351144E-02 
394	 9.55195315425735E-02 
395	 9.52418085745675E-02 
396	 9.40030704159545E-02 
397	 0.094076896566242 
398	 9.56065823426246E-02 
399	 9.53920482642838E-02 
400	 9.52865442043352E-02 
401	 9.78529648374162E-02 
402	 9.84198000374263E-02 
403	 9.80671493073963E-02 
404	 9.80484174551137E-02 
405	 9.93079155090968E-02 
406	 0.100806511888601 
407	 0.10175400815106 
408	 0.101775659837981 
409	 0.101080229414671 
410	 0.101583635079605 
411	 0.102766070040539 
412	 0.1031253914782 
413	 0.103316322479342 
414	 0.103454046265685 
415	 0.103818438252836 
416	 0.104993276780954 
417	 0.104618918667784 
418	 0.104074208753799 
419	 0.104805107649851 
420	 0.105330749407953 
421	 0.10520864983285 
422	 0.105112818741327 
423	 0.10614223068845 
424	 0.105785102347717 
425	 0.105154456933491 
426	 0.105138809762392 
427	 0.105393766287625 
428	 0.105645834594607 
429	 0.105765293609814 
430	 0.105718527273222 
431	 0.105547216261686 
432	 0.105573910769004 
433	 0.105817080606514 
434	 0.106001196683092 
435	 0.105950308812007 
436	 0.105951018567606 
437	 0.106172768507561 
438	 0.106189606906426 
439	 0.10657416401325 
440	 0.107082692840879 
441	 0.107158971774064 
442	 0.107271795154583 
443	 0.10769734543117 
444	 0.108270086301108 
445	 0.108194519464922 
446	 0.108400758966861 
447	 0.108854462329364 
448	 0.109268883961744 
449	 0.109581958283545 
450	 0.109803860226903 
451	 0.110051318342276 
452	 0.110497488636294 
453	 0.110743533206236 
454	 0.110842091865856 
455	 0.110941588858596 
456	 0.111239071863409 
457	 0.111322839242617 
458	 0.111410565538414 
459	 0.111887721543376 
460	 0.112088841577071 
461	 0.11212077720551 
462	 0.112180600885908 
463	 0.112487007926232 
464	 0.112719099050823 
465	 0.112846543779982 
466	 0.11293281584583 
467	 0.113040090634638 
468	 0.113230995785392 
469	 0.113435750767198 
470	 0.113496570290959 
471	 0.113635118515845 
472	 0.113708062394418 
473	 0.113679025927258 
474	 0.113912008239878 
475	 0.114186444329647 
476	 0.114304389212068 
477	 0.114171324032948 
478	 0.114347076336 
479	 0.114630381098524 
480	 0.114828297594248 
481	 0.114855308541774 
482	 0.114974586234395 
483	 0.115197050064377 
484	 0.115433553830931 
485	 0.115548036654867 
486	 0.115457586352279 
487	 0.115347360002253 
488	 0.11558808344576 
489	 0.115857624184103 
490	 0.116026968332162 
491	 0.116085547175627 
492	 0.116231267502954 
493	 0.116226831811673 
494	 0.116145434781811 
495	 0.11619648416954 
496	 0.116409319337459 
497	 0.116607995286536 
498	 0.116704740965755 
499	 0.116770120413661 
500	 0.116783972609668 
501	 0.116807070358404 
502	 0.116896183350668 
503	 0.116995753022313 
504	 0.117086193770672 
505	 0.11717450497211 
506	 0.117287971733892 
507	 0.11738177057211 
508	 0.117412603420589 
509	 0.117409383977298 
510	 0.117601185941885 
511	 0.117732286433026 
512	 0.117776729895901 
513	 0.117833433718234 
514	 0.117918015169495 
515	 0.117996225803302 
516	 0.118069914844479 
517	 0.118227490219405 
518	 0.118231998922004 
519	 0.118177388399748 
520	 0.118232274668586 
521	 0.118316938228325 
522	 0.118453121446736 
523	 0.11857508703979 
524	 0.118529085316 
525	 0.118646996939823 
526	 0.118750332318539 
527	 0.118702104272763 
528	 0.118897614767381 
529	 0.118909445803034 
530	 0.118840500569683 
531	 0.119090245930794 
532	 0.119122260313428 
533	 0.119154994839913 
534	 0.119305800618037 
535	 0.119236381123497 
536	 0.119275326807825 
537	 0.11940647660651 
538	 0.119490745287693 
539	 0.119551911139231 
540	 0.119598022093229 
541	 0.11965797417702 
542	 0.119790551997543 
543	 0.119839474763251 
544	 0.119851295535369 
545	 0.119904519255197 
546	 0.11996125444378 
547	 0.120004221782766 
548	 0.120038126305256 
549	 0.120084780064277 
550	 0.120117498443963 
551	 0.120200038383357 
552	 0.120350343096582 
553	 0.120430084309997 
554	 0.120503030836185 
555	 0.120568319078837 
556	 0.120604800520486 
557	 0.120717436956386 
558	 0.120802367739566 
559	 0.120826691772332 
560	 0.120926044526541 
561	 0.120980776625821 
562	 0.120997562510746 
563	 0.121031459593851 
564	 0.121159110246424 
565	 0.121191734291259 
566	 0.121128617945162 
567	 0.121191013983278 
568	 0.121318672113428 
569	 0.121498123935186 
570	 0.12170774784572 
571	 0.12189374247398 
572	 0.121978831946211 
573	 0.122031686316171 
574	 0.122203913187732 
575	 0.122261910524346 
576	 0.122342380294981 
577	 0.122500639223447 
578	 0.122475873309734 
579	 0.122471495503221 
580	 0.122514967790001 
581	 0.12257055377333 
582	 0.122700680899945 
583	 0.122858798733563 
584	 0.123013903538046 
585	 0.123172932823131 
586	 0.123287430899853 
587	 0.123332845242313 
588	 0.123317082797477 
589	 0.123331851698317 
590	 0.123371034714999 
591	 0.123433940054513 
592	 0.123525855552266 
593	 0.123607170671663 
594	 0.123690011805337 
595	 0.123793076971644 
596	 0.123931397449791 
597	 0.124022982836449 
598	 0.12408307170441 
599	 0.124176500556382 
600	 0.124284060629045 
601	 0.12437287844747 
602	 0.124423010037498 
603	 0.124434832081233 
604	 0.124485518172303 
605	 0.124565575242802 
606	 0.124632719358096 
607	 0.124663219135861 
608	 0.1247038221687 
609	 0.124783669449992 
610	 0.124905159514994 
611	 0.124947377709615 
612	 0.125035067877667 
613	 0.125245520540294 
614	 0.125291916287807 
615	 0.125288711016863 
616	 0.125324707034828 
617	 0.125451893715133 
618	 0.125514277676147 
619	 0.125544482368717 
620	 0.125582804037236 
621	 0.125615936483221 
622	 0.125690376476985 
623	 0.125766947061378 
624	 0.125790136531495 
625	 0.125854237945277 
626	 0.125930894315058 
627	 0.125989149842346 
628	 0.12600796273772 
629	 0.126023788060437 
630	 0.126058854477874 
631	 0.126118542524778 
632	 0.126164524706848 
633	 0.126203360815308 
634	 0.12625024460078 
635	 0.126323524405803 
636	 0.126391468749564 
637	 0.126422044251922 
638	 0.126415945331379 
639	 0.12644843827544 
640	 0.126497501449094 
641	 0.126558959928696 
642	 0.126630348790195 
643	 0.126684024348351 
644	 0.126696296415389 
645	 0.126693748135877 
646	 0.126775037600095 
647	 0.126809721973604 
648	 0.126827878115901 
649	 0.126886926728972 
650	 0.126948288964883 
651	 0.127013610906641 
652	 0.127057627418524 
653	 0.127041368011681 
654	 0.127120126146695 
655	 0.127194413070458 
656	 0.127192997522706 
657	 0.127228551896781 
658	 0.127325383322853 
659	 0.127414149415245 
660	 0.12740230012748 
661	 0.127421649228572 
662	 0.127472838485543 
663	 0.12753674279118 
664	 0.127586783003354 
665	 0.127594655632666 
666	 0.127603132140078 
667	 0.127653941455614 
668	 0.127690626782495 
669	 0.127722660562885 
670	 0.127763675685142 
671	 0.127826442529823 
672	 0.127871576300065 
673	 0.127927003443063 
674	 0.128002390723374 
675	 0.128036588177192 
676	 0.128050920725547 
677	 0.128077166345126 
678	 0.128139707629252 
679	 0.128168076205806 
680	 0.128193426015235 
681	 0.128247907838528 
682	 0.128354017473029 
683	 0.128362877028903 
684	 0.128348596251515 
685	 0.128404767022335 
686	 0.128465772056373 
687	 0.128521694781796 
688	 0.128570612824357 
689	 0.128614499812894 
690	 0.128618093741769 
691	 0.128640080709502 
692	 0.128709496868705 
693	 0.128771688029195 
694	 0.128838274931222 
695	 0.128892835891027 
696	 0.128917579322722 
697	 0.128927432649235 
698	 0.128985535434156 
699	 0.129077321692746 
700	 0.129108578777625 
701	 0.129167774258588 
702	 0.129202134790892 
703	 0.129188549946422 
704	 0.129272870112027 
705	 0.129342949462583 
706	 0.129392953914501 
707	 0.129463418225802 
708	 0.129490616344373 
709	 0.129487592927819 
710	 0.129492432975761 
711	 0.129567058148337 
712	 0.129635457597626 
713	 0.129690937420735 
714	 0.129747704004342 
715	 0.129824462745638 
716	 0.129858823288017 
717	 0.129859029786485 
718	 0.12988574237224 
719	 0.129955266546795 
720	 0.130017761894837 
721	 0.130047413967614 
722	 0.130081910125558 
723	 0.13013827221846 
724	 0.130201569546423 
725	 0.130243773779085 
726	 0.130239470760378 
727	 0.130246024696434 
728	 0.130296872428021 
729	 0.130392285428431 
730	 0.13042358936239 
731	 0.130427726602162 
732	 0.13045726208691 
733	 0.130540035768854 
734	 0.130576533208348 
735	 0.130579290678212 
736	 0.130600776349879 
737	 0.130606157230022 
738	 0.130655584833622 
739	 0.130735794536005 
740	 0.130751239273046 
741	 0.130790692908226 
742	 0.130815998665654 
743	 0.130806679692753 
744	 0.130866361043064 
745	 0.130907244175322 
746	 0.130926447435512 
747	 0.130958646155697 
748	 0.130995335096565 
749	 0.131005455016717 
750	 0.130997205722406 
751	 0.131026821643262 
752	 0.131056301448031 
753	 0.131078477752355 
754	 0.131098502406636 
755	 0.131138244416021 
756	 0.131171356028181 
757	 0.131185407916585 
758	 0.131182817174137 
759	 0.131211479598658 
760	 0.131233820624403 
761	 0.131241414397559 
762	 0.131271656176535 
763	 0.131265744422852 
764	 0.131272955162835 
765	 0.131325709614027 
766	 0.131331829241828 
767	 0.131334481961008 
768	 0.131336667584378 
769	 0.131327946203716 
770	 0.131351124529426 
771	 0.131365301266253 
772	 0.131365938214778 
773	 0.131398973240439 
774	 0.131401689691955 
775	 0.131392882878357 
776	 0.131395366768882 
777	 0.131386939872244 
778	 0.13140734908995 
779	 0.131444970135118 
780	 0.131467413340512 
781	 0.131479902745607 
782	 0.131497069608019 
783	 0.131514634295473 
784	 0.13150886737477 
785	 0.131500435229912 
786	 0.131498920362347 
787	 0.131507610087788 
788	 0.131521181712541 
789	 0.13153930164056 
790	 0.131555656664573 
791	 0.131564252563181 
792	 0.131573832735303 
793	 0.13156295225688 
794	 0.131551184209395 
795	 0.131588925640106 
796	 0.131638913144633 
797	 0.131661456942036 
798	 0.13165056331929 
799	 0.131660311296818 
800	 0.131670532760345 
801	 0.131679655584262 
802	 0.131690460818544 
803	 0.131704180753015 
804	 0.13171779187638 
805	 0.131733395448852 
806	 0.131753095051182 
807	 0.131749630879024 
808	 0.131750380917566 
809	 0.131770897595914 
810	 0.131802636532721 
811	 0.131815146970467 
812	 0.131818011649713 
813	 0.131830975645705 
814	 0.131881286003578 
815	 0.131858346828773 
816	 0.131816169858146 
817	 0.131855619087212 
818	 0.131919373230661 
819	 0.131961527382664 
820	 0.131970293707877 
821	 0.13196773388078 
822	 0.131999541904455 
823	 0.13202373664092 
824	 0.132020784474903 
825	 0.132030289270996 
826	 0.132054455899819 
827	 0.132080764280836 
828	 0.132100470809094 
829	 0.13213818387574 
830	 0.132137915663721 
831	 0.132135801647335 
832	 0.132195821799403 
833	 0.132257501405035 
834	 0.132261938458826 
835	 0.132224057777433 
836	 0.132225435735683 
837	 0.132270737007999 
838	 0.132318901142666 
839	 0.132348685618556 
840	 0.132388498162005 
841	 0.132407254346404 
842	 0.132405461693113 
843	 0.132404765231066 
844	 0.132468437676812 
845	 0.132475250961742 
846	 0.132459729709397 
847	 0.132504335486806 
848	 0.132502729693851 
849	 0.132499523277915 
850	 0.132533899308698 
851	 0.1326184253578 
852	 0.132630527092826 
853	 0.132619338940405 
854	 0.132634274938668 
855	 0.132684499066755 
856	 0.132717748290793 
857	 0.132722571471279 
858	 0.132717994475167 
859	 0.132773083683453 
860	 0.132808745247182 
861	 0.132831253715357 
862	 0.132875017848127 
863	 0.13295302152097 
864	 0.133015787959147 
865	 0.133043535621252 
866	 0.133040060319893 
867	 0.133008213075801 
868	 0.132977829127167 
869	 0.132995002931279 
870	 0.133103032349776 
871	 0.133137173669276 
872	 0.133151976170054 
873	 0.133199331898561 
874	 0.133263255034483 
875	 0.133330775625615 
876	 0.133357261257527 
877	 0.133323795423854 
878	 0.133283067606639 
879	 0.133321194872225 
880	 0.133387318741169 
881	 0.133409251421525 
882	 0.133462525449568 
883	 0.133518430897296 
884	 0.133550429030385 
885	 0.133554175610473 
886	 0.133645899368363 
887	 0.133658497074314 
888	 0.133604882823937 
889	 0.133648520249423 
890	 0.133671107196872 
891	 0.133695893828669 
892	 0.133736283815297 
893	 0.133772008922389 
894	 0.133789880908139 
895	 0.13379657614849 
896	 0.133831040217415 
897	 0.13397944346309 
898	 0.13402998136972 
899	 0.133983048537698 
900	 0.133932971995246 
901	 0.134057062525611 
902	 0.134132744490239 
903	 0.134130504189983 
904	 0.134107150113848 
905	 0.134155915154822 
906	 0.134198930789435 
907	 0.134225735204796 
908	 0.134266905673519 
909	 0.134380283403761 
910	 0.134394479913317 
911	 0.134373576420348 
912	 0.134496589611099 
913	 0.134540641637161 
914	 0.134567128973406 
915	 0.1345918673175 
916	 0.134584817957167 
917	 0.13467856359112 
918	 0.134799401340364 
919	 0.134852147739136 
920	 0.134775369649545 
921	 0.134824395505974 
922	 0.134908448248732 
923	 0.13495919803212 
924	 0.135031147470069 
925	 0.135043921978321 
926	 0.135061185855671 
927	 0.135118163661045 
928	 0.13514234678366 
929	 0.135149159715088 
930	 0.135182739992001 
931	 0.13525762313608 
932	 0.135302451677475 
933	 0.135403443344474 
934	 0.13545431206499 
935	 0.135400824199069 
936	 0.135498891806943 
937	 0.135545248985037 
938	 0.135577524888459 
939	 0.135663269535002 
940	 0.135682077677949 
941	 0.135731868989247 
942	 0.135800794551392 
943	 0.135841490737749 
944	 0.135857889928878 
945	 0.135848715384854 
946	 0.135892746528457 
947	 0.136037937459887 
948	 0.136053919261844 
949	 0.136056662576307 
950	 0.136091356772493 
951	 0.136166292518404 
952	 0.136350926597884 
953	 0.136404407367782 
954	 0.136364662117809 
955	 0.136408134034626 
956	 0.136461570180867 
957	 0.136542614932787 
958	 0.136584525382072 
959	 0.136519772587601 
960	 0.13656343953028 
961	 0.136618459944696 
962	 0.136668978110237 
963	 0.136749882283157 
964	 0.136785321005305 
965	 0.136856285163167 
966	 0.136968962549527 
967	 0.137064823011935 
968	 0.137075705896187 
969	 0.1371009966688 
970	 0.137206260991261 
971	 0.137375363557225 
972	 0.137359234053026 
973	 0.137307673865696 
974	 0.137290846205826 
975	 0.137318320665032 
976	 0.137528429482765 
977	 0.137679749671822 
978	 0.137747144422381 
979	 0.137830060780643 
980	 0.137732913193059 
981	 0.137722678907447 
982	 0.13782554116116 
983	 0.137903400813385 
984	 0.137940496085712 
985	 0.137986583929825 
986	 0.138030679503059 
987	 0.138040338561257 
988	 0.138080788723138 
989	 0.138051463211971 
990	 0.138015919872389 
991	 0.138100927526955 
992	 0.138303156649729 
993	 0.138365742284091 
994	 0.138409900002994 
995	 0.138613049171987 
996	 0.138603940245097 
997	 0.138682359881802 
998	 0.138725011435785 
999	 0.138620731035231 
1000	 0.138929223935911 
1001	 0.13886028998112 
1002	 0.138903106813463 
1003	 0.13898639044512 
1004	 0.139073488102247 
1005	 0.139190307670704 
1006	 0.139268696182717 
1007	 0.139362409523756 
1008	 0.139416385469161 
1009	 0.139401981930474 
1010	 0.139417101384558 
1011	 0.139481271954922 
1012	 0.139508498653004 
1013	 0.139543237036587 
1014	 0.139645700601194 
1015	 0.139657179536481 
1016	 0.139638765978875 
1017	 0.139686163481408 
1018	 0.139782697949153 
1019	 0.139802084330325 
1020	 0.139813797896479 
1021	 0.139840069465874 
1022	 0.139836670042586 
1023	 0.139863852152984 
1024	 0.139896799660407 
1025	 0.139996953767848 
1026	 0.140079403821958 
1027	 0.140059138272407 
1028	 0.140099709618947 
1029	 0.140164784158041 
1030	 0.140191018078821 
1031	 0.140218609147139 
1032	 0.14027936504423 
1033	 0.140291783726149 
1034	 0.140255757923161 
1035	 0.140248096300655 
1036	 0.140284954391942 
1037	 0.140381879939474 
1038	 0.14048154249493 
1039	 0.140545067728964 
1040	 0.140569029024789 
1041	 0.14055638953962 
1042	 0.140555036921846 
1043	 0.14060658558138 
1044	 0.14066861612289 
1045	 0.140762175807184 
1046	 0.140841889188783 
1047	 0.140938779459013 
1048	 0.140997572164043 
1049	 0.141007915810413 
1050	 0.141077202047177 
1051	 0.141129586532841 
1052	 0.141156160471373 
1053	 0.141248078783958 
1054	 0.141346858042282 
1055	 0.141411366893642 
1056	 0.141472076736936 
1057	 0.141528379149545 
1058	 0.141565920020949 
1059	 0.141592600035787 
1060	 0.141606664756342 
1061	 0.141636886966667 
1062	 0.141667283059875 
1063	 0.141663941666689 
1064	 0.141711113862994 
1065	 0.141777686581268 
1066	 0.141789493442682 
1067	 0.141813934325608 
1068	 0.141832378962221 
1069	 0.14183947851733 
1070	 0.141840471351877 
1071	 0.141833940189612 
1072	 0.141843602787564 
1073	 0.141862931266293 
1074	 0.141858930844353 
1075	 0.141849829735231 
1076	 0.141879128027138 
1077	 0.141854090122931 
1078	 0.141767072370068 
1079	 0.141757749914375 
1080	 0.141744708057522 
1081	 0.141726180299894 
1082	 0.141778194353733 
1083	 0.141779889993564 
1084	 0.141749396285331 
1085	 0.141740239068309 
1086	 0.141729483108466 
1087	 0.141713023364019 
1088	 0.141702435675603 
1089	 0.141697348304584 
1090	 0.141661567915968 
1091	 0.141654292968925 
1092	 0.141635386769376 
1093	 0.141634226148175 
1094	 0.14166744918282 
1095	 0.141624539415001 
1096	 0.141605824532808 
1097	 0.141625796704255 
1098	 0.14163662723642 
1099	 0.141661001000213 
1100	 0.141677261171977 
1101	 0.141687409037567 
1102	 0.141699470729827 
1103	 0.141702298950725 
1104	 0.141723800849691 
1105	 0.141714707627569 
1106	 0.141742207433464 
1107	 0.141818170833159 
1108	 0.141869756314045 
1109	 0.141937127330532 
1110	 0.142002407492162 
1111	 0.142036361089993 
1112	 0.141992141565896 
1113	 0.142036386593842 
1114	 0.142124610669129 
1115	 0.142188315150076 
1116	 0.142283639064686 
1117	 0.142358866451846 
1118	 0.142418520395092 
1119	 0.142459991921314 
1120	 0.142520725261985 
1121	 0.142586275612524 
1122	 0.142635765889646 
1123	 0.14269595309694 
1124	 0.142754214213138 
1125	 0.142799038128169 
1126	 0.142873327214553 
1127	 0.142968523270317 
1128	 0.143045967694141 
1129	 0.143147681045042 
1130	 0.143220532297978 
1131	 0.143253254271044 
1132	 0.143319996896712 
1133	 0.14339505227979 
1134	 0.143464275066793 
1135	 0.143555823660907 
1136	 0.143632172675223 
1137	 0.143675589905008 
1138	 0.143715151598703 
1139	 0.143761468040741 
1140	 0.14379473507911 
1141	 0.143844194189112 
1142	 0.14391319884949 
1143	 0.143963354360592 
1144	 0.144001323336526 
1145	 0.144053406311601 
1146	 0.144110734200055 
1147	 0.144160719755594 
1148	 0.144217332064305 
1149	 0.144268775846382 
1150	 0.144314986593153 
1151	 0.14434740832911 
1152	 0.144389211812312 
1153	 0.144443997226892 
1154	 0.144490622127862 
1155	 0.144545830337198 
1156	 0.14457469445511 
1157	 0.144580041946476 
1158	 0.144609014738437 
1159	 0.144626860320495 
1160	 0.144661140152778 
1161	 0.144738491135306 
1162	 0.144777301700915 
1163	 0.144796338528196 
1164	 0.144816622651913 
1165	 0.144827753760214 
1166	 0.144820982335346 
1167	 0.144834130654905 
1168	 0.144864703418272 
1169	 0.144884770253933 
1170	 0.14490980149711 
1171	 0.144929136857599 
1172	 0.144944995998583 
1173	 0.144958172879537 
1174	 0.144966976266031 
1175	 0.144982665361283 
1176	 0.144991197441936 
1177	 0.145011723828333 
1178	 0.145053701427343 
1179	 0.1450767607316 
1180	 0.145095718773308 
1181	 0.145114034859414 
1182	 0.145120886367035 
1183	 0.145126845883541 
1184	 0.145143401398046 
1185	 0.145168320331259 
1186	 0.145187691186621 
1187	 0.145211803702997 
1188	 0.145228822778107 
1189	 0.145243292213013 
1190	 0.145252337441085 
1191	 0.14524699809023 
1192	 0.145261104929195 
1193	 0.145282791375946 
1194	 0.145301033877542 
1195	 0.145334423872446 
1196	 0.145357590928229 
1197	 0.145364494004752 
1198	 0.145381103716539 
1199	 0.145400711442293 
1200	 0.14542342953019 
1201	 0.145445886880077 
1202	 0.145473461699081 
1203	 0.145497634063999 
1204	 0.145522040170279 
1205	 0.14554292265093 
1206	 0.145566483859315 
1207	 0.145579785947945 
1208	 0.145576253512551 
1209	 0.14559081137828 
1210	 0.145610642456543 
1211	 0.145627619028465 
1212	 0.145658064108079 
1213	 0.145679596699582 
1214	 0.145686827343481 
1215	 0.145701745697444 
1216	 0.145719008643317 
1217	 0.145737234197509 
1218	 0.145760500619 
1219	 0.145794704690512 
1220	 0.145812170738267 
1221	 0.145824069745625 
1222	 0.14583917468459 
1223	 0.145840364476108 
1224	 0.145857386606667 
1225	 0.145887143060555 
1226	 0.145912820214088 
1227	 0.145948588764446 
1228	 0.145971933324855 
1229	 0.145979682684623 
1230	 0.146002530679973 
1231	 0.146034060877953 
1232	 0.146055496354369 
1233	 0.146076512150783 
1234	 0.146106044205266 
1235	 0.146127834558129 
1236	 0.14613651184022 
1237	 0.146153512903506 
1238	 0.146182490079717 
1239	 0.146195986767429 
1240	 0.146200439777314 
1241	 0.146205367225621 
1242	 0.146191183930451 
1243	 0.146203600493646 
1244	 0.146236569238487 
1245	 0.14625463061471 
1246	 0.146287476845145 
1247	 0.146305552757617 
1248	 0.146300286551016 
1249	 0.146303680938702 
1250	 0.146305723078279 
1251	 0.146301622799146 
1252	 0.146315248559625 
1253	 0.146343029211168 
1254	 0.146350753949421 
1255	 0.146360516548541 
1256	 0.146368712097632 
1257	 0.146359099434161 
1258	 0.146360311216237 
1259	 0.146371199764479 
1260	 0.146383187181273 
1261	 0.14639315656108 
1262	 0.146405007953776 
1263	 0.146429311313459 
1264	 0.146442641029228 
1265	 0.146451214016709 
1266	 0.146456504508807 
1267	 0.14645388351914 
1268	 0.14644907310733 
1269	 0.146458098632431 
1270	 0.146465659776394 
1271	 0.146487143103752 
1272	 0.146529011671665 
1273	 0.146557858659908 
1274	 0.146585896218123 
1275	 0.146617783190866 
1276	 0.146640650337372 
1277	 0.146683790216796 
1278	 0.146749954293134 
1279	 0.146796564655546 
1280	 0.146842605086817 
1281	 0.146889415941709 
1282	 0.146927146603635 
1283	 0.146965861658854 
1284	 0.147012098287243 
1285	 0.147055335946777 
1286	 0.147078037511179 
1287	 0.147112652282381 
1288	 0.147148149512972 
1289	 0.147193715509101 
1290	 0.147215299517239 
1291	 0.147232084286396 
1292	 0.147235807015881 
1293	 0.147218100992817 
1294	 0.147205136648844 
1295	 0.147194632605812 
1296	 0.14717186105146 
1297	 0.147144399644202 
1298	 0.147101230026102 
1299	 0.147040929540527 
1300	 0.14698305004675 
1301	 0.146900189415954 
1302	 0.14684007153058 
1303	 0.146789555684626 
1304	 0.146747261973861 
1305	 0.146712600556427 
1306	 0.146669455054147 
1307	 0.146618801092237 
1308	 0.146565211181343 
1309	 0.146508506745568 
1310	 0.146445571344232 
1311	 0.146392702787524 
1312	 0.146337463632164 
1313	 0.14628669566991 
1314	 0.146237562568457 
1315	 0.146199307605826 
1316	 0.14616736284701 
1317	 0.146140418727913 
1318	 0.146129110462732 
1319	 0.146110432113351 
1320	 0.14607967042539 
1321	 0.146066325567566 
1322	 0.146059126278983 
1323	 0.146060537699547 
1324	 0.146066489852677 
1325	 0.146087895759326 
1326	 0.146096492199932 
1327	 0.146088580171788 
1328	 0.146090465094603 
1329	 0.146091075609631 
1330	 0.146107465644289 
1331	 0.146140183378466 
1332	 0.146166709784228 
1333	 0.146195512384132 
1334	 0.14623126047021 
1335	 0.146260889411047 
1336	 0.146307398261285 
1337	 0.146381428427205 
1338	 0.146431027277803 
1339	 0.146471170086519 
1340	 0.146524980912075 
1341	 0.146569435827265 
1342	 0.146621776463833 
1343	 0.146694808904271 
1344	 0.146758175904969 
1345	 0.146806673460902 
1346	 0.14686216959276 
1347	 0.146918201487503 
1348	 0.146977314545435 
1349	 0.14702640676465 
1350	 0.147090667998829 
1351	 0.14715110241993 
1352	 0.147208552319505 
1353	 0.147263701516356 
1354	 0.147324499092725 
1355	 0.147376005641743 
1356	 0.147425181801336 
1357	 0.147470779432649 
1358	 0.147507221424118 
1359	 0.147551478903911 
1360	 0.147588316041355 
1361	 0.147633288397393 
1362	 0.147689760789367 
1363	 0.147741713647177 
1364	 0.147804899198306 
1365	 0.147852225117662 
1366	 0.147890316785183 
1367	 0.147924541763776 
1368	 0.147958101136221 
1369	 0.147997819474422 
1370	 0.148016783715276 
1371	 0.148038743840948 
1372	 0.148057166332804 
1373	 0.148045919764152 
1374	 0.148050923355611 
1375	 0.148068402092943 
1376	 0.148071726290966 
1377	 0.148069469167488 
1378	 0.148063115423524 
1379	 0.148055486307053 
1380	 0.148035549132896 
1381	 0.148005945743685 
1382	 0.147973434298806 
1383	 0.147937554890093 
1384	 0.147888371203187 
1385	 0.14782881480161 
1386	 0.147769073719027 
1387	 0.147704740524967 
1388	 0.147628964297858 
1389	 0.147549663943773 
1390	 0.147457300039894 
1391	 0.147371875072765 
1392	 0.14727162829842 
1393	 0.147154164060073 
1394	 0.14704725432323 
1395	 0.146928009612217 
1396	 0.146795422622804 
1397	 0.146658187872885 
1398	 0.146518363316638 
1399	 0.146378394102479 
1400	 0.14621984402486 
1401	 0.146082618870196 
1402	 0.145961280456955 
1403	 0.145838091602528 
1404	 0.145717046889 
1405	 0.145602618561945 
1406	 0.145502536730063 
1407	 0.145383203848545 
1408	 0.145244405312707 
1409	 0.145130896560413 
1410	 0.145011514281432 
1411	 0.144914079959179 
1412	 0.144841758742481 
1413	 0.144781862673192 
1414	 0.144710653702843 
1415	 0.144643830522958 
1416	 0.14459278806161 
1417	 0.144555482562857 
1418	 0.144537818533314 
1419	 0.144522360296642 
1420	 0.144501665305583 
1421	 0.144486406427449 
1422	 0.144473559395495 
1423	 0.144453580275333 
1424	 0.144428418311112 
1425	 0.144401060095353 
1426	 0.144374761862551 
1427	 0.144331839287347 
1428	 0.144316904739522 
1429	 0.144318548242633 
1430	 0.144314878927557 
1431	 0.144328357920348 
1432	 0.144329408319357 
1433	 0.144317604230874 
1434	 0.144317178530572 
1435	 0.144320203191496 
1436	 0.144318428797004 
1437	 0.144318637574345 
1438	 0.144326203078186 
1439	 0.144339209653525 
1440	 0.144338900666154 
1441	 0.144353503184755 
1442	 0.144370098203894 
1443	 0.144371157990636 
1444	 0.144391267845973 
1445	 0.144423227926646 
1446	 0.144432136188669 
1447	 0.144452192787664 
1448	 0.144482890813245 
1449	 0.144491973383593 
1450	 0.144520391919644 
1451	 0.144538569583487 
1452	 0.144549212049997 
1453	 0.144565332128038 
1454	 0.144580536670204 
1455	 0.144598394065388 
1456	 0.144622389169089 
1457	 0.144644924364965 
1458	 0.14466562833766 
1459	 0.144693917738366 
1460	 0.144726600097772 
1461	 0.144755669765524 
1462	 0.144782391831169 
1463	 0.144819408070449 
1464	 0.144861616648599 
1465	 0.144901729246222 
1466	 0.144954052020171 
1467	 0.145000433264571 
1468	 0.145038077888013 
1469	 0.145078290582663 
1470	 0.145125773824177 
1471	 0.145159181308011 
1472	 0.145194363255524 
1473	 0.145233469790882 
1474	 0.145265431735552 
1475	 0.145303477861618 
1476	 0.145347702772403 
1477	 0.14539197003239 
1478	 0.145445411026831 
1479	 0.145507848275304 
1480	 0.14556803269212 
1481	 0.145629472066289 
1482	 0.14568920622368 
1483	 0.145753211710578 
1484	 0.145808743212871 
1485	 0.145859804430478 
1486	 0.14590789277013 
1487	 0.145953677339217 
1488	 0.145996196441635 
1489	 0.146026685310731 
1490	 0.146070904345348 
1491	 0.146119508692811 
1492	 0.146169449237839 
1493	 0.146226435946585 
1494	 0.146284271915102 
1495	 0.146346393283082 
1496	 0.146399465571861 
1497	 0.146449435085197 
1498	 0.14650467904866 
1499	 0.146559913426105 
1500	 0.146610468487134 
1501	 0.146664446509436 
1502	 0.146712357388599 
1503	 0.146752065694331 
1504	 0.146789787061549 
1505	 0.146824683589945 
1506	 0.146868871738322 
1507	 0.14690917738037 
1508	 0.146949031932977 
1509	 0.147001823765666 
1510	 0.147054619018913 
1511	 0.147104426171294 
1512	 0.147138069968988 
1513	 0.147170391872347 
1514	 0.147211692227388 
1515	 0.147249939351508 
1516	 0.14729611263225 
1517	 0.147335434781936 
1518	 0.147368891824809 
1519	 0.147409434008836 
1520	 0.147452146745326 
1521	 0.147490185096942 
1522	 0.147535182287199 
1523	 0.147567891189509 
1524	 0.147587433260271 
1525	 0.147618806992899 
1526	 0.147651193814502 
1527	 0.147677480332505 
1528	 0.147704723500894 
1529	 0.147734062456339 
1530	 0.147758323900548 
1531	 0.147789407027251 
1532	 0.147832921839122 
1533	 0.14786019416853 
1534	 0.147877719701403 
1535	 0.147901807092217 
1536	 0.14791715382481 
1537	 0.147941544297542 
1538	 0.147979803053592 
1539	 0.148007377881479 
1540	 0.148035100347118 
1541	 0.148059155867224 
1542	 0.148077230547096 
1543	 0.148095184169657 
1544	 0.148110193833243 
1545	 0.148121730697199 
1546	 0.148133761773894 
1547	 0.148130213762703 
1548	 0.148147311574586 
1549	 0.148185911377095 
1550	 0.148224509847437 
1551	 0.148287515669667 
1552	 0.148324560927533 
1553	 0.148328782577285 
1554	 0.148347797424071 
1555	 0.148354985090582 
1556	 0.148362371440634 
1557	 0.148390715731305 
1558	 0.14840690014579 
1559	 0.148420221018406 
1560	 0.148437844949788 
1561	 0.148458337251112 
1562	 0.148478048885649 
1563	 0.148496314629052 
1564	 0.148518487142929 
1565	 0.148542496569029 
1566	 0.148566451129638 
1567	 0.148593432286155 
1568	 0.148624932847638 
1569	 0.148665116525378 
1570	 0.1486851733176 
1571	 0.148702641749998 
1572	 0.148709066780612 
1573	 0.148689711892314 
1574	 0.148695517440096 
1575	 0.148705474855501 
1576	 0.148723771438983 
1577	 0.148756442979511 
1578	 0.148779672176929 
1579	 0.148810719099433 
1580	 0.148828720473141 
1581	 0.148843068448581 
1582	 0.148847822413641 
1583	 0.148834279804788 
1584	 0.148832733903565 
1585	 0.148820083875895 
1586	 0.148827098053243 
1587	 0.148854760753946 
1588	 0.148873330184222 
1589	 0.14890748701983 
1590	 0.14892232373297 
1591	 0.148914535219046 
1592	 0.148923909817389 
1593	 0.148927998286817 
1594	 0.148941844005898 
1595	 0.148975024248012 
1596	 0.149000673149749 
1597	 0.149026671017427 
1598	 0.149049716406677 
1599	 0.149073860558758 
1600	 0.149091298348606 
1601	 0.149103590030513 
1602	 0.149114691080763 
1603	 0.149118231960174 
1604	 0.14912521822309 
1605	 0.149130518031943 
1606	 0.149138494826997 
1607	 0.14914678886127 
1608	 0.149160139323648 
1609	 0.14918085542393 
1610	 0.149201380706656 
1611	 0.149220499620506 
1612	 0.149229143075251 
1613	 0.149241360725041 
1614	 0.149268030621731 
1615	 0.149277499884715 
1616	 0.149289945354288 
1617	 0.149297938480349 
1618	 0.149279441013031 
1619	 0.149273861901716 
1620	 0.149289756153166 
1621	 0.14930266782936 
1622	 0.149318152626372 
1623	 0.149336073705796 
1624	 0.149365053092026 
1625	 0.149378086928322 
1626	 0.149386784997293 
1627	 0.149391488300198 
1628	 0.149384085678784 
1629	 0.149391494485297 
1630	 0.149400046234769 
1631	 0.149415331163276 
1632	 0.149442172114495 
1633	 0.14945812818169 
1634	 0.149476812105353 
1635	 0.149484792874723 
1636	 0.149485144343636 
1637	 0.149485637881931 
1638	 0.149479050037835 
1639	 0.149475228170221 
1640	 0.149464013250143 
1641	 0.149472073237541 
1642	 0.14948860247259 
1643	 0.149505228770887 
1644	 0.149542131724055 
1645	 0.149554744554283 
1646	 0.149555012742002 
1647	 0.149556917379268 
1648	 0.149544581893466 
1649	 0.149549389005702 
1650	 0.149566753626972 
1651	 0.149569535019003 
1652	 0.14956321315809 
1653	 0.149579444030997 
1654	 0.149601354455556 
1655	 0.14961657943491 
1656	 0.149652813768306 
1657	 0.149668826413258 
1658	 0.149660029663629 
1659	 0.149666503248757 
1660	 0.149684876942008 
1661	 0.149687049155743 
1662	 0.149681183960062 
1663	 0.149677055193884 
1664	 0.149659758407765 
1665	 0.14965839735296 
1666	 0.14966826646005 
1667	 0.149671332942687 
1668	 0.149671689171365 
1669	 0.149685352143609 
1670	 0.149705997723574 
1671	 0.149720119151493 
1672	 0.149748295154867 
1673	 0.149760215651015 
1674	 0.149758458143986 
1675	 0.149755771733512 
1676	 0.149745066606847 
1677	 0.149741221363597 
1678	 0.149730140547514 
1679	 0.14973130183591 
1680	 0.149743399126546 
1681	 0.149753246932136 
1682	 0.14976531811693 
1683	 0.149782360399567 
1684	 0.149804560097481 
1685	 0.14982571151319 
1686	 0.149853973108774 
1687	 0.149871467604906 
1688	 0.149888610672135 
1689	 0.149893879961391 
1690	 0.14988746752187 
1691	 0.149884968030172 
1692	 0.149866310928307 
1693	 0.149867823331222 
1694	 0.14988422058574 
1695	 0.149891980708125 
1696	 0.149899922343171 
1697	 0.149919320020526 
1698	 0.149942594095485 
1699	 0.149961974617241 
1700	 0.15000251902249 
1701	 0.150013746719133 
1702	 0.149999774411705 
1703	 0.149996407354089 
1704	 0.1499831071082 
1705	 0.149977517690063 
1706	 0.149980691879136 
1707	 0.149977770630366 
1708	 0.149976646508011 
1709	 0.149965668345015 
1710	 0.149937972117283 
1711	 0.149934157404319 
1712	 0.149930336000303 
1713	 0.149940956268639 
1714	 0.149988021473261 
1715	 0.149995628163553 
1716	 0.149981637730059 
1717	 0.149986590892901 
1718	 0.149984130500242 
1719	 0.149988500324135 
1720	 0.150015471121484 
1721	 0.150017658814805 
1722	 0.149998695441334 
1723	 0.149997314067003 
1724	 0.150002353415728 
1725	 0.149995082095424 
1726	 0.149993852062542 
1727	 0.149975206141152 
1728	 0.149926486305633 
1729	 0.149905225874468 
1730	 0.149893431023429 
1731	 0.149878249994859 
1732	 0.149878008915072 
1733	 0.149866193339915 
1734	 0.149837344393561 
1735	 0.14983087383747 
1736	 0.149834982477174 
1737	 0.149830738997352 
1738	 0.14983837311222 
1739	 0.14982930917943 
1740	 0.149809394615651 
1741	 0.149783927993395 
1742	 0.149751557114682 
1743	 0.149724762261837 
1744	 0.149684830451755 
1745	 0.149665982003954 
1746	 0.149659961976035 
1747	 0.149645919003781 
1748	 0.14964546899397 
1749	 0.149625949814544 
1750	 0.149603993435079 
1751	 0.149572472680816 
1752	 0.149536989381094 
1753	 0.149510283165692 
1754	 0.149490546391474 
1755	 0.149483477179514 
1756	 0.149475614414054 
1757	 0.149458946068658 
1758	 0.149453335664957 
1759	 0.149458981844428 
1760	 0.149458223455316 
1761	 0.149459542025886 
1762	 0.149469001647587 
1763	 0.149478321659099 
1764	 0.149465825951321 
1765	 0.149444654810989 
1766	 0.149435100459539 
1767	 0.149417438312081 
1768	 0.149403498782187 
1769	 0.149402952468439 
1770	 0.149396983581803 
1771	 0.14938861116613 
1772	 0.149383271917905 
1773	 0.149378907259084 
1774	 0.149368548102284 
1775	 0.149357050854782 
1776	 0.149352979273065 
1777	 0.149353440166584 
1778	 0.149351479865682 
1779	 0.149337982833852 
1780	 0.149323513298542 
1781	 0.149320849652059 
1782	 0.149320561132212 
1783	 0.14932571143204 
1784	 0.149323879645167 
1785	 0.14931272475544 
1786	 0.149308147089611 
1787	 0.149301721206234 
1788	 0.149297734994723 
1789	 0.149295504805235 
1790	 0.149304350576103 
1791	 0.149320388210806 
1792	 0.149336208819263 
1793	 0.1493621596868 
1794	 0.149372480925738 
1795	 0.149379377401972 
1796	 0.149389135546311 
1797	 0.149392043698721 
1798	 0.149397108131171 
1799	 0.149410093760336 
1800	 0.149398791283879 
1801	 0.147379854949987 
1802	 0.147398383142055 
1803	 0.147412064891212 
1804	 0.147438537913445 
1805	 0.147443306337351 
1806	 0.147452922608288 
1807	 0.1474633684162 
1808	 0.147478951398367 
1809	 0.147514980184548 
1810	 0.147536504021571 
1811	 0.147549859627593 
1812	 0.147566438235482 
1813	 0.147586159947261 
1814	 0.147582711474057 
1815	 0.14760020858096 
1816	 0.147618220929355 
1817	 0.147638803943727 
1818	 0.147667006184113 
1819	 0.147685754726493 
1820	 0.147707139626198 
1821	 0.14772904335323 
1822	 0.14770015445324 
1823	 0.147681594922573 
1824	 0.147678714540444 
1825	 0.147633394155584 
1826	 0.147636582428789 
1827	 0.147643039606532 
1828	 0.147640051946005 
1829	 0.147633499933261 
1830	 0.147641050811739 
1831	 0.147652162641234 
1832	 0.147657434617307 
1833	 0.147662446596101 
1834	 0.14768032795378 
1835	 0.147690318702881 
1836	 0.147690646704822 
1837	 0.147709544297891 
1838	 0.147718015246061 
1839	 0.147724385522979 
1840	 0.147718853415248 
1841	 0.147738885937567 
1842	 0.147755208440556 
1843	 0.14774655882434 
1844	 0.147735932800689 
1845	 0.147720004979967 
1846	 0.14768907144668 
1847	 0.147670396407502 
1848	 0.14765626464461 
1849	 0.147619578483689 
1850	 0.147579958226836 
1851	 0.147527234574031 
1852	 0.147478297054497 
1853	 0.147450821563233 
1854	 0.147438997243781 
1855	 0.147444392326985 
1856	 0.14745808775105 
1857	 0.147445391481708 
1858	 0.147417607620764 
1859	 0.147373896280297 
1860	 0.147317922815577 
1861	 0.147243050617814 
1862	 0.147163270453486 
1863	 0.147080316780934 
1864	 0.146986516537925 
1865	 0.146877058787155 
1866	 0.146774850785476 
1867	 0.146672878269678 
1868	 0.146551835360714 
1869	 0.146441878117044 
1870	 0.146329310027406 
1871	 0.146184061524942 
1872	 0.146014112418173 
1873	 0.145834179269314 
1874	 0.14562950375255 
1875	 0.145414798487723 
1876	 0.145198893621673 
1877	 0.144975822590027 
1878	 0.144751246866363 
1879	 0.144484649689215 
1880	 0.144191944032802 
1881	 0.143869532329079 
1882	 0.143535898462418 
1883	 0.143181764443943 
1884	 0.142793071061543 
1885	 0.142389830201569 
1886	 0.141954547908062 
1887	 0.141512094306839 
1888	 0.141075378516539 
1889	 0.140598459145677 
1890	 0.140100453491706 
1891	 0.139604721249489 
1892	 0.139058974261341 
1893	 0.138552003101465 
1894	 0.138059615712651 
1895	 0.137587571448436 
1896	 0.137112255173955 
1897	 0.136648957124638 
1898	 0.136183284886899 
1899	 0.135713345978361 
1900	 0.135272581797263 
1901	 0.134863553602295 
1902	 0.134468392813025 
1903	 0.134098320281409 
1904	 0.13375337992633 
1905	 0.133435037823481 
1906	 0.133121816823588 
1907	 0.132820342176842 
1908	 0.132540802547932 
1909	 0.13227923574668 
1910	 0.132025379015423 
1911	 0.13179768202441 
1912	 0.131614610852198 
1913	 0.131431202818606 
1914	 0.131251982396677 
1915	 0.13109411264734 
1916	 0.130963697028121 
1917	 0.130829260631699 
1918	 0.130690319314898 
1919	 0.130575065273186 
1920	 0.130464402134817 
1921	 0.130372670989021 
1922	 0.130285970124531 
1923	 0.13021260289939 
1924	 0.130163512090182 
1925	 0.130120704734161 
1926	 0.130098887929413 
1927	 0.130112576417909 
1928	 0.130130919812158 
1929	 0.13013412881868 
1930	 0.130153819949191 
1931	 0.130153605181199 
1932	 0.130156389886568 
1933	 0.130193809076402 
1934	 0.130221493056075 
1935	 0.130266397101965 
1936	 0.130331250738224 
1937	 0.130406595863038 
1938	 0.130490783086481 
1939	 0.130583414464444 
1940	 0.130701299774738 
1941	 0.130811062894862 
1942	 0.1309014057079 
1943	 0.130973206222978 
1944	 0.131049597222911 
1945	 0.131135747967129 
1946	 0.131234917692702 
1947	 0.131359767794628 
1948	 0.13146944750683 
1949	 0.13157553334587 
1950	 0.131697046272722 
1951	 0.131815511157233 
1952	 0.131948628049415 
1953	 0.132117053550683 
1954	 0.132254363167234 
1955	 0.132380509492018 
1956	 0.132515978474448 
1957	 0.132641946155387 
1958	 0.13274030928993 
1959	 0.132872975840695 
1960	 0.13302506688898 
1961	 0.133167100495072 
1962	 0.133332726509027 
1963	 0.133479133026546 
1964	 0.133604982589618 
1965	 0.13373339435742 
1966	 0.133886815299393 
1967	 0.134018317617561 
1968	 0.134161434292495 
1969	 0.134312185444277 
1970	 0.134471684280025 
1971	 0.134635189543815 
1972	 0.134797520662856 
1973	 0.134980791607677 
1974	 0.135143221002324 
1975	 0.135284668307251 
1976	 0.135439849093264 
1977	 0.135598304184529 
1978	 0.135739345537506 
1979	 0.135894428116984 
1980	 0.136055261978713 
1981	 0.136220382722561 
1982	 0.136397042966021 
1983	 0.136561701146149 
1984	 0.136728215430922 
1985	 0.136888253287487 
1986	 0.137028878888437 
1987	 0.137187158929942 
1988	 0.137353336131327 
1989	 0.137526520561592 
1990	 0.137688735422691 
1991	 0.137844427172432 
1992	 0.138000005411706 
1993	 0.138135874672944 
1994	 0.138297398840492 
1995	 0.138482686738305 
1996	 0.138644340148541 
1997	 0.138806961564345 
1998	 0.138966078515522 
1999	 0.139109976936603 
2000	 0.139253677097571 
2001	 0.139406286380002 
2002	 0.139545310088365 
2003	 0.139658552198708 
2004	 0.139802270387187 
2005	 0.139931510146094 
2006	 0.140045175216474 
2007	 0.140184847724498 
2008	 0.140335314929492 
2009	 0.140484722292174 
2010	 0.140665887366858 
2011	 0.140817101987902 
2012	 0.140950456938616 
2013	 0.141084783333169 
2014	 0.141205954412549 
2015	 0.141325757132734 
2016	 0.141446993322863 
2017	 0.141579294851345 
2018	 0.141716311081461 
2019	 0.141862750141692 
2020	 0.141998605812083 
2021	 0.142146815172342 
2022	 0.142275033203419 
2023	 0.142380997070424 
2024	 0.142501691659466 
2025	 0.142611633031574 
2026	 0.142734391396852 
2027	 0.142873932371836 
2028	 0.143015098241607 
2029	 0.143134182222812 
2030	 0.143247398559037 
2031	 0.143360901172756 
2032	 0.143449745007298 
2033	 0.143567540487036 
2034	 0.143712740786833 
2035	 0.143832786286412 
2036	 0.143950885998297 
2037	 0.144063172472119 
2038	 0.144156192909753 
2039	 0.144258160349993 
2040	 0.144365159767383 
2041	 0.144479178637322 
2042	 0.144552075912298 
2043	 0.144636259327076 
2044	 0.144726385749237 
2045	 0.144807522445303 
2046	 0.144892515097485 
2047	 0.14499529468685 
2048	 0.145086882376473 
2049	 0.14515949386755 
2050	 0.145249570231651 
2051	 0.145357529806127 
2052	 0.145452761757138 
2053	 0.145552820613755 
2054	 0.145640653243691 
2055	 0.1457113083633 
2056	 0.145790979956089 
2057	 0.145863830800801 
2058	 0.145932105960523 
2059	 0.145993962049464 
2060	 0.146043871855285 
2061	 0.146109312182864 
2062	 0.146171965478577 
2063	 0.146244835989946 
2064	 0.146338430869488 
2065	 0.146420592733456 
2066	 0.146504618785976 
2067	 0.146578963230788 
2068	 0.146649369002412 
2069	 0.146715091363593 
2070	 0.14677327075997 
2071	 0.14681188507129 
2072	 0.146879183867184 
2073	 0.14695218037488 
2074	 0.147028925856816 
2075	 0.147123826091409 
2076	 0.147211478032477 
2077	 0.147297290234353 
2078	 0.147382338640551 
2079	 0.147480979680133 
2080	 0.147559172020096 
2081	 0.14761667056943 
2082	 0.147684692068081 
2083	 0.147750627065071 
2084	 0.14781161879634 
2085	 0.147873210760657 
2086	 0.147943160853428 
2087	 0.148001775748829 
2088	 0.14804460385118 
2089	 0.148103629311659 
2090	 0.148181463766591 
2091	 0.148228418018053 
2092	 0.148243587788841 
2093	 0.148303201230103 
2094	 0.148363936504592 
2095	 0.14843255624268 
2096	 0.148551306322801 
2097	 0.148642188534974 
2098	 0.148708402997989 
2099	 0.148784819839441 
2100	 0.14885728576882 
2101	 0.148930124827033 
2102	 0.149002437779267 
2103	 0.149069577226799 
2104	 0.149143871433758 
2105	 0.149224221200817 
2106	 0.149297701033699 
2107	 0.149368646143592 
2108	 0.149443633689355 
2109	 0.149509585999774 
2110	 0.149590382913741 
2111	 0.149684715657683 
2112	 0.149777245660571 
2113	 0.149874346386343 
2114	 0.14998154945448 
2115	 0.150068169094097 
2116	 0.15014203521808 
2117	 0.150229925027893 
2118	 0.150325766230264 
2119	 0.150393171671575 
2120	 0.150454530741876 
2121	 0.15051621966887 
2122	 0.150543523499749 
2123	 0.150597996127729 
2124	 0.150675991104228 
2125	 0.150746019708308 
2126	 0.150829775226249 
2127	 0.150890032181971 
2128	 0.150931404950175 
2129	 0.150982698113909 
2130	 0.151021686800185 
2131	 0.151064851071393 
2132	 0.151109843541912 
2133	 0.151178273988154 
2134	 0.151206519882688 
2135	 0.151222594000472 
2136	 0.151218912237224 
2137	 0.151185360864166 
2138	 0.151157735274317 
2139	 0.151112693495885 
2140	 0.151076196220031 
2141	 0.151038603618577 
2142	 0.151003857771646 
2143	 0.15097470251173 
2144	 0.150937894744996 
2145	 0.150900773031619 
2146	 0.150860071343395 
2147	 0.150805921625635 
2148	 0.150761989359553 
2149	 0.150718746027941 
2150	 0.150681758996082 
2151	 0.150629339438607 
2152	 0.150588767288342 
2153	 0.150510583277796 
2154	 0.150402544087595 
2155	 0.150301231081909 
2156	 0.150176184722566 
2157	 0.150062009924019 
2158	 0.14995217013077 
2159	 0.149840951723873 
2160	 0.149719935684602 
2161	 0.149613340524448 
2162	 0.149520547585286 
2163	 0.149420209959066 
2164	 0.149319644315269 
2165	 0.149234165912148 
2166	 0.149123961300209 
2167	 0.148995325882664 
2168	 0.14888321951233 
2169	 0.148772536036479 
2170	 0.148652343719121 
2171	 0.148534058171303 
2172	 0.148415415283779 
2173	 0.148275550650924 
2174	 0.148161937970967 
2175	 0.14807829758377 
2176	 0.147969566043466 
2177	 0.147866690659229 
2178	 0.147745818429501 
2179	 0.147587333002236 
2180	 0.14745540070034 
2181	 0.14731842832627 
2182	 0.147200336316158 
2183	 0.147112545224699 
2184	 0.147022604870236 
2185	 0.146919672171621 
2186	 0.146824378908904 
2187	 0.146710434680477 
2188	 0.146555657033233 
2189	 0.146462132226898 
2190	 0.14638940564794 
2191	 0.146317508615451 
2192	 0.146289179447474 
2193	 0.146230720887645 
2194	 0.146156394772822 
2195	 0.14608611916934 
2196	 0.146003291368833 
2197	 0.145939479426776 
2198	 0.14587832404459 
2199	 0.145825323358189 
2200	 0.145800962474049 
2201	 0.145761855582898 
2202	 0.145711956566296 
2203	 0.14567445893099 
2204	 0.145629677951082 
2205	 0.145573329173568 
2206	 0.145537700076232 
2207	 0.145504067314825 
2208	 0.145488932260635 
2209	 0.145492853762153 
2210	 0.145493409211568 
2211	 0.145505213343544 
2212	 0.14551880820886 
2213	 0.145530690055678 
2214	 0.145550141637403 
2215	 0.14558764802717 
2216	 0.14561186686563 
2217	 0.145634440411106 
2218	 0.145658094123883 
2219	 0.145686530710244 
2220	 0.14569319100438 
2221	 0.14569360580394 
2222	 0.145676727643781 
2223	 0.145667256188536 
2224	 0.14565352195269 
2225	 0.145654569319647 
2226	 0.14566648338205 
2227	 0.145701028603291 
2228	 0.145752586461723 
2229	 0.145791911784231 
2230	 0.145868316288052 
2231	 0.145885521076039 
2232	 0.14585960290901 
2233	 0.145854115922156 
2234	 0.145816828950304 
2235	 0.145817087685431 
2236	 0.145849184412597 
2237	 0.145859706456687 
2238	 0.145884151877625 
2239	 0.145889911209168 
2240	 0.145865879713395 
2241	 0.145859682954237 
2242	 0.145868424028901 
2243	 0.145859514511267 
2244	 0.145852556030377 
2245	 0.145824542919313 
2246	 0.145810594771631 
2247	 0.145796699370381 
2248	 0.145804505252497 
2249	 0.145847763873604 
2250	 0.145864217840858 
2251	 0.145874625796542 
2252	 0.145887360122978 
2253	 0.145899755320701 
2254	 0.145903464562691 
2255	 0.145903906250216 
2256	 0.145905611439495 
2257	 0.145896334366315 
2258	 0.145890945956778 
2259	 0.145886723495232 
2260	 0.145894737889821 
2261	 0.145907540279363 
2262	 0.145919770799457 
2263	 0.145943261247116 
2264	 0.145961057891107 
2265	 0.145977118107642 
2266	 0.145989417243438 
2267	 0.145997413372938 
2268	 0.146011094987348 
2269	 0.146022388347127 
2270	 0.146034107847936 
2271	 0.146052642324816 
2272	 0.146072586042292 
2273	 0.146078065583428 
2274	 0.146080557298855 
2275	 0.146096020265409 
2276	 0.146118461009887 
2277	 0.146129552342659 
2278	 0.14614596219763 
2279	 0.14616230061851 
2280	 0.146162666115309 
2281	 0.146176703265378 
2282	 0.146202716390054 
2283	 0.146225725557946 
2284	 0.146264329334818 
2285	 0.146279033051188 
2286	 0.14628108688047 
2287	 0.146289259367814 
2288	 0.146278787216569 
2289	 0.146276291277254 
2290	 0.14627130402573 
2291	 0.146284293702169 
2292	 0.146314169955541 
2293	 0.146331245185201 
2294	 0.146377592098912 
2295	 0.146396616494697 
2296	 0.146387814924823 
2297	 0.146366567448382 
2298	 0.14637000365402 
2299	 0.14637515872294 
2300	 0.146377116218015 
2301	 0.146379380582678 
2302	 0.146359645907409 
2303	 0.146336824493647 
2304	 0.146315084217191 
2305	 0.146322950297054 
2306	 0.146319864411772 
2307	 0.1463233980735 
2308	 0.146303256483971 
2309	 0.146270761311043 
2310	 0.146244740757081 
2311	 0.146195362723916 
2312	 0.146181117135177 
2313	 0.146208467494247 
2314	 0.14618641458145 
2315	 0.146145962632629 
2316	 0.146130831552822 
2317	 0.146084392187124 
2318	 0.146082921364025 
2319	 0.146149116166022 
2320	 0.14615895719008 
2321	 0.146148668367065 
2322	 0.146153177220888 
2323	 0.146139189361646 
2324	 0.146123081738067 
2325	 0.146120063716461 
2326	 0.14611759593643 
2327	 0.146081564698466 
2328	 0.146091804009325 
2329	 0.146157002429503 
2330	 0.146195576999304 
2331	 0.14625572259057 
2332	 0.146351790234743 
2333	 0.146388920077848 
2334	 0.146389558017546 
2335	 0.146372833607463 
2336	 0.14631674508936 
2337	 0.146256295778181 
2338	 0.146209909777467 
2339	 0.146176527621156 
2340	 0.14615498529561 
2341	 0.146157123472449 
2342	 0.146213189888747 
2343	 0.14625977664132 
2344	 0.146303864383705 
2345	 0.146321878992615 
2346	 0.146314064590336 
2347	 0.146300549279382 
2348	 0.146263929098581 
2349	 0.146245406794982 
2350	 0.146243095676349 
2351	 0.146215729747939 
2352	 0.14619532062397 
2353	 0.146131881044471 
2354	 0.146017973005255 
2355	 0.145955194860132 
2356	 0.145857573185344 
2357	 0.145806959293262 
2358	 0.1458152529868 
2359	 0.145798142759373 
2360	 0.145829181205846 
2361	 0.145813232158917 
2362	 0.145754095659297 
2363	 0.145698856184827 
2364	 0.145612094331993 
2365	 0.145542822991802 
2366	 0.145459691629618 
2367	 0.145432602489612 
2368	 0.145459324821209 
2369	 0.145437721016025 
2370	 0.145417340275556 
2371	 0.14543643703614 
2372	 0.145372421069682 
2373	 0.14525479497914 
2374	 0.145225676326152 
2375	 0.145189737169471 
2376	 0.145132883692977 
2377	 0.1451039385781 
2378	 0.145021661229207 
2379	 0.144942381789008 
2380	 0.144886600576097 
2381	 0.14483452576352 
2382	 0.144815932891809 
2383	 0.144738243262476 
2384	 0.144648972980006 
2385	 0.144592078679956 
2386	 0.144532082656139 
2387	 0.14451139953944 
2388	 0.144445556001414 
2389	 0.144377299911173 
2390	 0.144300067693799 
2391	 0.144153525274508 
2392	 0.144038313899927 
2393	 0.143979710652179 
2394	 0.143904105811713 
2395	 0.143810676947134 
2396	 0.143796149186513 
2397	 0.143759281703245 
2398	 0.143721225365582 
2399	 0.14370515148902 
2400	 0.14362142297587 
2401	 0.14356193183261 
2402	 0.143495280538675 
2403	 0.143418991881829 
2404	 0.143361796993965 
2405	 0.143279016358605 
2406	 0.143157840386104 
2407	 0.143028209279682 
2408	 0.142934659035062 
2409	 0.142790731567818 
2410	 0.142644394294315 
2411	 0.142526735420009 
2412	 0.142392738996162 
2413	 0.142353366816242 
2414	 0.142311417027353 
2415	 0.142257139658062 
2416	 0.142156924738189 
2417	 0.141982827008867 
2418	 0.141797260423203 
2419	 0.141555985946586 
2420	 0.141415486893386 
2421	 0.14132881179485 
2422	 0.141229090800961 
2423	 0.141217402867816 
2424	 0.141136303596481 
2425	 0.140962392775314 
2426	 0.140842110863059 
2427	 0.140723161876416 
2428	 0.140520438673053 
2429	 0.140275726266284 
2430	 0.140121749699313 
2431	 0.140013044184448 
2432	 0.139894212235994 
2433	 0.139854363422214 
2434	 0.139760609615099 
2435	 0.139527924807014 
2436	 0.139394230896472 
2437	 0.139342394662444 
2438	 0.139219049862584 
2439	 0.139106574043744 
2440	 0.139016702701675 
2441	 0.138897507060919 
2442	 0.138809934854355 
2443	 0.138812108407332 
2444	 0.138692711972346 
2445	 0.138447813082617 
2446	 0.138259878042417 
2447	 0.138060042980506 
2448	 0.137920096832922 
2449	 0.137872284322414 
2450	 0.137772131877896 
2451	 0.137608464509861 
2452	 0.13745524881978 
2453	 0.137234621798318 
2454	 0.137151153049354 
2455	 0.137245251713671 
2456	 0.137252115483506 
2457	 0.13732890063351 
2458	 0.137358519927284 
2459	 0.137276847951366 
2460	 0.13716068189555 
2461	 0.137004211482434 
2462	 0.136867598489516 
2463	 0.136726160510273 
2464	 0.136516514072564 
2465	 0.136258658148183 
2466	 0.13605742404124 
2467	 0.135821872982621 
2468	 0.135710476950913 
2469	 0.135745288709988 
2470	 0.13567245827843 
2471	 0.135561102111024 
2472	 0.135434377696412 
2473	 0.135244737184524 
2474	 0.135270816973161 
2475	 0.135155575902972 
2476	 0.134945324974541 
2477	 0.134821971158115 
2478	 0.134516350226651 
2479	 0.134340199447034 
2480	 0.134186499863643 
2481	 0.134127712099351 
2482	 0.134147440166251 
2483	 0.134055779837578 
2484	 0.133979556091844 
2485	 0.133806454079374 
2486	 0.133746942592511 
2487	 0.133736939461941 
2488	 0.133695837008654 
2489	 0.133782702379544 
2490	 0.133812446843553 
2491	 0.133653941576138 
2492	 0.133547000959027 
2493	 0.133541768141517 
2494	 0.13325498636437 
2495	 0.133068515855592 
2496	 0.133059766751777 
2497	 0.132772022473291 
2498	 0.132644142699797 
2499	 0.132586989870976 
2500	 0.132393500952373 
