Wavelength	MM700001.asd
350	 6.08225501062575E-02 
351	 6.19108563670261E-02 
352	 6.22816252077015E-02 
353	 5.73436340372934E-02 
354	 6.42384775284251E-02 
355	 6.30916094653314E-02 
356	 5.92236023500815E-02 
357	 6.17048059439185E-02 
358	 6.99727521752501E-02 
359	 6.81243781483265E-02 
360	 5.94286714576428E-02 
361	 5.85668386524125E-02 
362	 5.98376963989423E-02 
363	 6.23307724564216E-02 
364	 6.42732975995558E-02 
365	 6.15455158294022E-02 
366	 5.94347301072615E-02 
367	 5.86780506868789E-02 
368	 5.90106126636776E-02 
369	 6.24513613369699E-02 
370	 6.18330235998365E-02 
371	 5.95567604917621E-02 
372	 6.33979633624879E-02 
373	 6.20284264085095E-02 
374	 6.01523550692795E-02 
375	 6.08889063771549E-02 
376	 6.09388899101802E-02 
377	 0.061343316995605 
378	 6.33488496713054E-02 
379	 6.69492886889155E-02 
380	 0.06698191343046 
381	 6.58244506279479E-02 
382	 6.54232691435892E-02 
383	 6.68255394032955E-02 
384	 6.67954920528828E-02 
385	 6.59636497859356E-02 
386	 6.56993945437195E-02 
387	 6.78158536683132E-02 
388	 6.83134313546868E-02 
389	 6.79408557849016E-02 
390	 6.85674337445999E-02 
391	 6.93009183836371E-02 
392	 6.97681746133335E-02 
393	 7.05037234990638E-02 
394	 7.25871318493695E-02 
395	 0.073512569394396 
396	 7.31693352247653E-02 
397	 7.23341629143057E-02 
398	 7.26855375471041E-02 
399	 7.30142654009348E-02 
400	 7.36596343778139E-02 
401	 7.50342782600091E-02 
402	 7.47898649321962E-02 
403	 0.074978407446348 
404	 7.57981154493904E-02 
405	 7.54161605333133E-02 
406	 7.60703946545115E-02 
407	 7.74705128122298E-02 
408	 7.86492254813349E-02 
409	 7.81214229143983E-02 
410	 7.81420664382593E-02 
411	 7.87773408265043E-02 
412	 7.91906422393922E-02 
413	 8.03953634102063E-02 
414	 8.08765003688178E-02 
415	 8.03537954018506E-02 
416	 8.03141052818621E-02 
417	 8.06858333182163E-02 
418	 8.13861192016857E-02 
419	 8.21267762530222E-02 
420	 8.21245218816376E-02 
421	 8.16282070141923E-02 
422	 8.14825504016777E-02 
423	 8.26120096355805E-02 
424	 8.26289146006161E-02 
425	 8.25275161086826E-02 
426	 8.28529281802652E-02 
427	 8.25016926611771E-02 
428	 0.082227265407276 
429	 8.22383248447777E-02 
430	 8.24594086868298E-02 
431	 8.23548130204445E-02 
432	 8.21637171990476E-02 
433	 0.082012997568898 
434	 8.18782080180355E-02 
435	 8.16684850929224E-02 
436	 8.16682650256152E-02 
437	 0.081929158256971 
438	 8.16857051992495E-02 
439	 8.16218936238367E-02 
440	 8.18596603031757E-02 
441	 8.22065694611667E-02 
442	 8.24144083777484E-02 
443	 8.27607012966777E-02 
444	 8.31436574924693E-02 
445	 8.27810658895814E-02 
446	 8.29840988932688E-02 
447	 8.35118223654074E-02 
448	 8.38434533465921E-02 
449	 8.44010554087076E-02 
450	 0.084694393261573 
451	 0.084806793037054 
452	 8.52756932223063E-02 
453	 8.53659158557929E-02 
454	 0.085468110596074 
455	 8.58778405747844E-02 
456	 8.62109434885547E-02 
457	 0.086317667239533 
458	 8.63745732330575E-02 
459	 8.66579953984747E-02 
460	 8.68635219738633E-02 
461	 8.70063603046584E-02 
462	 0.087150997113195 
463	 8.73909250277995E-02 
464	 8.75181197643104E-02 
465	 8.75653371970752E-02 
466	 8.76382319813825E-02 
467	 8.78384779868536E-02 
468	 8.79740741944212E-02 
469	 8.80987851618013E-02 
470	 8.84334530937542E-02 
471	 8.84956776002402E-02 
472	 8.83019363584409E-02 
473	 8.80836845697773E-02 
474	 8.83888204863584E-02 
475	 8.85857657032138E-02 
476	 8.86741967874637E-02 
477	 8.88841362474854E-02 
478	 8.89398626995137E-02 
479	 8.89973382137718E-02 
480	 8.91145382109477E-02 
481	 8.91613887361543E-02 
482	 8.93180628044933E-02 
483	 8.95190453051999E-02 
484	 8.96483400094765E-02 
485	 8.96852304115614E-02 
486	 0.089698332986372 
487	 8.96919203071511E-02 
488	 8.96300257826752E-02 
489	 8.98032098124122E-02 
490	 8.99427495026234E-02 
491	 8.98867088519704E-02 
492	 8.99874794095644E-02 
493	 0.08998037328965 
494	 8.99301715545554E-02 
495	 9.00442886316707E-02 
496	 9.03898839350409E-02 
497	 9.05410626944997E-02 
498	 9.04659116953884E-02 
499	 9.07862274971327E-02 
500	 9.08478329576993E-02 
501	 9.07497714495259E-02 
502	 9.07661767559827E-02 
503	 9.09103180273094E-02 
504	 9.09723025867347E-02 
505	 0.09092941471682 
506	 9.09367764103128E-02 
507	 9.10746572152223E-02 
508	 9.12576395795704E-02 
509	 9.13684514714563E-02 
510	 9.12797929635336E-02 
511	 9.12933280947223E-02 
512	 9.14316913240612E-02 
513	 9.15547559185444E-02 
514	 9.15619061028283E-02 
515	 9.15376506381514E-02 
516	 9.15837624072735E-02 
517	 0.091814671727835 
518	 9.18562870918965E-02 
519	 9.17858144762592E-02 
520	 9.18135471021996E-02 
521	 9.19615069111697E-02 
522	 9.21303896922653E-02 
523	 9.22275564209104E-02 
524	 9.21823900833695E-02 
525	 9.22895294921898E-02 
526	 0.092415751182173 
527	 0.092423469419609 
528	 9.24841768254739E-02 
529	 9.25542010704278E-02 
530	 9.26113993872292E-02 
531	 9.26582879734721E-02 
532	 9.28387466048605E-02 
533	 9.29251135717607E-02 
534	 9.28505637244589E-02 
535	 9.29913082696777E-02 
536	 9.31363817518726E-02 
537	 9.32151857153048E-02 
538	 9.32399607009224E-02 
539	 9.34285164319038E-02 
540	 9.35663660576196E-02 
541	 9.35966533944373E-02 
542	 9.37148307608772E-02 
543	 9.37854259855242E-02 
544	 0.093895973629099 
545	 9.41141938728979E-02 
546	 9.41965895288951E-02 
547	 0.094232488138211 
548	 9.43320817254677E-02 
549	 9.45990452809204E-02 
550	 9.48283754496322E-02 
551	 9.49874615089911E-02 
552	 9.51221505100289E-02 
553	 9.54010277167594E-02 
554	 9.55857848277211E-02 
555	 0.095714971582985 
556	 9.59583927016916E-02 
557	 9.62429643069532E-02 
558	 9.64599127281309E-02 
559	 9.66204610326112E-02 
560	 9.69613323412832E-02 
561	 0.097195170759125 
562	 9.74273815025895E-02 
563	 9.78432782865829E-02 
564	 9.82696984720516E-02 
565	 9.87494983200201E-02 
566	 9.92424455699575E-02 
567	 9.96086103349924E-02 
568	 0.100107812997462 
569	 0.100629106468913 
570	 0.101059598680338 
571	 0.101602626627215 
572	 0.102122205168678 
573	 0.102578563709995 
574	 0.103013407425402 
575	 0.103538819355847 
576	 0.104169755864483 
577	 0.104866515911836 
578	 0.10551646917561 
579	 0.106152066537559 
580	 0.106776016660803 
581	 0.107391189804403 
582	 0.108049319990876 
583	 0.108771055804292 
584	 0.109572585654753 
585	 0.110472051289461 
586	 0.111460322221453 
587	 0.112446438317424 
588	 0.113360750163689 
589	 0.11433440598874 
590	 0.115322561589807 
591	 0.116304517693115 
592	 0.117286022253661 
593	 0.118180631495992 
594	 0.118972240110694 
595	 0.119690487866103 
596	 0.120429166830078 
597	 0.121230119810029 
598	 0.122086020294552 
599	 0.122965840029732 
600	 0.123902283662096 
601	 0.1248450694032 
602	 0.125747311751335 
603	 0.126582685205263 
604	 0.127425720523972 
605	 0.12829933861229 
606	 0.129187161444623 
607	 0.129983705787483 
608	 0.130718668253255 
609	 0.131455938170581 
610	 0.13228581354607 
611	 0.133088024892016 
612	 0.133814664409917 
613	 0.134454360922541 
614	 0.135055286603528 
615	 0.135627416335564 
616	 0.136185359667384 
617	 0.136744427238805 
618	 0.137332722145079 
619	 0.137832365359045 
620	 0.138214767460363 
621	 0.138679134766276 
622	 0.139174215096817 
623	 0.139625189164167 
624	 0.139974818720597 
625	 0.140401650157198 
626	 0.140789135314572 
627	 0.141105876842617 
628	 0.141462269852518 
629	 0.141834094123995 
630	 0.142212314034856 
631	 0.142573796995106 
632	 0.142818931436118 
633	 0.143161472723696 
634	 0.143567237512319 
635	 0.143811604386966 
636	 0.144113298942035 
637	 0.144446818375103 
638	 0.144756247620314 
639	 0.145013135611899 
640	 0.145288475830328 
641	 0.145598695621496 
642	 0.14593030083967 
643	 0.146267945787293 
644	 0.146596592179939 
645	 0.146917825689164 
646	 0.147257054762689 
647	 0.14754689026088 
648	 0.147822492733737 
649	 0.148134844392822 
650	 0.148459449013812 
651	 0.148809614167481 
652	 0.14917399210214 
653	 0.149521923694901 
654	 0.149873503717019 
655	 0.150211530066886 
656	 0.15053968620281 
657	 0.150927562895114 
658	 0.151337720934337 
659	 0.151745206025699 
660	 0.152132107049648 
661	 0.152499496560558 
662	 0.152905053478471 
663	 0.153357232876093 
664	 0.15378865444397 
665	 0.15415942651111 
666	 0.154571906601016 
667	 0.155100747728364 
668	 0.155517255441533 
669	 0.155970349594197 
670	 0.156489718378915 
671	 0.156996271382542 
672	 0.157471759695439 
673	 0.157962407451606 
674	 0.158494715780457 
675	 0.159018520104609 
676	 0.159552094767353 
677	 0.160106407604766 
678	 0.160681366725177 
679	 0.161217660717228 
680	 0.161781587390663 
681	 0.162402337957425 
682	 0.163048296800429 
683	 0.163626707533233 
684	 0.164200496999689 
685	 0.164848555452563 
686	 0.165546772153545 
687	 0.166233758759997 
688	 0.166897118052932 
689	 0.167560106933192 
690	 0.168195635871315 
691	 0.168872880551834 
692	 0.169611201958474 
693	 0.170304539082874 
694	 0.171025023834461 
695	 0.171753653189599 
696	 0.172458138036676 
697	 0.173214359066321 
698	 0.173993287458675 
699	 0.174763987168309 
700	 0.175501758377715 
701	 0.176265244123258 
702	 0.1770475412128 
703	 0.177826659893803 
704	 0.178581869518822 
705	 0.179359336568103 
706	 0.180148224405739 
707	 0.180911970063956 
708	 0.181679644401463 
709	 0.182462190219362 
710	 0.183258009488207 
711	 0.184053618604937 
712	 0.184851232439843 
713	 0.185635026005953 
714	 0.186387309748545 
715	 0.18708850174965 
716	 0.187811863302717 
717	 0.188565959282085 
718	 0.189310064084244 
719	 0.190069011381359 
720	 0.190766648083772 
721	 0.191382857330075 
722	 0.192024733937071 
723	 0.192729730863253 
724	 0.193409513228641 
725	 0.193960238024659 
726	 0.194441423574126 
727	 0.19499803402235 
728	 0.195613454651002 
729	 0.196125611299859 
730	 0.19665112465322 
731	 0.197117396270719 
732	 0.197488250132938 
733	 0.197888518027888 
734	 0.198277947719542 
735	 0.198644000492678 
736	 0.198979755833062 
737	 0.199259429090006 
738	 0.199520034474645 
739	 0.199755143989211 
740	 0.199908153856774 
741	 0.200035748785734 
742	 0.200134728969353 
743	 0.200207847114244 
744	 0.200318015056641 
745	 0.200356931834 
746	 0.200336796806309 
747	 0.200321099230538 
748	 0.200283331288831 
749	 0.200186256866152 
750	 0.200020343046015 
751	 0.199811539672155 
752	 0.199657043642523 
753	 0.199469290131668 
754	 0.199188997317238 
755	 0.198978325183728 
756	 0.19872159884997 
757	 0.198397657549928 
758	 0.198040428944716 
759	 0.197691654688486 
760	 0.197327364891345 
761	 0.196954429893655 
762	 0.196624265958718 
763	 0.196170190685723 
764	 0.195692791436909 
765	 0.195279185326499 
766	 0.194774435309069 
767	 0.194306339126201 
768	 0.193846046916474 
769	 0.193314529881333 
770	 0.192894311058731 
771	 0.192422977077863 
772	 0.191853043636017 
773	 0.191308850281184 
774	 0.190775517703699 
775	 0.190240951636908 
776	 0.189699869825583 
777	 0.189173693691231 
778	 0.188625815280091 
779	 0.188057895193507 
780	 0.1874910681052 
781	 0.186941794975708 
782	 0.186414095876538 
783	 0.185890459050081 
784	 0.185336773257861 
785	 0.184785718804141 
786	 0.184215189117096 
787	 0.183627554101496 
788	 0.183108924873534 
789	 0.182589786078477 
790	 0.182066076773703 
791	 0.181553976561659 
792	 0.18105088917161 
793	 0.180488402162867 
794	 0.179901759585873 
795	 0.17941031701063 
796	 0.178965953345837 
797	 0.178497012407306 
798	 0.177982787220152 
799	 0.177499881378287 
800	 0.177033662557414 
801	 0.176550105785456 
802	 0.176040550904421 
803	 0.175624940524192 
804	 0.175179201178864 
805	 0.174698056130278 
806	 0.174253316898701 
807	 0.17384400925364 
808	 0.173438771103575 
809	 0.173017256679519 
810	 0.172579193035271 
811	 0.172160629713511 
812	 0.171751335542993 
813	 0.171349020478011 
814	 0.17101289555168 
815	 0.170629652020566 
816	 0.170236386977368 
817	 0.169908562118231 
818	 0.169553782633498 
819	 0.169220772487762 
820	 0.168900540620842 
821	 0.168540289129621 
822	 0.168250972347164 
823	 0.167956940933281 
824	 0.167619811463511 
825	 0.167306489167075 
826	 0.167075063127279 
827	 0.166873658852204 
828	 0.166631488071422 
829	 0.166325804012903 
830	 0.166022424848332 
831	 0.165776572798553 
832	 0.165605588294804 
833	 0.16536510941104 
834	 0.165112115099978 
835	 0.164885543588971 
836	 0.164686743842072 
837	 0.164439338546811 
838	 0.164237760335069 
839	 0.164120858300113 
840	 0.163988597617592 
841	 0.163810723077491 
842	 0.163599190350263 
843	 0.163395809886056 
844	 0.163280852931265 
845	 0.163191352161888 
846	 0.163086240276059 
847	 0.162950203211404 
848	 0.162843227852155 
849	 0.16271484354048 
850	 0.162595220125449 
851	 0.162567737449747 
852	 0.162466034103199 
853	 0.162353964607995 
854	 0.162291223315889 
855	 0.162279629978104 
856	 0.162230040846165 
857	 0.162179329609488 
858	 0.162160379919265 
859	 0.162109800189051 
860	 0.162093534868404 
861	 0.162083864469865 
862	 0.16204970913443 
863	 0.162098703423886 
864	 0.162142812924295 
865	 0.162154484461677 
866	 0.162154516777442 
867	 0.162180452528913 
868	 0.162207834167176 
869	 0.162243599919308 
870	 0.162323941617727 
871	 0.162348165987893 
872	 0.162392156041909 
873	 0.162500992295954 
874	 0.162622683799416 
875	 0.162721212934243 
876	 0.162783714023371 
877	 0.162831228709257 
878	 0.162943493633032 
879	 0.16310629050852 
880	 0.163276627765726 
881	 0.163412234965395 
882	 0.16352569252391 
883	 0.163661534242621 
884	 0.163838625887685 
885	 0.16404881966855 
886	 0.164242234467072 
887	 0.164414980956149 
888	 0.164579641541419 
889	 0.164759762913804 
890	 0.164972168816958 
891	 0.165189302075289 
892	 0.165406120766099 
893	 0.16565167657054 
894	 0.165917943998527 
895	 0.166176829602737 
896	 0.166412981965275 
897	 0.166639854795046 
898	 0.166944755712627 
899	 0.167260295505964 
900	 0.167534129446916 
901	 0.167874782879201 
902	 0.168158920507866 
903	 0.168435544022938 
904	 0.168772800597187 
905	 0.169070892449802 
906	 0.169388522608973 
907	 0.169747834552857 
908	 0.170146993276829 
909	 0.1705791361653 
910	 0.170974578237774 
911	 0.171330614648552 
912	 0.171696219889717 
913	 0.172111948603912 
914	 0.172544654422525 
915	 0.172944724164522 
916	 0.173284837034613 
917	 0.173782645438035 
918	 0.17434466918053 
919	 0.174879488661228 
920	 0.175353274966304 
921	 0.17577014760832 
922	 0.176243959418238 
923	 0.176799821136072 
924	 0.177315065066557 
925	 0.177856047501369 
926	 0.178398758058326 
927	 0.178916814311915 
928	 0.179409804745733 
929	 0.180007314848189 
930	 0.180606354431987 
931	 0.181148930810956 
932	 0.181824307001558 
933	 0.182496419957525 
934	 0.183124761948524 
935	 0.183730526347027 
936	 0.184424281429819 
937	 0.185072742160415 
938	 0.185725029504119 
939	 0.186445838274814 
940	 0.187123034047142 
941	 0.187905693001353 
942	 0.188710298892236 
943	 0.189400459865902 
944	 0.190008796048107 
945	 0.190759258518503 
946	 0.191640042640887 
947	 0.192497920222254 
948	 0.193134236478633 
949	 0.193894301546463 
950	 0.194758192019712 
951	 0.19555132053045 
952	 0.196404307757764 
953	 0.197386321387414 
954	 0.19832433833861 
955	 0.199021855696091 
956	 0.199880106613621 
957	 0.200817197565311 
958	 0.201741538587113 
959	 0.202602402565425 
960	 0.203519529790503 
961	 0.204429502817438 
962	 0.20535092288006 
963	 0.206334940488218 
964	 0.207259084443389 
965	 0.208248328678137 
966	 0.209266495700681 
967	 0.210206438738111 
968	 0.211264306060515 
969	 0.212396694916377 
970	 0.213490924869017 
971	 0.214450972223462 
972	 0.215486429587361 
973	 0.216575947807356 
974	 0.217668806929984 
975	 0.218725072640002 
976	 0.219813005403676 
977	 0.22096917717129 
978	 0.222130677812278 
979	 0.22321286121053 
980	 0.224386611078794 
981	 0.2254611884453 
982	 0.226497457673372 
983	 0.227695532388554 
984	 0.229044886917075 
985	 0.230243177754262 
986	 0.231296492197686 
987	 0.232399725666209 
988	 0.23364064964841 
989	 0.234743140962929 
990	 0.235814748722445 
991	 0.237100191615732 
992	 0.238474036640958 
993	 0.239569924518994 
994	 0.240628301764737 
995	 0.241993186348459 
996	 0.2432090568714 
997	 0.2443713811503 
998	 0.245490600184207 
999	 0.246624282835172 
1000	 0.248109881783998 
1001	 0.253243259376702 
1002	 0.254415406575853 
1003	 0.255642916107561 
1004	 0.256813956256949 
1005	 0.257980408076828 
1006	 0.259122924961176 
1007	 0.260212814738541 
1008	 0.261317045785094 
1009	 0.262473025579043 
1010	 0.263587595950312 
1011	 0.264729726421665 
1012	 0.265931647140157 
1013	 0.267077374242865 
1014	 0.26820490967836 
1015	 0.269307076686361 
1016	 0.270346384085891 
1017	 0.271389025379528 
1018	 0.272393309536412 
1019	 0.273438756677603 
1020	 0.274531725143746 
1021	 0.275581079001313 
1022	 0.276635351423517 
1023	 0.277693971695474 
1024	 0.278680760686089 
1025	 0.279702868826688 
1026	 0.280746862936777 
1027	 0.281786499598548 
1028	 0.282810227652918 
1029	 0.283806235238439 
1030	 0.284829881861774 
1031	 0.28583913706436 
1032	 0.28684021068767 
1033	 0.287858290054419 
1034	 0.288865786302009 
1035	 0.289805463410531 
1036	 0.290764779323394 
1037	 0.291735701612114 
1038	 0.292694776595739 
1039	 0.293715587643708 
1040	 0.294726385058771 
1041	 0.295709978029125 
1042	 0.296712379780052 
1043	 0.297681541903752 
1044	 0.298665891112026 
1045	 0.299649693056097 
1046	 0.300644098999275 
1047	 0.301631748332391 
1048	 0.302623675545755 
1049	 0.30359504044502 
1050	 0.304564538704133 
1051	 0.305554023237136 
1052	 0.306555771487917 
1053	 0.307526179720336 
1054	 0.308471559073788 
1055	 0.309407363247571 
1056	 0.310325282004536 
1057	 0.311214885149999 
1058	 0.312065147424449 
1059	 0.312941743805566 
1060	 0.313809730257461 
1061	 0.314664158926171 
1062	 0.315538631013692 
1063	 0.316409144556877 
1064	 0.317230175011761 
1065	 0.318015651916001 
1066	 0.318806324879716 
1067	 0.319626009156864 
1068	 0.320434701650207 
1069	 0.321227375033443 
1070	 0.322002177845398 
1071	 0.322731788581264 
1072	 0.32349093176975 
1073	 0.324261104187166 
1074	 0.325003711081412 
1075	 0.325759590281875 
1076	 0.326470080518257 
1077	 0.327093616644058 
1078	 0.327760672659447 
1079	 0.328439370106218 
1080	 0.329114377677663 
1081	 0.329836610769736 
1082	 0.330537068791586 
1083	 0.331230805973776 
1084	 0.331895566231135 
1085	 0.332599180717054 
1086	 0.333297368456705 
1087	 0.334023166852682 
1088	 0.334780312331486 
1089	 0.335512660294836 
1090	 0.336263247633319 
1091	 0.337078714558291 
1092	 0.337839525703327 
1093	 0.338587258206921 
1094	 0.339343745182554 
1095	 0.340045054705954 
1096	 0.340777644765733 
1097	 0.341562777558879 
1098	 0.342358349109077 
1099	 0.343185625977543 
1100	 0.344002700401986 
1101	 0.344803902359885 
1102	 0.345662382402846 
1103	 0.346535539686359 
1104	 0.347455086155111 
1105	 0.348379172492635 
1106	 0.34933411819456 
1107	 0.35028451222273 
1108	 0.35120258272393 
1109	 0.352164274517318 
1110	 0.35314782692334 
1111	 0.354145300203272 
1112	 0.355168402530893 
1113	 0.356177321994876 
1114	 0.35716572177418 
1115	 0.358219274595397 
1116	 0.359311281962988 
1117	 0.360388009943783 
1118	 0.361495356469135 
1119	 0.362615562597684 
1120	 0.363710267183576 
1121	 0.36477943382159 
1122	 0.365880980367148 
1123	 0.36701805775398 
1124	 0.368143118151845 
1125	 0.369266430077622 
1126	 0.370392215162464 
1127	 0.371524953152421 
1128	 0.372658136406527 
1129	 0.373785308221882 
1130	 0.374925590166834 
1131	 0.376087864557798 
1132	 0.377223600829546 
1133	 0.378347172905172 
1134	 0.379482509128353 
1135	 0.380629308033163 
1136	 0.381729667536493 
1137	 0.382855259720661 
1138	 0.383980379919543 
1139	 0.385095209785596 
1140	 0.386205200527715 
1141	 0.387307475543516 
1142	 0.388403218661164 
1143	 0.389492001885045 
1144	 0.390564773942157 
1145	 0.391632765886746 
1146	 0.392713418696217 
1147	 0.393767868619288 
1148	 0.394809225171092 
1149	 0.395838540333464 
1150	 0.396851125815681 
1151	 0.397839115438681 
1152	 0.398859104182445 
1153	 0.399852778691528 
1154	 0.400852150787908 
1155	 0.40186807841923 
1156	 0.402857033060543 
1157	 0.403833523098462 
1158	 0.404793618622416 
1159	 0.405759109009937 
1160	 0.406680939739246 
1161	 0.407548406891122 
1162	 0.408448795650707 
1163	 0.409352735726516 
1164	 0.410236161882061 
1165	 0.411118975038157 
1166	 0.412004782185314 
1167	 0.41288643162089 
1168	 0.413745212529156 
1169	 0.414600406379154 
1170	 0.415473180128974 
1171	 0.416306676614548 
1172	 0.417115597548593 
1173	 0.417906889445183 
1174	 0.418672305042736 
1175	 0.419449801379389 
1176	 0.420215249090258 
1177	 0.420974284582667 
1178	 0.421739370315289 
1179	 0.422494273306589 
1180	 0.423234712695668 
1181	 0.423971254144092 
1182	 0.424706834903675 
1183	 0.425443171471807 
1184	 0.426158870228996 
1185	 0.426869951833107 
1186	 0.427549082030903 
1187	 0.428203185035854 
1188	 0.428860777669869 
1189	 0.429500247681375 
1190	 0.430133429470763 
1191	 0.430762202244927 
1192	 0.431389403890349 
1193	 0.432008636825257 
1194	 0.432617810632772 
1195	 0.43322650162619 
1196	 0.433828132704621 
1197	 0.434410512550054 
1198	 0.434995621403153 
1199	 0.435580183642185 
1200	 0.436176056270843 
1201	 0.43674230392458 
1202	 0.437301726852575 
1203	 0.437839847515746 
1204	 0.438351054471421 
1205	 0.438869682043568 
1206	 0.439383042592476 
1207	 0.439885071412752 
1208	 0.440383970734012 
1209	 0.440872447786187 
1210	 0.441349988037145 
1211	 0.441817333005034 
1212	 0.442270660074316 
1213	 0.442726995334522 
1214	 0.44316385018078 
1215	 0.443615871286424 
1216	 0.444075041888854 
1217	 0.444553048597193 
1218	 0.445000587357856 
1219	 0.445456654824342 
1220	 0.445875124493085 
1221	 0.446253053774236 
1222	 0.446654271909283 
1223	 0.447043550478327 
1224	 0.447442315875328 
1225	 0.447858689100794 
1226	 0.448258930835361 
1227	 0.448659666174637 
1228	 0.449045213065264 
1229	 0.449427057368499 
1230	 0.449791953614271 
1231	 0.450124288364275 
1232	 0.450472789827209 
1233	 0.450821904350468 
1234	 0.451161276911275 
1235	 0.451515058034814 
1236	 0.451892205196549 
1237	 0.452240685339143 
1238	 0.452596238028114 
1239	 0.452915580199903 
1240	 0.45320130764824 
1241	 0.45349844021888 
1242	 0.453766342006941 
1243	 0.454058335071013 
1244	 0.454366854333486 
1245	 0.454671519735412 
1246	 0.454987047710137 
1247	 0.455294445958645 
1248	 0.455607516318025 
1249	 0.455906327418343 
1250	 0.456193309922126 
1251	 0.456468524714751 
1252	 0.45673027471658 
1253	 0.456976311641707 
1254	 0.457211601875823 
1255	 0.457436290946879 
1256	 0.457648699243286 
1257	 0.457833938040465 
1258	 0.458038949401925 
1259	 0.458226115893202 
1260	 0.458445969797504 
1261	 0.458691352551628 
1262	 0.458932892075392 
1263	 0.459203083657643 
1264	 0.459454791960075 
1265	 0.459697553505565 
1266	 0.459940371785565 
1267	 0.460179599855826 
1268	 0.46040660280267 
1269	 0.460650127559668 
1270	 0.460894352199591 
1271	 0.461152285409286 
1272	 0.461427121147994 
1273	 0.461693483375441 
1274	 0.461966533532837 
1275	 0.462229098122515 
1276	 0.462477372388757 
1277	 0.462742188829617 
1278	 0.4630126363226 
1279	 0.463285421133052 
1280	 0.463595388605588 
1281	 0.463851229775422 
1282	 0.464077405641001 
1283	 0.46430103336042 
1284	 0.464496714098468 
1285	 0.464684650964962 
1286	 0.46488788629516 
1287	 0.465052358979142 
1288	 0.465180064925483 
1289	 0.465281360825191 
1290	 0.465342902261499 
1291	 0.465353137218285 
1292	 0.465369878023494 
1293	 0.465368557272444 
1294	 0.465335523586024 
1295	 0.465292823978393 
1296	 0.465211358607748 
1297	 0.465086716384936 
1298	 0.464950493910396 
1299	 0.464786046288321 
1300	 0.464612409054436 
1301	 0.464417970191703 
1302	 0.46420994975127 
1303	 0.463977621812754 
1304	 0.463753230489606 
1305	 0.463534638187386 
1306	 0.463280980074936 
1307	 0.463034529036983 
1308	 0.462811704557361 
1309	 0.462587963465024 
1310	 0.462363028390563 
1311	 0.46214781157969 
1312	 0.461939638437342 
1313	 0.461748451426184 
1314	 0.461551811399732 
1315	 0.461388694686677 
1316	 0.461240313355253 
1317	 0.461131326798269 
1318	 0.461059105068106 
1319	 0.460992515641339 
1320	 0.460951629328538 
1321	 0.460932902803464 
1322	 0.46092148804226 
1323	 0.460934495249103 
1324	 0.460981325692338 
1325	 0.461039790485336 
1326	 0.461116626815149 
1327	 0.461217963606451 
1328	 0.461348211486386 
1329	 0.461499250144666 
1330	 0.461679493047174 
1331	 0.461877792493933 
1332	 0.462113104186257 
1333	 0.46239933248607 
1334	 0.462665462980204 
1335	 0.462944715088367 
1336	 0.463230496130286 
1337	 0.463507115437188 
1338	 0.463807914968638 
1339	 0.464139139943792 
1340	 0.464459459366041 
1341	 0.464775658888279 
1342	 0.465114768555691 
1343	 0.465470396384975 
1344	 0.465814439426262 
1345	 0.466176460123532 
1346	 0.466539489323751 
1347	 0.466906446107807 
1348	 0.467278519191193 
1349	 0.467645790037587 
1350	 0.468023972335024 
1351	 0.468397064237349 
1352	 0.468760489545077 
1353	 0.469121917072026 
1354	 0.469501768813866 
1355	 0.469847110500952 
1356	 0.470171704275368 
1357	 0.470496487732379 
1358	 0.470794277988587 
1359	 0.471117260032545 
1360	 0.471441558853499 
1361	 0.471769646634583 
1362	 0.472133450424468 
1363	 0.472461868124491 
1364	 0.472777520697942 
1365	 0.473081047563639 
1366	 0.473370577659357 
1367	 0.473627567179763 
1368	 0.473898042429907 
1369	 0.474176304863941 
1370	 0.474467849628891 
1371	 0.474748735120043 
1372	 0.474995034833681 
1373	 0.475233118461035 
1374	 0.475442880289186 
1375	 0.475613744491668 
1376	 0.475791180200239 
1377	 0.475974660804425 
1378	 0.476110427062211 
1379	 0.476232750194189 
1380	 0.476317976331199 
1381	 0.476345760158561 
1382	 0.476387970969907 
1383	 0.476429538175872 
1384	 0.476432766291233 
1385	 0.476435420773677 
1386	 0.476388471205675 
1387	 0.476287584615374 
1388	 0.476179721371587 
1389	 0.476056225274808 
1390	 0.475897512810871 
1391	 0.475708348877286 
1392	 0.475496380778946 
1393	 0.475227300386119 
1394	 0.474947147464174 
1395	 0.474682371508046 
1396	 0.474386427305951 
1397	 0.47407148760759 
1398	 0.473738363498686 
1399	 0.473417201477466 
1400	 0.473065886207039 
1401	 0.472744134719288 
1402	 0.472453448379484 
1403	 0.472138936552147 
1404	 0.471811394717791 
1405	 0.471498811604692 
1406	 0.471193331174894 
1407	 0.470875305760537 
1408	 0.470550404974169 
1409	 0.470241665033214 
1410	 0.469893266244336 
1411	 0.469622329477365 
1412	 0.469391641740068 
1413	 0.469188934866417 
1414	 0.469043109457846 
1415	 0.468938405927343 
1416	 0.468873175581822 
1417	 0.468812137760539 
1418	 0.46876121807847 
1419	 0.468747763894469 
1420	 0.468722918581899 
1421	 0.468702482789087 
1422	 0.468693211891087 
1423	 0.468659873304762 
1424	 0.468604817049516 
1425	 0.468521414914235 
1426	 0.468457352664216 
1427	 0.468376579887491 
1428	 0.468308555421126 
1429	 0.46825732043945 
1430	 0.468196873295767 
1431	 0.468127104919497 
1432	 0.468068373369163 
1433	 0.468026112531144 
1434	 0.467961620043408 
1435	 0.467891076078412 
1436	 0.467816944908126 
1437	 0.46770458496868 
1438	 0.467640295908934 
1439	 0.467606217266827 
1440	 0.467563669698039 
1441	 0.467530300818923 
1442	 0.467503668161815 
1443	 0.467457573697537 
1444	 0.467411968508795 
1445	 0.46738976887279 
1446	 0.467383880502935 
1447	 0.467374601054317 
1448	 0.467362439706007 
1449	 0.467333281597992 
1450	 0.467287842541352 
1451	 0.467260523650254 
1452	 0.467230186913431 
1453	 0.467207183580516 
1454	 0.467198289069572 
1455	 0.467183269725975 
1456	 0.467154659229247 
1457	 0.467150874953584 
1458	 0.467172903215195 
1459	 0.467175930873795 
1460	 0.467174726183094 
1461	 0.467183062987636 
1462	 0.467173813017693 
1463	 0.467191644357002 
1464	 0.467237505079572 
1465	 0.467282376031152 
1466	 0.467341012776076 
1467	 0.467398575461961 
1468	 0.467450880801477 
1469	 0.467514330635365 
1470	 0.467581481980143 
1471	 0.467657782186904 
1472	 0.467751062539462 
1473	 0.467857962873757 
1474	 0.467969998292488 
1475	 0.468088197798871 
1476	 0.468212414725363 
1477	 0.468342193126946 
1478	 0.468487973141696 
1479	 0.468632360571277 
1480	 0.468781195312702 
1481	 0.468960881917086 
1482	 0.469121202553432 
1483	 0.469281220183794 
1484	 0.469442747003411 
1485	 0.469592419751081 
1486	 0.469760108397756 
1487	 0.469950264904804 
1488	 0.470117840833589 
1489	 0.470283105333891 
1490	 0.4704409122256 
1491	 0.470586108722192 
1492	 0.470731077521635 
1493	 0.470868633006446 
1494	 0.471018782815297 
1495	 0.471171889644582 
1496	 0.471316342774484 
1497	 0.471477632332193 
1498	 0.471616674353709 
1499	 0.471726811376785 
1500	 0.471854367817732 
1501	 0.471976880559829 
1502	 0.47210404261244 
1503	 0.472240602648252 
1504	 0.472378190828066 
1505	 0.47251014308687 
1506	 0.472632980312471 
1507	 0.472760868281138 
1508	 0.472894188831843 
1509	 0.47300247004072 
1510	 0.473124792484184 
1511	 0.473266115740649 
1512	 0.473381737222 
1513	 0.473507712895386 
1514	 0.473655080995077 
1515	 0.473769885348956 
1516	 0.473885529824251 
1517	 0.473997784707759 
1518	 0.474105801415812 
1519	 0.474217673748844 
1520	 0.474328629069002 
1521	 0.474429966582342 
1522	 0.474537333459837 
1523	 0.474629605192036 
1524	 0.47470864683218 
1525	 0.47478361629746 
1526	 0.474848273969473 
1527	 0.474915758983227 
1528	 0.474975501236306 
1529	 0.475038843072884 
1530	 0.475109803191418 
1531	 0.475170084653226 
1532	 0.475215625358525 
1533	 0.475276864643836 
1534	 0.475332595621896 
1535	 0.475404984625489 
1536	 0.475500549023522 
1537	 0.475586316104155 
1538	 0.475682306038484 
1539	 0.475769578235985 
1540	 0.475850724167345 
1541	 0.475926377771294 
1542	 0.47600403439827 
1543	 0.476064218700702 
1544	 0.476109700313029 
1545	 0.476156679509837 
1546	 0.476186491355349 
1547	 0.476214880900779 
1548	 0.476287552701305 
1549	 0.476377027390463 
1550	 0.476479760977956 
1551	 0.476593830629598 
1552	 0.476701587772155 
1553	 0.476776528263003 
1554	 0.476837386348214 
1555	 0.476916917113025 
1556	 0.476986089762154 
1557	 0.477037621375666 
1558	 0.47709370601873 
1559	 0.477151432436693 
1560	 0.477212618333562 
1561	 0.477265179766977 
1562	 0.477335557350322 
1563	 0.477421699338792 
1564	 0.477497375756798 
1565	 0.477572375090317 
1566	 0.477652588506255 
1567	 0.477733479914408 
1568	 0.477818024262675 
1569	 0.477917541262539 
1570	 0.477990440539129 
1571	 0.478047562293757 
1572	 0.478115753337533 
1573	 0.478173535713904 
1574	 0.478238040587196 
1575	 0.478320473214287 
1576	 0.478386780003349 
1577	 0.478442821155463 
1578	 0.478494375605938 
1579	 0.478534494819543 
1580	 0.478581145575634 
1581	 0.478625341129359 
1582	 0.478673448963522 
1583	 0.478725620114524 
1584	 0.478779206667428 
1585	 0.478831221097039 
1586	 0.47889123853214 
1587	 0.478960588028674 
1588	 0.479026994653377 
1589	 0.479101378772338 
1590	 0.479158652185128 
1591	 0.479202339603984 
1592	 0.479257342974477 
1593	 0.47930076879444 
1594	 0.479361293353445 
1595	 0.479436147666751 
1596	 0.479512255590666 
1597	 0.479619999878201 
1598	 0.47968845414565 
1599	 0.479734857285857 
1600	 0.479786636859027 
1601	 0.479812789861785 
1602	 0.479843773160482 
1603	 0.479885888945023 
1604	 0.47992073556905 
1605	 0.479934931381663 
1606	 0.479967821942506 
1607	 0.480011200211457 
1608	 0.480059091469039 
1609	 0.480117363083674 
1610	 0.480167036652064 
1611	 0.48020491585535 
1612	 0.480248226500818 
1613	 0.480292763449481 
1614	 0.480345379946017 
1615	 0.480420233045492 
1616	 0.480508279884794 
1617	 0.480581398611519 
1618	 0.480650767312942 
1619	 0.480728314506286 
1620	 0.480792636446273 
1621	 0.480871911425138 
1622	 0.480976479140109 
1623	 0.481043460049071 
1624	 0.481095070772314 
1625	 0.481145679364182 
1626	 0.481173662367944 
1627	 0.481226646432314 
1628	 0.481291261156317 
1629	 0.481345422991823 
1630	 0.481403130841472 
1631	 0.481460584465585 
1632	 0.481508107694117 
1633	 0.481571135621827 
1634	 0.481655545515851 
1635	 0.481705345250761 
1636	 0.481741293771434 
1637	 0.481785328703282 
1638	 0.481814618926203 
1639	 0.481851117643272 
1640	 0.481900798692552 
1641	 0.481939361901192 
1642	 0.481962386582081 
1643	 0.482001032968053 
1644	 0.4820445255669 
1645	 0.482094070677248 
1646	 0.482149637730993 
1647	 0.482207903970281 
1648	 0.482268070752035 
1649	 0.482341789678374 
1650	 0.48242951712176 
1651	 0.482505347079581 
1652	 0.482591523579668 
1653	 0.482662657580421 
1654	 0.482717770933716 
1655	 0.482780578077509 
1656	 0.482852726908031 
1657	 0.48289915786891 
1658	 0.482930031905209 
1659	 0.482966100421791 
1660	 0.482983569705851 
1661	 0.483016060171777 
1662	 0.483070150948591 
1663	 0.483095407418234 
1664	 0.483103515529751 
1665	 0.483122067185096 
1666	 0.483132297388255 
1667	 0.483143813363306 
1668	 0.48315746375822 
1669	 0.483179523075692 
1670	 0.483183424113328 
1671	 0.483229115419987 
1672	 0.483314376950363 
1673	 0.483379902680541 
1674	 0.483473531346573 
1675	 0.483526892528744 
1676	 0.483548650598978 
1677	 0.483583375685956 
1678	 0.483592672132594 
1679	 0.483637448728329 
1680	 0.483720788601248 
1681	 0.483761673059483 
1682	 0.483790736578295 
1683	 0.483832580232993 
1684	 0.483847790875145 
1685	 0.483889649456132 
1686	 0.483969210388167 
1687	 0.484022896019778 
1688	 0.484059369635586 
1689	 0.484115518541739 
1690	 0.48417818760818 
1691	 0.484238518281165 
1692	 0.48430099172975 
1693	 0.484375220461743 
1694	 0.484454317037175 
1695	 0.484535571308674 
1696	 0.484644257990976 
1697	 0.484716682820888 
1698	 0.484772991079649 
1699	 0.484815931255164 
1700	 0.484842744937007 
1701	 0.484857035079705 
1702	 0.484837421155687 
1703	 0.484854769370578 
1704	 0.484862315041392 
1705	 0.484908622598382 
1706	 0.48501389035811 
1707	 0.485071219792368 
1708	 0.485127159008325 
1709	 0.485167517311295 
1710	 0.485160828893366 
1711	 0.48520983146398 
1712	 0.485284761907049 
1713	 0.485351652546607 
1714	 0.485446865343344 
1715	 0.485518867666356 
1716	 0.485572513501303 
1717	 0.485639459737571 
1718	 0.485722114086146 
1719	 0.485767928392947 
1720	 0.485808705196989 
1721	 0.485824358827862 
1722	 0.485802279032167 
1723	 0.485790949985151 
1724	 0.485771803937713 
1725	 0.485746042640943 
1726	 0.485710825600949 
1727	 0.485681034621014 
1728	 0.485658494019099 
1729	 0.485604307646363 
1730	 0.485532532393748 
1731	 0.485472525943365 
1732	 0.485384139132465 
1733	 0.485336728733775 
1734	 0.485314493837095 
1735	 0.485294831423406 
1736	 0.485285239992751 
1737	 0.485285950120385 
1738	 0.485314863498794 
1739	 0.485312539566421 
1740	 0.485321850202802 
1741	 0.485276197590064 
1742	 0.485175000850835 
1743	 0.485123136904925 
1744	 0.485044570869968 
1745	 0.485033122607316 
1746	 0.485083759622606 
1747	 0.48508503039846 
1748	 0.485110919826906 
1749	 0.485114515904199 
1750	 0.485082108327617 
1751	 0.485083405108446 
1752	 0.485068385118294 
1753	 0.485024001716295 
1754	 0.485032633683253 
1755	 0.485009756752915 
1756	 0.485020930603706 
1757	 0.485069164527333 
1758	 0.485051381600537 
1759	 0.485055380873341 
1760	 0.485018170033918 
1761	 0.484940769751445 
1762	 0.4849380792289 
1763	 0.484957239899077 
1764	 0.484971121232559 
1765	 0.485022263713745 
1766	 0.485043546872562 
1767	 0.485026617193712 
1768	 0.485060238200319 
1769	 0.485077810126521 
1770	 0.485073422992921 
1771	 0.48510980231359 
1772	 0.485112971952516 
1773	 0.485093021069134 
1774	 0.485131932255877 
1775	 0.485164893338713 
1776	 0.485163132551043 
1777	 0.485206978368537 
1778	 0.485252250090606 
1779	 0.485244150914991 
1780	 0.48523853496394 
1781	 0.485246285828934 
1782	 0.485246299341784 
1783	 0.485309333217716 
1784	 0.4853545009016 
1785	 0.485399698579987 
1786	 0.485431380034266 
1787	 0.48542919414776 
1788	 0.485475948024899 
1789	 0.485552420832523 
1790	 0.485610158385238 
1791	 0.485698419126713 
1792	 0.485764263957703 
1793	 0.485792908808972 
1794	 0.485849076062027 
1795	 0.485927698120065 
1796	 0.485969297383323 
1797	 0.485996560956263 
1798	 0.486016696155073 
1799	 0.486017298678785 
1800	 0.486027622754504 
1801	 0.483356524865112 
1802	 0.483384315653176 
1803	 0.483405896992231 
1804	 0.48345779837102 
1805	 0.483529985027019 
1806	 0.483567462723458 
1807	 0.483614608443288 
1808	 0.483672073152282 
1809	 0.483742667582184 
1810	 0.483794516639725 
1811	 0.483855695644812 
1812	 0.483907055409441 
1813	 0.483935549739424 
1814	 0.483905416956582 
1815	 0.483867085342507 
1816	 0.483863701176614 
1817	 0.483848020283226 
1818	 0.483838158360373 
1819	 0.483804352838158 
1820	 0.483778717867741 
1821	 0.483701938611821 
1822	 0.483597821502636 
1823	 0.483543043672596 
1824	 0.483488271573661 
1825	 0.483428404957675 
1826	 0.483396501262265 
1827	 0.483323002320755 
1828	 0.483247428357228 
1829	 0.483172796576025 
1830	 0.483075777851357 
1831	 0.482942446190607 
1832	 0.482841101790861 
1833	 0.482746284787682 
1834	 0.482668253402321 
1835	 0.482632089257792 
1836	 0.482585115197856 
1837	 0.482539381209321 
1838	 0.482502080320848 
1839	 0.48245546338471 
1840	 0.482405197543884 
1841	 0.482356680171963 
1842	 0.482316266976284 
1843	 0.482264059529976 
1844	 0.482203184485641 
1845	 0.482158052838899 
1846	 0.482084935862731 
1847	 0.482001785735204 
1848	 0.481924881475821 
1849	 0.48183462370813 
1850	 0.481756895970214 
1851	 0.481690782657293 
1852	 0.481601331198855 
1853	 0.481523575777803 
1854	 0.481489341847623 
1855	 0.481412257006453 
1856	 0.481367638140405 
1857	 0.481365026137806 
1858	 0.48129651133392 
1859	 0.481231528979871 
1860	 0.481134520821958 
1861	 0.481026574946445 
1862	 0.480841409541889 
1863	 0.480646955859522 
1864	 0.480399014057595 
1865	 0.480126458306779 
1866	 0.479846352681133 
1867	 0.479538989193022 
1868	 0.479250235650123 
1869	 0.478968565113661 
1870	 0.47869433816568 
1871	 0.47840833180433 
1872	 0.478136024826467 
1873	 0.477843278007628 
1874	 0.477511788129259 
1875	 0.477144204662682 
1876	 0.476742751760271 
1877	 0.476295527326575 
1878	 0.475779002558171 
1879	 0.47520496136701 
1880	 0.474567208963298 
1881	 0.473836687925613 
1882	 0.473082934742407 
1883	 0.472293676910566 
1884	 0.471443830550923 
1885	 0.470513195288143 
1886	 0.469536559741416 
1887	 0.468490314606998 
1888	 0.467383611942744 
1889	 0.466258986766285 
1890	 0.465100949960135 
1891	 0.46392614876863 
1892	 0.462717395012213 
1893	 0.461493880698047 
1894	 0.46024822265426 
1895	 0.458990880519961 
1896	 0.457686548233416 
1897	 0.456382482156462 
1898	 0.455070007169506 
1899	 0.453767820864046 
1900	 0.452566852492255 
1901	 0.451417750119055 
1902	 0.45029505272782 
1903	 0.449256650558324 
1904	 0.448219789906933 
1905	 0.447201447183061 
1906	 0.446189108203431 
1907	 0.445230126202795 
1908	 0.444297320119987 
1909	 0.443404621180964 
1910	 0.44256156405259 
1911	 0.441767522020106 
1912	 0.441039215329864 
1913	 0.440337783432844 
1914	 0.439679214929727 
1915	 0.439050798035271 
1916	 0.438464911176522 
1917	 0.437895928778188 
1918	 0.437359090817756 
1919	 0.436864034835029 
1920	 0.436407088441018 
1921	 0.435996772906376 
1922	 0.435623358662338 
1923	 0.435256387598493 
1924	 0.434932123007475 
1925	 0.434644623569784 
1926	 0.43438302277738 
1927	 0.434137931869972 
1928	 0.433954313032236 
1929	 0.433808403176115 
1930	 0.433652263040648 
1931	 0.433531337546015 
1932	 0.433445709024391 
1933	 0.433379164914851 
1934	 0.433315539011165 
1935	 0.433279226101185 
1936	 0.433252659521433 
1937	 0.433276059130484 
1938	 0.433334966295036 
1939	 0.433418178914283 
1940	 0.433552497616008 
1941	 0.433677709602477 
1942	 0.433838002116845 
1943	 0.434003603362523 
1944	 0.434165501178604 
1945	 0.434377649703533 
1946	 0.434574696741683 
1947	 0.434760184110215 
1948	 0.434972200879074 
1949	 0.435206876030215 
1950	 0.435432049557081 
1951	 0.435658770219957 
1952	 0.435903744836465 
1953	 0.436153660667767 
1954	 0.4364218695411 
1955	 0.436706174511907 
1956	 0.437010530836069 
1957	 0.437307551241433 
1958	 0.437604700249335 
1959	 0.437910385719832 
1960	 0.438216097003079 
1961	 0.438529611374795 
1962	 0.43886253533492 
1963	 0.43918517325306 
1964	 0.439494357545331 
1965	 0.439824886268411 
1966	 0.440185407330434 
1967	 0.440536479820425 
1968	 0.440897985136568 
1969	 0.44129364287973 
1970	 0.4416643625001 
1971	 0.442022013800431 
1972	 0.442380917920755 
1973	 0.442736992242863 
1974	 0.44309232676558 
1975	 0.443427579719856 
1976	 0.443790785860782 
1977	 0.444175318040118 
1978	 0.444576956786511 
1979	 0.445000530836594 
1980	 0.445422209203955 
1981	 0.445847497031142 
1982	 0.44627683039278 
1983	 0.44669828276743 
1984	 0.44712728954279 
1985	 0.447547236880354 
1986	 0.447963285831069 
1987	 0.448369795364061 
1988	 0.448783529510061 
1989	 0.449164703922921 
1990	 0.449535357658318 
1991	 0.449900444846181 
1992	 0.450277724823145 
1993	 0.450637575517564 
1994	 0.45104704525073 
1995	 0.451497253872011 
1996	 0.451919432310054 
1997	 0.452361428995703 
1998	 0.452794534489731 
1999	 0.453213992678544 
2000	 0.453626672966676 
2001	 0.454048339162048 
2002	 0.454459068165203 
2003	 0.454840054376746 
2004	 0.455218917047251 
2005	 0.455582146899752 
2006	 0.45591913317412 
2007	 0.456279305227404 
2008	 0.456617838648233 
2009	 0.456996647423472 
2010	 0.45743337916876 
2011	 0.45782264162983 
2012	 0.458206285529785 
2013	 0.458589798682758 
2014	 0.458958539484373 
2015	 0.459300686359339 
2016	 0.459671088269235 
2017	 0.460061701087138 
2018	 0.460449229620214 
2019	 0.460848156613301 
2020	 0.461233572478677 
2021	 0.46161737025584 
2022	 0.461998058116398 
2023	 0.462380257708514 
2024	 0.46274249166599 
2025	 0.463091533198452 
2026	 0.463450778974044 
2027	 0.463805856687471 
2028	 0.464140446561801 
2029	 0.46448879682251 
2030	 0.464849647870886 
2031	 0.465198303679625 
2032	 0.46554136617325 
2033	 0.465880708726727 
2034	 0.466228167169684 
2035	 0.466556107610167 
2036	 0.466875640937809 
2037	 0.467177474177864 
2038	 0.467452162742936 
2039	 0.467735600853468 
2040	 0.468014179949279 
2041	 0.468291828933994 
2042	 0.468531759707958 
2043	 0.468785326478434 
2044	 0.469027618107399 
2045	 0.469228023812857 
2046	 0.469476726144011 
2047	 0.469758603266313 
2048	 0.470021342124409 
2049	 0.470287615746858 
2050	 0.470559863578647 
2051	 0.470830836219033 
2052	 0.471102939958371 
2053	 0.471420291206239 
2054	 0.471678200442732 
2055	 0.471900615113647 
2056	 0.472112390098381 
2057	 0.472314172218924 
2058	 0.472462616796918 
2059	 0.472663674595819 
2060	 0.472886830712769 
2061	 0.473099362567982 
2062	 0.473325257576385 
2063	 0.473541105807626 
2064	 0.473749920831241 
2065	 0.473961709587846 
2066	 0.474188809517025 
2067	 0.474387658064606 
2068	 0.474570427167457 
2069	 0.474753986819277 
2070	 0.474917199003289 
2071	 0.47503425936606 
2072	 0.475219449471528 
2073	 0.475427338481381 
2074	 0.475626185645465 
2075	 0.475863252688047 
2076	 0.47607428741826 
2077	 0.476258313949173 
2078	 0.476458643939013 
2079	 0.476680129493162 
2080	 0.476878465331171 
2081	 0.477066157754298 
2082	 0.477251246332414 
2083	 0.477420986490121 
2084	 0.477592253128111 
2085	 0.477766187345496 
2086	 0.477933456899419 
2087	 0.478123049652548 
2088	 0.478329864739868 
2089	 0.478518653936387 
2090	 0.478712234119684 
2091	 0.478907590109728 
2092	 0.479098053775457 
2093	 0.47927971519219 
2094	 0.479469435160941 
2095	 0.479648130318753 
2096	 0.479782863086864 
2097	 0.479959335419024 
2098	 0.480159003472355 
2099	 0.480366915199965 
2100	 0.480564424160533 
2101	 0.480788883373986 
2102	 0.48097283741788 
2103	 0.481118240893553 
2104	 0.481296517976869 
2105	 0.481456885171208 
2106	 0.481662403443976 
2107	 0.48190101615519 
2108	 0.482140915851429 
2109	 0.482418621226662 
2110	 0.482673857754886 
2111	 0.482921438545737 
2112	 0.483174387594554 
2113	 0.483410200739387 
2114	 0.483675072078781 
2115	 0.48393313925248 
2116	 0.484210410934104 
2117	 0.484450171419168 
2118	 0.484663779507108 
2119	 0.48490864805369 
2120	 0.485144213541604 
2121	 0.485393746708916 
2122	 0.4856786297659 
2123	 0.485942029228447 
2124	 0.486209163658452 
2125	 0.486445893039944 
2126	 0.486671322483838 
2127	 0.486884340285344 
2128	 0.487066951211579 
2129	 0.487247225866292 
2130	 0.487423365792406 
2131	 0.487603548972667 
2132	 0.487734484209175 
2133	 0.487837138183475 
2134	 0.487928187842132 
2135	 0.48800921237334 
2136	 0.488026964648687 
2137	 0.488017584879025 
2138	 0.487969431833154 
2139	 0.487836877406146 
2140	 0.487729673271923 
2141	 0.487607166094752 
2142	 0.487486098916185 
2143	 0.487363628426467 
2144	 0.48722854971418 
2145	 0.487095642737294 
2146	 0.486942452740942 
2147	 0.486770843670682 
2148	 0.486587860967707 
2149	 0.4863959336577 
2150	 0.486200264570472 
2151	 0.485967131179166 
2152	 0.485719502563898 
2153	 0.485441798535803 
2154	 0.485124636857422 
2155	 0.484803099249842 
2156	 0.484469833814551 
2157	 0.48411039450351 
2158	 0.483714044103799 
2159	 0.483327964371077 
2160	 0.48292082298952 
2161	 0.482521557132256 
2162	 0.482121821400539 
2163	 0.48173277161412 
2164	 0.4813538515321 
2165	 0.480964690319942 
2166	 0.480577477900242 
2167	 0.480201824352523 
2168	 0.479810131350326 
2169	 0.479411753350674 
2170	 0.478999903632181 
2171	 0.478583645265125 
2172	 0.4781558800959 
2173	 0.477705866660639 
2174	 0.47726243765928 
2175	 0.476803957827524 
2176	 0.476363833902182 
2177	 0.475930355167508 
2178	 0.47549704708961 
2179	 0.475072659283978 
2180	 0.474654808078762 
2181	 0.474235549599162 
2182	 0.473822399573365 
2183	 0.473436493381979 
2184	 0.473026372454792 
2185	 0.472610867335515 
2186	 0.472184033447354 
2187	 0.471770996451964 
2188	 0.471332140006872 
2189	 0.470946655688602 
2190	 0.470584750094572 
2191	 0.470243714871627 
2192	 0.469936077090829 
2193	 0.469638834781125 
2194	 0.469353695718454 
2195	 0.469094404445295 
2196	 0.468863654068152 
2197	 0.468639133896149 
2198	 0.468488216703535 
2199	 0.468259282327761 
2200	 0.467951887630948 
2201	 0.467708494833379 
2202	 0.467453846252389 
2203	 0.467193755803086 
2204	 0.467007347307596 
2205	 0.466911287832667 
2206	 0.466770028023004 
2207	 0.466612818387183 
2208	 0.466525507767814 
2209	 0.466467197577642 
2210	 0.46643405490595 
2211	 0.466452020125618 
2212	 0.466483547353431 
2213	 0.466536043518753 
2214	 0.466597465892735 
2215	 0.466735416953643 
2216	 0.466796700602668 
2217	 0.466845872745138 
2218	 0.466850548723278 
2219	 0.46679181316308 
2220	 0.466731806881836 
2221	 0.466643623676933 
2222	 0.46654467154438 
2223	 0.466444292294915 
2224	 0.466325793848812 
2225	 0.466212163314164 
2226	 0.466100886306049 
2227	 0.465967330305187 
2228	 0.465830216745547 
2229	 0.465667354654225 
2230	 0.465477003820521 
2231	 0.465279026320409 
2232	 0.465038719973901 
2233	 0.464851374476768 
2234	 0.464700255647855 
2235	 0.464504358346574 
2236	 0.464325188355582 
2237	 0.464118795263307 
2238	 0.463853860638977 
2239	 0.463606311068094 
2240	 0.463359420432287 
2241	 0.463123863217108 
2242	 0.462867635917397 
2243	 0.462644504140058 
2244	 0.462466639348404 
2245	 0.46226469706348 
2246	 0.462050737468695 
2247	 0.46189278575133 
2248	 0.461746666731687 
2249	 0.46159899574822 
2250	 0.461513926839906 
2251	 0.461505020902983 
2252	 0.461435453157096 
2253	 0.461368268100807 
2254	 0.461306198219057 
2255	 0.461215584521657 
2256	 0.461160498217004 
2257	 0.461138344608908 
2258	 0.461112693909414 
2259	 0.461081069830236 
2260	 0.461071618912376 
2261	 0.461107692903529 
2262	 0.461104875263388 
2263	 0.461065784173531 
2264	 0.461077975867587 
2265	 0.461113404620986 
2266	 0.461126139468034 
2267	 0.461177688823011 
2268	 0.46120581164247 
2269	 0.461218545347358 
2270	 0.461172491374691 
2271	 0.461166221595912 
2272	 0.461151480374317 
2273	 0.461124021907301 
2274	 0.461117334697602 
2275	 0.461119149925167 
2276	 0.46111506688269 
2277	 0.461169582513227 
2278	 0.461270070891823 
2279	 0.461352588589499 
2280	 0.46146800674096 
2281	 0.461573986132234 
2282	 0.461649595717124 
2283	 0.461768256479544 
2284	 0.461928215590903 
2285	 0.462078455219984 
2286	 0.462257120637302 
2287	 0.462404299485094 
2288	 0.462540954597799 
2289	 0.462664154838189 
2290	 0.462752404534571 
2291	 0.462862472556597 
2292	 0.462964432223053 
2293	 0.463091815362131 
2294	 0.463241990247071 
2295	 0.463396079016013 
2296	 0.463553337356287 
2297	 0.463743764752411 
2298	 0.463933105952803 
2299	 0.464106638384803 
2300	 0.464272815611613 
2301	 0.464468636539448 
2302	 0.464660251722883 
2303	 0.464822190916896 
2304	 0.465023434397391 
2305	 0.465173223767681 
2306	 0.465319323595766 
2307	 0.465456555013058 
2308	 0.46558320623609 
2309	 0.465682811194686 
2310	 0.46579773812396 
2311	 0.465915892153962 
2312	 0.466015573021666 
2313	 0.466097806900875 
2314	 0.466199497817646 
2315	 0.466293631409771 
2316	 0.466403683434458 
2317	 0.466519287499146 
2318	 0.466672202050576 
2319	 0.466852062358618 
2320	 0.467020141495113 
2321	 0.467241184023324 
2322	 0.467405611131283 
2323	 0.467514608509784 
2324	 0.467656539291574 
2325	 0.467780193825524 
2326	 0.46793269579292 
2327	 0.468124073933979 
2328	 0.468299391072341 
2329	 0.468463482048035 
2330	 0.468630011325695 
2331	 0.468762552224018 
2332	 0.468871311569549 
2333	 0.468973365281181 
2334	 0.469081412936497 
2335	 0.469170118141246 
2336	 0.469299392553163 
2337	 0.469460338280123 
2338	 0.469590584039247 
2339	 0.469716636954296 
2340	 0.469797103416664 
2341	 0.469784856654904 
2342	 0.469762900957564 
2343	 0.469740177121336 
2344	 0.469685017814275 
2345	 0.469601153497977 
2346	 0.469480073017319 
2347	 0.469389663083121 
2348	 0.469289737917046 
2349	 0.469166944698773 
2350	 0.469056624223314 
2351	 0.468931980498844 
2352	 0.468787445981233 
2353	 0.468604093227826 
2354	 0.468418441905376 
2355	 0.468212194619006 
2356	 0.467910446559829 
2357	 0.467699248316089 
2358	 0.467520745132494 
2359	 0.467368833431271 
2360	 0.467278664250663 
2361	 0.467134021678473 
2362	 0.467007835312984 
2363	 0.466856247824671 
2364	 0.466631757171258 
2365	 0.466493268262465 
2366	 0.466410902672102 
2367	 0.466263547943762 
2368	 0.466163166986183 
2369	 0.465995701562493 
2370	 0.465751026093361 
2371	 0.465491269599923 
2372	 0.465263906321917 
2373	 0.464989127777934 
2374	 0.464708114178504 
2375	 0.464435876416829 
2376	 0.464119937339039 
2377	 0.4638331965989 
2378	 0.463525040503278 
2379	 0.463198827114767 
2380	 0.462843384923208 
2381	 0.462526229350616 
2382	 0.46226694385821 
2383	 0.461988631191489 
2384	 0.461796541244774 
2385	 0.461490186672775 
2386	 0.461065668501831 
2387	 0.460740971830362 
2388	 0.460382795008274 
2389	 0.460033594062316 
2390	 0.459767710990493 
2391	 0.45947544401077 
2392	 0.459167059104452 
2393	 0.458893815739303 
2394	 0.458556833617008 
2395	 0.458157116516524 
2396	 0.457781085511028 
2397	 0.457322105494801 
2398	 0.456897596957899 
2399	 0.456585615796918 
2400	 0.456173579363246 
2401	 0.455780707321732 
2402	 0.45551498242265 
2403	 0.455177290794339 
2404	 0.454858969820888 
2405	 0.454626903123671 
2406	 0.454225100944508 
2407	 0.453787556390747 
2408	 0.453379935281116 
2409	 0.452891855772939 
2410	 0.452537094855161 
2411	 0.452226217432017 
2412	 0.451870498374364 
2413	 0.451500278851613 
2414	 0.451080884634869 
2415	 0.450684506753213 
2416	 0.450324261548382 
2417	 0.450032692436821 
2418	 0.449716411373035 
2419	 0.449412537634416 
2420	 0.449071083261288 
2421	 0.448704208823003 
2422	 0.448317169597902 
2423	 0.44789539648357 
2424	 0.447529879782977 
2425	 0.4472248272354 
2426	 0.446816888199345 
2427	 0.446364042668164 
2428	 0.445965865983624 
2429	 0.44542816463195 
2430	 0.445062165476094 
2431	 0.444946493523695 
2432	 0.44460018789114 
2433	 0.444174697500312 
2434	 0.44382560189711 
2435	 0.443357274934589 
2436	 0.443060114740408 
2437	 0.442974533024315 
2438	 0.44271834704957 
2439	 0.442432939401329 
2440	 0.442161641288814 
2441	 0.441783059123966 
2442	 0.4414868580221 
2443	 0.441299611948553 
2444	 0.441025214318761 
2445	 0.440694129410756 
2446	 0.440412136604365 
2447	 0.440171014147731 
2448	 0.439818075803099 
2449	 0.439418546793226 
2450	 0.439094858905322 
2451	 0.438761354464336 
2452	 0.438396098728884 
2453	 0.438028409565886 
2454	 0.437680125567244 
2455	 0.437262993781787 
2456	 0.436888707707324 
2457	 0.436600543442388 
2458	 0.436349502190825 
2459	 0.436078915815096 
2460	 0.435850547240142 
2461	 0.435779724414625 
2462	 0.435531285162009 
2463	 0.435229960300509 
2464	 0.434864658575421 
2465	 0.434309655409721 
2466	 0.433955152278008 
2467	 0.433656740770749 
2468	 0.43334457647777 
2469	 0.433144298287366 
2470	 0.432752778736034 
2471	 0.432474703106245 
2472	 0.43222126001628 
2473	 0.431896815523614 
2474	 0.431690423052125 
2475	 0.431212847766291 
2476	 0.430652305588664 
2477	 0.430322714783501 
2478	 0.429924517165301 
2479	 0.429706426834791 
2480	 0.429599322067413 
2481	 0.429428291915835 
2482	 0.429153000481632 
2483	 0.428561921507494 
2484	 0.428259909747608 
2485	 0.42802840017205 
2486	 0.42762083848743 
2487	 0.427512971564796 
2488	 0.42706910919648 
2489	 0.42647579430263 
2490	 0.426182659515485 
2491	 0.425879472662369 
2492	 0.425720583882398 
2493	 0.425528341008285 
2494	 0.425117092935954 
2495	 0.424958229441122 
2496	 0.424850144713078 
2497	 0.424675861225843 
2498	 0.42459694479034 
2499	 0.424303934040938 
2500	 0.423962500838964 
