Wavelength	MM700003.asd
350	 5.87858918536291E-02 
351	 6.19707302217224E-02 
352	 6.25419152071183E-02 
353	 6.19101407447709E-02 
354	 6.06482562232383E-02 
355	 5.75075883650029E-02 
356	 5.46167299091169E-02 
357	 0.054585550962296 
358	 6.01610995555753E-02 
359	 6.16761931219226E-02 
360	 5.78393957093097E-02 
361	 5.33663353790733E-02 
362	 5.22948093556327E-02 
363	 5.63375411496427E-02 
364	 6.24779384777812E-02 
365	 6.12394801249481E-02 
366	 6.02879845267705E-02 
367	 6.01128124265896E-02 
368	 5.95045957862927E-02 
369	 5.85591754608112E-02 
370	 5.80757471719999E-02 
371	 5.90367190561318E-02 
372	 6.20440559722957E-02 
373	 0.062671440702426 
374	 6.07769139240168E-02 
375	 0.059040821012978 
376	 6.42393638955849E-02 
377	 6.35388892519721E-02 
378	 6.15961669645496E-02 
379	 0.064965672107556 
380	 6.45454544786501E-02 
381	 6.29028614740721E-02 
382	 6.26838159591791E-02 
383	 6.56916858741484E-02 
384	 6.61070281712215E-02 
385	 6.61052522883805E-02 
386	 6.68845937082226E-02 
387	 6.52139940755368E-02 
388	 6.63683483824792E-02 
389	 6.83824036504091E-02 
390	 6.79841984461959E-02 
391	 6.75324716820131E-02 
392	 6.82115287771313E-02 
393	 7.00205500437851E-02 
394	 7.19462307092202E-02 
395	 7.24575522146473E-02 
396	 7.20296825275538E-02 
397	 0.071621249196898 
398	 7.24419847630221E-02 
399	 7.28745811503213E-02 
400	 7.40072138940471E-02 
401	 7.66916490021804E-02 
402	 0.074679351910126 
403	 7.36886784503689E-02 
404	 7.53352840016753E-02 
405	 7.64072169936727E-02 
406	 0.076784821293198 
407	 7.71498171801786E-02 
408	 7.78586695692518E-02 
409	 7.78903250869873E-02 
410	 7.76515325363277E-02 
411	 0.077783216924239 
412	 7.88005475809588E-02 
413	 7.96622365768404E-02 
414	 8.00268021792023E-02 
415	 8.00505378423796E-02 
416	 0.080392193532249 
417	 8.05727657978494E-02 
418	 8.10625096083425E-02 
419	 8.20562909021714E-02 
420	 8.21370352776291E-02 
421	 8.18235132541435E-02 
422	 8.17627839585726E-02 
423	 8.24946370202437E-02 
424	 8.27937195742641E-02 
425	 8.27931596435009E-02 
426	 0.082630105129303 
427	 8.19717374901552E-02 
428	 8.23540311786581E-02 
429	 8.27898642535075E-02 
430	 8.20442908279905E-02 
431	 8.20691085953798E-02 
432	 8.19254394280151E-02 
433	 8.15729271040056E-02 
434	 8.19111952034922E-02 
435	 8.22489603505786E-02 
436	 0.082374786528675 
437	 8.21861162537193E-02 
438	 8.14148111614647E-02 
439	 8.17298736111195E-02 
440	 8.25865433520647E-02 
441	 8.25215459705169E-02 
442	 8.25897594922654E-02 
443	 8.29273293256398E-02 
444	 8.33181457064315E-02 
445	 8.31475381144512E-02 
446	 8.32746928238954E-02 
447	 8.37054283089717E-02 
448	 8.41844203259235E-02 
449	 8.45405520834036E-02 
450	 8.47333399882046E-02 
451	 8.49339891460954E-02 
452	 8.54446136417397E-02 
453	 8.57242885432934E-02 
454	 8.57970275642196E-02 
455	 8.58942257849389E-02 
456	 8.65605112332168E-02 
457	 0.086773055817671 
458	 8.67847359863544E-02 
459	 8.72821794296213E-02 
460	 8.74251685826189E-02 
461	 8.74320964616817E-02 
462	 8.74890574725746E-02 
463	 8.75966011980405E-02 
464	 8.78181085187069E-02 
465	 8.80828842086702E-02 
466	 8.82750389563658E-02 
467	 8.82645344753708E-02 
468	 0.088253480628841 
469	 8.83352602906262E-02 
470	 8.84974228594439E-02 
471	 8.86533243581763E-02 
472	 8.87876029037813E-02 
473	 8.88946684249703E-02 
474	 8.89357693468608E-02 
475	 8.91230708961304E-02 
476	 0.089281597208945 
477	 8.91488955740627E-02 
478	 8.91755582469475E-02 
479	 8.92368014726641E-02 
480	 8.93014145155335E-02 
481	 8.95447128504892E-02 
482	 8.96104365514256E-02 
483	 8.96723490519282E-02 
484	 8.99142227200803E-02 
485	 8.99219419967773E-02 
486	 8.99684874812909E-02 
487	 9.00902383568768E-02 
488	 9.01181078169236E-02 
489	 9.00543479771489E-02 
490	 9.01354406988163E-02 
491	 9.04234562595372E-02 
492	 9.04570308975807E-02 
493	 9.05284724128701E-02 
494	 9.06356654254882E-02 
495	 9.06667012416567E-02 
496	 9.07616507589229E-02 
497	 9.08337039172072E-02 
498	 9.08825131997427E-02 
499	 9.10715561108639E-02 
500	 0.091177571211569 
501	 0.091227036412051 
502	 9.13069887792396E-02 
503	 9.14346383097568E-02 
504	 9.14196816854653E-02 
505	 9.13301863807941E-02 
506	 9.14557160950943E-02 
507	 9.15432855138723E-02 
508	 9.16671351095309E-02 
509	 9.18530357778352E-02 
510	 0.091826209856167 
511	 9.17806743845331E-02 
512	 9.17692323488715E-02 
513	 9.17778854815403E-02 
514	 9.19145508269946E-02 
515	 9.20110191272358E-02 
516	 9.20247784018842E-02 
517	 0.092183597644333 
518	 9.22681372539978E-02 
519	 9.22719052789575E-02 
520	 9.22733005282296E-02 
521	 9.23941288854159E-02 
522	 9.25226065193854E-02 
523	 9.25713867919064E-02 
524	 9.24991401148929E-02 
525	 9.26472140197298E-02 
526	 0.092831138847892 
527	 9.28533743555668E-02 
528	 9.28635901012079E-02 
529	 9.29279793265571E-02 
530	 9.30446298340079E-02 
531	 9.31644457127519E-02 
532	 9.32859422748386E-02 
533	 9.33629614467024E-02 
534	 9.33997361961132E-02 
535	 9.35194341720638E-02 
536	 9.36004938439197E-02 
537	 9.36698305541417E-02 
538	 9.37963832720669E-02 
539	 9.39207045454608E-02 
540	 9.39964678833244E-02 
541	 9.40534404117859E-02 
542	 9.42193710445058E-02 
543	 9.43528887714964E-02 
544	 9.44715330718019E-02 
545	 9.46119779679603E-02 
546	 9.47054546433211E-02 
547	 9.47739765993607E-02 
548	 9.48800145658148E-02 
549	 9.51072443391445E-02 
550	 9.53208798742334E-02 
551	 9.54978829444881E-02 
552	 9.56634370832717E-02 
553	 9.59210231514224E-02 
554	 9.60733145727998E-02 
555	 9.61920261462263E-02 
556	 9.64640350791018E-02 
557	 0.096711713104376 
558	 9.69563722478998E-02 
559	 9.72262155360096E-02 
560	 9.75272491052111E-02 
561	 9.77693321132066E-02 
562	 9.80253554544231E-02 
563	 9.83955611622256E-02 
564	 9.87790067848457E-02 
565	 9.92411669126527E-02 
566	 9.97571785312417E-02 
567	 0.100195868086709 
568	 0.100668533442531 
569	 0.101175988671796 
570	 0.101696711260134 
571	 0.102232030447875 
572	 0.102753325671242 
573	 0.103237731637966 
574	 0.103675642101075 
575	 0.104129119538059 
576	 0.104733343613052 
577	 0.105500553330273 
578	 0.106164020619576 
579	 0.106816503431255 
580	 0.107464618727204 
581	 0.108090236190105 
582	 0.108690712114891 
583	 0.10942419556183 
584	 0.110329847669141 
585	 0.111266876036559 
586	 0.112236083794219 
587	 0.113212673529576 
588	 0.114173580405666 
589	 0.115113870814682 
590	 0.116085243437599 
591	 0.11708178411699 
592	 0.118046080074048 
593	 0.118952068414364 
594	 0.119765968737398 
595	 0.120492386669997 
596	 0.121220678796868 
597	 0.122010079438763 
598	 0.122863206310182 
599	 0.12375442860402 
600	 0.124719381647097 
601	 0.125720860342648 
602	 0.126693588458075 
603	 0.127535352336592 
604	 0.128353517502548 
605	 0.129206310297378 
606	 0.130105755794755 
607	 0.130921061996133 
608	 0.131662118674777 
609	 0.132400447199213 
610	 0.133263193706935 
611	 0.134014391503542 
612	 0.13472860791453 
613	 0.135481410324945 
614	 0.136093273441395 
615	 0.136640353566618 
616	 0.137188758790434 
617	 0.137781940637672 
618	 0.138308589480436 
619	 0.138780978025293 
620	 0.139228262034232 
621	 0.13966224568666 
622	 0.140140742046737 
623	 0.140603575442241 
624	 0.140970071445315 
625	 0.141386327487822 
626	 0.141795503275545 
627	 0.142157119660926 
628	 0.142472390006055 
629	 0.14286657687203 
630	 0.143260212736192 
631	 0.143563431730326 
632	 0.143879302372327 
633	 0.144215565392554 
634	 0.144552724251364 
635	 0.144854349965817 
636	 0.145178706736636 
637	 0.145500180455681 
638	 0.145799371678504 
639	 0.146107905933534 
640	 0.14643707087213 
641	 0.14675789611535 
642	 0.147033815239659 
643	 0.147334534135511 
644	 0.147652085673145 
645	 0.147973650920212 
646	 0.148291080396418 
647	 0.148585019126799 
648	 0.148885244752267 
649	 0.149219507079641 
650	 0.149537246992399 
651	 0.149890290396439 
652	 0.150261160536371 
653	 0.150579809793866 
654	 0.150986939979662 
655	 0.151370646497147 
656	 0.15166749515503 
657	 0.152047276831323 
658	 0.152440454354105 
659	 0.152839383406425 
660	 0.153256061542542 
661	 0.153645601436302 
662	 0.154069171858264 
663	 0.154532374884756 
664	 0.154946876385056 
665	 0.155352397487299 
666	 0.155773741086664 
667	 0.156231958274992 
668	 0.156749582922564 
669	 0.157225104773058 
670	 0.157666139498183 
671	 0.15816599556029 
672	 0.158637851741361 
673	 0.159128904991692 
674	 0.15967189921635 
675	 0.160214141862903 
676	 0.160755557180507 
677	 0.161308233566126 
678	 0.161882613493735 
679	 0.162420555091742 
680	 0.163008232455517 
681	 0.163665167228275 
682	 0.16431088343825 
683	 0.164892923317532 
684	 0.165470033469282 
685	 0.166111403979159 
686	 0.166805891632738 
687	 0.167482370194208 
688	 0.168136085368227 
689	 0.16881104891436 
690	 0.16951017451706 
691	 0.170196919199909 
692	 0.170869133300622 
693	 0.171606113210663 
694	 0.172366386815929 
695	 0.1731014906211 
696	 0.173787605744073 
697	 0.174549928930037 
698	 0.175343164060095 
699	 0.176123982630736 
700	 0.176864605597732 
701	 0.177647698768387 
702	 0.178429148380109 
703	 0.179180938156652 
704	 0.180006723251416 
705	 0.18082216108817 
706	 0.181602551580526 
707	 0.18236047440973 
708	 0.183134523744236 
709	 0.183934470047231 
710	 0.18474260829486 
711	 0.185510760325615 
712	 0.186277758800907 
713	 0.187072859577769 
714	 0.187892853810964 
715	 0.188620700686878 
716	 0.189331984851409 
717	 0.190070274215857 
718	 0.190843537742992 
719	 0.19159748299396 
720	 0.19228828766289 
721	 0.192922514083841 
722	 0.193595166978165 
723	 0.194297314391315 
724	 0.194960170120151 
725	 0.195517792155192 
726	 0.196026488473006 
727	 0.196608676924074 
728	 0.197232203838899 
729	 0.197729041104133 
730	 0.198231849493968 
731	 0.198694848878636 
732	 0.199095455506463 
733	 0.199547776259659 
734	 0.199931650926228 
735	 0.200261998098665 
736	 0.200597695542814 
737	 0.200896179557888 
738	 0.201156264664849 
739	 0.201376402316545 
740	 0.20155110252575 
741	 0.201663088829434 
742	 0.201754168220815 
743	 0.201856513976117 
744	 0.201949602181816 
745	 0.201971153117275 
746	 0.201948948570591 
747	 0.201940768363897 
748	 0.201872179443695 
749	 0.201750360766062 
750	 0.201592260363859 
751	 0.201417272370532 
752	 0.201268227587696 
753	 0.201072138749853 
754	 0.200790761230939 
755	 0.2005700466989 
756	 0.200321407296275 
757	 0.200012656373661 
758	 0.199649019032907 
759	 0.199274443818539 
760	 0.198882532988297 
761	 0.198489749336138 
762	 0.198144716827847 
763	 0.197679602732484 
764	 0.197196517531506 
765	 0.196786148455141 
766	 0.196305835878501 
767	 0.195830149116675 
768	 0.195358826566051 
769	 0.194864465519008 
770	 0.194420465655217 
771	 0.193920937828346 
772	 0.193349600601899 
773	 0.192812739577988 
774	 0.192267657985744 
775	 0.191724348430276 
776	 0.191191918725896 
777	 0.190651762058817 
778	 0.190083893441803 
779	 0.189508701116806 
780	 0.188957582151698 
781	 0.1883998062247 
782	 0.187846067929812 
783	 0.187298904104989 
784	 0.186751420289108 
785	 0.186211137509619 
786	 0.185664556099841 
787	 0.185102442875279 
788	 0.184528823382673 
789	 0.183990890519677 
790	 0.183481208075128 
791	 0.182969193975205 
792	 0.182446251546356 
793	 0.18185891727579 
794	 0.181253489106116 
795	 0.180756070361069 
796	 0.18033988874409 
797	 0.179887150039428 
798	 0.179354796331298 
799	 0.178860043654808 
800	 0.178355643521236 
801	 0.177854180613112 
802	 0.177382204969193 
803	 0.176961168039177 
804	 0.17650199259714 
805	 0.176016414795666 
806	 0.175576102550532 
807	 0.175148345240662 
808	 0.174731310297921 
809	 0.174320284963991 
810	 0.173903128904006 
811	 0.17350616863307 
812	 0.173091265317082 
813	 0.172650645501306 
814	 0.172302239125443 
815	 0.171924300773691 
816	 0.17154232683359 
817	 0.171218651751844 
818	 0.170859879589393 
819	 0.170514470953546 
820	 0.170179473589053 
821	 0.169811887546561 
822	 0.169511294183094 
823	 0.169221653099983 
824	 0.168899893789159 
825	 0.168562386491231 
826	 0.16830514132328 
827	 0.168098971499828 
828	 0.167874865736111 
829	 0.167563112335021 
830	 0.167235858511971 
831	 0.166971933557085 
832	 0.16681350014147 
833	 0.166593058020722 
834	 0.166343059290945 
835	 0.16609181201027 
836	 0.165849430565991 
837	 0.165614795586094 
838	 0.165430317088497 
839	 0.165308352649862 
840	 0.165204275734596 
841	 0.165011202633945 
842	 0.164767699607445 
843	 0.16456050425466 
844	 0.164482345006745 
845	 0.164379513142701 
846	 0.164234573805283 
847	 0.164099604860235 
848	 0.164001207160629 
849	 0.163894312318398 
850	 0.163782669245861 
851	 0.163710869844672 
852	 0.163652073555756 
853	 0.163582628326525 
854	 0.163500110146488 
855	 0.163431579773451 
856	 0.163383956560917 
857	 0.163344798255534 
858	 0.163307430822522 
859	 0.163295181398212 
860	 0.163281418344344 
861	 0.163260053024877 
862	 0.16324352268562 
863	 0.163287046360989 
864	 0.16331865672023 
865	 0.16332670041292 
866	 0.163341605103336 
867	 0.163382720986892 
868	 0.163385721901433 
869	 0.163383144649146 
870	 0.163494523277145 
871	 0.163542379978573 
872	 0.163606057079377 
873	 0.163725342024518 
874	 0.16380933560129 
875	 0.163919392308103 
876	 0.164003501681313 
877	 0.164035586660489 
878	 0.164119793413257 
879	 0.16427589096442 
880	 0.164448140737038 
881	 0.164571452472148 
882	 0.164674843115861 
883	 0.164808699276341 
884	 0.164984549567883 
885	 0.165186279472122 
886	 0.165400782689829 
887	 0.16559483787881 
888	 0.165757789714834 
889	 0.165904718036588 
890	 0.166075305367292 
891	 0.16627471270099 
892	 0.16651946103686 
893	 0.166838598688471 
894	 0.167109498290011 
895	 0.167335763896447 
896	 0.167565013747041 
897	 0.167870107212971 
898	 0.168157067837155 
899	 0.16845189863918 
900	 0.168778268485131 
901	 0.169067802134558 
902	 0.169342713701312 
903	 0.169629421527372 
904	 0.169950204842142 
905	 0.170299429484383 
906	 0.17067530834417 
907	 0.17103888176429 
908	 0.171370107631623 
909	 0.171835031497963 
910	 0.172233611837068 
911	 0.172565255795857 
912	 0.172959285069425 
913	 0.173359730392339 
914	 0.173771543369539 
915	 0.174186392377323 
916	 0.174590348108791 
917	 0.175040818168413 
918	 0.175557623903065 
919	 0.17609870456565 
920	 0.176567371475802 
921	 0.177016603027019 
922	 0.177517467188835 
923	 0.178072434751221 
924	 0.178587218640713 
925	 0.179111264647037 
926	 0.17965461707055 
927	 0.180213317819475 
928	 0.180770082375411 
929	 0.181358404595673 
930	 0.181939961864043 
931	 0.182511179458735 
932	 0.183190202289635 
933	 0.183865813239101 
934	 0.184493303641075 
935	 0.185087054120687 
936	 0.185765046437589 
937	 0.186386368788787 
938	 0.187033293669356 
939	 0.187792706606422 
940	 0.188500563540817 
941	 0.189251692986395 
942	 0.190015923198362 
943	 0.190734729960788 
944	 0.191431123265685 
945	 0.192218633682659 
946	 0.19304580844602 
947	 0.19380608061982 
948	 0.194521086813894 
949	 0.195369393233851 
950	 0.19621679112288 
951	 0.196891901343207 
952	 0.197883786548004 
953	 0.19882392182214 
954	 0.199701546816116 
955	 0.200681159491642 
956	 0.201571300278291 
957	 0.202409253292111 
958	 0.203232583338921 
959	 0.204079121903878 
960	 0.205020898191218 
961	 0.205997392502533 
962	 0.206978678413734 
963	 0.20795811898641 
964	 0.208903982500287 
965	 0.20984708255665 
966	 0.210841403298195 
967	 0.211920666440516 
968	 0.212923602928755 
969	 0.214014743722211 
970	 0.215141664929039 
971	 0.216133172000343 
972	 0.217153836079935 
973	 0.218215503629114 
974	 0.219299419402414 
975	 0.220380673395574 
976	 0.221490191744772 
977	 0.222667260413924 
978	 0.223806406606258 
979	 0.224801594785795 
980	 0.226073724062139 
981	 0.227271306563454 
982	 0.22839573805894 
983	 0.229646525116576 
984	 0.230852000055079 
985	 0.231982020805971 
986	 0.233106339468723 
987	 0.234300423232625 
988	 0.235386776070027 
989	 0.236580092282122 
990	 0.23783125893406 
991	 0.239021698951 
992	 0.24046037239187 
993	 0.24155592691056 
994	 0.242533513726127 
995	 0.243832761666156 
996	 0.245069943424202 
997	 0.246215938776154 
998	 0.247401057577562 
999	 0.248741540607732 
1000	 0.250069290983289 
1001	 0.255375418724642 
1002	 0.256508005367944 
1003	 0.257706717388992 
1004	 0.258900519397668 
1005	 0.260055193916988 
1006	 0.261249450604968 
1007	 0.262516417613421 
1008	 0.263701525723477 
1009	 0.264800085320515 
1010	 0.265886126976387 
1011	 0.266994556971547 
1012	 0.26808477916387 
1013	 0.269194630592601 
1014	 0.270301248697041 
1015	 0.271377394854027 
1016	 0.272492576142478 
1017	 0.273596083280871 
1018	 0.274737948070476 
1019	 0.275837223401012 
1020	 0.276842946705716 
1021	 0.277851605733594 
1022	 0.278918673092 
1023	 0.27995762295656 
1024	 0.281011506816075 
1025	 0.282100337101307 
1026	 0.283150178838551 
1027	 0.284179478729616 
1028	 0.285244332894568 
1029	 0.286268063801912 
1030	 0.287285484433122 
1031	 0.28829655156425 
1032	 0.289316364710191 
1033	 0.290278160158145 
1034	 0.291252933159201 
1035	 0.292211503951161 
1036	 0.293193372774305 
1037	 0.294217500056981 
1038	 0.295227653521419 
1039	 0.296281895619441 
1040	 0.2973068273423 
1041	 0.298324518146401 
1042	 0.299376737807649 
1043	 0.300385493701195 
1044	 0.30137494196129 
1045	 0.302341260846361 
1046	 0.303300241287197 
1047	 0.304262655642231 
1048	 0.305222723957569 
1049	 0.306160236447646 
1050	 0.30714813724748 
1051	 0.308146239777656 
1052	 0.309103073818153 
1053	 0.310075042813788 
1054	 0.311041032841447 
1055	 0.311981741338134 
1056	 0.312944350828666 
1057	 0.313874334174711 
1058	 0.314784667248016 
1059	 0.315681655447238 
1060	 0.316556024487904 
1061	 0.317427416150671 
1062	 0.318266096679678 
1063	 0.31913020363333 
1064	 0.319956296581958 
1065	 0.320740026280357 
1066	 0.321560143843072 
1067	 0.322407226849213 
1068	 0.323207902124092 
1069	 0.323956794771614 
1070	 0.324739309076937 
1071	 0.325507126991757 
1072	 0.326267617966625 
1073	 0.327077149929965 
1074	 0.327822525436348 
1075	 0.328523314439569 
1076	 0.329175746656061 
1077	 0.329835396828819 
1078	 0.330521020720799 
1079	 0.331232807001872 
1080	 0.331950836656096 
1081	 0.332657518782782 
1082	 0.333343448513358 
1083	 0.334033029564249 
1084	 0.334684503763463 
1085	 0.335391060104207 
1086	 0.336126094491242 
1087	 0.33685787912412 
1088	 0.337613074101099 
1089	 0.338349613804655 
1090	 0.339077588105131 
1091	 0.339808479208275 
1092	 0.3405086456114 
1093	 0.341237733871078 
1094	 0.341999882669354 
1095	 0.342730191379181 
1096	 0.343492645181477 
1097	 0.344272665625312 
1098	 0.345084772622223 
1099	 0.345926484473951 
1100	 0.346777698321602 
1101	 0.347651620537968 
1102	 0.348530685338836 
1103	 0.349416589240386 
1104	 0.350317080977377 
1105	 0.3512121993252 
1106	 0.352147228845499 
1107	 0.353101578492857 
1108	 0.354043025868911 
1109	 0.355001998858358 
1110	 0.356004974644211 
1111	 0.357017763446023 
1112	 0.358047688720972 
1113	 0.3590712578271 
1114	 0.360100710269939 
1115	 0.361169835998673 
1116	 0.362273083550886 
1117	 0.363360990051287 
1118	 0.364474479145485 
1119	 0.365560786831921 
1120	 0.366682676127981 
1121	 0.367774205011295 
1122	 0.368900525872614 
1123	 0.3700490651964 
1124	 0.371179744136091 
1125	 0.372286623579781 
1126	 0.373419517671259 
1127	 0.374567438112986 
1128	 0.375720657402549 
1129	 0.376886794780946 
1130	 0.378036896045723 
1131	 0.379182650521194 
1132	 0.380332914300825 
1133	 0.381496864653035 
1134	 0.382627595256133 
1135	 0.383746654584508 
1136	 0.384854942684868 
1137	 0.385953170189492 
1138	 0.387043892775407 
1139	 0.388171227536736 
1140	 0.389349307279056 
1141	 0.390476722257888 
1142	 0.391604353617979 
1143	 0.392713362640532 
1144	 0.393801151337367 
1145	 0.394872383555994 
1146	 0.395931753043843 
1147	 0.3969797618593 
1148	 0.397993520133486 
1149	 0.399026395466295 
1150	 0.400072265748538 
1151	 0.401104872011712 
1152	 0.402121208763052 
1153	 0.403128208250329 
1154	 0.404123553486733 
1155	 0.405098622592499 
1156	 0.406068742541457 
1157	 0.407033420071445 
1158	 0.407989357352411 
1159	 0.408938483631112 
1160	 0.409872874218423 
1161	 0.410808290150233 
1162	 0.411723834404581 
1163	 0.412611471142527 
1164	 0.413500673078643 
1165	 0.414388993344388 
1166	 0.415253601766043 
1167	 0.416133758261986 
1168	 0.417038488350143 
1169	 0.417900259363951 
1170	 0.418764961166448 
1171	 0.419593432609191 
1172	 0.420381237299909 
1173	 0.421172633580224 
1174	 0.421956301359089 
1175	 0.422726067126678 
1176	 0.423474590041754 
1177	 0.424234729222409 
1178	 0.424990321469273 
1179	 0.425742351513964 
1180	 0.426508406950075 
1181	 0.427254599771779 
1182	 0.42798851062067 
1183	 0.428719912236572 
1184	 0.429425647802062 
1185	 0.430118595662374 
1186	 0.430795501384502 
1187	 0.43144323080862 
1188	 0.43210535912959 
1189	 0.432776164136111 
1190	 0.433411352446324 
1191	 0.434028392488233 
1192	 0.434650347362151 
1193	 0.435257104893881 
1194	 0.435853901788572 
1195	 0.436449456743565 
1196	 0.437042455265977 
1197	 0.437614194420057 
1198	 0.438189215891712 
1199	 0.438766153072387 
1200	 0.439360128391166 
1201	 0.43992620104376 
1202	 0.440482600665084 
1203	 0.441025150210339 
1204	 0.441555189539634 
1205	 0.442078011830322 
1206	 0.442593820962802 
1207	 0.443091813739838 
1208	 0.443572896468022 
1209	 0.444054391643022 
1210	 0.444526256366859 
1211	 0.44498819605884 
1212	 0.445440061667194 
1213	 0.445895937374642 
1214	 0.446338064218107 
1215	 0.446786286768418 
1216	 0.447238394804782 
1217	 0.447701083007691 
1218	 0.448156163546906 
1219	 0.448621171879139 
1220	 0.449054475033875 
1221	 0.449478725019312 
1222	 0.449891572010483 
1223	 0.4502724408331 
1224	 0.450670895913261 
1225	 0.451077773371485 
1226	 0.451472120647321 
1227	 0.451870069271721 
1228	 0.452251846524446 
1229	 0.452615970466588 
1230	 0.452982897985657 
1231	 0.453342626844375 
1232	 0.453699983937484 
1233	 0.454055294446898 
1234	 0.454414874226812 
1235	 0.454757216892445 
1236	 0.455095139246354 
1237	 0.455416593206506 
1238	 0.455724618865363 
1239	 0.456027952318486 
1240	 0.456305468168282 
1241	 0.456608377362295 
1242	 0.456915658868889 
1243	 0.457226375081283 
1244	 0.457564027497303 
1245	 0.457877221292201 
1246	 0.458177086831095 
1247	 0.458478401042633 
1248	 0.458774759007247 
1249	 0.459061471150299 
1250	 0.459358774025587 
1251	 0.459647057770385 
1252	 0.459912719228205 
1253	 0.460167342149233 
1254	 0.460401395486394 
1255	 0.460613518997987 
1256	 0.460820031486063 
1257	 0.460998563096038 
1258	 0.461197316345931 
1259	 0.461379924822746 
1260	 0.461591293278559 
1261	 0.461829696911565 
1262	 0.46206078629082 
1263	 0.462308422051658 
1264	 0.462549434940682 
1265	 0.462778766258651 
1266	 0.463018532040486 
1267	 0.463267941365748 
1268	 0.463520011323267 
1269	 0.463755726019389 
1270	 0.463984071195398 
1271	 0.464225723574628 
1272	 0.464450743825346 
1273	 0.464703216016896 
1274	 0.464979537889433 
1275	 0.465252586693002 
1276	 0.465532027074095 
1277	 0.465819534632169 
1278	 0.466125545355848 
1279	 0.466413258646166 
1280	 0.466719958607142 
1281	 0.466984482987024 
1282	 0.467216379378606 
1283	 0.46744406290765 
1284	 0.467659968489803 
1285	 0.467849726715493 
1286	 0.468017404179647 
1287	 0.468183098373048 
1288	 0.468305107234359 
1289	 0.46839078851135 
1290	 0.468455423411266 
1291	 0.468499777527569 
1292	 0.46850856759669 
1293	 0.46847712118596 
1294	 0.468440205964868 
1295	 0.468389781246315 
1296	 0.468294308065792 
1297	 0.468168634733088 
1298	 0.468026127457854 
1299	 0.467835780215209 
1300	 0.467647620448162 
1301	 0.467452941528476 
1302	 0.467244009928073 
1303	 0.467005608777684 
1304	 0.466780794459812 
1305	 0.466569508803451 
1306	 0.466333191142354 
1307	 0.466093004775056 
1308	 0.465854509074309 
1309	 0.465620013739181 
1310	 0.465376030037119 
1311	 0.465144461271652 
1312	 0.464913887354658 
1313	 0.464708831865007 
1314	 0.464488969470523 
1315	 0.464326174060943 
1316	 0.464217195238182 
1317	 0.464108197916519 
1318	 0.464030316468241 
1319	 0.463951812480533 
1320	 0.463859985437011 
1321	 0.463814025689015 
1322	 0.463781963338288 
1323	 0.463791148120301 
1324	 0.463845016417877 
1325	 0.46389798143538 
1326	 0.463987027334514 
1327	 0.464107700119035 
1328	 0.464209732465084 
1329	 0.46435371716481 
1330	 0.464551376920086 
1331	 0.464783965454318 
1332	 0.465029035928603 
1333	 0.465354142156879 
1334	 0.465619430809236 
1335	 0.465841902490128 
1336	 0.466110035292627 
1337	 0.466381719667458 
1338	 0.466678720591714 
1339	 0.467004780869917 
1340	 0.467338848039305 
1341	 0.467690170687332 
1342	 0.468043283071621 
1343	 0.468407293834232 
1344	 0.468780588046956 
1345	 0.469155286273949 
1346	 0.469533538054263 
1347	 0.469931655148636 
1348	 0.470311744485643 
1349	 0.470669111840591 
1350	 0.471041084307077 
1351	 0.471413654736357 
1352	 0.471782283837271 
1353	 0.472146532576535 
1354	 0.472530580172848 
1355	 0.472877075607351 
1356	 0.473189454096835 
1357	 0.473521068792401 
1358	 0.473842346263975 
1359	 0.474176915655853 
1360	 0.474532110931459 
1361	 0.474865424889546 
1362	 0.475191032847755 
1363	 0.475513013803094 
1364	 0.475836776137736 
1365	 0.47613786784838 
1366	 0.476412893172813 
1367	 0.476707477034905 
1368	 0.477004979478339 
1369	 0.477283528584586 
1370	 0.477578965217797 
1371	 0.477857457531048 
1372	 0.478100506371896 
1373	 0.478315378196826 
1374	 0.478533542247918 
1375	 0.478749147794676 
1376	 0.478941550094501 
1377	 0.479140321693765 
1378	 0.479282661211213 
1379	 0.479395124480374 
1380	 0.479468502353325 
1381	 0.479478104642834 
1382	 0.479510030490737 
1383	 0.479534558566336 
1384	 0.479531148814573 
1385	 0.479549559544793 
1386	 0.479498501373091 
1387	 0.479383752509067 
1388	 0.479261540267376 
1389	 0.479109292837048 
1390	 0.478927510094362 
1391	 0.478736748711828 
1392	 0.47852452811133 
1393	 0.478273371906328 
1394	 0.477988882830531 
1395	 0.477687986430741 
1396	 0.477367477878725 
1397	 0.477032997922607 
1398	 0.476672199674298 
1399	 0.476334172501848 
1400	 0.475980745285439 
1401	 0.475648836792433 
1402	 0.475350234190506 
1403	 0.475023243015332 
1404	 0.474678002302364 
1405	 0.474351749433289 
1406	 0.474031303842454 
1407	 0.473696633768042 
1408	 0.47336175499183 
1409	 0.473036560881078 
1410	 0.472665264628941 
1411	 0.472369143298869 
1412	 0.472103643460804 
1413	 0.471879635681157 
1414	 0.471704835157832 
1415	 0.471579656783922 
1416	 0.471506511997459 
1417	 0.471438530945057 
1418	 0.471399054850457 
1419	 0.471383776426025 
1420	 0.471334496362126 
1421	 0.471293438858826 
1422	 0.471283566491773 
1423	 0.471234940209208 
1424	 0.47116115313054 
1425	 0.47107205414872 
1426	 0.470995743493135 
1427	 0.470875168457877 
1428	 0.470789648356703 
1429	 0.470739659900424 
1430	 0.470672161019398 
1431	 0.470595700870023 
1432	 0.470534715714599 
1433	 0.470489007762506 
1434	 0.470424189756884 
1435	 0.47035081038832 
1436	 0.470288131960324 
1437	 0.470204759268577 
1438	 0.470160608045984 
1439	 0.470153259666984 
1440	 0.47012693149599 
1441	 0.470105981840542 
1442	 0.470100600400553 
1443	 0.470065167724779 
1444	 0.47002703224769 
1445	 0.470012774171008 
1446	 0.469980472634698 
1447	 0.469951102133479 
1448	 0.469937622953283 
1449	 0.469903308957959 
1450	 0.469859960975377 
1451	 0.469828946390086 
1452	 0.469795893464926 
1453	 0.469768376029176 
1454	 0.469754469784572 
1455	 0.469735419419396 
1456	 0.469706921277292 
1457	 0.469689932932004 
1458	 0.469680634463389 
1459	 0.469670087987063 
1460	 0.469664742400732 
1461	 0.469664887838318 
1462	 0.469647166775261 
1463	 0.469667696527923 
1464	 0.46971758664548 
1465	 0.469762882978997 
1466	 0.469830165250546 
1467	 0.469900203593809 
1468	 0.469965677213642 
1469	 0.470039379611586 
1470	 0.470125699885839 
1471	 0.47021689389017 
1472	 0.470305893174087 
1473	 0.470400907809345 
1474	 0.470518409559843 
1475	 0.470644114899587 
1476	 0.470772684685112 
1477	 0.470920282723407 
1478	 0.471063592513188 
1479	 0.471201451541952 
1480	 0.471364299295664 
1481	 0.471525414539384 
1482	 0.471677849913837 
1483	 0.471826719537645 
1484	 0.471993656205546 
1485	 0.472160466136121 
1486	 0.472328340519031 
1487	 0.47251416916531 
1488	 0.472689274984831 
1489	 0.472848852839986 
1490	 0.473020167406449 
1491	 0.473214809370142 
1492	 0.473378664875849 
1493	 0.473530215655542 
1494	 0.473684710164441 
1495	 0.473806349013467 
1496	 0.473957890035457 
1497	 0.474141997842778 
1498	 0.474294477053193 
1499	 0.474452212201288 
1500	 0.474596317123561 
1501	 0.474700941306751 
1502	 0.474826446762104 
1503	 0.474956062136787 
1504	 0.475095232608119 
1505	 0.475220954696196 
1506	 0.475360522199811 
1507	 0.475513915052987 
1508	 0.47564070210941 
1509	 0.475742941777615 
1510	 0.475849763764773 
1511	 0.475958132256426 
1512	 0.476061497622165 
1513	 0.476193515290641 
1514	 0.476341391534536 
1515	 0.47647037241608 
1516	 0.476600962776053 
1517	 0.476720196502864 
1518	 0.476835286042744 
1519	 0.476953141722441 
1520	 0.477064726763821 
1521	 0.477165877634991 
1522	 0.477271227401046 
1523	 0.47736442992845 
1524	 0.477429211825545 
1525	 0.477521809675123 
1526	 0.477645912657879 
1527	 0.477723433520138 
1528	 0.477793172991522 
1529	 0.477844873500287 
1530	 0.477845335858118 
1531	 0.47787943515153 
1532	 0.47792049130576 
1533	 0.477966605248109 
1534	 0.478013805561308 
1535	 0.478075377091532 
1536	 0.478147849952869 
1537	 0.478227506030159 
1538	 0.478332563773789 
1539	 0.478422632883079 
1540	 0.478504414517906 
1541	 0.478594575279221 
1542	 0.478694720833455 
1543	 0.478778207010893 
1544	 0.478865502262019 
1545	 0.478936665618844 
1546	 0.478989474328004 
1547	 0.479017367752479 
1548	 0.479085187008006 
1549	 0.47916986759356 
1550	 0.479263239877225 
1551	 0.479384135459932 
1552	 0.479482149038913 
1553	 0.479569211047257 
1554	 0.47964817879052 
1555	 0.479710223799965 
1556	 0.479768991034762 
1557	 0.47982517818522 
1558	 0.479899858670366 
1559	 0.479971054338907 
1560	 0.480040177944379 
1561	 0.480113686917336 
1562	 0.480188601795333 
1563	 0.480262910083308 
1564	 0.480327768028494 
1565	 0.48038895036608 
1566	 0.480460031906976 
1567	 0.480517414230151 
1568	 0.48060258569759 
1569	 0.480723614374015 
1570	 0.48080455240119 
1571	 0.480881097299857 
1572	 0.480948991399895 
1573	 0.480985250699582 
1574	 0.481052297806494 
1575	 0.481142154579918 
1576	 0.481202657051149 
1577	 0.48125894121849 
1578	 0.481311661014825 
1579	 0.481333119603528 
1580	 0.48138591859622 
1581	 0.481469172450588 
1582	 0.481525948671103 
1583	 0.481575930833716 
1584	 0.481632410343661 
1585	 0.481668528085866 
1586	 0.481729113687872 
1587	 0.481819544909178 
1588	 0.481892208229365 
1589	 0.481970894535703 
1590	 0.482032606044726 
1591	 0.482057034550653 
1592	 0.482125435952443 
1593	 0.482217989274012 
1594	 0.482297699303004 
1595	 0.48240408195503 
1596	 0.482493731900054 
1597	 0.482570160545013 
1598	 0.482631410956947 
1599	 0.482688816076554 
1600	 0.482734497553535 
1601	 0.482749733270532 
1602	 0.482774204145351 
1603	 0.48278986581717 
1604	 0.48282077937395 
1605	 0.482861315202559 
1606	 0.482902163923769 
1607	 0.482955245269704 
1608	 0.483011290396891 
1609	 0.483050588843051 
1610	 0.48307146127444 
1611	 0.483116001703987 
1612	 0.483163970681047 
1613	 0.483195975247851 
1614	 0.483245870375261 
1615	 0.483281259243505 
1616	 0.483315864800279 
1617	 0.483390049339362 
1618	 0.483468216321106 
1619	 0.483553155971184 
1620	 0.483656279505439 
1621	 0.483747691046591 
1622	 0.483846478665463 
1623	 0.483922571736395 
1624	 0.483992127031275 
1625	 0.48404779418303 
1626	 0.484083556585831 
1627	 0.484126433680394 
1628	 0.484162189285742 
1629	 0.484200754601027 
1630	 0.484236777070804 
1631	 0.484281576274104 
1632	 0.484321316588974 
1633	 0.484384796286931 
1634	 0.484475358597985 
1635	 0.484531693449231 
1636	 0.484591329798924 
1637	 0.484634447035138 
1638	 0.484645273706484 
1639	 0.484679339169644 
1640	 0.484721409435904 
1641	 0.484761606060946 
1642	 0.484798034728708 
1643	 0.484847274552544 
1644	 0.484905129771481 
1645	 0.484960189649535 
1646	 0.485017762920399 
1647	 0.485086017703316 
1648	 0.485156492476299 
1649	 0.485232741577821 
1650	 0.485324184236412 
1651	 0.485408510606548 
1652	 0.48548997033351 
1653	 0.485574968677944 
1654	 0.485678472699009 
1655	 0.485743516612829 
1656	 0.485795407955499 
1657	 0.48583401151766 
1658	 0.485828393305917 
1659	 0.485862052133866 
1660	 0.485922060344669 
1661	 0.485944342331806 
1662	 0.485960980303006 
1663	 0.485976427708826 
1664	 0.485961606484756 
1665	 0.485964904318177 
1666	 0.485982320523647 
1667	 0.485999193160936 
1668	 0.486003081448063 
1669	 0.48603301752707 
1670	 0.486083323228789 
1671	 0.486133748334366 
1672	 0.486197720562194 
1673	 0.486258562311921 
1674	 0.486332873313801 
1675	 0.486384329936528 
1676	 0.486427568242469 
1677	 0.486465280325097 
1678	 0.486476279897898 
1679	 0.486513541101843 
1680	 0.486563522710006 
1681	 0.486608051257907 
1682	 0.486655832350936 
1683	 0.486712963394365 
1684	 0.4867742470534 
1685	 0.486833299403451 
1686	 0.486905968656259 
1687	 0.486964625651587 
1688	 0.487008817836899 
1689	 0.487063096076542 
1690	 0.487122405230656 
1691	 0.487174595850407 
1692	 0.487219445421044 
1693	 0.487275785640187 
1694	 0.487317292138764 
1695	 0.48740045818281 
1696	 0.487533531929864 
1697	 0.487616915303224 
1698	 0.48771504984849 
1699	 0.487771637118239 
1700	 0.487782374562029 
1701	 0.487794801366802 
1702	 0.487786141079243 
1703	 0.48778598584146 
1704	 0.487761666331505 
1705	 0.487772396186326 
1706	 0.487798979201346 
1707	 0.487834651427473 
1708	 0.487900563774059 
1709	 0.487944548110909 
1710	 0.487974810589304 
1711	 0.488034139706836 
1712	 0.488104528084968 
1713	 0.48816644068783 
1714	 0.48824108322518 
1715	 0.488322303409032 
1716	 0.488397055271663 
1717	 0.488474698830195 
1718	 0.488586037091264 
1719	 0.488648051766688 
1720	 0.488685838776299 
1721	 0.488709996180686 
1722	 0.488707728757086 
1723	 0.48870944136853 
1724	 0.488699532401535 
1725	 0.488679585529166 
1726	 0.488652605344317 
1727	 0.488622131901583 
1728	 0.488582906541449 
1729	 0.488531384971573 
1730	 0.488471070073454 
1731	 0.488405202920336 
1732	 0.488309601775128 
1733	 0.488262194369262 
1734	 0.488234499700624 
1735	 0.488212032815355 
1736	 0.488222762136346 
1737	 0.488205038945584 
1738	 0.488172882426609 
1739	 0.488156376468815 
1740	 0.488144005876346 
1741	 0.488120799556961 
1742	 0.488102986096228 
1743	 0.488083461780093 
1744	 0.48805007181875 
1745	 0.488018409628913 
1746	 0.487989676578916 
1747	 0.487960895072883 
1748	 0.487939987481051 
1749	 0.487939234923919 
1750	 0.487947604815737 
1751	 0.487940403965876 
1752	 0.487951594868718 
1753	 0.487941113034419 
1754	 0.487911778177898 
1755	 0.487915117506918 
1756	 0.487917412619279 
1757	 0.487904030774944 
1758	 0.487905971048835 
1759	 0.487927237553149 
1760	 0.487927440790744 
1761	 0.487927660638279 
1762	 0.487950991860011 
1763	 0.487961764168437 
1764	 0.487956517828907 
1765	 0.487972950927042 
1766	 0.488000446892199 
1767	 0.487987884015996 
1768	 0.487978157827521 
1769	 0.487989752469702 
1770	 0.487985937942806 
1771	 0.487995439210244 
1772	 0.487999329419533 
1773	 0.488003272580532 
1774	 0.488032437853556 
1775	 0.488056647863607 
1776	 0.488077368279824 
1777	 0.488056025635521 
1778	 0.487997551972274 
1779	 0.487954843433602 
1780	 0.487931189976842 
1781	 0.487932295521123 
1782	 0.48797965063448 
1783	 0.488054419773103 
1784	 0.488098211360782 
1785	 0.48815759318661 
1786	 0.488201686146105 
1787	 0.488199242711834 
1788	 0.488237839395436 
1789	 0.488300955418934 
1790	 0.488347180309351 
1791	 0.48840898176688 
1792	 0.488459093008131 
1793	 0.488479538616776 
1794	 0.488541437310964 
1795	 0.488645324375784 
1796	 0.488701113293491 
1797	 0.488749105165178 
1798	 0.488789419246516 
1799	 0.488785931780377 
1800	 0.488819797265501 
1801	 0.486136478894455 
1802	 0.486145719689223 
1803	 0.4862148718528 
1804	 0.486271400129509 
1805	 0.486345864215433 
1806	 0.486431574509714 
1807	 0.486486011474504 
1808	 0.486547923643445 
1809	 0.486631936572363 
1810	 0.486691082866499 
1811	 0.486744353545753 
1812	 0.48677233718306 
1813	 0.486794399694787 
1814	 0.486789427637399 
1815	 0.48678128058181 
1816	 0.486800464033157 
1817	 0.486794917102252 
1818	 0.486786546978051 
1819	 0.486759421174224 
1820	 0.486738141307616 
1821	 0.486650439576573 
1822	 0.486547388202296 
1823	 0.486479377626804 
1824	 0.486434022961826 
1825	 0.486393142033589 
1826	 0.486347679208827 
1827	 0.48628071078912 
1828	 0.486206491893869 
1829	 0.48610456651934 
1830	 0.486005382275857 
1831	 0.48589921266199 
1832	 0.48580504037183 
1833	 0.485698672371989 
1834	 0.485587412767877 
1835	 0.485530049031153 
1836	 0.485473698795362 
1837	 0.485401895581555 
1838	 0.48537047576252 
1839	 0.4853301776586 
1840	 0.485281344450945 
1841	 0.485240041859338 
1842	 0.485247056708564 
1843	 0.485205951438603 
1844	 0.485161921958945 
1845	 0.485119485617187 
1846	 0.485012384640247 
1847	 0.484926617340183 
1848	 0.48485124269738 
1849	 0.484753410886312 
1850	 0.484655091045525 
1851	 0.484564041747374 
1852	 0.484457465551728 
1853	 0.484341970034821 
1854	 0.484243099072878 
1855	 0.484160394026551 
1856	 0.484104847285129 
1857	 0.484085753211057 
1858	 0.484054977284171 
1859	 0.483986073367624 
1860	 0.483876192054211 
1861	 0.483734085880819 
1862	 0.48354168352266 
1863	 0.483316864701133 
1864	 0.48307338380094 
1865	 0.482824978385504 
1866	 0.482535878571005 
1867	 0.482234247906118 
1868	 0.481935345223123 
1869	 0.481629231901607 
1870	 0.481335029259623 
1871	 0.48102731753618 
1872	 0.480718037259755 
1873	 0.480411116175118 
1874	 0.480072291879686 
1875	 0.4796789133889 
1876	 0.479242992500057 
1877	 0.478752603351959 
1878	 0.478186075320757 
1879	 0.477572129145351 
1880	 0.476899794236748 
1881	 0.476147517231336 
1882	 0.475359145324145 
1883	 0.474530633146337 
1884	 0.473652116513639 
1885	 0.47268589699989 
1886	 0.471651286647593 
1887	 0.470555732098693 
1888	 0.469398718576171 
1889	 0.468208891381283 
1890	 0.466989140970051 
1891	 0.465743668347853 
1892	 0.464435827747808 
1893	 0.463146154451673 
1894	 0.461840743599107 
1895	 0.460535927363142 
1896	 0.459207679881923 
1897	 0.457868599643901 
1898	 0.456511176437944 
1899	 0.455171720274578 
1900	 0.453893427596264 
1901	 0.452664967005009 
1902	 0.45149494912499 
1903	 0.450414977118605 
1904	 0.449342695105682 
1905	 0.448312179842844 
1906	 0.447311314894997 
1907	 0.446334138669393 
1908	 0.445357770577674 
1909	 0.444443917250548 
1910	 0.443562770463586 
1911	 0.442736045626156 
1912	 0.441986740935223 
1913	 0.441255391138113 
1914	 0.440566177064858 
1915	 0.439907279592467 
1916	 0.439288562630133 
1917	 0.438676009453693 
1918	 0.438100010107941 
1919	 0.437602759787477 
1920	 0.437156425274491 
1921	 0.436743962355904 
1922	 0.436368422359268 
1923	 0.436003984138872 
1924	 0.435676222467792 
1925	 0.435367868984331 
1926	 0.435107066792894 
1927	 0.434892565956428 
1928	 0.434691291958404 
1929	 0.434527346636359 
1930	 0.434384876312268 
1931	 0.434256973060602 
1932	 0.434165173760114 
1933	 0.434106899766344 
1934	 0.434061858271951 
1935	 0.434049757290596 
1936	 0.434063614119735 
1937	 0.434111880714842 
1938	 0.434197854060839 
1939	 0.434298392780782 
1940	 0.434420249720497 
1941	 0.434579596048527 
1942	 0.43475988899976 
1943	 0.434938357520995 
1944	 0.435133900296195 
1945	 0.4353661650611 
1946	 0.435573386712215 
1947	 0.43576570237316 
1948	 0.435980769420535 
1949	 0.436194257920622 
1950	 0.436423181921803 
1951	 0.436668517475225 
1952	 0.43692340110986 
1953	 0.437200919783004 
1954	 0.437473787472565 
1955	 0.437743635983588 
1956	 0.438049622509976 
1957	 0.438350616568236 
1958	 0.438646607163173 
1959	 0.438964640959594 
1960	 0.43930257790829 
1961	 0.439638090023819 
1962	 0.439988721627925 
1963	 0.440338419551438 
1964	 0.440684314268976 
1965	 0.441041359004485 
1966	 0.441412099259916 
1967	 0.441781599531628 
1968	 0.442152245211269 
1969	 0.442529561050386 
1970	 0.442906491479154 
1971	 0.443279559895535 
1972	 0.443654822420096 
1973	 0.444027745591227 
1974	 0.444413287810268 
1975	 0.444793939569846 
1976	 0.445205911483677 
1977	 0.445623984364704 
1978	 0.446035250475732 
1979	 0.446442340319581 
1980	 0.446848091458255 
1981	 0.447280660757664 
1982	 0.447733897941318 
1983	 0.448176047120618 
1984	 0.448647283494943 
1985	 0.449091312143418 
1986	 0.44952234607509 
1987	 0.449939560764907 
1988	 0.450353458075674 
1989	 0.45073950666267 
1990	 0.451119375144618 
1991	 0.451480077389193 
1992	 0.451865707861606 
1993	 0.452254107253554 
1994	 0.452657211974149 
1995	 0.453078883036299 
1996	 0.453494170230703 
1997	 0.453912055686482 
1998	 0.454336684995491 
1999	 0.454775580426372 
2000	 0.45519881029021 
2001	 0.45562726193206 
2002	 0.456045106439658 
2003	 0.456443990186406 
2004	 0.456822931016069 
2005	 0.4572008535937 
2006	 0.457561968466987 
2007	 0.457934983886901 
2008	 0.458300222849179 
2009	 0.458679606001271 
2010	 0.459069837358149 
2011	 0.459458352782399 
2012	 0.459845642080215 
2013	 0.460242474199976 
2014	 0.460633569801399 
2015	 0.461058389231457 
2016	 0.461481400583008 
2017	 0.461894042869031 
2018	 0.462300267690905 
2019	 0.462701690221435 
2020	 0.463099036456491 
2021	 0.463492530961029 
2022	 0.463876475092045 
2023	 0.464259003886681 
2024	 0.464627025503582 
2025	 0.464963654206977 
2026	 0.465323788550016 
2027	 0.46569483882093 
2028	 0.466057825547433 
2029	 0.466414830746677 
2030	 0.4667863733954 
2031	 0.467131378944562 
2032	 0.467452004517118 
2033	 0.467780604076161 
2034	 0.468100468530377 
2035	 0.468425053334133 
2036	 0.468757027913375 
2037	 0.469073987603354 
2038	 0.469390123087807 
2039	 0.469695524815379 
2040	 0.470005750566307 
2041	 0.470274318896201 
2042	 0.470527466046594 
2043	 0.470790047794042 
2044	 0.471036768767175 
2045	 0.471252509118991 
2046	 0.471498120590658 
2047	 0.471743274427907 
2048	 0.472007809882772 
2049	 0.472292982696182 
2050	 0.472572654391936 
2051	 0.47286773800957 
2052	 0.473153621998844 
2053	 0.473465197730284 
2054	 0.473728416641399 
2055	 0.473959052906612 
2056	 0.474188475343532 
2057	 0.474409511255861 
2058	 0.474584153728368 
2059	 0.474801862959163 
2060	 0.475053554895823 
2061	 0.475269583070013 
2062	 0.475465241672893 
2063	 0.475684679344098 
2064	 0.475904568039585 
2065	 0.476121325384693 
2066	 0.476355007744564 
2067	 0.476580832279017 
2068	 0.476808413623362 
2069	 0.477014664392891 
2070	 0.477205109676291 
2071	 0.477387166723632 
2072	 0.477572781073291 
2073	 0.477730550146071 
2074	 0.477912361677911 
2075	 0.478112770808169 
2076	 0.478308062622793 
2077	 0.478497500033562 
2078	 0.478694426191722 
2079	 0.478902889058162 
2080	 0.479108167864873 
2081	 0.479320459435496 
2082	 0.479521999040949 
2083	 0.479705996246557 
2084	 0.479916753535106 
2085	 0.480108522809143 
2086	 0.480288653676155 
2087	 0.480474792883706 
2088	 0.480656810211707 
2089	 0.480846763814919 
2090	 0.481049359757152 
2091	 0.481235027737826 
2092	 0.481427689368506 
2093	 0.481598027839266 
2094	 0.481740542605342 
2095	 0.481890944095982 
2096	 0.482001045432769 
2097	 0.482166488882399 
2098	 0.482373360288855 
2099	 0.482572103339422 
2100	 0.482770267064728 
2101	 0.483003766963911 
2102	 0.483204620411364 
2103	 0.483375847412835 
2104	 0.483563357718443 
2105	 0.483742165825231 
2106	 0.483952222090338 
2107	 0.4841647322897 
2108	 0.484400925845842 
2109	 0.484681861093744 
2110	 0.484946266172901 
2111	 0.485216656934817 
2112	 0.485482275154591 
2113	 0.485738416350021 
2114	 0.486017691026042 
2115	 0.486266221528519 
2116	 0.48650107827287 
2117	 0.486748905354333 
2118	 0.486983046925778 
2119	 0.487231857849817 
2120	 0.487503342221965 
2121	 0.487753783589734 
2122	 0.488001419401383 
2123	 0.488237861750146 
2124	 0.488458872423639 
2125	 0.48868571905977 
2126	 0.488911839043529 
2127	 0.489130413035104 
2128	 0.489346070813199 
2129	 0.489558672143126 
2130	 0.489776401488132 
2131	 0.48997941814138 
2132	 0.490143775643066 
2133	 0.490305911422761 
2134	 0.490413390736835 
2135	 0.49049334248327 
2136	 0.490497423325886 
2137	 0.490435336653069 
2138	 0.490367784348063 
2139	 0.490202891736083 
2140	 0.490097629338978 
2141	 0.490029110612996 
2142	 0.489920863702352 
2143	 0.489808175442493 
2144	 0.489681368670237 
2145	 0.489536005755058 
2146	 0.48937127834071 
2147	 0.489184288586688 
2148	 0.489004767754578 
2149	 0.488798195418971 
2150	 0.488564779533632 
2151	 0.488322854007987 
2152	 0.488079538999881 
2153	 0.487798862951218 
2154	 0.487484828183491 
2155	 0.487171369352857 
2156	 0.486850318714013 
2157	 0.486495151186975 
2158	 0.486109805098199 
2159	 0.48572783395426 
2160	 0.485313883511561 
2161	 0.484905614965396 
2162	 0.484498417449012 
2163	 0.48409887697616 
2164	 0.483692829704063 
2165	 0.483288186654635 
2166	 0.48289398788639 
2167	 0.482521068727007 
2168	 0.482120614617937 
2169	 0.481701900204837 
2170	 0.48130837324143 
2171	 0.480925139972108 
2172	 0.480524179980598 
2173	 0.480141233970025 
2174	 0.479729646120305 
2175	 0.47927762595227 
2176	 0.478845023863158 
2177	 0.478423965547472 
2178	 0.477979568405729 
2179	 0.477512782759082 
2180	 0.477068794897093 
2181	 0.476611758931769 
2182	 0.47617003497383 
2183	 0.475772741214766 
2184	 0.475343212181316 
2185	 0.474914782349362 
2186	 0.474471360019862 
2187	 0.474057510906111 
2188	 0.473632698977547 
2189	 0.473250695925055 
2190	 0.472902969012701 
2191	 0.472557874763941 
2192	 0.472217061955211 
2193	 0.471920856435688 
2194	 0.471658374695286 
2195	 0.471401154400696 
2196	 0.471197677669285 
2197	 0.470967604089003 
2198	 0.470722110182348 
2199	 0.470487312687755 
2200	 0.47024506273725 
2201	 0.470021874902449 
2202	 0.469795588554368 
2203	 0.469601530847835 
2204	 0.469441367152152 
2205	 0.469321648695974 
2206	 0.469178091506846 
2207	 0.469042833404036 
2208	 0.468945225416404 
2209	 0.468824989634809 
2210	 0.468787957828734 
2211	 0.468822577673692 
2212	 0.468870173839918 
2213	 0.468989803701 
2214	 0.469062354195598 
2215	 0.469166416631641 
2216	 0.469221719456802 
2217	 0.469240195338738 
2218	 0.469244453897449 
2219	 0.469245746329743 
2220	 0.469199857954335 
2221	 0.469134254190065 
2222	 0.469010579109708 
2223	 0.468832529951165 
2224	 0.46865824175391 
2225	 0.468499314231327 
2226	 0.468321164541046 
2227	 0.468175492800626 
2228	 0.46808264165775 
2229	 0.46790814090539 
2230	 0.46771587193662 
2231	 0.467495638278892 
2232	 0.467196862309396 
2233	 0.466963562200228 
2234	 0.466728533521638 
2235	 0.466529955156153 
2236	 0.466392519383171 
2237	 0.466208817646935 
2238	 0.466033826535969 
2239	 0.465836332701125 
2240	 0.465594385772445 
2241	 0.465375925668704 
2242	 0.465153024710418 
2243	 0.46494572319944 
2244	 0.464746966252392 
2245	 0.464559942076794 
2246	 0.464386077775138 
2247	 0.464221477484274 
2248	 0.464088519541086 
2249	 0.463979272393845 
2250	 0.463881750987468 
2251	 0.463831855395554 
2252	 0.463727665084983 
2253	 0.463594485601086 
2254	 0.463508839296007 
2255	 0.46340186856052 
2256	 0.463345582669549 
2257	 0.463369213183274 
2258	 0.46333575523986 
2259	 0.463280821609924 
2260	 0.463254170916455 
2261	 0.463220003727166 
2262	 0.46320354777074 
2263	 0.46321153571458 
2264	 0.463227124599674 
2265	 0.46325617516797 
2266	 0.463280810569565 
2267	 0.463334591104637 
2268	 0.463359035040671 
2269	 0.46337238369425 
2270	 0.463361939568438 
2271	 0.463342045561698 
2272	 0.463315566101247 
2273	 0.463241743954985 
2274	 0.463213405246741 
2275	 0.46323125131021 
2276	 0.463266976187264 
2277	 0.463325929930409 
2278	 0.463457559229073 
2279	 0.463546447482174 
2280	 0.463613148997949 
2281	 0.463719464137594 
2282	 0.463833231280169 
2283	 0.463977787665985 
2284	 0.464182748856386 
2285	 0.464336241757444 
2286	 0.4644927587253 
2287	 0.464632436542654 
2288	 0.464745850930594 
2289	 0.464839433293516 
2290	 0.464892975051282 
2291	 0.46499916939724 
2292	 0.465092747047218 
2293	 0.465214721945284 
2294	 0.465408440907043 
2295	 0.465574266113819 
2296	 0.465723703119842 
2297	 0.465880686213302 
2298	 0.466073329847313 
2299	 0.466286136438598 
2300	 0.466487970983855 
2301	 0.466703802933179 
2302	 0.466900599139695 
2303	 0.467053486841138 
2304	 0.46719218212124 
2305	 0.467345992168151 
2306	 0.46749246111338 
2307	 0.467629232537217 
2308	 0.467745613774104 
2309	 0.467848067792083 
2310	 0.467966859041024 
2311	 0.46807614199558 
2312	 0.468185615712728 
2313	 0.468307253430855 
2314	 0.468442952481179 
2315	 0.468565684552477 
2316	 0.468698413270327 
2317	 0.468870109341638 
2318	 0.46900432833585 
2319	 0.469092044641256 
2320	 0.469237885808337 
2321	 0.469436766086335 
2322	 0.469579361544718 
2323	 0.469728966385877 
2324	 0.469854223823893 
2325	 0.469897089971647 
2326	 0.469988236314084 
2327	 0.470095792414365 
2328	 0.470214336954077 
2329	 0.470385066689694 
2330	 0.470599001449858 
2331	 0.470767141946973 
2332	 0.470974275500109 
2333	 0.47113434716474 
2334	 0.471190284554938 
2335	 0.471320450429846 
2336	 0.471430636116104 
2337	 0.47147496900442 
2338	 0.471620814328726 
2339	 0.471749263498402 
2340	 0.471787114585563 
2341	 0.471831163161363 
2342	 0.471851858111054 
2343	 0.471857970501337 
2344	 0.471846395144958 
2345	 0.471798710089343 
2346	 0.471730214161844 
2347	 0.471647813630775 
2348	 0.471554229140095 
2349	 0.471388934555989 
2350	 0.471173677771395 
2351	 0.470985242176444 
2352	 0.470711461030617 
2353	 0.470501565382913 
2354	 0.470361612057078 
2355	 0.470189790406329 
2356	 0.470004574777539 
2357	 0.469826315636689 
2358	 0.469637739593799 
2359	 0.469492105745179 
2360	 0.469383879543394 
2361	 0.469225564160724 
2362	 0.469108117556175 
2363	 0.46893234983274 
2364	 0.468630814026493 
2365	 0.468451116147933 
2366	 0.468316981839158 
2367	 0.468167707820297 
2368	 0.46813124584828 
2369	 0.467988062635122 
2370	 0.467793650891533 
2371	 0.467554677595993 
2372	 0.467248127664569 
2373	 0.466904859826489 
2374	 0.466622857499661 
2375	 0.466301890541142 
2376	 0.465976525725601 
2377	 0.465704311074711 
2378	 0.465399015775219 
2379	 0.465105054898888 
2380	 0.464857420733896 
2381	 0.464569020650723 
2382	 0.464244530033562 
2383	 0.463982964852503 
2384	 0.463736067565775 
2385	 0.463392741433171 
2386	 0.463044810947746 
2387	 0.462689719800193 
2388	 0.462243142229599 
2389	 0.461857002692068 
2390	 0.461554399152355 
2391	 0.461191197209239 
2392	 0.460813033940111 
2393	 0.460525203497255 
2394	 0.460282069003319 
2395	 0.459991391211604 
2396	 0.45965174939517 
2397	 0.459227951973596 
2398	 0.458677746607705 
2399	 0.458146985371791 
2400	 0.457811853986916 
2401	 0.457632162739093 
2402	 0.457496227343257 
2403	 0.457278054511313 
2404	 0.45695325584098 
2405	 0.456584853343088 
2406	 0.456014015829263 
2407	 0.455454928627088 
2408	 0.454951293095009 
2409	 0.454402358820728 
2410	 0.454078811504244 
2411	 0.45373554037831 
2412	 0.453429706499469 
2413	 0.453156468763801 
2414	 0.452732157933396 
2415	 0.452416758539222 
2416	 0.452070963892643 
2417	 0.451671774888376 
2418	 0.451318035362248 
2419	 0.450989435090676 
2420	 0.450681067271218 
2421	 0.450436332229848 
2422	 0.450115018734663 
2423	 0.449777136041795 
2424	 0.44941214624542 
2425	 0.448965471006938 
2426	 0.448575367132458 
2427	 0.448230895083146 
2428	 0.44785222376634 
2429	 0.447453547516184 
2430	 0.447069812542888 
2431	 0.446648531476095 
2432	 0.446267365445869 
2433	 0.445951244746909 
2434	 0.445637415468577 
2435	 0.445348106441335 
2436	 0.445066357611189 
2437	 0.444774266063414 
2438	 0.444455369762264 
2439	 0.444144008228067 
2440	 0.44384408039292 
2441	 0.443488517273167 
2442	 0.443198382597948 
2443	 0.443004809676888 
2444	 0.442759265799082 
2445	 0.442534408150497 
2446	 0.442343658681011 
2447	 0.442126655664214 
2448	 0.44177860316342 
2449	 0.441446020913563 
2450	 0.441052368646029 
2451	 0.440490814609777 
2452	 0.440135284886334 
2453	 0.439825247268213 
2454	 0.439474190247745 
2455	 0.43924124864743 
2456	 0.4389069223177 
2457	 0.438494755009614 
2458	 0.438178140053252 
2459	 0.43784608376195 
2460	 0.437499458688818 
2461	 0.437165339843199 
2462	 0.436876024671666 
2463	 0.436713522566813 
2464	 0.436426891328816 
2465	 0.4360464350304 
2466	 0.435685866109194 
2467	 0.435213292982087 
2468	 0.434829398753016 
2469	 0.434572156517053 
2470	 0.434232913712385 
2471	 0.433847225720089 
2472	 0.433459564454052 
2473	 0.433199671755816 
2474	 0.433040613892916 
2475	 0.432788268011295 
2476	 0.432339161938385 
2477	 0.43199153223757 
2478	 0.431640213482045 
2479	 0.431257966303569 
2480	 0.431029909769248 
2481	 0.430550741007811 
2482	 0.430100110273581 
2483	 0.429874326807611 
2484	 0.429528814108903 
2485	 0.429398727065296 
2486	 0.429364255807363 
2487	 0.429061679502718 
2488	 0.428771345973225 
2489	 0.428434975348839 
2490	 0.428065777643459 
2491	 0.427744843123541 
2492	 0.427527335264934 
2493	 0.427472637585248 
2494	 0.427143837402462 
2495	 0.426833239363019 
2496	 0.426658513238754 
2497	 0.426259859709931 
2498	 0.42591934156428 
2499	 0.425680375523509 
2500	 0.425391481389651 
