Wavelength	MM700005.asd
350	 5.82317456683667E-02 
351	 6.07584569451411E-02 
352	 5.92477195476242E-02 
353	 5.54860131774668E-02 
354	 5.40054761853093E-02 
355	 5.75865357569059E-02 
356	 6.02430797415286E-02 
357	 5.76334476077197E-02 
358	 5.96785949419345E-02 
359	 6.13530461545525E-02 
360	 6.03481846775291E-02 
361	 5.70661936534703E-02 
362	 5.78017235920503E-02 
363	 5.77193700547863E-02 
364	 0.055534949918578 
365	 5.75663826816136E-02 
366	 5.96993518371704E-02 
367	 5.93768900867082E-02 
368	 5.63169449885976E-02 
369	 5.66238269819387E-02 
370	 5.73867615930962E-02 
371	 5.80934069988234E-02 
372	 5.98842760875241E-02 
373	 6.10215518414959E-02 
374	 6.18959324718917E-02 
375	 6.30807391911679E-02 
376	 0.065135458995842 
377	 6.41021318250037E-02 
378	 6.33500713150963E-02 
379	 6.63197969829186E-02 
380	 6.72320253162761E-02 
381	 0.065968758877532 
382	 6.48901134482518E-02 
383	 6.73822013087007E-02 
384	 6.66879154165151E-02 
385	 6.56316150501894E-02 
386	 6.63725029945485E-02 
387	 6.72796597026497E-02 
388	 6.67028687339249E-02 
389	 6.66748492828767E-02 
390	 6.89217654367821E-02 
391	 6.75375284814363E-02 
392	 6.63879523038402E-02 
393	 0.068160229801767 
394	 7.35200014831566E-02 
395	 7.34211812058154E-02 
396	 7.15805227506267E-02 
397	 7.18216484200176E-02 
398	 7.34890941193294E-02 
399	 7.51523536210215E-02 
400	 7.58145565482758E-02 
401	 7.51563910901644E-02 
402	 7.49326173981402E-02 
403	 7.55498387949215E-02 
404	 7.63727058859656E-02 
405	 7.59538257910441E-02 
406	 7.69033653721691E-02 
407	 7.81204217503534E-02 
408	 7.84211300576954E-02 
409	 7.82645549661287E-02 
410	 7.79600558527791E-02 
411	 7.82757086176459E-02 
412	 0.07979788260607 
413	 8.06503248844428E-02 
414	 8.06495233276476E-02 
415	 8.04351684822707E-02 
416	 8.14542668493707E-02 
417	 8.10884396436833E-02 
418	 8.07817499563213E-02 
419	 8.19061328012939E-02 
420	 8.22395260817442E-02 
421	 8.19361199938133E-02 
422	 8.18216223468512E-02 
423	 8.28840187654664E-02 
424	 8.32148092378621E-02 
425	 8.32127113696215E-02 
426	 8.32780178958069E-02 
427	 8.32599817130066E-02 
428	 8.28727937392902E-02 
429	 8.25515477415611E-02 
430	 0.082721854043471 
431	 8.25352854187621E-02 
432	 8.23314154739741E-02 
433	 8.21830045775043E-02 
434	 8.18732289907938E-02 
435	 8.20633316992408E-02 
436	 8.24144978570077E-02 
437	 8.24985372010583E-02 
438	 8.20918250250962E-02 
439	 8.22246620310045E-02 
440	 8.27418432649496E-02 
441	 8.29345663053188E-02 
442	 8.29723437801097E-02 
443	 8.31313381434894E-02 
444	 8.34547059046069E-02 
445	 8.36207822489222E-02 
446	 8.39063400118981E-02 
447	 8.42570536518296E-02 
448	 8.45464468684611E-02 
449	 8.47293723067077E-02 
450	 0.085154348520456 
451	 8.57476814826592E-02 
452	 8.60884732994684E-02 
453	 0.086335936655311 
454	 8.64292683785219E-02 
455	 0.086471369208427 
456	 8.71180743601212E-02 
457	 8.72970165708343E-02 
458	 8.71658218147055E-02 
459	 8.73691499529405E-02 
460	 8.75500952783019E-02 
461	 8.76907700164235E-02 
462	 8.78322508336703E-02 
463	 8.80637464100807E-02 
464	 8.80525809240184E-02 
465	 8.81239981915245E-02 
466	 8.85654436839247E-02 
467	 8.87786979252737E-02 
468	 8.88492812704803E-02 
469	 8.88709712907842E-02 
470	 0.088924505943527 
471	 8.89188067641297E-02 
472	 8.89709967953862E-02 
473	 8.91546781673998E-02 
474	 8.93914471829585E-02 
475	 8.94977245865672E-02 
476	 0.089512517716107 
477	 8.95667371346003E-02 
478	 8.95786090713494E-02 
479	 8.97684453842082E-02 
480	 9.00636656078587E-02 
481	 8.99548660387852E-02 
482	 9.01155611655845E-02 
483	 0.090346998652356 
484	 9.03381051252378E-02 
485	 9.03399842891822E-02 
486	 9.04839349035885E-02 
487	 9.06464719314016E-02 
488	 9.05290628108168E-02 
489	 9.05692989006832E-02 
490	 9.06132524412949E-02 
491	 9.05649961849935E-02 
492	 9.07458112481226E-02 
493	 0.090875379529189 
494	 0.090897510419532 
495	 9.08939479469733E-02 
496	 9.11419145119762E-02 
497	 9.12879953815276E-02 
498	 9.12506724993142E-02 
499	 9.14395092571619E-02 
500	 9.15592977679022E-02 
501	 9.15382368685846E-02 
502	 9.14430096774892E-02 
503	 9.16606405487438E-02 
504	 9.16833194809946E-02 
505	 9.15603468459542E-02 
506	 9.18389612852559E-02 
507	 9.20188349851664E-02 
508	 9.21111583439135E-02 
509	 9.21807693816093E-02 
510	 9.21419467016681E-02 
511	 9.21953003509937E-02 
512	 9.22934248481578E-02 
513	 9.22816822728624E-02 
514	 9.23519743249927E-02 
515	 9.24553928946164E-02 
516	 9.25480574197911E-02 
517	 9.26431495116045E-02 
518	 9.27467691088862E-02 
519	 9.27465792237807E-02 
520	 9.25855972915386E-02 
521	 9.26700909092247E-02 
522	 9.28120456242791E-02 
523	 9.29186009502188E-02 
524	 9.30328762104287E-02 
525	 9.31130107826193E-02 
526	 9.31930228683076E-02 
527	 9.32887233172432E-02 
528	 9.32892302572058E-02 
529	 9.33885644221496E-02 
530	 9.35369592863823E-02 
531	 9.35438182319624E-02 
532	 9.35897389531429E-02 
533	 9.37060096034491E-02 
534	 9.38523394988561E-02 
535	 9.38792866045708E-02 
536	 9.39363217794847E-02 
537	 9.40433732640703E-02 
538	 0.094164678877541 
539	 0.094255315508994 
540	 9.43754087690816E-02 
541	 9.45428304467391E-02 
542	 9.47129765401128E-02 
543	 9.47275653607243E-02 
544	 9.47770795966101E-02 
545	 9.50242384394221E-02 
546	 9.51157209474362E-02 
547	 9.51696310106928E-02 
548	 9.52855831832019E-02 
549	 9.55235089396687E-02 
550	 9.56979603447887E-02 
551	 0.095829199988282 
552	 9.59933325507061E-02 
553	 9.63327425112062E-02 
554	 9.64881584643464E-02 
555	 9.65517142004557E-02 
556	 9.68222233252241E-02 
557	 9.70901853670024E-02 
558	 9.73413176017827E-02 
559	 9.75957404246428E-02 
560	 9.79008768894821E-02 
561	 9.81452953798453E-02 
562	 9.83907893628485E-02 
563	 9.87513966215239E-02 
564	 9.92744160975931E-02 
565	 9.97440500672058E-02 
566	 0.100122459658002 
567	 0.10058455203161 
568	 0.101033794318607 
569	 0.101483213852629 
570	 0.101975594795543 
571	 0.102590773064252 
572	 0.103115414709664 
573	 0.103548201387566 
574	 0.10404073301826 
575	 0.104580588595371 
576	 0.10518657869029 
577	 0.105853117255426 
578	 0.10652023579284 
579	 0.1072262311508 
580	 0.107882431190611 
581	 0.108399041764253 
582	 0.109051045104506 
583	 0.109819608298611 
584	 0.110670755186889 
585	 0.111593931653597 
586	 0.112569627541391 
587	 0.113549053226061 
588	 0.114491198340723 
589	 0.115412392334943 
590	 0.116416599616791 
591	 0.117472877171319 
592	 0.118433133506988 
593	 0.119342097708921 
594	 0.120155720785273 
595	 0.120870254747699 
596	 0.121617168947837 
597	 0.122398152429147 
598	 0.123237442666707 
599	 0.124159260871052 
600	 0.125080906761206 
601	 0.126039044060569 
602	 0.12702468454367 
603	 0.12792766704874 
604	 0.128755408714085 
605	 0.129615379478711 
606	 0.130584516234419 
607	 0.131353041360156 
608	 0.132066283557748 
609	 0.13282598914722 
610	 0.133651156534361 
611	 0.134419306335471 
612	 0.135134801620732 
613	 0.135825340041072 
614	 0.136493526780994 
615	 0.137085116871214 
616	 0.137628486782673 
617	 0.138202488796161 
618	 0.138771220336883 
619	 0.139263439696357 
620	 0.13967060878351 
621	 0.140119741506584 
622	 0.140601517858342 
623	 0.141053344229855 
624	 0.141415521883177 
625	 0.141836756388304 
626	 0.142263017331391 
627	 0.142652857934944 
628	 0.143003065653277 
629	 0.143375858284869 
630	 0.143757670031355 
631	 0.144105480350949 
632	 0.144337452639925 
633	 0.144652655581004 
634	 0.145045638450545 
635	 0.145345933411138 
636	 0.145638011280529 
637	 0.145950255125516 
638	 0.146275010558725 
639	 0.146532054995852 
640	 0.146834984082201 
641	 0.147174978406965 
642	 0.147490650297363 
643	 0.147802442903028 
644	 0.148121063666081 
645	 0.148444307875295 
646	 0.148751505167536 
647	 0.149054138845458 
648	 0.149358605299645 
649	 0.149671766972107 
650	 0.150004755410734 
651	 0.150364096273492 
652	 0.150732552652883 
653	 0.151077831848808 
654	 0.151468120913208 
655	 0.151846710377531 
656	 0.152180167606032 
657	 0.152544498904843 
658	 0.152936460772992 
659	 0.153341136232715 
660	 0.153736139205131 
661	 0.154113571437222 
662	 0.154535533150955 
663	 0.155001549536338 
664	 0.155412126585017 
665	 0.155826429950306 
666	 0.156264653613612 
667	 0.156730208473117 
668	 0.157199378255505 
669	 0.15767274389232 
670	 0.158153057609251 
671	 0.158641996683951 
672	 0.159116470852162 
673	 0.159612569762613 
674	 0.160153417084382 
675	 0.160708763147031 
676	 0.161283177796279 
677	 0.161844475504171 
678	 0.162359954264652 
679	 0.16289708480725 
680	 0.163481433960288 
681	 0.164109072426968 
682	 0.164744775758506 
683	 0.16536697391668 
684	 0.165976065472214 
685	 0.166590968005222 
686	 0.167265126317405 
687	 0.167955556865382 
688	 0.168644611014406 
689	 0.169333982146127 
690	 0.170013052913577 
691	 0.170682474961822 
692	 0.171363048156425 
693	 0.172116199811556 
694	 0.172868456651671 
695	 0.173600054527681 
696	 0.174317665777859 
697	 0.175045045535074 
698	 0.175839617539077 
699	 0.176654555125599 
700	 0.177341730470646 
701	 0.178140118571087 
702	 0.17896736566166 
703	 0.179732660129782 
704	 0.180525401110154 
705	 0.181324807639047 
706	 0.182117229277841 
707	 0.182893028674437 
708	 0.183655730581413 
709	 0.184454956906182 
710	 0.185285529014073 
711	 0.186061056497153 
712	 0.186832979658478 
713	 0.187622558829466 
714	 0.188417601179912 
715	 0.189101403250925 
716	 0.189796248991262 
717	 0.190549562594825 
718	 0.19134151974891 
719	 0.192130361983921 
720	 0.192835803094974 
721	 0.193455288636119 
722	 0.194138828620222 
723	 0.194848157610294 
724	 0.195502314495808 
725	 0.196036808166507 
726	 0.19655303697579 
727	 0.197097584740298 
728	 0.197671845901437 
729	 0.198235042070395 
730	 0.198752827473075 
731	 0.199208575459836 
732	 0.199614733340824 
733	 0.200038144978411 
734	 0.200442963719581 
735	 0.200809771167587 
736	 0.201127959888197 
737	 0.201400918164338 
738	 0.201664044175887 
739	 0.201905662364731 
740	 0.202062384655997 
741	 0.202162876943618 
742	 0.202257216866982 
743	 0.202375584301764 
744	 0.202494555177777 
745	 0.202515976654864 
746	 0.20247982050858 
747	 0.202476382589616 
748	 0.202420724403023 
749	 0.202306471174402 
750	 0.202143874077855 
751	 0.201955021039421 
752	 0.201816498679782 
753	 0.201639167438779 
754	 0.201364583333413 
755	 0.201147329309831 
756	 0.200873850380236 
757	 0.200528635322668 
758	 0.200155213632049 
759	 0.199819431237863 
760	 0.199455581468162 
761	 0.199051605371824 
762	 0.198676780365086 
763	 0.19820625167696 
764	 0.197720498809941 
765	 0.197291665317587 
766	 0.196817762226592 
767	 0.196361269763058 
768	 0.19589768383109 
769	 0.195381031629077 
770	 0.194953358696491 
771	 0.194465917448757 
772	 0.19388458259805 
773	 0.193339958840437 
774	 0.192795160565648 
775	 0.192250828527299 
776	 0.191711001167376 
777	 0.191174784097774 
778	 0.190613010748353 
779	 0.190051123682249 
780	 0.18952358986041 
781	 0.188949312742145 
782	 0.188386607954712 
783	 0.187858375168522 
784	 0.187338108980217 
785	 0.186761337466159 
786	 0.186165996827398 
787	 0.185596698837465 
788	 0.185060303825672 
789	 0.184541124084328 
790	 0.184038222855521 
791	 0.183542473745599 
792	 0.18298073378433 
793	 0.182399686979761 
794	 0.181850444342839 
795	 0.1813736276371 
796	 0.180901547770434 
797	 0.180408358836812 
798	 0.179895452352236 
799	 0.179397415591222 
800	 0.178902117436884 
801	 0.178412107987421 
802	 0.177936306322582 
803	 0.177495633004759 
804	 0.177044342679124 
805	 0.176573549116204 
806	 0.176104315355261 
807	 0.175673768463914 
808	 0.175265389792052 
809	 0.174855054158233 
810	 0.174418805924397 
811	 0.17402071795462 
812	 0.173613399586009 
813	 0.173171740533035 
814	 0.172801895697868 
815	 0.172437215484593 
816	 0.172083076497544 
817	 0.171758834610633 
818	 0.171397064311242 
819	 0.171040372302861 
820	 0.170698444233449 
821	 0.170351025489912 
822	 0.170032987026345 
823	 0.169733206674936 
824	 0.169435108114098 
825	 0.169124759383527 
826	 0.168862504604746 
827	 0.168638041976807 
828	 0.168407414823328 
829	 0.168086882899693 
830	 0.167769537186739 
831	 0.167521126747598 
832	 0.167356086080707 
833	 0.167099876568576 
834	 0.166834083261043 
835	 0.166616994004972 
836	 0.166454580297323 
837	 0.166211273537775 
838	 0.165982540928503 
839	 0.165837492003667 
840	 0.165735723039465 
841	 0.165568465933015 
842	 0.165332979728163 
843	 0.165093652121071 
844	 0.165010073863903 
845	 0.164920946148162 
846	 0.164794373037784 
847	 0.164667774401995 
848	 0.1645851857002 
849	 0.164449640123053 
850	 0.164295735796407 
851	 0.164257095224923 
852	 0.164198361710931 
853	 0.164116077060553 
854	 0.164029893000943 
855	 0.163964194697065 
856	 0.163898338546431 
857	 0.163861773099679 
858	 0.163859581137505 
859	 0.163803691450134 
860	 0.163783496948797 
861	 0.163779064310752 
862	 0.163758299703817 
863	 0.163818480305832 
864	 0.163865775466062 
865	 0.163855950917146 
866	 0.163802463064638 
867	 0.163842073566742 
868	 0.163861221369749 
869	 0.163865097118878 
870	 0.163984620310117 
871	 0.16403853758976 
872	 0.164090456625269 
873	 0.164192663973198 
874	 0.164312318773128 
875	 0.164414098803864 
876	 0.164474776849078 
877	 0.164513181520366 
878	 0.164637246676207 
879	 0.16480855700728 
880	 0.164970702280147 
881	 0.165078464592435 
882	 0.165158302433425 
883	 0.165309800813744 
884	 0.165530504479423 
885	 0.165755200221468 
886	 0.165953132052294 
887	 0.166151943732962 
888	 0.16634407884383 
889	 0.166500131506908 
890	 0.166724177606311 
891	 0.166915047154402 
892	 0.16708343703595 
893	 0.167395069333493 
894	 0.16764113205186 
895	 0.16786920226471 
896	 0.168130396826722 
897	 0.168389368712859 
898	 0.168664920788386 
899	 0.168969972071415 
900	 0.16929201293296 
901	 0.169554806189247 
902	 0.169831590821164 
903	 0.170143755193186 
904	 0.170484079393043 
905	 0.170809116313774 
906	 0.171197151413684 
907	 0.171578753597169 
908	 0.17187800933134 
909	 0.172373104287359 
910	 0.172804027589602 
911	 0.173130685826526 
912	 0.173484527821409 
913	 0.173945417548942 
914	 0.174364543634056 
915	 0.174714069879668 
916	 0.175099034074695 
917	 0.175595018729693 
918	 0.176127631077016 
919	 0.176631546847175 
920	 0.177085892254095 
921	 0.177567193583964 
922	 0.178051739861973 
923	 0.178545627517702 
924	 0.179118970512859 
925	 0.17964118670218 
926	 0.180189520139144 
927	 0.180797787557377 
928	 0.181338784758983 
929	 0.181917604310018 
930	 0.182496239893354 
931	 0.183072227983198 
932	 0.183814224338716 
933	 0.184393697855119 
934	 0.184967336265554 
935	 0.185696507674867 
936	 0.186319352411752 
937	 0.186958656617265 
938	 0.187624452005996 
939	 0.188301788051547 
940	 0.1890119058994 
941	 0.18978753007098 
942	 0.190593760719711 
943	 0.191370018270605 
944	 0.192072024643593 
945	 0.192806018135406 
946	 0.193580775496227 
947	 0.194355098313849 
948	 0.195098430464803 
949	 0.195954754387975 
950	 0.196819149118508 
951	 0.197552609801344 
952	 0.198521851202891 
953	 0.19944553287956 
954	 0.20026209931472 
955	 0.201073698683043 
956	 0.201999926578436 
957	 0.202939675208254 
958	 0.203821667168529 
959	 0.204638982665714 
960	 0.205544095329758 
961	 0.206537896747077 
962	 0.207554889507019 
963	 0.208510976323439 
964	 0.209441430299143 
965	 0.210428692506671 
966	 0.211445239732841 
967	 0.212425268646182 
968	 0.213541085732578 
969	 0.214727515138839 
970	 0.21583190992267 
971	 0.216726551420173 
972	 0.217683017923226 
973	 0.218758335611304 
974	 0.219876297006092 
975	 0.220920911397504 
976	 0.222037400608888 
977	 0.223254057286383 
978	 0.224440155266264 
979	 0.225452284300059 
980	 0.226629523751523 
981	 0.227783008309565 
982	 0.228914505441869 
983	 0.230136745644499 
984	 0.231381388459007 
985	 0.232487906645687 
986	 0.233542968788285 
987	 0.234725698406127 
988	 0.235895444933223 
989	 0.23712003289756 
990	 0.238393041556418 
991	 0.239679314574557 
992	 0.241049209485507 
993	 0.242170154432459 
994	 0.243235305306832 
995	 0.244520198933986 
996	 0.245559665806703 
997	 0.24673676493409 
998	 0.248045648674725 
999	 0.249340612163412 
1000	 0.250629484733206 
1001	 0.255905399065349 
1002	 0.257087984631924 
1003	 0.258264398252513 
1004	 0.259439871139623 
1005	 0.260703302074118 
1006	 0.261895057904398 
1007	 0.263027133628457 
1008	 0.264152417628 
1009	 0.265319768748698 
1010	 0.266465485512258 
1011	 0.267602371220028 
1012	 0.268733080403434 
1013	 0.269895526376505 
1014	 0.270967335086103 
1015	 0.271995639777453 
1016	 0.273066081308522 
1017	 0.274122920056679 
1018	 0.275106139977025 
1019	 0.27619062522981 
1020	 0.277392324651518 
1021	 0.278498353796153 
1022	 0.279555483670657 
1023	 0.280574056867207 
1024	 0.281518507145499 
1025	 0.28251650542449 
1026	 0.283585568375561 
1027	 0.284682455784349 
1028	 0.285767025123346 
1029	 0.286804170866579 
1030	 0.287841204103745 
1031	 0.288861660040355 
1032	 0.289869588967518 
1033	 0.290842488621212 
1034	 0.291838146099186 
1035	 0.292823317663476 
1036	 0.293776652272879 
1037	 0.294782899497548 
1038	 0.295816356399954 
1039	 0.296855635912417 
1040	 0.297911235414396 
1041	 0.298917379682326 
1042	 0.299889562949024 
1043	 0.300862239750467 
1044	 0.301827561587286 
1045	 0.302758337008117 
1046	 0.303761630957192 
1047	 0.30479833479087 
1048	 0.305788284196123 
1049	 0.30679893073304 
1050	 0.307752611547514 
1051	 0.308691238670969 
1052	 0.309654621536242 
1053	 0.310587886853949 
1054	 0.311560098796295 
1055	 0.312520080736699 
1056	 0.313490065370218 
1057	 0.314427442277019 
1058	 0.315348247300186 
1059	 0.316246603457261 
1060	 0.317138632078959 
1061	 0.317959351837721 
1062	 0.318772377300336 
1063	 0.319649611500221 
1064	 0.32045605082487 
1065	 0.321291937959098 
1066	 0.322177081340837 
1067	 0.322982551392525 
1068	 0.323780121255239 
1069	 0.324590738259992 
1070	 0.325366988180708 
1071	 0.326071820068846 
1072	 0.326820428996214 
1073	 0.327594636680677 
1074	 0.328341480604398 
1075	 0.329060912370183 
1076	 0.329802952183824 
1077	 0.330571682398482 
1078	 0.33123204444889 
1079	 0.331852611763407 
1080	 0.332515703367003 
1081	 0.333184332500043 
1082	 0.333898143473627 
1083	 0.334615578351456 
1084	 0.335397587591904 
1085	 0.3361187776787 
1086	 0.336777403941787 
1087	 0.337492642892435 
1088	 0.338209389253083 
1089	 0.338970160487666 
1090	 0.339716598790889 
1091	 0.340474097549148 
1092	 0.341248804315878 
1093	 0.341987583372441 
1094	 0.342743019788811 
1095	 0.343522907335839 
1096	 0.344297369447032 
1097	 0.345079239883583 
1098	 0.345881833112935 
1099	 0.346713384318453 
1100	 0.347547914861969 
1101	 0.348369017888176 
1102	 0.349229189583468 
1103	 0.350118578431136 
1104	 0.351023671369684 
1105	 0.351911906193085 
1106	 0.352860833496719 
1107	 0.353788061194091 
1108	 0.354717506080066 
1109	 0.355723725293418 
1110	 0.356725913380135 
1111	 0.357739469624807 
1112	 0.358786454407257 
1113	 0.359819226391874 
1114	 0.360845801765278 
1115	 0.361892626650963 
1116	 0.362942931616558 
1117	 0.364018370876328 
1118	 0.365117782712238 
1119	 0.366197457793343 
1120	 0.367330907415929 
1121	 0.368454198417862 
1122	 0.369558695069297 
1123	 0.37070788478796 
1124	 0.371843917915104 
1125	 0.372970398941915 
1126	 0.374108404281379 
1127	 0.375261374050452 
1128	 0.37640387338628 
1129	 0.377544683873509 
1130	 0.37868684585958 
1131	 0.379825047703964 
1132	 0.380970073728574 
1133	 0.382121436519571 
1134	 0.383266325860264 
1135	 0.384421555756644 
1136	 0.385555596808135 
1137	 0.386675720381715 
1138	 0.387790917364455 
1139	 0.388926367335082 
1140	 0.390076437048972 
1141	 0.391207259447648 
1142	 0.392353768690746 
1143	 0.393470818128671 
1144	 0.394560330692752 
1145	 0.395644908087042 
1146	 0.396727146390978 
1147	 0.397788169325427 
1148	 0.398843393957126 
1149	 0.39987708011746 
1150	 0.400884544056868 
1151	 0.401881271364424 
1152	 0.402887959458512 
1153	 0.403862652929783 
1154	 0.404871260549753 
1155	 0.405919577197192 
1156	 0.406903603844591 
1157	 0.407873080870886 
1158	 0.408836897426861 
1159	 0.40976213266408 
1160	 0.410696667963896 
1161	 0.411654828825995 
1162	 0.412575624058354 
1163	 0.41345885117807 
1164	 0.414356873408012 
1165	 0.415252785241815 
1166	 0.416141041337352 
1167	 0.417027117793019 
1168	 0.417916661745473 
1169	 0.418768659690417 
1170	 0.419597538881136 
1171	 0.420415790740535 
1172	 0.421216178284808 
1173	 0.422003747380457 
1174	 0.422762982530667 
1175	 0.423544198817815 
1176	 0.424325833783882 
1177	 0.425100757570399 
1178	 0.425896341325872 
1179	 0.426666546743053 
1180	 0.427416865059577 
1181	 0.42816142107275 
1182	 0.428887065586452 
1183	 0.429633234391563 
1184	 0.430342559364386 
1185	 0.431042936798635 
1186	 0.431716831856838 
1187	 0.432352947367127 
1188	 0.433013808662094 
1189	 0.433677097925443 
1190	 0.434319822732569 
1191	 0.434971965325596 
1192	 0.435597551294738 
1193	 0.436187174045725 
1194	 0.436786185663193 
1195	 0.437372646452247 
1196	 0.437969707739393 
1197	 0.438575775105432 
1198	 0.43917109129228 
1199	 0.439764175218003 
1200	 0.44037088854296 
1201	 0.44094127756001 
1202	 0.441493743894514 
1203	 0.442036478950579 
1204	 0.442564263924395 
1205	 0.443078941542822 
1206	 0.44357689377712 
1207	 0.444074425909641 
1208	 0.44455539992652 
1209	 0.445040668550509 
1210	 0.445532059018126 
1211	 0.446010241891486 
1212	 0.446487958478939 
1213	 0.446949423487389 
1214	 0.447387828895759 
1215	 0.447834127456162 
1216	 0.448277915379011 
1217	 0.44871379346737 
1218	 0.449151463981458 
1219	 0.449606766377917 
1220	 0.450022667507858 
1221	 0.450410496577403 
1222	 0.450815406583892 
1223	 0.451198507772948 
1224	 0.451605009713172 
1225	 0.452040757190619 
1226	 0.452455356272436 
1227	 0.452884486645064 
1228	 0.453278828085129 
1229	 0.453649489425451 
1230	 0.454015759204883 
1231	 0.454349337982988 
1232	 0.454694267379559 
1233	 0.455040261804212 
1234	 0.455383628550247 
1235	 0.455739450864453 
1236	 0.456121041007274 
1237	 0.456452110820651 
1238	 0.456771252680124 
1239	 0.457083252427654 
1240	 0.457353839335497 
1241	 0.457646709711648 
1242	 0.457952688469545 
1243	 0.458252027468346 
1244	 0.458540853301652 
1245	 0.458839070426906 
1246	 0.459153163544999 
1247	 0.459453601331737 
1248	 0.459765336808831 
1249	 0.460051094185663 
1250	 0.460313282779432 
1251	 0.460563683285574 
1252	 0.460818017611224 
1253	 0.461051026854639 
1254	 0.46130436319472 
1255	 0.461588834767169 
1256	 0.461820899966028 
1257	 0.462030625897543 
1258	 0.462243794642381 
1259	 0.462413969175598 
1260	 0.462620841883399 
1261	 0.462843837989385 
1262	 0.463072082030184 
1263	 0.46332549600809 
1264	 0.46356288772216 
1265	 0.463800624820163 
1266	 0.464035940378079 
1267	 0.464257291485891 
1268	 0.464483374109799 
1269	 0.464720608320148 
1270	 0.464964664213183 
1271	 0.465211631830479 
1272	 0.465465690774293 
1273	 0.465718516600141 
1274	 0.465962508386636 
1275	 0.466236375815392 
1276	 0.466529998684835 
1277	 0.466819877569042 
1278	 0.467140396416295 
1279	 0.467429658872667 
1280	 0.467712963317938 
1281	 0.467975744557311 
1282	 0.468221120169497 
1283	 0.468455027963415 
1284	 0.468684108559632 
1285	 0.468874796706227 
1286	 0.469059919606929 
1287	 0.469240573118545 
1288	 0.469378168351388 
1289	 0.469497109123966 
1290	 0.469571712851232 
1291	 0.469602515969433 
1292	 0.469616205434582 
1293	 0.469598232813922 
1294	 0.469554047035243 
1295	 0.469492751998748 
1296	 0.469391057031332 
1297	 0.46923336023476 
1298	 0.469090658966043 
1299	 0.468937678490534 
1300	 0.468755663580236 
1301	 0.468554096106799 
1302	 0.468347812420073 
1303	 0.468098843674393 
1304	 0.467879011832333 
1305	 0.467663034313828 
1306	 0.467439394980607 
1307	 0.467217409009834 
1308	 0.466958466822125 
1309	 0.466711613588529 
1310	 0.466452495201698 
1311	 0.466219520140011 
1312	 0.465977296946914 
1313	 0.465781799190978 
1314	 0.465607548416485 
1315	 0.465459772897136 
1316	 0.465365156278665 
1317	 0.465244400301746 
1318	 0.465107987227002 
1319	 0.465022531748833 
1320	 0.464941012224741 
1321	 0.46489722708929 
1322	 0.464896401375118 
1323	 0.464926415311015 
1324	 0.464971254726047 
1325	 0.465014430120349 
1326	 0.465093290695948 
1327	 0.465187535959838 
1328	 0.465285109097019 
1329	 0.465428696148156 
1330	 0.465610645713453 
1331	 0.465834213079436 
1332	 0.466065351552957 
1333	 0.466343030461576 
1334	 0.466603442895269 
1335	 0.466859399152786 
1336	 0.467139568981654 
1337	 0.467427700780399 
1338	 0.467730946740097 
1339	 0.468046488655695 
1340	 0.468378660918091 
1341	 0.468735166908566 
1342	 0.469092085396701 
1343	 0.469459228684488 
1344	 0.46983704168205 
1345	 0.47022061782655 
1346	 0.470599877404632 
1347	 0.470996734286678 
1348	 0.471383939907999 
1349	 0.471740524508117 
1350	 0.472115716207 
1351	 0.472484008734339 
1352	 0.472837859768715 
1353	 0.473203039147945 
1354	 0.473588209701872 
1355	 0.473943141940925 
1356	 0.474291317000288 
1357	 0.474630361011704 
1358	 0.474946856711963 
1359	 0.475277283889928 
1360	 0.475607517331579 
1361	 0.475931696289373 
1362	 0.476261648498047 
1363	 0.476578407496686 
1364	 0.476884844110023 
1365	 0.477189178973834 
1366	 0.477488400614094 
1367	 0.47778464015479 
1368	 0.478069699066503 
1369	 0.478352430476021 
1370	 0.478643431251245 
1371	 0.478916075343097 
1372	 0.479165229802502 
1373	 0.479403323084762 
1374	 0.479618254020822 
1375	 0.479806220687536 
1376	 0.479982929078851 
1377	 0.480155971530218 
1378	 0.480290264047884 
1379	 0.480403069828836 
1380	 0.480481780263579 
1381	 0.480522114148816 
1382	 0.48055297373106 
1383	 0.480560761822594 
1384	 0.48054421618316 
1385	 0.480527316647223 
1386	 0.480459619434558 
1387	 0.480337411531854 
1388	 0.480216264903805 
1389	 0.480084597231491 
1390	 0.479908616213527 
1391	 0.47970022475569 
1392	 0.479481213618151 
1393	 0.479225957472012 
1394	 0.478937444729882 
1395	 0.478639095170584 
1396	 0.478335539985272 
1397	 0.478006773347791 
1398	 0.477635945747695 
1399	 0.477290486000877 
1400	 0.476941007143255 
1401	 0.476591805717049 
1402	 0.476244633720107 
1403	 0.475904580882427 
1404	 0.47556178798905 
1405	 0.475231624183301 
1406	 0.474917017936253 
1407	 0.474587838071999 
1408	 0.474251085889477 
1409	 0.473930227650215 
1410	 0.473578840805891 
1411	 0.473293846770971 
1412	 0.473037022125449 
1413	 0.47281462298209 
1414	 0.472649123918195 
1415	 0.472530083241134 
1416	 0.472456752927194 
1417	 0.472390352746622 
1418	 0.472337323049156 
1419	 0.472303012129103 
1420	 0.472254050623455 
1421	 0.472205713198338 
1422	 0.472170477197115 
1423	 0.472120937849667 
1424	 0.472049783469373 
1425	 0.471958057011796 
1426	 0.471883533869602 
1427	 0.471786948915839 
1428	 0.471714372640791 
1429	 0.471667917529933 
1430	 0.471614846590857 
1431	 0.471570803113472 
1432	 0.471510808057231 
1433	 0.471445176515459 
1434	 0.471377344480979 
1435	 0.471294326916734 
1436	 0.471220748560868 
1437	 0.471142557504295 
1438	 0.471084299669898 
1439	 0.471039906395298 
1440	 0.470987599176532 
1441	 0.47094917694309 
1442	 0.470952988292765 
1443	 0.470946014896705 
1444	 0.470934281803089 
1445	 0.470928765540095 
1446	 0.470900090585604 
1447	 0.470875861704225 
1448	 0.470856633052794 
1449	 0.47082114087942 
1450	 0.470784362750231 
1451	 0.470744467479279 
1452	 0.470684566024898 
1453	 0.470649936965949 
1454	 0.470627311738835 
1455	 0.470604830258115 
1456	 0.47059063029751 
1457	 0.470569654141089 
1458	 0.470541213364509 
1459	 0.470535054267978 
1460	 0.470538215909354 
1461	 0.470547088493616 
1462	 0.470565983551941 
1463	 0.470593203612956 
1464	 0.470622699168541 
1465	 0.470663416494329 
1466	 0.470718057983597 
1467	 0.470785740328326 
1468	 0.470867228760161 
1469	 0.470947384250493 
1470	 0.471041416062985 
1471	 0.47113342144153 
1472	 0.471210300530638 
1473	 0.47129611530643 
1474	 0.471406663444045 
1475	 0.47152316884668 
1476	 0.471661394622878 
1477	 0.471813360519887 
1478	 0.471974495012222 
1479	 0.472139914968965 
1480	 0.472310948136903 
1481	 0.472482390693935 
1482	 0.472646964808546 
1483	 0.472804252382451 
1484	 0.472973699172823 
1485	 0.473144863860255 
1486	 0.473317024289614 
1487	 0.473494360513627 
1488	 0.473666243267655 
1489	 0.473835774103099 
1490	 0.474005374921883 
1491	 0.474185378300404 
1492	 0.474347069764736 
1493	 0.474492067273574 
1494	 0.474651623864619 
1495	 0.474809561298255 
1496	 0.47495966302197 
1497	 0.475119553865243 
1498	 0.475267711125346 
1499	 0.475393650108216 
1500	 0.475531937896019 
1501	 0.475677515363054 
1502	 0.475817253402751 
1503	 0.475949517489535 
1504	 0.476097941776027 
1505	 0.476249201447066 
1506	 0.476377733461028 
1507	 0.476511998418858 
1508	 0.476651431034733 
1509	 0.476750940755788 
1510	 0.476853872366201 
1511	 0.476985805690296 
1512	 0.477095861780296 
1513	 0.477219743971424 
1514	 0.477372554836377 
1515	 0.477496229384064 
1516	 0.477611813220563 
1517	 0.477726786268584 
1518	 0.477844688502943 
1519	 0.477948320191496 
1520	 0.478039810206772 
1521	 0.478131561693032 
1522	 0.478213813214759 
1523	 0.478300423648318 
1524	 0.478382803061031 
1525	 0.478476437261547 
1526	 0.478585305530115 
1527	 0.478673036651379 
1528	 0.478761741894089 
1529	 0.478833356279196 
1530	 0.478883896211345 
1531	 0.478937892887537 
1532	 0.478983089174016 
1533	 0.479031673428403 
1534	 0.47906118517943 
1535	 0.479121586918596 
1536	 0.479199601405119 
1537	 0.479283478235532 
1538	 0.479398586964117 
1539	 0.479494516965776 
1540	 0.479588413673588 
1541	 0.479672149169383 
1542	 0.479741101872389 
1543	 0.479815013373887 
1544	 0.479884965132501 
1545	 0.479955722697976 
1546	 0.480026384214871 
1547	 0.480097597575891 
1548	 0.480179798568579 
1549	 0.480274510305011 
1550	 0.480365056169712 
1551	 0.480469912789423 
1552	 0.480572223884469 
1553	 0.480642565126125 
1554	 0.480714200389948 
1555	 0.480794671328227 
1556	 0.480865907243133 
1557	 0.480937223016717 
1558	 0.480982110760315 
1559	 0.481039006418854 
1560	 0.481113712939776 
1561	 0.481193830862001 
1562	 0.481258851474468 
1563	 0.481341213326227 
1564	 0.481404630472417 
1565	 0.481432356905755 
1566	 0.481508873450817 
1567	 0.481611199767001 
1568	 0.481701362277338 
1569	 0.481813279409113 
1570	 0.481893487793774 
1571	 0.481961967003421 
1572	 0.48202437459617 
1573	 0.482062298874755 
1574	 0.482118016712537 
1575	 0.482175431331786 
1576	 0.482230875523621 
1577	 0.482301360640411 
1578	 0.482350684856162 
1579	 0.482382084339003 
1580	 0.48242192108579 
1581	 0.482460487746333 
1582	 0.48249065806658 
1583	 0.482503339581221 
1584	 0.482546593547475 
1585	 0.482593770958185 
1586	 0.48265499279867 
1587	 0.482758731651266 
1588	 0.482834801994933 
1589	 0.482889472850412 
1590	 0.482959976637271 
1591	 0.483023819181853 
1592	 0.483106513658045 
1593	 0.483225311252985 
1594	 0.483317198150694 
1595	 0.483405112776886 
1596	 0.483485851532449 
1597	 0.483552072558115 
1598	 0.483610352739409 
1599	 0.483668079869983 
1600	 0.483718496945283 
1601	 0.48375121261646 
1602	 0.483784629849209 
1603	 0.483814898006994 
1604	 0.4838403718275 
1605	 0.483846414827698 
1606	 0.483878796903499 
1607	 0.483931996486656 
1608	 0.483970702895221 
1609	 0.484030373496177 
1610	 0.484086695947871 
1611	 0.484115872495171 
1612	 0.48415691785266 
1613	 0.484213763695586 
1614	 0.484261962402568 
1615	 0.484312452230016 
1616	 0.484376311749872 
1617	 0.484433060734878 
1618	 0.484486966047727 
1619	 0.484585127963319 
1620	 0.48469854645241 
1621	 0.484785502982529 
1622	 0.484888336598421 
1623	 0.484953056657542 
1624	 0.484983764741 
1625	 0.485018640495939 
1626	 0.485034608331368 
1627	 0.485078249249621 
1628	 0.485118476190837 
1629	 0.485177841263913 
1630	 0.485272535846465 
1631	 0.48532869363148 
1632	 0.485367507803505 
1633	 0.485425136079012 
1634	 0.485477528180118 
1635	 0.485529903519458 
1636	 0.485598334782199 
1637	 0.485653142465688 
1638	 0.485698300951455 
1639	 0.485736748637333 
1640	 0.485775364444159 
1641	 0.485801926845169 
1642	 0.485797364962965 
1643	 0.485834188526423 
1644	 0.485887987820922 
1645	 0.485937589916734 
1646	 0.486007260441618 
1647	 0.486065645652704 
1648	 0.48610580008368 
1649	 0.486175006685451 
1650	 0.486261035114402 
1651	 0.486345024433382 
1652	 0.486446760198107 
1653	 0.486532948477329 
1654	 0.486623018071194 
1655	 0.486689568489876 
1656	 0.486738707087109 
1657	 0.486791402566192 
1658	 0.486828387254498 
1659	 0.486871663025222 
1660	 0.486928373606855 
1661	 0.486959612483416 
1662	 0.486972675013047 
1663	 0.486991701606598 
1664	 0.487003429403046 
1665	 0.487009296463353 
1666	 0.487006348096639 
1667	 0.487019265897527 
1668	 0.487016525161443 
1669	 0.487050653985526 
1670	 0.48711133329191 
1671	 0.48718147404762 
1672	 0.487286138018721 
1673	 0.487362351072841 
1674	 0.487450066388827 
1675	 0.487508608851298 
1676	 0.487529467276255 
1677	 0.487575604065191 
1678	 0.487616360727456 
1679	 0.487667904518115 
1680	 0.487751420000687 
1681	 0.487791544849212 
1682	 0.487801489360337 
1683	 0.487837042133692 
1684	 0.487849017539412 
1685	 0.487898555380764 
1686	 0.488004717025026 
1687	 0.488058192803007 
1688	 0.48808307502678 
1689	 0.488140532917488 
1690	 0.488186965026392 
1691	 0.488250455062643 
1692	 0.488354970864392 
1693	 0.48843380254128 
1694	 0.488497920898809 
1695	 0.488568469654353 
1696	 0.488650585153375 
1697	 0.488707495804114 
1698	 0.488747019586455 
1699	 0.488792415527224 
1700	 0.488837431618573 
1701	 0.488858262061967 
1702	 0.488874393083008 
1703	 0.488876872179395 
1704	 0.488826059874399 
1705	 0.488834681253616 
1706	 0.488868368732973 
1707	 0.488903436061031 
1708	 0.488963804271697 
1709	 0.489023811720313 
1710	 0.489084296403888 
1711	 0.489154677568364 
1712	 0.489253842786943 
1713	 0.489318964572507 
1714	 0.489358600844429 
1715	 0.489426699092674 
1716	 0.48950012116492 
1717	 0.489561209967835 
1718	 0.48964543026884 
1719	 0.489691659414811 
1720	 0.489713564186071 
1721	 0.489719500950305 
1722	 0.489699805479967 
1723	 0.489695862964511 
1724	 0.489677529356181 
1725	 0.489659574638331 
1726	 0.489665039431666 
1727	 0.489627443303876 
1728	 0.48954940359684 
1729	 0.489498031981284 
1730	 0.489436124923585 
1731	 0.489386828302323 
1732	 0.489352346949823 
1733	 0.489325627281397 
1734	 0.489303719709688 
1735	 0.489274960854113 
1736	 0.489249970883863 
1737	 0.489243015219302 
1738	 0.489238065160522 
1739	 0.489232546902637 
1740	 0.489259514579372 
1741	 0.489231367479174 
1742	 0.489167309065134 
1743	 0.489122047133124 
1744	 0.489059174452844 
1745	 0.489021732395615 
1746	 0.488992695488624 
1747	 0.488973015973765 
1748	 0.488964921633092 
1749	 0.488961736418277 
1750	 0.488962514539306 
1751	 0.488961703470161 
1752	 0.488954660378004 
1753	 0.488935755295144 
1754	 0.488919444863457 
1755	 0.488898239164601 
1756	 0.488898700772201 
1757	 0.488909130881548 
1758	 0.48889549340597 
1759	 0.488906202574075 
1760	 0.488911077086307 
1761	 0.488878068492763 
1762	 0.488884871486042 
1763	 0.488888874135297 
1764	 0.488860483948769 
1765	 0.488887921789424 
1766	 0.488908547506637 
1767	 0.488904439070724 
1768	 0.488943302964496 
1769	 0.488957875980259 
1770	 0.488964930610476 
1771	 0.489017718629821 
1772	 0.489048705167771 
1773	 0.489091593111445 
1774	 0.489150540355524 
1775	 0.489176279183641 
1776	 0.489185006602806 
1777	 0.489164888161201 
1778	 0.489144191014602 
1779	 0.489089819739835 
1780	 0.489020134490882 
1781	 0.489006623078962 
1782	 0.489022866876357 
1783	 0.489100480134376 
1784	 0.489135663818933 
1785	 0.489146693752082 
1786	 0.489164635781855 
1787	 0.489154626069494 
1788	 0.489196785382451 
1789	 0.489273082800518 
1790	 0.489337607087059 
1791	 0.489432347297347 
1792	 0.4895107782378 
1793	 0.4895804665068 
1794	 0.489642411662238 
1795	 0.489708443006729 
1796	 0.489742033755956 
1797	 0.489745415759175 
1798	 0.489759063821968 
1799	 0.489749695443366 
1800	 0.489784711204604 
1801	 0.487319222942705 
1802	 0.487324576791122 
1803	 0.487347997924509 
1804	 0.487376459423379 
1805	 0.487399701539761 
1806	 0.487441202059303 
1807	 0.487483960479481 
1808	 0.487540406003166 
1809	 0.48765471968446 
1810	 0.487722819825473 
1811	 0.487790087596356 
1812	 0.487810637459082 
1813	 0.487828715529128 
1814	 0.487813054148476 
1815	 0.487778884726073 
1816	 0.487781348837983 
1817	 0.487765433900353 
1818	 0.487748513000787 
1819	 0.487712706344274 
1820	 0.487682610385396 
1821	 0.487609049082389 
1822	 0.487496780880204 
1823	 0.487417955885028 
1824	 0.487372684898766 
1825	 0.487292167753908 
1826	 0.487232617144239 
1827	 0.487165930912284 
1828	 0.487086403752028 
1829	 0.486981706222049 
1830	 0.486890302179205 
1831	 0.486789671145734 
1832	 0.486714042847338 
1833	 0.486649543107672 
1834	 0.486572107329142 
1835	 0.486527957524672 
1836	 0.486478889234509 
1837	 0.486414976512263 
1838	 0.486375109835662 
1839	 0.486326601053492 
1840	 0.486280358106532 
1841	 0.486229710260212 
1842	 0.486190125236695 
1843	 0.486132097946737 
1844	 0.486097645977463 
1845	 0.486045561473076 
1846	 0.485945751470228 
1847	 0.48587169227264 
1848	 0.485758787104389 
1849	 0.485637677470612 
1850	 0.485527010681628 
1851	 0.485431111785306 
1852	 0.485298221713973 
1853	 0.485173136059631 
1854	 0.48505964649846 
1855	 0.484978146545644 
1856	 0.48493540675733 
1857	 0.484927477898084 
1858	 0.484913171948944 
1859	 0.484862634785091 
1860	 0.484768397692862 
1861	 0.484642620885449 
1862	 0.484453200761776 
1863	 0.484226085508033 
1864	 0.483965815331449 
1865	 0.483684118544841 
1866	 0.483364273927619 
1867	 0.483040275804673 
1868	 0.482751896588265 
1869	 0.482445601575873 
1870	 0.482154279145432 
1871	 0.481850244484536 
1872	 0.481563080877941 
1873	 0.481228841603408 
1874	 0.480873876885615 
1875	 0.480484717846334 
1876	 0.480041115776821 
1877	 0.479540212197681 
1878	 0.478965609895269 
1879	 0.478331929704016 
1880	 0.477634809405867 
1881	 0.476855040795171 
1882	 0.476043485108713 
1883	 0.475187106516415 
1884	 0.474264738773765 
1885	 0.4732911640486 
1886	 0.47225706125162 
1887	 0.471142353211088 
1888	 0.469974779982741 
1889	 0.468761823524687 
1890	 0.467508382899831 
1891	 0.466231521794616 
1892	 0.464909301492143 
1893	 0.463581073348438 
1894	 0.462227234432141 
1895	 0.460844022045071 
1896	 0.459451785357044 
1897	 0.458071445570913 
1898	 0.456694405275687 
1899	 0.455347910735269 
1900	 0.454068561911008 
1901	 0.452818472272848 
1902	 0.45162818517343 
1903	 0.450524514776222 
1904	 0.449432750396918 
1905	 0.448376962437046 
1906	 0.447359312366389 
1907	 0.446371888101873 
1908	 0.445376761634651 
1909	 0.444464119510619 
1910	 0.443612210033943 
1911	 0.442804465659691 
1912	 0.442058030210076 
1913	 0.441324807023247 
1914	 0.440607201630657 
1915	 0.439936273228468 
1916	 0.439301263178068 
1917	 0.438694953281068 
1918	 0.438124075104736 
1919	 0.437639107349176 
1920	 0.437189521576615 
1921	 0.436787444198915 
1922	 0.436433091938063 
1923	 0.436067065678457 
1924	 0.435744841989366 
1925	 0.435444665893189 
1926	 0.435186082920655 
1927	 0.434962498866744 
1928	 0.434778093440035 
1929	 0.434601618972842 
1930	 0.434433922371765 
1931	 0.434298761571124 
1932	 0.434202514853683 
1933	 0.434159075267777 
1934	 0.434134907854657 
1935	 0.434127431258064 
1936	 0.434133245719476 
1937	 0.434177022574135 
1938	 0.43424357981473 
1939	 0.43434186091981 
1940	 0.434480330545816 
1941	 0.434632477713735 
1942	 0.43480227711617 
1943	 0.434999798034962 
1944	 0.435218069191791 
1945	 0.435457176965775 
1946	 0.43568052850204 
1947	 0.435909574084608 
1948	 0.436136919666845 
1949	 0.436343720767923 
1950	 0.436579978722722 
1951	 0.436826984765011 
1952	 0.437091221354161 
1953	 0.437393934745145 
1954	 0.437678655987046 
1955	 0.437959837524695 
1956	 0.43828956336819 
1957	 0.438603555485757 
1958	 0.438906377465818 
1959	 0.439232695914751 
1960	 0.439584164743644 
1961	 0.439914747977103 
1962	 0.440239763918136 
1963	 0.440581930007493 
1964	 0.440914359910415 
1965	 0.441264535994903 
1966	 0.441662753234341 
1967	 0.442043888596989 
1968	 0.442440675305322 
1969	 0.442863248520768 
1970	 0.443269689704588 
1971	 0.44367945936919 
1972	 0.444085846545861 
1973	 0.444477496378217 
1974	 0.444881284683125 
1975	 0.4452919605786 
1976	 0.445700550907476 
1977	 0.446098941299697 
1978	 0.446519649383118 
1979	 0.446941587428878 
1980	 0.447352856712066 
1981	 0.447779213504995 
1982	 0.448224760089929 
1983	 0.448662695540753 
1984	 0.449104117290077 
1985	 0.449541468426255 
1986	 0.449996376936499 
1987	 0.450416517498999 
1988	 0.450814604999157 
1989	 0.451203379881176 
1990	 0.451606914341489 
1991	 0.452010201927543 
1992	 0.452410845757204 
1993	 0.452823249881408 
1994	 0.453242400240914 
1995	 0.453649042659164 
1996	 0.454069470459552 
1997	 0.454524909467202 
1998	 0.454958319604076 
1999	 0.455381029314919 
2000	 0.455798525994037 
2001	 0.456219153755936 
2002	 0.456622897926083 
2003	 0.457007618944017 
2004	 0.457399997352262 
2005	 0.457790781147452 
2006	 0.458175959661698 
2007	 0.458560897065863 
2008	 0.458940365622416 
2009	 0.459334018797614 
2010	 0.459731641251773 
2011	 0.460132235132647 
2012	 0.460547703806682 
2013	 0.46095857995235 
2014	 0.461370522285762 
2015	 0.461777925729537 
2016	 0.462181000676355 
2017	 0.46257591471207 
2018	 0.46297605679213 
2019	 0.463374347425126 
2020	 0.463763586440362 
2021	 0.464151136472844 
2022	 0.464541228256926 
2023	 0.464936197461133 
2024	 0.465309565679662 
2025	 0.465670585582701 
2026	 0.466035455392371 
2027	 0.466390727343916 
2028	 0.466726210565244 
2029	 0.467082812844058 
2030	 0.467464712468233 
2031	 0.467812214542723 
2032	 0.468143093742247 
2033	 0.468485606089847 
2034	 0.468815647960969 
2035	 0.469153234512511 
2036	 0.469522095135073 
2037	 0.469847032984824 
2038	 0.470144638551635 
2039	 0.470447494591657 
2040	 0.470744846140356 
2041	 0.471006622604109 
2042	 0.471297317515914 
2043	 0.471581128980086 
2044	 0.471843966112745 
2045	 0.472076651611441 
2046	 0.472345378466333 
2047	 0.472613898910054 
2048	 0.472888081501929 
2049	 0.473195257765156 
2050	 0.473476386799054 
2051	 0.473733361740599 
2052	 0.474003828042862 
2053	 0.474284685997698 
2054	 0.4745521537651 
2055	 0.474825911396749 
2056	 0.475088985308708 
2057	 0.47532472002042 
2058	 0.475536798668785 
2059	 0.475748111019805 
2060	 0.47592666637348 
2061	 0.476136390116962 
2062	 0.476341689476857 
2063	 0.476573099321275 
2064	 0.476846037744928 
2065	 0.477085837245131 
2066	 0.477334460173503 
2067	 0.477564444664451 
2068	 0.477773944506815 
2069	 0.477977282564797 
2070	 0.478154995148257 
2071	 0.478314096090858 
2072	 0.478480125465021 
2073	 0.478611523452212 
2074	 0.478782409589653 
2075	 0.478976559504643 
2076	 0.479165991453655 
2077	 0.479356246253738 
2078	 0.479562968190595 
2079	 0.479785425983177 
2080	 0.480002769854216 
2081	 0.480247767112554 
2082	 0.480466260607275 
2083	 0.480657817061349 
2084	 0.480863817722574 
2085	 0.481062700573904 
2086	 0.481252212293354 
2087	 0.481439519986893 
2088	 0.481625626289094 
2089	 0.481814595185927 
2090	 0.481990593375899 
2091	 0.482183471027693 
2092	 0.482403215195313 
2093	 0.482594302778881 
2094	 0.482783502266698 
2095	 0.482958558943186 
2096	 0.483096705609235 
2097	 0.483259703047788 
2098	 0.483423089053037 
2099	 0.48360127138092 
2100	 0.483771440848587 
2101	 0.483946555366919 
2102	 0.484129575720652 
2103	 0.484309022939404 
2104	 0.484498783305526 
2105	 0.484696342495256 
2106	 0.484910944775538 
2107	 0.485119650595759 
2108	 0.485362478176026 
2109	 0.485654695549505 
2110	 0.485924376680645 
2111	 0.486212126109849 
2112	 0.486482813543931 
2113	 0.486741442608039 
2114	 0.486992074408836 
2115	 0.487239894099202 
2116	 0.487477086686137 
2117	 0.487726149349204 
2118	 0.487977756746726 
2119	 0.488222173766959 
2120	 0.48846741309569 
2121	 0.48871580738734 
2122	 0.488953885656581 
2123	 0.48920140821082 
2124	 0.489461850239535 
2125	 0.489717672477327 
2126	 0.489989863975923 
2127	 0.490234105280057 
2128	 0.490485251899164 
2129	 0.490697230468298 
2130	 0.490867434634653 
2131	 0.491037613653317 
2132	 0.491171213441736 
2133	 0.491278294525887 
2134	 0.491359712120593 
2135	 0.49142647536983 
2136	 0.491439305697571 
2137	 0.491415448828597 
2138	 0.49135676640143 
2139	 0.49123015300441 
2140	 0.491119715925617 
2141	 0.490980971300655 
2142	 0.490848823071909 
2143	 0.490713731969047 
2144	 0.49057680049664 
2145	 0.490447493381655 
2146	 0.490295841992217 
2147	 0.490130998553288 
2148	 0.48996542695244 
2149	 0.489780703631385 
2150	 0.489585193061694 
2151	 0.4893549883758 
2152	 0.489110485294074 
2153	 0.488837193341124 
2154	 0.488521464117346 
2155	 0.488205586914953 
2156	 0.487878494360587 
2157	 0.487531083008905 
2158	 0.487153160886263 
2159	 0.486782300115645 
2160	 0.486403086044617 
2161	 0.486016739882465 
2162	 0.485615536297355 
2163	 0.485229986308451 
2164	 0.48486864163168 
2165	 0.484463018455622 
2166	 0.484058053921995 
2167	 0.483657488698551 
2168	 0.48324692969073 
2169	 0.482808370087997 
2170	 0.482384498265121 
2171	 0.481972546809556 
2172	 0.481549556607869 
2173	 0.48111548654523 
2174	 0.480684185827466 
2175	 0.480253473829379 
2176	 0.479822437949303 
2177	 0.479387341111621 
2178	 0.478951198494037 
2179	 0.478505529791289 
2180	 0.478078840661558 
2181	 0.477655436830958 
2182	 0.477241970064172 
2183	 0.476858840288076 
2184	 0.476460778353068 
2185	 0.476054005870336 
2186	 0.475638586742519 
2187	 0.475229152389311 
2188	 0.474799996785869 
2189	 0.47440380257827 
2190	 0.474014042807831 
2191	 0.473655247942306 
2192	 0.473307223378174 
2193	 0.473001712332932 
2194	 0.472748460017016 
2195	 0.472481465038064 
2196	 0.472240425644144 
2197	 0.471999527362465 
2198	 0.471750486581499 
2199	 0.47151884378799 
2200	 0.471317782968515 
2201	 0.471103297138903 
2202	 0.470879686138957 
2203	 0.470666743504094 
2204	 0.470475807721727 
2205	 0.470276074001411 
2206	 0.470130734446215 
2207	 0.47001820041193 
2208	 0.469938531582822 
2209	 0.469890677436099 
2210	 0.469876702543259 
2211	 0.469911086288464 
2212	 0.469948136408478 
2213	 0.470031508417659 
2214	 0.470085781983645 
2215	 0.470162414892839 
2216	 0.470199383575839 
2217	 0.470223742220197 
2218	 0.470215739595665 
2219	 0.47016797578906 
2220	 0.470110333478255 
2221	 0.470020369745559 
2222	 0.46993576287326 
2223	 0.469815646818313 
2224	 0.46970247904254 
2225	 0.469581395477158 
2226	 0.469448750945004 
2227	 0.469310319856034 
2228	 0.46918135403934 
2229	 0.469010553272892 
2230	 0.468813213229915 
2231	 0.468600190506773 
2232	 0.468341990289779 
2233	 0.468124545280701 
2234	 0.467917220189856 
2235	 0.467694355229316 
2236	 0.467483346485414 
2237	 0.467261340823453 
2238	 0.46700245634669 
2239	 0.466775077853409 
2240	 0.466586073812141 
2241	 0.466365150035815 
2242	 0.466103954175849 
2243	 0.465895463422974 
2244	 0.46570337173943 
2245	 0.465511476680401 
2246	 0.465345145791241 
2247	 0.465212772715953 
2248	 0.465079428870872 
2249	 0.464934018058263 
2250	 0.464826016959184 
2251	 0.464758770214711 
2252	 0.464679599408654 
2253	 0.464603356020848 
2254	 0.464537534809951 
2255	 0.464484122026427 
2256	 0.464432808315541 
2257	 0.464401321675717 
2258	 0.464346362758747 
2259	 0.46426002699942 
2260	 0.464219274941298 
2261	 0.464186364178302 
2262	 0.464169593079119 
2263	 0.464193366102775 
2264	 0.464214630349776 
2265	 0.464241948371659 
2266	 0.464263726419122 
2267	 0.464310392092071 
2268	 0.464333876898439 
2269	 0.464346669517604 
2270	 0.464333712249812 
2271	 0.464349924755761 
2272	 0.464331436627426 
2273	 0.464267813857017 
2274	 0.46427477596189 
2275	 0.464283710539054 
2276	 0.464272625589946 
2277	 0.464327790304755 
2278	 0.464449873682524 
2279	 0.464541896007718 
2280	 0.464650150625038 
2281	 0.464756696966679 
2282	 0.464854800465095 
2283	 0.464978500293817 
2284	 0.465127258416266 
2285	 0.465269124969408 
2286	 0.465443443138764 
2287	 0.465573356412821 
2288	 0.465671685970472 
2289	 0.465776167282303 
2290	 0.465834530237981 
2291	 0.465944267524548 
2292	 0.466072144626159 
2293	 0.466231657950171 
2294	 0.46644714011038 
2295	 0.466641155210049 
2296	 0.466870957740672 
2297	 0.467048978318538 
2298	 0.467195570928467 
2299	 0.467395051874112 
2300	 0.46758881719615 
2301	 0.467817404342573 
2302	 0.468032411093369 
2303	 0.468191462284923 
2304	 0.468330031624079 
2305	 0.468423227284399 
2306	 0.468535155031742 
2307	 0.468643113317654 
2308	 0.468748549128913 
2309	 0.468830196271343 
2310	 0.468959510315509 
2311	 0.469116308846955 
2312	 0.469249922008033 
2313	 0.469423848396832 
2314	 0.469543682098119 
2315	 0.469599381795262 
2316	 0.469705143180625 
2317	 0.469815726642775 
2318	 0.469931014490013 
2319	 0.47007747965957 
2320	 0.470194647185045 
2321	 0.470283565957111 
2322	 0.470399112799851 
2323	 0.47051823297612 
2324	 0.470638151219194 
2325	 0.470784604164177 
2326	 0.470914360668399 
2327	 0.471022267268869 
2328	 0.471149805592201 
2329	 0.471289460534218 
2330	 0.471384181229325 
2331	 0.471533348502803 
2332	 0.471748104759906 
2333	 0.471967870439784 
2334	 0.472205528069479 
2335	 0.472341653267398 
2336	 0.472403041991859 
2337	 0.472467901310929 
2338	 0.472492342228076 
2339	 0.472564489697765 
2340	 0.47263938644719 
2341	 0.472641330482922 
2342	 0.472643360390582 
2343	 0.47264470548238 
2344	 0.472617986865453 
2345	 0.472562947643391 
2346	 0.472491157158357 
2347	 0.472402623867385 
2348	 0.472290645221282 
2349	 0.472146550065171 
2350	 0.471976685799251 
2351	 0.471806247979059 
2352	 0.471604551733253 
2353	 0.471384210425999 
2354	 0.471136762683423 
2355	 0.470927164553767 
2356	 0.470678066616579 
2357	 0.470499530732804 
2358	 0.470400808932961 
2359	 0.47027417742612 
2360	 0.47019811353859 
2361	 0.470043001250417 
2362	 0.469822375823356 
2363	 0.469675681126818 
2364	 0.469527658131539 
2365	 0.469367863609787 
2366	 0.46924397389661 
2367	 0.469098831035397 
2368	 0.468926960621066 
2369	 0.468722538911825 
2370	 0.46851354067468 
2371	 0.468331557095739 
2372	 0.468010354834528 
2373	 0.467767949961879 
2374	 0.467429136660326 
2375	 0.466978959238388 
2376	 0.466622245931171 
2377	 0.466321771192481 
2378	 0.466076681559933 
2379	 0.465861737474163 
2380	 0.465615046266152 
2381	 0.465314667806955 
2382	 0.465011445884651 
2383	 0.464738676997333 
2384	 0.464466184726675 
2385	 0.464058253938942 
2386	 0.46370799919228 
2387	 0.463457797051778 
2388	 0.463054130133468 
2389	 0.462737755241421 
2390	 0.462439445734682 
2391	 0.46204251734602 
2392	 0.461739542427243 
2393	 0.461429510251035 
2394	 0.461018040040495 
2395	 0.460624186528232 
2396	 0.460308911099225 
2397	 0.4599070702767 
2398	 0.459443778050927 
2399	 0.45901366590123 
2400	 0.458610972676829 
2401	 0.458327927884787 
2402	 0.458172244159783 
2403	 0.457912867597519 
2404	 0.457449666317624 
2405	 0.457014421359909 
2406	 0.456562091589617 
2407	 0.456099227893541 
2408	 0.455726581681899 
2409	 0.455379168741857 
2410	 0.455109159623469 
2411	 0.454798410489984 
2412	 0.454471944886643 
2413	 0.454133959536746 
2414	 0.453594457568103 
2415	 0.453071980571553 
2416	 0.45264246315047 
2417	 0.452209295407915 
2418	 0.451849055425463 
2419	 0.451673123241625 
2420	 0.451395127569682 
2421	 0.451139768511378 
2422	 0.450836446213018 
2423	 0.450427604706588 
2424	 0.45000318511467 
2425	 0.449562466752977 
2426	 0.449178998363262 
2427	 0.448808621607944 
2428	 0.448469245000775 
2429	 0.448160287763308 
2430	 0.447771009150477 
2431	 0.44734280820978 
2432	 0.446973099626352 
2433	 0.446609285818521 
2434	 0.446262611115473 
2435	 0.445928257966648 
2436	 0.445676334786689 
2437	 0.445501090019986 
2438	 0.445265842743872 
2439	 0.445095838649454 
2440	 0.444853400469624 
2441	 0.444471048933514 
2442	 0.444151193975865 
2443	 0.44392118312154 
2444	 0.443599104670977 
2445	 0.443178836710323 
2446	 0.442871772347648 
2447	 0.442604484281914 
2448	 0.442219635179375 
2449	 0.441879548810906 
2450	 0.441472445214875 
2451	 0.440928693240853 
2452	 0.440453905315104 
2453	 0.439910867750236 
2454	 0.439579290454556 
2455	 0.439411082633224 
2456	 0.439108269000581 
2457	 0.438956946398987 
2458	 0.438631447729727 
2459	 0.438008124751691 
2460	 0.43763258199925 
2461	 0.437295568106303 
2462	 0.437015925647594 
2463	 0.436975888695272 
2464	 0.436739700755568 
2465	 0.436451340167439 
2466	 0.436168010181204 
2467	 0.435774148501421 
2468	 0.435406165473903 
2469	 0.435075898893968 
2470	 0.434672498459691 
2471	 0.434274335837405 
2472	 0.433898236118614 
2473	 0.433600718240732 
2474	 0.433519010859286 
2475	 0.433316480192728 
2476	 0.433160291972223 
2477	 0.433006390819194 
2478	 0.432480172403536 
2479	 0.432173182921156 
2480	 0.431858178193512 
2481	 0.43127430966075 
2482	 0.431029210705994 
2483	 0.430576373475329 
2484	 0.430062005370641 
2485	 0.429929618522984 
2486	 0.429694782562391 
2487	 0.429499945794996 
2488	 0.429196797023063 
2489	 0.428780612242142 
2490	 0.428469912202894 
2491	 0.42817960773466 
2492	 0.428001722514445 
2493	 0.427697012926489 
2494	 0.42738425834727 
2495	 0.427156685835409 
2496	 0.426834287325721 
2497	 0.426863848598013 
2498	 0.42675251111272 
2499	 0.426262040520036 
2500	 0.426083113462853 
