Wavelength	MM700007.asd
350	 6.56975673511565E-02 
351	 6.80782343742787E-02 
352	 6.38775488020115E-02 
353	 6.07884100092688E-02 
354	 0.06093849907042 
355	 6.20293270033258E-02 
356	 6.31227808927613E-02 
357	 0.063792588930928 
358	 6.39398852119515E-02 
359	 0.062472818096747 
360	 6.11239107553807E-02 
361	 6.26373098196587E-02 
362	 5.95659624742153E-02 
363	 5.96264396547759E-02 
364	 6.42915827113991E-02 
365	 6.29217257534776E-02 
366	 6.06846899304878E-02 
367	 0.059729645942046 
368	 0.060937752604146 
369	 6.41393482548313E-02 
370	 6.31131219233851E-02 
371	 6.02803087039184E-02 
372	 6.30121005308205E-02 
373	 6.33036307931623E-02 
374	 6.21178126446059E-02 
375	 6.17679631277502E-02 
376	 6.49753120483951E-02 
377	 6.52227440949722E-02 
378	 6.58116016281647E-02 
379	 6.99815274313251E-02 
380	 6.78262227634006E-02 
381	 6.38470622175918E-02 
382	 0.062888923894293 
383	 6.84951024639878E-02 
384	 7.04478360365797E-02 
385	 6.80863174406476E-02 
386	 6.47471924351832E-02 
387	 6.85259049371673E-02 
388	 6.91544554140408E-02 
389	 6.81208219270278E-02 
390	 6.93790335225937E-02 
391	 6.91747085902657E-02 
392	 0.06912174424373 
393	 7.03845629812752E-02 
394	 7.32349353427974E-02 
395	 7.26261636362862E-02 
396	 0.072477628632328 
397	 7.47632663383429E-02 
398	 7.40073730851042E-02 
399	 7.35997618755048E-02 
400	 7.45696701946519E-02 
401	 7.65732105062676E-02 
402	 7.69579941994618E-02 
403	 7.64405740041111E-02 
404	 7.62001835046592E-02 
405	 7.75047129382458E-02 
406	 7.79801024298818E-02 
407	 7.86827735856674E-02 
408	 7.99879766965907E-02 
409	 7.85216295739377E-02 
410	 7.83065554818454E-02 
411	 7.92329070599061E-02 
412	 7.94732715776054E-02 
413	 8.03481329287069E-02 
414	 8.04517922149144E-02 
415	 7.99260997536521E-02 
416	 8.11216588194793E-02 
417	 0.081779496156446 
418	 8.21957955241896E-02 
419	 8.28893323694247E-02 
420	 8.29134960355376E-02 
421	 8.28142324891454E-02 
422	 8.29016512495319E-02 
423	 8.32452857670977E-02 
424	 0.083301254755684 
425	 8.30202360296192E-02 
426	 8.27702150887994E-02 
427	 8.36645407680199E-02 
428	 8.35540814758173E-02 
429	 8.30149248297413E-02 
430	 8.31520449653399E-02 
431	 8.29006883547557E-02 
432	 8.26106475063702E-02 
433	 8.25181342706426E-02 
434	 8.26714968504332E-02 
435	 8.28837402306353E-02 
436	 8.30360771909935E-02 
437	 8.30919969348305E-02 
438	 0.083194510619455 
439	 0.083050458887925 
440	 0.082854477724121 
441	 0.083004754955293 
442	 8.34139366118389E-02 
443	 8.37344782550113E-02 
444	 8.38465191684532E-02 
445	 8.39917346736895E-02 
446	 8.42207957862249E-02 
447	 8.44111973582259E-02 
448	 0.084528264213899 
449	 8.51759974116351E-02 
450	 8.57284879178716E-02 
451	 8.60060962571579E-02 
452	 8.62467878929164E-02 
453	 8.65615558705929E-02 
454	 8.67441108494531E-02 
455	 8.67188774906118E-02 
456	 0.086848369631949 
457	 8.71622984338437E-02 
458	 8.75108122678046E-02 
459	 8.77007123688763E-02 
460	 0.088026000029363 
461	 8.80837531565187E-02 
462	 8.79239856436036E-02 
463	 8.83065964263701E-02 
464	 8.85069618661791E-02 
465	 8.86469379785242E-02 
466	 8.89578981501948E-02 
467	 8.91527930451867E-02 
468	 8.92416456864739E-02 
469	 0.089221630467989 
470	 8.90974862902606E-02 
471	 8.92242929326824E-02 
472	 8.93250665619827E-02 
473	 8.92749249532543E-02 
474	 8.96111154924435E-02 
475	 8.96550638097512E-02 
476	 8.95916107649447E-02 
477	 8.98860666529464E-02 
478	 9.00549671390849E-02 
479	 9.00786275293083E-02 
480	 9.00988112393267E-02 
481	 9.04242035267281E-02 
482	 9.05355225706456E-02 
483	 9.05726995741049E-02 
484	 9.07533484233791E-02 
485	 9.08323122750923E-02 
486	 9.07473860904888E-02 
487	 9.06277376825639E-02 
488	 9.07378538340344E-02 
489	 9.09200754378463E-02 
490	 9.10616611082323E-02 
491	 9.11173271529931E-02 
492	 9.11882442674121E-02 
493	 9.11699560288777E-02 
494	 9.11705820538532E-02 
495	 9.13485301038048E-02 
496	 9.14356374799282E-02 
497	 9.14724530651779E-02 
498	 9.15268618895075E-02 
499	 9.16595277679795E-02 
500	 9.18443983639498E-02 
501	 9.19250011622783E-02 
502	 9.18151986505032E-02 
503	 9.18833658981792E-02 
504	 9.20192459826256E-02 
505	 9.21159712392095E-02 
506	 9.20991849678178E-02 
507	 9.21725378844312E-02 
508	 9.23905309276601E-02 
509	 9.26523681862058E-02 
510	 9.25163179176223E-02 
511	 0.092449620639958 
512	 9.25410792938389E-02 
513	 9.26582427793744E-02 
514	 9.26494562022406E-02 
515	 9.27273809815837E-02 
516	 9.29293207983366E-02 
517	 9.29263059157271E-02 
518	 9.28797810301946E-02 
519	 9.28607182500436E-02 
520	 9.29055911282455E-02 
521	 9.29976028634989E-02 
522	 9.31764843361817E-02 
523	 9.33392795013571E-02 
524	 9.32435670142888E-02 
525	 0.093354458676224 
526	 0.093526309930764 
527	 9.35702943881352E-02 
528	 9.36237997145414E-02 
529	 9.36433331785159E-02 
530	 9.36777130855751E-02 
531	 9.38187811357871E-02 
532	 9.39140575205109E-02 
533	 9.39990390927714E-02 
534	 9.41055495544337E-02 
535	 9.42035950821326E-02 
536	 9.42585029216569E-02 
537	 9.43099237265355E-02 
538	 9.44164261487357E-02 
539	 9.45382042292882E-02 
540	 9.46349849731198E-02 
541	 9.47097538448603E-02 
542	 9.48190110254607E-02 
543	 9.50169703421611E-02 
544	 9.52100577454575E-02 
545	 9.53035757789512E-02 
546	 9.53664805097846E-02 
547	 9.54832531821138E-02 
548	 9.56534241079697E-02 
549	 9.58044618680639E-02 
550	 9.59124638744282E-02 
551	 9.60755607843309E-02 
552	 9.63376208993666E-02 
553	 9.65562094493993E-02 
554	 9.66938198776355E-02 
555	 9.68111711924797E-02 
556	 9.70156406925119E-02 
557	 9.72747336917987E-02 
558	 9.75478161050231E-02 
559	 9.78154950496647E-02 
560	 9.80987971345915E-02 
561	 9.83675934619909E-02 
562	 9.86604467558765E-02 
563	 9.90320876623528E-02 
564	 9.94901644398782E-02 
565	 9.99510693101838E-02 
566	 0.100380711286866 
567	 0.100807418454301 
568	 0.101321535714762 
569	 0.101826476851881 
570	 0.102255499474018 
571	 0.102810732968784 
572	 0.103342337744971 
573	 0.103807169791609 
574	 0.104248700413511 
575	 0.104735198155355 
576	 0.105347862977237 
577	 0.106078555291877 
578	 0.106730706669826 
579	 0.107401940333036 
580	 0.108064734783215 
581	 0.108665901420547 
582	 0.109319619126653 
583	 0.110057406504272 
584	 0.110879680013423 
585	 0.11175596595433 
586	 0.112782883059575 
587	 0.11381038258152 
588	 0.114691612952815 
589	 0.115618105834826 
590	 0.116633247455518 
591	 0.117680705981271 
592	 0.118625835054041 
593	 0.119501219613093 
594	 0.120304685700588 
595	 0.121045906738735 
596	 0.121761341385304 
597	 0.122565953958889 
598	 0.1234484834673 
599	 0.124336165578546 
600	 0.125284856483125 
601	 0.126269645914359 
602	 0.127236485734009 
603	 0.128096038960399 
604	 0.128921538781977 
605	 0.129780470023675 
606	 0.130699331564939 
607	 0.131494590580423 
608	 0.132239221635638 
609	 0.133004630967352 
610	 0.133840798971369 
611	 0.134648051729122 
612	 0.135383507729655 
613	 0.136036248100652 
614	 0.136652575182357 
615	 0.137229343456275 
616	 0.137798485024277 
617	 0.138401953809859 
618	 0.138920090932555 
619	 0.139395342734163 
620	 0.13986838746937 
621	 0.140314069140451 
622	 0.14076967040506 
623	 0.141223002626504 
624	 0.141646354309277 
625	 0.142059135107922 
626	 0.142453184547832 
627	 0.142829859433942 
628	 0.143205696646886 
629	 0.143551265635159 
630	 0.143898607389422 
631	 0.144267689346942 
632	 0.14455666436422 
633	 0.144868925720399 
634	 0.145228376201157 
635	 0.145586444646907 
636	 0.145887608889603 
637	 0.146176282563374 
638	 0.146483752511004 
639	 0.146756218764158 
640	 0.14708750464781 
641	 0.147438201731277 
642	 0.147721292457904 
643	 0.148010841264624 
644	 0.148321190793123 
645	 0.148645384479418 
646	 0.14895380739952 
647	 0.149259017439429 
648	 0.149565021549674 
649	 0.149878326730842 
650	 0.150220402573468 
651	 0.150595618032652 
652	 0.150971137536957 
653	 0.151291078994591 
654	 0.15166047582696 
655	 0.152026855181497 
656	 0.152361793299069 
657	 0.152772859944252 
658	 0.153174601066444 
659	 0.153540148481913 
660	 0.15388375822844 
661	 0.154305291465294 
662	 0.154758778226945 
663	 0.155210774103546 
664	 0.155670535862375 
665	 0.156052464070812 
666	 0.156445402931039 
667	 0.15693864882058 
668	 0.157394255984923 
669	 0.15787945413401 
670	 0.15839511262008 
671	 0.158883611973055 
672	 0.159348042424119 
673	 0.159845007590511 
674	 0.160398882891244 
675	 0.160936104360678 
676	 0.161486978702856 
677	 0.162054923740906 
678	 0.16262538290453 
679	 0.16313211343378 
680	 0.16369549415954 
681	 0.164347504152816 
682	 0.16498701413138 
683	 0.165581029881325 
684	 0.166159835497816 
685	 0.166773454585409 
686	 0.167466268547728 
687	 0.168159969899325 
688	 0.16883798406955 
689	 0.169529150246137 
690	 0.170220980971152 
691	 0.170905159788315 
692	 0.171591353955179 
693	 0.172324941001779 
694	 0.173077676764651 
695	 0.17382334608372 
696	 0.174546333838961 
697	 0.175280991527403 
698	 0.176071094371724 
699	 0.176876729066677 
700	 0.177577221971291 
701	 0.178353231750333 
702	 0.179157856279162 
703	 0.179933134593855 
704	 0.180738817076896 
705	 0.181539486572201 
706	 0.182318217305025 
707	 0.183075935989493 
708	 0.183875899932828 
709	 0.184691612200821 
710	 0.185488204478931 
711	 0.186235479356495 
712	 0.187011069937516 
713	 0.187824967449574 
714	 0.188639483352819 
715	 0.189310764437281 
716	 0.190006793821017 
717	 0.190768619792658 
718	 0.191534384620992 
719	 0.192284049844506 
720	 0.192981117050729 
721	 0.193627938278456 
722	 0.194300340406663 
723	 0.194998843138551 
724	 0.195640759219681 
725	 0.196156858319652 
726	 0.196690649244818 
727	 0.197276343924109 
728	 0.197877410209236 
729	 0.198401882125973 
730	 0.198918161950556 
731	 0.199367585246168 
732	 0.199741154640474 
733	 0.200207318156849 
734	 0.200597374242492 
735	 0.200922535481333 
736	 0.201254698115842 
737	 0.201541380288288 
738	 0.201820780146734 
739	 0.202082189669477 
740	 0.202256832964249 
741	 0.202354465996526 
742	 0.202434802849862 
743	 0.202539500315599 
744	 0.202641450524114 
745	 0.202650764153371 
746	 0.202620512104939 
747	 0.202647803953655 
748	 0.202600950949606 
749	 0.202493789845423 
750	 0.202338194824649 
751	 0.202128922457141 
752	 0.201978126806517 
753	 0.201791954940566 
754	 0.201506493992452 
755	 0.201298356345066 
756	 0.201035065368254 
757	 0.200702952309189 
758	 0.200350944510164 
759	 0.199992085656947 
760	 0.19961473907594 
761	 0.199226245647887 
762	 0.198859509190802 
763	 0.198382796206409 
764	 0.197903608491703 
765	 0.197506013489012 
766	 0.197031642263114 
767	 0.196560343155355 
768	 0.19608030179355 
769	 0.195553893781135 
770	 0.195109509738981 
771	 0.194628265362084 
772	 0.19406628731863 
773	 0.193496054595967 
774	 0.192971580443822 
775	 0.192452793749434 
776	 0.191907642138862 
777	 0.191399984791759 
778	 0.19082853607936 
779	 0.190237004686227 
780	 0.189710928987157 
781	 0.189140896415504 
782	 0.188561950833853 
783	 0.187998102922928 
784	 0.187451148946817 
785	 0.186916863067489 
786	 0.18635410948144 
787	 0.185759740234038 
788	 0.185235568563347 
789	 0.184714096666933 
790	 0.184195651976908 
791	 0.183693057844745 
792	 0.183160783111843 
793	 0.182577138873105 
794	 0.18199553405379 
795	 0.181521639576937 
796	 0.181077962129154 
797	 0.180601934346192 
798	 0.180075210790004 
799	 0.179549910207464 
800	 0.179063297958581 
801	 0.178584216616708 
802	 0.178087592189447 
803	 0.177671098250487 
804	 0.177233692174718 
805	 0.176761161896822 
806	 0.176299237960603 
807	 0.175860626418837 
808	 0.175439355631518 
809	 0.175025672572366 
810	 0.174608607338748 
811	 0.174217541454684 
812	 0.173804372363135 
813	 0.17335714338249 
814	 0.173012077760777 
815	 0.17264528730174 
816	 0.172268268887906 
817	 0.171931164652735 
818	 0.171568784657268 
819	 0.171205643430879 
820	 0.170854083493027 
821	 0.170512717056916 
822	 0.170193285424632 
823	 0.169881781271801 
824	 0.169577199418565 
825	 0.169305934554741 
826	 0.169047144883123 
827	 0.1688011640158 
828	 0.168561024434371 
829	 0.168275535336723 
830	 0.167990001953074 
831	 0.167748237584731 
832	 0.167564897012432 
833	 0.167304506393191 
834	 0.167030048123153 
835	 0.166788602538406 
836	 0.166590413118227 
837	 0.166356027268408 
838	 0.166153322761275 
839	 0.166022433178419 
840	 0.165917782690798 
841	 0.165737598089262 
842	 0.165510987976426 
843	 0.165311168288278 
844	 0.165215747478919 
845	 0.16511536814568 
846	 0.164986509986617 
847	 0.164855140040843 
848	 0.164762161374508 
849	 0.1646583834994 
850	 0.164546216307688 
851	 0.164471027709368 
852	 0.164394654364425 
853	 0.16429534079522 
854	 0.16418831266633 
855	 0.164135595385605 
856	 0.164102101485745 
857	 0.164079416233391 
858	 0.164057572454673 
859	 0.164004848261366 
860	 0.163976709063218 
861	 0.163975864388299 
862	 0.163984242523815 
863	 0.163986471213929 
864	 0.164027762273486 
865	 0.164066936020519 
866	 0.164033800209522 
867	 0.1640600938984 
868	 0.164063103120298 
869	 0.164063171850216 
870	 0.164185200037893 
871	 0.164249661282302 
872	 0.164310118490587 
873	 0.164415092241336 
874	 0.164540770902419 
875	 0.164638510653789 
876	 0.16469932796592 
877	 0.16474197969234 
878	 0.164815712045092 
879	 0.164954239443006 
880	 0.165122858034067 
881	 0.165274065905038 
882	 0.16542931210559 
883	 0.165605358012837 
884	 0.165771037510879 
885	 0.16589518718932 
886	 0.166121019840763 
887	 0.166307814875548 
888	 0.166459726936278 
889	 0.166701140426365 
890	 0.16689004675205 
891	 0.167068988365002 
892	 0.167286013274552 
893	 0.167560437847538 
894	 0.167852746670172 
895	 0.168100816892455 
896	 0.168309225804275 
897	 0.168603120895803 
898	 0.168879986611716 
899	 0.169166051252711 
900	 0.169486185491656 
901	 0.169771398470931 
902	 0.170061838515779 
903	 0.17035780135108 
904	 0.170655590734844 
905	 0.17098002819607 
906	 0.171361936923302 
907	 0.171748604881169 
908	 0.172088720475963 
909	 0.172560031134332 
910	 0.172977282871576 
911	 0.173301447280068 
912	 0.173623264951546 
913	 0.174090465831143 
914	 0.174537808456924 
915	 0.174899182380002 
916	 0.175248057803432 
917	 0.175805931698216 
918	 0.176374737081096 
919	 0.176867506103225 
920	 0.177383342273257 
921	 0.177824100555269 
922	 0.178287181144877 
923	 0.178828446262864 
924	 0.179394782578912 
925	 0.179896241857382 
926	 0.180394569364424 
927	 0.1809349030504 
928	 0.181463562068243 
929	 0.182057619332126 
930	 0.182675401485748 
931	 0.183275785865559 
932	 0.183890807258623 
933	 0.184581000829928 
934	 0.18526298849186 
935	 0.185872584150044 
936	 0.186536260404461 
937	 0.187084116290651 
938	 0.187674454124569 
939	 0.188462810137584 
940	 0.189210235657617 
941	 0.189960182791686 
942	 0.190735545276919 
943	 0.191523358621504 
944	 0.192187482043261 
945	 0.192915942798635 
946	 0.193732567990594 
947	 0.19456490233309 
948	 0.195324883299552 
949	 0.196098516022315 
950	 0.196901010592788 
951	 0.19772264238325 
952	 0.198640231987907 
953	 0.19956358076405 
954	 0.200423154572294 
955	 0.201206381196514 
956	 0.20205940698101 
957	 0.203005032172678 
958	 0.203936797184078 
959	 0.204738283644829 
960	 0.205659553487343 
961	 0.206658229262649 
962	 0.207673527834122 
963	 0.208651570253084 
964	 0.209584082718664 
965	 0.210575491508603 
966	 0.211604214103435 
967	 0.212584734775786 
968	 0.213600517833426 
969	 0.214745943215533 
970	 0.215935084985002 
971	 0.216983231087957 
972	 0.217910172174137 
973	 0.218937662909929 
974	 0.220038522977798 
975	 0.221059871679578 
976	 0.222253396800892 
977	 0.223402628188287 
978	 0.224465473603616 
979	 0.225544842553411 
980	 0.22671226484995 
981	 0.227889955658749 
982	 0.229086875100401 
983	 0.230343393685073 
984	 0.231539499637963 
985	 0.232638370972874 
986	 0.23374195102472 
987	 0.234964037966498 
988	 0.236097635852002 
989	 0.237221141472008 
990	 0.238386329908663 
991	 0.239630566908408 
992	 0.241055114112168 
993	 0.242227239366655 
994	 0.243320140922893 
995	 0.244636053891668 
996	 0.24574368061833 
997	 0.246896321911127 
998	 0.248136363825351 
999	 0.249421724856695 
1000	 0.250766481744715 
1001	 0.255870428877438 
1002	 0.257054640469317 
1003	 0.258230727260667 
1004	 0.259427326223031 
1005	 0.260660441074909 
1006	 0.261812379490326 
1007	 0.262930354994115 
1008	 0.264071421900841 
1009	 0.265181340912829 
1010	 0.266321087351654 
1011	 0.267522648303708 
1012	 0.268703873343905 
1013	 0.269787646974783 
1014	 0.270853398087686 
1015	 0.271917327308603 
1016	 0.272972662034119 
1017	 0.274046771233218 
1018	 0.275148450987743 
1019	 0.27622652303648 
1020	 0.277328791714361 
1021	 0.278433629367804 
1022	 0.279499788573073 
1023	 0.280604353346187 
1024	 0.281604478306641 
1025	 0.282557853705529 
1026	 0.283575183725916 
1027	 0.28456080430061 
1028	 0.28556071324324 
1029	 0.286609843931569 
1030	 0.287715453277078 
1031	 0.288767911530544 
1032	 0.289812105293844 
1033	 0.290855515243579 
1034	 0.291903375716322 
1035	 0.292848543452296 
1036	 0.293798391723082 
1037	 0.29477223776284 
1038	 0.29577441653958 
1039	 0.296795121124165 
1040	 0.297775646981103 
1041	 0.2987963693939 
1042	 0.299808820687391 
1043	 0.300781051455429 
1044	 0.301765116475756 
1045	 0.302778276894184 
1046	 0.303789140195275 
1047	 0.304756886214916 
1048	 0.30569741188846 
1049	 0.306680710634005 
1050	 0.307691713405847 
1051	 0.308646705785049 
1052	 0.309590228334977 
1053	 0.310575388480457 
1054	 0.311518148292518 
1055	 0.312448973769034 
1056	 0.313441722719267 
1057	 0.314374025283529 
1058	 0.31522843695213 
1059	 0.316119919482284 
1060	 0.317022590069763 
1061	 0.317900034693519 
1062	 0.318752499175408 
1063	 0.319596152459464 
1064	 0.320433732076049 
1065	 0.321245240933937 
1066	 0.322045804262166 
1067	 0.322891480930953 
1068	 0.323723364774049 
1069	 0.324501154769272 
1070	 0.325281461966205 
1071	 0.326067442118868 
1072	 0.326817194190144 
1073	 0.327518278627653 
1074	 0.328254017123916 
1075	 0.328996405965079 
1076	 0.329697894194251 
1077	 0.330423776143996 
1078	 0.331138209413926 
1079	 0.331800694443718 
1080	 0.332493932732171 
1081	 0.33321482218966 
1082	 0.333919280265351 
1083	 0.334632580990353 
1084	 0.335376849447321 
1085	 0.336084302544097 
1086	 0.336738868647452 
1087	 0.337454021197016 
1088	 0.338184008842041 
1089	 0.33890989342325 
1090	 0.339679680890991 
1091	 0.340505220963441 
1092	 0.341275501123725 
1093	 0.342020121485016 
1094	 0.342771992379112 
1095	 0.343484569653358 
1096	 0.344260514977242 
1097	 0.345094690066373 
1098	 0.345903291852124 
1099	 0.34673700568147 
1100	 0.347566422319859 
1101	 0.348346421229264 
1102	 0.349193793979688 
1103	 0.350087575065703 
1104	 0.35098071967863 
1105	 0.351887706640216 
1106	 0.352855075684563 
1107	 0.35379953957198 
1108	 0.354755594706373 
1109	 0.355724816820188 
1110	 0.356681402258271 
1111	 0.357677946137798 
1112	 0.35869572327641 
1113	 0.359720556403833 
1114	 0.360755774718408 
1115	 0.361827342300715 
1116	 0.362938218364729 
1117	 0.364034649588678 
1118	 0.365153244414289 
1119	 0.366270639848086 
1120	 0.367371149725963 
1121	 0.368436796269946 
1122	 0.369534247800024 
1123	 0.370686288449404 
1124	 0.371819219652595 
1125	 0.372962134762204 
1126	 0.374106285553183 
1127	 0.375249362955099 
1128	 0.376389573083658 
1129	 0.377545974629079 
1130	 0.378685662064746 
1131	 0.379800202750718 
1132	 0.380942716984407 
1133	 0.382096653683737 
1134	 0.383242440794402 
1135	 0.384401705243552 
1136	 0.385546515944588 
1137	 0.386704867189934 
1138	 0.387833974031723 
1139	 0.388967523464563 
1140	 0.390118325918736 
1141	 0.391239173207341 
1142	 0.392340871171208 
1143	 0.393434905484467 
1144	 0.394504663495051 
1145	 0.395581018641885 
1146	 0.396660615499244 
1147	 0.397721917891895 
1148	 0.398773227310335 
1149	 0.399827929242702 
1150	 0.400884673598147 
1151	 0.401923631942573 
1152	 0.402913138939987 
1153	 0.403896613649801 
1154	 0.404893042653222 
1155	 0.405861242761189 
1156	 0.406837049984763 
1157	 0.407848265775922 
1158	 0.408819979870645 
1159	 0.409761880245977 
1160	 0.410700052131287 
1161	 0.411639980667302 
1162	 0.412562355058141 
1163	 0.413465605106507 
1164	 0.414360044839669 
1165	 0.415245707013666 
1166	 0.416124198621444 
1167	 0.416987981655709 
1168	 0.41784489665373 
1169	 0.418683104916723 
1170	 0.419496017337706 
1171	 0.420331220260547 
1172	 0.421173322889713 
1173	 0.421990979080111 
1174	 0.422827551210762 
1175	 0.423622536635087 
1176	 0.424367306102902 
1177	 0.425134071591305 
1178	 0.425892139058832 
1179	 0.426653055166902 
1180	 0.427431338132284 
1181	 0.428186730246424 
1182	 0.428923733304648 
1183	 0.429679150558089 
1184	 0.430392653550509 
1185	 0.431094091473621 
1186	 0.431764000228557 
1187	 0.432386872982212 
1188	 0.433044308320732 
1189	 0.433711435116923 
1190	 0.434339975117369 
1191	 0.434960683813319 
1192	 0.435581814405806 
1193	 0.436170207633647 
1194	 0.436765568273283 
1195	 0.437371395977462 
1196	 0.437977946084537 
1197	 0.438574119666667 
1198	 0.439168571346221 
1199	 0.439765316400746 
1200	 0.440388928887835 
1201	 0.440960530357801 
1202	 0.441509549237001 
1203	 0.442049308691854 
1204	 0.442549875818226 
1205	 0.443084313524275 
1206	 0.443646238683596 
1207	 0.444159261968935 
1208	 0.444673382474083 
1209	 0.445158576003736 
1210	 0.445583071617956 
1211	 0.446033706344847 
1212	 0.446488693897001 
1213	 0.446938861800045 
1214	 0.447381944491561 
1215	 0.447834321372252 
1216	 0.448289822878379 
1217	 0.448751961915556 
1218	 0.449196937859406 
1219	 0.449652979159442 
1220	 0.450076840198875 
1221	 0.450467975591539 
1222	 0.450877410362048 
1223	 0.451275835200152 
1224	 0.451686040431795 
1225	 0.45211748889935 
1226	 0.452525481324952 
1227	 0.452932814836595 
1228	 0.453324970322539 
1229	 0.453689784070414 
1230	 0.454067060920511 
1231	 0.454464312627758 
1232	 0.454827401420244 
1233	 0.455175787602791 
1234	 0.455510078582969 
1235	 0.4558566248496 
1236	 0.456182904197025 
1237	 0.456518510570173 
1238	 0.456886718753399 
1239	 0.457210480683342 
1240	 0.457500075384108 
1241	 0.457802726447077 
1242	 0.458092774659834 
1243	 0.458389945272504 
1244	 0.458696339125464 
1245	 0.458991165850848 
1246	 0.459270256824273 
1247	 0.459565791488789 
1248	 0.459876558105456 
1249	 0.460176821343294 
1250	 0.460444321623573 
1251	 0.460714206158095 
1252	 0.460980604068787 
1253	 0.461221220207951 
1254	 0.461462855119812 
1255	 0.461722755724653 
1256	 0.461956241043944 
1257	 0.462154808851225 
1258	 0.462369366807049 
1259	 0.462580411806725 
1260	 0.462800692443924 
1261	 0.463020590009202 
1262	 0.463245536153628 
1263	 0.463482723179628 
1264	 0.463721226568417 
1265	 0.463968933358584 
1266	 0.46420348436399 
1267	 0.464433211567198 
1268	 0.464660577745245 
1269	 0.464899934054754 
1270	 0.465128854449689 
1271	 0.465385997535751 
1272	 0.465673409681957 
1273	 0.465935206726084 
1274	 0.466186542209814 
1275	 0.466460769206658 
1276	 0.466735015245232 
1277	 0.467022109963076 
1278	 0.467340849822177 
1279	 0.467638694203077 
1280	 0.467958370155752 
1281	 0.468224695529831 
1282	 0.468457702255465 
1283	 0.468685358744497 
1284	 0.468883668525631 
1285	 0.469063652210225 
1286	 0.469240777125946 
1287	 0.469402437968593 
1288	 0.469536264705059 
1289	 0.469649091497548 
1290	 0.469719150983062 
1291	 0.469765490718158 
1292	 0.469778378500023 
1293	 0.469740577283115 
1294	 0.469695246084562 
1295	 0.469639046556091 
1296	 0.469542809030693 
1297	 0.469409484984449 
1298	 0.469263738969847 
1299	 0.469075092830342 
1300	 0.468891349759018 
1301	 0.468700870435913 
1302	 0.468498399633896 
1303	 0.468277169729011 
1304	 0.46807343813938 
1305	 0.467844978524975 
1306	 0.467590032716649 
1307	 0.467321253618657 
1308	 0.467051033974009 
1309	 0.466796863034429 
1310	 0.466534658546356 
1311	 0.466305074694182 
1312	 0.466093960170037 
1313	 0.465895150965012 
1314	 0.465705146527386 
1315	 0.465549077586884 
1316	 0.465410640099289 
1317	 0.465303527195483 
1318	 0.465240961334662 
1319	 0.46517056750013 
1320	 0.465113194483547 
1321	 0.465071168916545 
1322	 0.46502578400728 
1323	 0.465004254447882 
1324	 0.465040803420583 
1325	 0.465104197611277 
1326	 0.465204080660915 
1327	 0.46532435743058 
1328	 0.465445101171823 
1329	 0.4655953110206 
1330	 0.465779155073436 
1331	 0.465991627947571 
1332	 0.466229076886582 
1333	 0.46651250590903 
1334	 0.466775311062469 
1335	 0.467043563943434 
1336	 0.467328186161438 
1337	 0.46761669275339 
1338	 0.467912671213752 
1339	 0.468219696427767 
1340	 0.46854105159065 
1341	 0.468873010742812 
1342	 0.469210273412108 
1343	 0.469562246779057 
1344	 0.469917231620487 
1345	 0.470293450076492 
1346	 0.470666310725938 
1347	 0.471042503008326 
1348	 0.471427735767478 
1349	 0.471780689386905 
1350	 0.472130931331374 
1351	 0.472505453146502 
1352	 0.472896337342672 
1353	 0.473271009434226 
1354	 0.473665235077592 
1355	 0.474032389969141 
1356	 0.474380929914594 
1357	 0.474730530957458 
1358	 0.475076606376109 
1359	 0.475408754820038 
1360	 0.475723578102145 
1361	 0.476040941506357 
1362	 0.476353050580272 
1363	 0.476660217169554 
1364	 0.476968926890527 
1365	 0.477272836149708 
1366	 0.477572231939436 
1367	 0.477859583720154 
1368	 0.478148770963046 
1369	 0.478411839313835 
1370	 0.478677518341164 
1371	 0.478936408701951 
1372	 0.47916772506446 
1373	 0.479404016419818 
1374	 0.479629594216429 
1375	 0.479848725310343 
1376	 0.48003995083276 
1377	 0.480231238795237 
1378	 0.480377936720831 
1379	 0.480497688959862 
1380	 0.480586039957776 
1381	 0.480636089261565 
1382	 0.480683147183106 
1383	 0.480704107673091 
1384	 0.480701025294408 
1385	 0.480708224432636 
1386	 0.480652983680328 
1387	 0.480549838057654 
1388	 0.48042737922618 
1389	 0.480266766392187 
1390	 0.480079091638434 
1391	 0.479880552091675 
1392	 0.479641473824453 
1393	 0.47935664042747 
1394	 0.479056017326443 
1395	 0.478735244127792 
1396	 0.47839708860708 
1397	 0.478065860383622 
1398	 0.477741575540079 
1399	 0.477388790913638 
1400	 0.477011675202527 
1401	 0.476654460534118 
1402	 0.476281577301895 
1403	 0.475933502284103 
1404	 0.475608768879944 
1405	 0.475281110833636 
1406	 0.474966451313225 
1407	 0.474628802966924 
1408	 0.474269051686349 
1409	 0.473942734386746 
1410	 0.473596837783668 
1411	 0.473305621417331 
1412	 0.473042380207213 
1413	 0.472819728039719 
1414	 0.472655954340739 
1415	 0.472516991810724 
1416	 0.472457858097263 
1417	 0.472419635318328 
1418	 0.472359819531355 
1419	 0.472322103372886 
1420	 0.472270714204261 
1421	 0.472224466562458 
1422	 0.472200635159975 
1423	 0.472152115345616 
1424	 0.472089114180528 
1425	 0.472005152448181 
1426	 0.471929532444697 
1427	 0.47183434339066 
1428	 0.471766734364919 
1429	 0.471713678589873 
1430	 0.471657051024215 
1431	 0.47161030827294 
1432	 0.471559925199197 
1433	 0.471519416879847 
1434	 0.471458263379639 
1435	 0.471383847699615 
1436	 0.471314251754834 
1437	 0.471217653746817 
1438	 0.47115196207472 
1439	 0.471102230893534 
1440	 0.471064954941285 
1441	 0.471035823703805 
1442	 0.471008040965784 
1443	 0.470976497156158 
1444	 0.470949902562454 
1445	 0.470939960614182 
1446	 0.470919128708293 
1447	 0.47088737525313 
1448	 0.470860289286417 
1449	 0.470816335262128 
1450	 0.470784317575973 
1451	 0.470755549131482 
1452	 0.47073825788749 
1453	 0.470710425263721 
1454	 0.470670967184745 
1455	 0.470652557287761 
1456	 0.470641724714376 
1457	 0.470627567362037 
1458	 0.470627482697253 
1459	 0.470623319332007 
1460	 0.470607102770618 
1461	 0.470607899998441 
1462	 0.470612549737084 
1463	 0.470635939489317 
1464	 0.470677241182284 
1465	 0.470716084024861 
1466	 0.470763348576946 
1467	 0.470820389668253 
1468	 0.470872939861414 
1469	 0.470943027443475 
1470	 0.471029068086268 
1471	 0.471130500765706 
1472	 0.471239573821624 
1473	 0.47135792814497 
1474	 0.471477333374841 
1475	 0.471596740302253 
1476	 0.471714740404375 
1477	 0.471834176269494 
1478	 0.471987586413667 
1479	 0.47215012850214 
1480	 0.472310606807082 
1481	 0.472488676914093 
1482	 0.472655060405376 
1483	 0.472809270207802 
1484	 0.472981677863423 
1485	 0.473164832695934 
1486	 0.473343073080474 
1487	 0.473530960323131 
1488	 0.473705769845928 
1489	 0.473868576404018 
1490	 0.474036520729252 
1491	 0.474203761251047 
1492	 0.474370406744199 
1493	 0.474549377283399 
1494	 0.474711280436104 
1495	 0.474850664029096 
1496	 0.47500764156852 
1497	 0.475168501566906 
1498	 0.47532111635669 
1499	 0.475486614893349 
1500	 0.475641942877702 
1501	 0.475778684709948 
1502	 0.475917485212287 
1503	 0.476051204861585 
1504	 0.476196310183385 
1505	 0.47633669705977 
1506	 0.476470405269588 
1507	 0.476612040340398 
1508	 0.476735145847696 
1509	 0.476838893875005 
1510	 0.47696154528661 
1511	 0.477070988574357 
1512	 0.477178208459544 
1513	 0.47732549096839 
1514	 0.477465293077219 
1515	 0.477585487359702 
1516	 0.477712678305626 
1517	 0.477826140946994 
1518	 0.477910766439224 
1519	 0.478012093573866 
1520	 0.478123346485145 
1521	 0.478223357913819 
1522	 0.478316872829553 
1523	 0.478411283249055 
1524	 0.478503938123971 
1525	 0.478598407595372 
1526	 0.478696777104503 
1527	 0.478777997420591 
1528	 0.478854163267019 
1529	 0.478926105349378 
1530	 0.47898068709952 
1531	 0.479046926852849 
1532	 0.479121082860222 
1533	 0.479181364587138 
1534	 0.47922264531004 
1535	 0.479291530863406 
1536	 0.479363937045054 
1537	 0.479447359174216 
1538	 0.479569388924073 
1539	 0.479662142445432 
1540	 0.479745283887419 
1541	 0.47982367088993 
1542	 0.479886123988356 
1543	 0.479951207800383 
1544	 0.480006894908908 
1545	 0.48007579428625 
1546	 0.480148541340146 
1547	 0.480220940041784 
1548	 0.480328550696397 
1549	 0.480425691222505 
1550	 0.480525187677504 
1551	 0.480635542754604 
1552	 0.480723111845906 
1553	 0.480806049823745 
1554	 0.480892858737385 
1555	 0.480980695561621 
1556	 0.481055513226475 
1557	 0.481107941741138 
1558	 0.481145650796213 
1559	 0.481184823828172 
1560	 0.481242317276973 
1561	 0.48131618227379 
1562	 0.48137757040698 
1563	 0.481442431219202 
1564	 0.481503510649774 
1565	 0.481545081439584 
1566	 0.481622515330823 
1567	 0.48172788556372 
1568	 0.481811689632741 
1569	 0.48190686893771 
1570	 0.481987854725579 
1571	 0.482049650795646 
1572	 0.482119332452205 
1573	 0.482199916060022 
1574	 0.482257532913684 
1575	 0.482293297203218 
1576	 0.482350133744528 
1577	 0.482405202437474 
1578	 0.482461475982041 
1579	 0.482542826315635 
1580	 0.482589625584152 
1581	 0.482603371467766 
1582	 0.482643080838728 
1583	 0.482670049198677 
1584	 0.482718786067885 
1585	 0.482800605276436 
1586	 0.482869488077062 
1587	 0.482936811149797 
1588	 0.483010570733931 
1589	 0.483090737879734 
1590	 0.483156593927204 
1591	 0.483207058551472 
1592	 0.483285673414099 
1593	 0.483374559749882 
1594	 0.483456898925318 
1595	 0.483568066200527 
1596	 0.483655613835702 
1597	 0.483729781412938 
1598	 0.483788611446712 
1599	 0.483825053546089 
1600	 0.483871198712308 
1601	 0.483904183991774 
1602	 0.483940480746133 
1603	 0.484001100802652 
1604	 0.484033326687014 
1605	 0.484020727301588 
1606	 0.484047158552518 
1607	 0.484083864008139 
1608	 0.484123291280625 
1609	 0.484179071841795 
1610	 0.484242232705359 
1611	 0.484287712130645 
1612	 0.484317365893135 
1613	 0.484348865846663 
1614	 0.484397758776656 
1615	 0.4844340168641 
1616	 0.484492549163474 
1617	 0.484586128860747 
1618	 0.484667222451366 
1619	 0.484748617097027 
1620	 0.484826169809589 
1621	 0.484913812529212 
1622	 0.485006476847913 
1623	 0.48506588693925 
1624	 0.485126479259278 
1625	 0.485172562141686 
1626	 0.485178768058041 
1627	 0.485211614141871 
1628	 0.485250741102763 
1629	 0.485302936498701 
1630	 0.485360128442331 
1631	 0.485418798336323 
1632	 0.485493303881593 
1633	 0.48556572038867 
1634	 0.485641640238449 
1635	 0.48569302725162 
1636	 0.485739118420038 
1637	 0.48578861743031 
1638	 0.485824713402231 
1639	 0.485852732947997 
1640	 0.485884943758403 
1641	 0.485918142731086 
1642	 0.485921653727413 
1643	 0.48595870690962 
1644	 0.48603071960562 
1645	 0.486075914249371 
1646	 0.486107852960369 
1647	 0.486163267448663 
1648	 0.48621455826062 
1649	 0.486290222858731 
1650	 0.486397597173902 
1651	 0.486488883642742 
1652	 0.48658384757944 
1653	 0.486678868146613 
1654	 0.48678909444817 
1655	 0.486858329434619 
1656	 0.486916210717356 
1657	 0.486957278505412 
1658	 0.4869547707253 
1659	 0.486975242280263 
1660	 0.487009442717383 
1661	 0.487015905918703 
1662	 0.486993856906011 
1663	 0.487008247283467 
1664	 0.487023223929027 
1665	 0.487043728962119 
1666	 0.487094877292887 
1667	 0.487130004958477 
1668	 0.4871460569393 
1669	 0.487180394192576 
1670	 0.48721708217864 
1671	 0.487278508248969 
1672	 0.487360266923805 
1673	 0.487433887267177 
1674	 0.487541752263841 
1675	 0.487604069725459 
1676	 0.487637292978999 
1677	 0.487673840084409 
1678	 0.487671344920941 
1679	 0.487720346695157 
1680	 0.48780145645296 
1681	 0.487861082011821 
1682	 0.487942444051049 
1683	 0.488003126231088 
1684	 0.488027056936539 
1685	 0.488086118014012 
1686	 0.48817459315544 
1687	 0.48823317985604 
1688	 0.488287358158179 
1689	 0.48834141377463 
1690	 0.488376810153715 
1691	 0.488421895029754 
1692	 0.488462795046838 
1693	 0.48853183832647 
1694	 0.488614525368398 
1695	 0.488695729796373 
1696	 0.488812195216134 
1697	 0.488896841167652 
1698	 0.488970430201455 
1699	 0.489020465506893 
1700	 0.489058580159122 
1701	 0.489077948112199 
1702	 0.48906206436042 
1703	 0.489056036520873 
1704	 0.489025900984556 
1705	 0.489035797201237 
1706	 0.489059123779064 
1707	 0.489089806032116 
1708	 0.489153249898611 
1709	 0.489200606188123 
1710	 0.489235060299091 
1711	 0.489293932525523 
1712	 0.489370230509748 
1713	 0.489432296715702 
1714	 0.48949844394909 
1715	 0.489568479400283 
1716	 0.489630416190443 
1717	 0.489701831730594 
1718	 0.489799112907721 
1719	 0.489857739699629 
1720	 0.48992244887696 
1721	 0.489930192252001 
1722	 0.489877895993672 
1723	 0.489858646957076 
1724	 0.489819318820415 
1725	 0.489777186439143 
1726	 0.489754954480081 
1727	 0.489713593604313 
1728	 0.489633808805066 
1729	 0.489585596976488 
1730	 0.489553820722166 
1731	 0.48951265361023 
1732	 0.489479373806026 
1733	 0.489435465486693 
1734	 0.489374265147644 
1735	 0.489347677483835 
1736	 0.489323717538562 
1737	 0.489327423758064 
1738	 0.489375270126563 
1739	 0.489385156265989 
1740	 0.489405353200247 
1741	 0.489379282737484 
1742	 0.489319007127615 
1743	 0.489269579451091 
1744	 0.489192935435632 
1745	 0.489135050035049 
1746	 0.489077084213905 
1747	 0.489034858422899 
1748	 0.489025896775478 
1749	 0.489055854056729 
1750	 0.489068134368397 
1751	 0.489064924050681 
1752	 0.4890614907883 
1753	 0.489030728455087 
1754	 0.489009974740663 
1755	 0.488999657213459 
1756	 0.488991271010888 
1757	 0.489005338068974 
1758	 0.48900585356192 
1759	 0.488999082703937 
1760	 0.489002606195018 
1761	 0.488972748502989 
1762	 0.488959267840701 
1763	 0.488960674274172 
1764	 0.488955493155079 
1765	 0.488972559169532 
1766	 0.488950782191827 
1767	 0.488930182881099 
1768	 0.488951676613178 
1769	 0.488963311404031 
1770	 0.488997661540308 
1771	 0.48905745956253 
1772	 0.48905634387481 
1773	 0.489048602546169 
1774	 0.4890988172633 
1775	 0.489123717907761 
1776	 0.489136581981785 
1777	 0.489174684245118 
1778	 0.489179486156004 
1779	 0.489170235307143 
1780	 0.489167005544707 
1781	 0.4891548998598 
1782	 0.489165075367052 
1783	 0.489186034859004 
1784	 0.489212471975117 
1785	 0.489241345276969 
1786	 0.489277677385206 
1787	 0.489328684533055 
1788	 0.489378146267485 
1789	 0.489434770465461 
1790	 0.489488210484558 
1791	 0.489543056169511 
1792	 0.489601316972041 
1793	 0.489652722700096 
1794	 0.489721187769326 
1795	 0.489817552274689 
1796	 0.489859984724093 
1797	 0.489888905693813 
1798	 0.489904456472262 
1799	 0.489851249774414 
1800	 0.489870935099399 
1801	 0.487271150585453 
1802	 0.487293772117598 
1803	 0.487323150426691 
1804	 0.487373380822018 
1805	 0.48742973791777 
1806	 0.487474337902202 
1807	 0.487508286076095 
1808	 0.487565926324441 
1809	 0.487655436094042 
1810	 0.487725936880794 
1811	 0.487815818672029 
1812	 0.487868676701218 
1813	 0.487899505797806 
1814	 0.487883234167656 
1815	 0.487858297273891 
1816	 0.487862051010614 
1817	 0.487837388750747 
1818	 0.487797291461267 
1819	 0.487761276721321 
1820	 0.487724415335006 
1821	 0.487662659748085 
1822	 0.487580073667004 
1823	 0.487522857327053 
1824	 0.487463872234023 
1825	 0.48737064058616 
1826	 0.487284844119635 
1827	 0.487209705716235 
1828	 0.487130136946242 
1829	 0.487040400447962 
1830	 0.48694887138854 
1831	 0.486857660696478 
1832	 0.48677047180552 
1833	 0.486675115937739 
1834	 0.486591003708213 
1835	 0.4865697172408 
1836	 0.486526375117529 
1837	 0.486468864703365 
1838	 0.486438403062244 
1839	 0.486392109297372 
1840	 0.48631683936528 
1841	 0.486272870435594 
1842	 0.486269171173461 
1843	 0.486235206329072 
1844	 0.486217383868812 
1845	 0.486194298730431 
1846	 0.486116068839086 
1847	 0.486035880635985 
1848	 0.485944059495203 
1849	 0.485846118298822 
1850	 0.485740981982129 
1851	 0.485634713246986 
1852	 0.48551493854965 
1853	 0.485401335986025 
1854	 0.485293470969103 
1855	 0.485189263443749 
1856	 0.48510495407872 
1857	 0.485066941859909 
1858	 0.485005662350658 
1859	 0.484921904648293 
1860	 0.484806910143788 
1861	 0.48468364263152 
1862	 0.484479322771663 
1863	 0.484260089031629 
1864	 0.484030843340841 
1865	 0.483756817933809 
1866	 0.483445788859914 
1867	 0.483119552676474 
1868	 0.482786987242083 
1869	 0.482474633525464 
1870	 0.482196417278626 
1871	 0.481890657816922 
1872	 0.481590690651074 
1873	 0.481271474550869 
1874	 0.480909356012051 
1875	 0.480505314893762 
1876	 0.480051149739056 
1877	 0.479529756392276 
1878	 0.478953921178441 
1879	 0.478313095019253 
1880	 0.477619952811382 
1881	 0.476860516523749 
1882	 0.476064708699701 
1883	 0.475238219596345 
1884	 0.474326072110473 
1885	 0.473321874283546 
1886	 0.472263223599567 
1887	 0.471102935694475 
1888	 0.469885907216679 
1889	 0.468667854769722 
1890	 0.46741470929423 
1891	 0.46613849711406 
1892	 0.464833927723944 
1893	 0.463501127234783 
1894	 0.462131011157909 
1895	 0.460747710200475 
1896	 0.459332721513061 
1897	 0.457941112387776 
1898	 0.456568416175903 
1899	 0.455214892088173 
1900	 0.453922053372302 
1901	 0.452689412926528 
1902	 0.451495646178684 
1903	 0.450365436944553 
1904	 0.449260889371679 
1905	 0.448202280695039 
1906	 0.447166320325571 
1907	 0.446141382819341 
1908	 0.44517706965409 
1909	 0.444275541349505 
1910	 0.443388139100479 
1911	 0.442566694988782 
1912	 0.441812101290206 
1913	 0.441079624162707 
1914	 0.440367403396637 
1915	 0.43971279458 
1916	 0.439117581081012 
1917	 0.438536159419166 
1918	 0.437976664351561 
1919	 0.437477794111074 
1920	 0.437006970126847 
1921	 0.436570673891835 
1922	 0.436172490818233 
1923	 0.435787550167842 
1924	 0.435453977709427 
1925	 0.435156343595308 
1926	 0.434891987313277 
1927	 0.434662348506851 
1928	 0.434487250857043 
1929	 0.43434189276494 
1930	 0.434201417558208 
1931	 0.434104734754445 
1932	 0.434022712869356 
1933	 0.433942426331517 
1934	 0.433890792283589 
1935	 0.433863879636046 
1936	 0.433844442358507 
1937	 0.433879597670952 
1938	 0.433943744114162 
1939	 0.434052277495127 
1940	 0.434209672144455 
1941	 0.43440371134136 
1942	 0.434626934730182 
1943	 0.434851172325404 
1944	 0.435052777490357 
1945	 0.435255403159335 
1946	 0.435469075546538 
1947	 0.435666862020848 
1948	 0.435895499784209 
1949	 0.436161170130396 
1950	 0.436412650063065 
1951	 0.436664423686922 
1952	 0.436914851782433 
1953	 0.437207842025672 
1954	 0.437495680661948 
1955	 0.437775637026774 
1956	 0.438112226293049 
1957	 0.438423912827364 
1958	 0.438701293886145 
1959	 0.439027342031433 
1960	 0.439389375457099 
1961	 0.439736447796957 
1962	 0.440103431996694 
1963	 0.440471306214258 
1964	 0.440834280470856 
1965	 0.44119259096214 
1966	 0.441592797914688 
1967	 0.441974136497205 
1968	 0.442366671710417 
1969	 0.442765364970126 
1970	 0.44317530078703 
1971	 0.443601964442384 
1972	 0.444016780193541 
1973	 0.444435892495009 
1974	 0.444856052168143 
1975	 0.445280380760228 
1976	 0.445673397312823 
1977	 0.44609831859152 
1978	 0.446520993676618 
1979	 0.446921901959885 
1980	 0.447344161891908 
1981	 0.447776896690946 
1982	 0.448217988251388 
1983	 0.448662022638339 
1984	 0.449137547407054 
1985	 0.449584551388408 
1986	 0.450029167743763 
1987	 0.45045349526833 
1988	 0.450864738558234 
1989	 0.45125332951046 
1990	 0.451637629001238 
1991	 0.452019495386013 
1992	 0.452421908353024 
1993	 0.452834028576734 
1994	 0.453251876358702 
1995	 0.453689654845363 
1996	 0.454114564365799 
1997	 0.454534863008564 
1998	 0.454964729107654 
1999	 0.455396612035536 
2000	 0.455827273214692 
2001	 0.456286547773095 
2002	 0.45671072150669 
2003	 0.457095126116961 
2004	 0.45748918688964 
2005	 0.457870860547885 
2006	 0.458215359935444 
2007	 0.458592300029771 
2008	 0.458979645485075 
2009	 0.459372819108025 
2010	 0.459781015548748 
2011	 0.460182134108239 
2012	 0.460581186484951 
2013	 0.460988448662688 
2014	 0.461405560860377 
2015	 0.461811684855832 
2016	 0.462215943328906 
2017	 0.46261176192301 
2018	 0.463015929899223 
2019	 0.463412947479006 
2020	 0.463811630731275 
2021	 0.464217230316975 
2022	 0.464628312071927 
2023	 0.4650621022799 
2024	 0.465444376286687 
2025	 0.465800868565168 
2026	 0.466166853619742 
2027	 0.466499471706798 
2028	 0.466826037921764 
2029	 0.467185495489013 
2030	 0.46758454026482 
2031	 0.467947908630226 
2032	 0.468307938855401 
2033	 0.468661638183479 
2034	 0.468999868155519 
2035	 0.469347342923821 
2036	 0.469717560942208 
2037	 0.470043982933698 
2038	 0.470357556528877 
2039	 0.470655491254738 
2040	 0.470929647864886 
2041	 0.471169337990822 
2042	 0.471420534917369 
2043	 0.471670610676598 
2044	 0.471930740181245 
2045	 0.47218522403291 
2046	 0.472458605456895 
2047	 0.472756489864632 
2048	 0.47303580497009 
2049	 0.473312616460859 
2050	 0.473593622817354 
2051	 0.47387694546893 
2052	 0.474149678097309 
2053	 0.474436175427873 
2054	 0.474698555820292 
2055	 0.474939837283799 
2056	 0.47517102136298 
2057	 0.475398624211437 
2058	 0.475602115640073 
2059	 0.475834206845635 
2060	 0.476080896125652 
2061	 0.476308423004239 
2062	 0.476533144277229 
2063	 0.476769520114191 
2064	 0.477012047865747 
2065	 0.477233028285834 
2066	 0.477452292270903 
2067	 0.477673379217376 
2068	 0.477876252819019 
2069	 0.478081151244074 
2070	 0.478270429360873 
2071	 0.478459211839511 
2072	 0.478659719675447 
2073	 0.478845523083971 
2074	 0.479035336808073 
2075	 0.479257389900838 
2076	 0.479447058759197 
2077	 0.479591987228737 
2078	 0.479775475472943 
2079	 0.479963525595521 
2080	 0.480165428209124 
2081	 0.480399017275087 
2082	 0.480615977057015 
2083	 0.480823004562382 
2084	 0.481063062668022 
2085	 0.481257936083926 
2086	 0.481424181486603 
2087	 0.481615577095734 
2088	 0.481794999299341 
2089	 0.481990252357796 
2090	 0.482223374959232 
2091	 0.482413076016703 
2092	 0.482579961769931 
2093	 0.482749902205805 
2094	 0.482901262381489 
2095	 0.483056543118069 
2096	 0.483206245894429 
2097	 0.483369163347878 
2098	 0.483529865035574 
2099	 0.48369336958243 
2100	 0.48388279759966 
2101	 0.484105621260942 
2102	 0.484293210094836 
2103	 0.484480779546722 
2104	 0.484668083997229 
2105	 0.484813663972546 
2106	 0.485021970605128 
2107	 0.485267519161283 
2108	 0.48551132154626 
2109	 0.485790165086575 
2110	 0.486059117909889 
2111	 0.486329283503718 
2112	 0.486597095779043 
2113	 0.486870406196547 
2114	 0.487148348071659 
2115	 0.487395683216387 
2116	 0.487623218874334 
2117	 0.487861628914415 
2118	 0.488077725336595 
2119	 0.488319215411658 
2120	 0.488576968801796 
2121	 0.488833976623665 
2122	 0.489101897905953 
2123	 0.489360300568979 
2124	 0.48962222712297 
2125	 0.489877603382592 
2126	 0.490135192049307 
2127	 0.490374965271761 
2128	 0.490619450478183 
2129	 0.490834132576471 
2130	 0.491031862099486 
2131	 0.491203436173992 
2132	 0.491348652269284 
2133	 0.491473755760572 
2134	 0.4915594136946 
2135	 0.491634085054738 
2136	 0.491630965517796 
2137	 0.491556609240764 
2138	 0.491483698107052 
2139	 0.491346341286417 
2140	 0.491220893044235 
2141	 0.491091330036264 
2142	 0.490954708586667 
2143	 0.490796296081565 
2144	 0.490641017513095 
2145	 0.490482807121423 
2146	 0.490326660418504 
2147	 0.490149268952677 
2148	 0.490012671116386 
2149	 0.489846723414475 
2150	 0.489707255755492 
2151	 0.489484279454046 
2152	 0.489217467157204 
2153	 0.488941571866505 
2154	 0.4886102998151 
2155	 0.488289458734947 
2156	 0.487979923535286 
2157	 0.487634132519545 
2158	 0.487259275631293 
2159	 0.486871416661075 
2160	 0.486442087956573 
2161	 0.486032975194949 
2162	 0.485616436550197 
2163	 0.485205680297457 
2164	 0.484807171034297 
2165	 0.484408040247508 
2166	 0.484005589596324 
2167	 0.483595962263245 
2168	 0.483196866354607 
2169	 0.482807279944125 
2170	 0.48240424876252 
2171	 0.482009367323361 
2172	 0.481588920847833 
2173	 0.481155528616546 
2174	 0.480709885165138 
2175	 0.480235953767412 
2176	 0.479776290479206 
2177	 0.479284356779737 
2178	 0.478837899693865 
2179	 0.4784228796404 
2180	 0.478008992767706 
2181	 0.47764323002874 
2182	 0.477246539864417 
2183	 0.476841048789783 
2184	 0.476404537488664 
2185	 0.476006779279752 
2186	 0.475616564292013 
2187	 0.475208388688358 
2188	 0.474801416156011 
2189	 0.474419986148809 
2190	 0.474003263768503 
2191	 0.47365531032625 
2192	 0.473363956360001 
2193	 0.473081356726808 
2194	 0.472829927098254 
2195	 0.47258769502097 
2196	 0.472395109619881 
2197	 0.47216718701008 
2198	 0.471915382849798 
2199	 0.471691339224248 
2200	 0.471471367269557 
2201	 0.471251048521211 
2202	 0.471042816098086 
2203	 0.470848322907731 
2204	 0.470663383000411 
2205	 0.47046646320988 
2206	 0.47030353840006 
2207	 0.470154878002577 
2208	 0.470056484624476 
2209	 0.469969201870954 
2210	 0.469949556322909 
2211	 0.470019642105257 
2212	 0.470060103096931 
2213	 0.470144938178183 
2214	 0.470194190413718 
2215	 0.470233799369086 
2216	 0.470266294607677 
2217	 0.470315706889939 
2218	 0.470310453413945 
2219	 0.47028601315383 
2220	 0.470221767985162 
2221	 0.470106256142404 
2222	 0.469961065080815 
2223	 0.469796075001345 
2224	 0.469638862577312 
2225	 0.469499191886153 
2226	 0.469366934657462 
2227	 0.469229521586542 
2228	 0.46910906974145 
2229	 0.468964559926838 
2230	 0.468818663181695 
2231	 0.468625024374006 
2232	 0.468406018758978 
2233	 0.468189981926309 
2234	 0.467922770722299 
2235	 0.467687408120961 
2236	 0.467473919580077 
2237	 0.467243686982809 
2238	 0.467006364661676 
2239	 0.46677770617637 
2240	 0.466547905306175 
2241	 0.466322424904538 
2242	 0.466075726321981 
2243	 0.465869488570535 
2244	 0.465676390132833 
2245	 0.465514852540048 
2246	 0.465385064394526 
2247	 0.46526948179271 
2248	 0.465143702843303 
2249	 0.46501182576484 
2250	 0.464917747659316 
2251	 0.464841585984244 
2252	 0.464765917446127 
2253	 0.464727449827097 
2254	 0.464649906120475 
2255	 0.464535493834233 
2256	 0.464468947537174 
2257	 0.464410480110372 
2258	 0.464365111520077 
2259	 0.4643493762747 
2260	 0.464335489576095 
2261	 0.464335796482849 
2262	 0.464324112646558 
2263	 0.464300993888083 
2264	 0.464309103750959 
2265	 0.464319190402086 
2266	 0.464344281776298 
2267	 0.464440737446218 
2268	 0.464483617598173 
2269	 0.464506981753819 
2270	 0.464501597882665 
2271	 0.464507706945534 
2272	 0.464462763757748 
2273	 0.464419586624602 
2274	 0.464437073945461 
2275	 0.464461897801682 
2276	 0.464498652289924 
2277	 0.464541775379172 
2278	 0.46461849879592 
2279	 0.46467952825769 
2280	 0.464717305845957 
2281	 0.464814783555814 
2282	 0.46495170136872 
2283	 0.465078662625645 
2284	 0.465238289343414 
2285	 0.465375658639745 
2286	 0.465508151517167 
2287	 0.465632203607704 
2288	 0.465754921749215 
2289	 0.465867214206077 
2290	 0.465944314206785 
2291	 0.466052726128089 
2292	 0.466161134547669 
2293	 0.46629957701019 
2294	 0.466481902608722 
2295	 0.466648102806108 
2296	 0.466812219176054 
2297	 0.466993305731936 
2298	 0.467183413864239 
2299	 0.467406811717061 
2300	 0.467600081486374 
2301	 0.46776142960722 
2302	 0.467912087976582 
2303	 0.46802474457031 
2304	 0.468154180646548 
2305	 0.46831000239712 
2306	 0.468459983581267 
2307	 0.468611725951349 
2308	 0.468744801694956 
2309	 0.46887989326762 
2310	 0.469007350719766 
2311	 0.469104427378956 
2312	 0.469237943971756 
2313	 0.469385918030602 
2314	 0.469532187901103 
2315	 0.469715553540898 
2316	 0.46984500310616 
2317	 0.469949841527081 
2318	 0.470060769520157 
2319	 0.470104591086266 
2320	 0.470224150982445 
2321	 0.470409689863519 
2322	 0.470556291578246 
2323	 0.470752608498165 
2324	 0.470881664578373 
2325	 0.470927007244373 
2326	 0.471015668771269 
2327	 0.471080939479173 
2328	 0.471180296193178 
2329	 0.471335566920184 
2330	 0.471481357815645 
2331	 0.471685707650275 
2332	 0.471855476134713 
2333	 0.471933858148686 
2334	 0.47205067629582 
2335	 0.472133764761795 
2336	 0.472198307334663 
2337	 0.472336392825283 
2338	 0.472473082143269 
2339	 0.472576771493019 
2340	 0.472699763361878 
2341	 0.472774395560799 
2342	 0.472799118744107 
2343	 0.472818539895355 
2344	 0.472751428932 
2345	 0.47264488083567 
2346	 0.472459307703484 
2347	 0.472328076680523 
2348	 0.472170806964515 
2349	 0.472027252886282 
2350	 0.471934173826688 
2351	 0.471789638647288 
2352	 0.471600890452845 
2353	 0.471400922381016 
2354	 0.471180964985815 
2355	 0.4709689015176 
2356	 0.470690488775776 
2357	 0.470521324250272 
2358	 0.470443692582142 
2359	 0.470315106585465 
2360	 0.470248220094067 
2361	 0.470112588740006 
2362	 0.469890763222537 
2363	 0.469706867974731 
2364	 0.469515477892209 
2365	 0.469343505669687 
2366	 0.469191290361174 
2367	 0.469044255682626 
2368	 0.468931961432715 
2369	 0.468779084179188 
2370	 0.46864994478651 
2371	 0.468422942229762 
2372	 0.468134416572343 
2373	 0.467775013124664 
2374	 0.467378916873962 
2375	 0.46700932535077 
2376	 0.466720319303697 
2377	 0.466500610223411 
2378	 0.466191868830348 
2379	 0.46589006519294 
2380	 0.465572963181226 
2381	 0.465193681158218 
2382	 0.464926271312426 
2383	 0.464671564696219 
2384	 0.46448043545886 
2385	 0.4642308511823 
2386	 0.463826495792302 
2387	 0.463505139095672 
2388	 0.463058975697706 
2389	 0.462623057867347 
2390	 0.462419803766786 
2391	 0.462229157268337 
2392	 0.461933425958085 
2393	 0.461617974591087 
2394	 0.461297898522974 
2395	 0.460831011999756 
2396	 0.460439333549323 
2397	 0.460154545361994 
2398	 0.459759412180256 
2399	 0.459338618773361 
2400	 0.458957936584513 
2401	 0.458616343497509 
2402	 0.458307258961373 
2403	 0.457949072544776 
2404	 0.457496683722363 
2405	 0.457044826316235 
2406	 0.456572135092424 
2407	 0.456132216558012 
2408	 0.455806040384014 
2409	 0.455445813248061 
2410	 0.455060577428225 
2411	 0.454688630388457 
2412	 0.454358184578474 
2413	 0.453988745026139 
2414	 0.453557568260963 
2415	 0.453203092659443 
2416	 0.452864541864366 
2417	 0.452534506245567 
2418	 0.452179852956042 
2419	 0.451886813898754 
2420	 0.451521055861047 
2421	 0.451068175763062 
2422	 0.450696267962462 
2423	 0.450356720703452 
2424	 0.449939627091095 
2425	 0.449489321816886 
2426	 0.449092574869882 
2427	 0.44867775940295 
2428	 0.448300936984462 
2429	 0.447969108753963 
2430	 0.447595409044091 
2431	 0.447223817514642 
2432	 0.446852017505291 
2433	 0.44648696378746 
2434	 0.446194819313228 
2435	 0.445914952910238 
2436	 0.445625060391652 
2437	 0.445372587151043 
2438	 0.445026362929951 
2439	 0.444665708684519 
2440	 0.444329698800701 
2441	 0.443923123631646 
2442	 0.443625840107839 
2443	 0.443384609378463 
2444	 0.443072836790288 
2445	 0.442791978325022 
2446	 0.442536255313545 
2447	 0.442296025064042 
2448	 0.441971785566401 
2449	 0.441619393268029 
2450	 0.441253427965992 
2451	 0.440825817221617 
2452	 0.440434479278679 
2453	 0.440045345293089 
2454	 0.439681857216228 
2455	 0.43931287078546 
2456	 0.438971566725505 
2457	 0.438644888905251 
2458	 0.438362744270465 
2459	 0.438196772996249 
2460	 0.437878810779106 
2461	 0.437491925720372 
2462	 0.437165620625232 
2463	 0.436706298288434 
2464	 0.436350418972525 
2465	 0.436185316961371 
2466	 0.435881181883055 
2467	 0.435492095215054 
2468	 0.435223808795514 
2469	 0.435005783762962 
2470	 0.434780463430075 
2471	 0.434471510532958 
2472	 0.434095969553515 
2473	 0.433650991639859 
2474	 0.433248098225204 
2475	 0.432821263004815 
2476	 0.432464785110852 
2477	 0.432189228651883 
2478	 0.431829533739837 
2479	 0.431592242605358 
2480	 0.431377317144673 
2481	 0.4309055067871 
2482	 0.430455952902507 
2483	 0.43003383415033 
2484	 0.429515208014739 
2485	 0.429143152128774 
2486	 0.428926355297773 
2487	 0.428750385056719 
2488	 0.428548924715531 
2489	 0.42826460533456 
2490	 0.427979739445539 
2491	 0.427772187374975 
2492	 0.427656125510028 
2493	 0.427547355163874 
2494	 0.427325353745271 
2495	 0.427007876337725 
2496	 0.426676224493346 
2497	 0.426467113909574 
2498	 0.426267591319779 
2499	 0.426028905770811 
2500	 0.425839458932681 
