Wavelength	MM800007.asd
350	 6.19838785937826E-02 
351	 5.89571555735461E-02 
352	 5.73263819486005E-02 
353	 5.65679991969786E-02 
354	 5.14236974074599E-02 
355	 5.19052176817311E-02 
356	 5.29232043470856E-02 
357	 5.04184190023649E-02 
358	 6.07723226107004E-02 
359	 0.061642024958351 
360	 5.57933366337973E-02 
361	 6.05515287555289E-02 
362	 5.91182864132967E-02 
363	 5.82151313007782E-02 
364	 0.060509715485927 
365	 5.80657471159393E-02 
366	 5.60915405219583E-02 
367	 0.057499704327292 
368	 6.20472847231238E-02 
369	 6.06179728281348E-02 
370	 0.058987628566119 
371	 5.96296698561141E-02 
372	 6.19747098614973E-02 
373	 6.15100412198661E-02 
374	 6.23930430110318E-02 
375	 6.58118764202792E-02 
376	 6.59124827202786E-02 
377	 6.59796237677954E-02 
378	 6.62385214810974E-02 
379	 6.64958016733802E-02 
380	 6.87763115281511E-02 
381	 6.93257105858602E-02 
382	 6.88897369632953E-02 
383	 7.12811796700289E-02 
384	 7.22728482331076E-02 
385	 7.24238409029803E-02 
386	 7.30334872365192E-02 
387	 7.54599434536512E-02 
388	 7.89166976676049E-02 
389	 8.05742036992731E-02 
390	 7.89291607514254E-02 
391	 8.14442090692095E-02 
392	 8.40147448541996E-02 
393	 8.52164871716766E-02 
394	 8.63653654734644E-02 
395	 8.72370155197077E-02 
396	 8.93024803381795E-02 
397	 9.27583384410343E-02 
398	 9.47687803777753E-02 
399	 9.60554601953111E-02 
400	 9.77734848045432E-02 
401	 0.100684705237678 
402	 0.102259960210038 
403	 0.103784468122173 
404	 0.105482260576396 
405	 0.106351152364362 
406	 0.108716944939221 
407	 0.111197376054952 
408	 0.11237832731569 
409	 0.112469542598319 
410	 0.113076958870796 
411	 0.114708582290255 
412	 0.11708971587848 
413	 0.11906645745659 
414	 0.11970558939277 
415	 0.119636181461236 
416	 0.121356226438988 
417	 0.121660581556032 
418	 0.121808987087738 
419	 0.123118162672078 
420	 0.123378083874319 
421	 0.12291935689443 
422	 0.122664212825775 
423	 0.123638638136199 
424	 0.124044312476576 
425	 0.123777100271188 
426	 0.123326070961257 
427	 0.123908053061203 
428	 0.123420701957961 
429	 0.12254511467731 
430	 0.122491222973207 
431	 0.12227664681154 
432	 0.121847948719168 
433	 0.121489814944304 
434	 0.121713397118843 
435	 0.121585575387067 
436	 0.121408718540142 
437	 0.1216083791929 
438	 0.122302936279306 
439	 0.123048283833683 
440	 0.123942911567382 
441	 0.125242161647769 
442	 0.126073764274305 
443	 0.126953886234991 
444	 0.128205644061847 
445	 0.129674183157813 
446	 0.130979558749399 
447	 0.132280291618156 
448	 0.133792717881591 
449	 0.135239993431337 
450	 0.136550868464245 
451	 0.137830376599588 
452	 0.139297401772197 
453	 0.140557785592679 
454	 0.141552516427351 
455	 0.142413122983997 
456	 0.143600785161901 
457	 0.144549997550797 
458	 0.14539756688866 
459	 0.146497766000151 
460	 0.147266610000045 
461	 0.1479702097308 
462	 0.148763095516977 
463	 0.149537056753418 
464	 0.150232615943677 
465	 0.150850784331319 
466	 0.151437739172823 
467	 0.152119819257374 
468	 0.15284142217379 
469	 0.153416164029991 
470	 0.153603358258596 
471	 0.153902874906863 
472	 0.154353670386209 
473	 0.154898809680206 
474	 0.155488963669238 
475	 0.155968501279027 
476	 0.156355114980766 
477	 0.156757721937962 
478	 0.157269722986332 
479	 0.15774476296968 
480	 0.158087349956411 
481	 0.158289130944361 
482	 0.158851566223495 
483	 0.15953693436921 
484	 0.159981875961791 
485	 0.16023031181237 
486	 0.160588181026303 
487	 0.161031285054473 
488	 0.161278795124624 
489	 0.161665882728866 
490	 0.162074290512177 
491	 0.162434391881874 
492	 0.163033272056886 
493	 0.163361559051879 
494	 0.163580417839449 
495	 0.164095069297764 
496	 0.164507084733109 
497	 0.164937415587169 
498	 0.165405972065873 
499	 0.165708877724995 
500	 0.166003702584333 
501	 0.166358550340957 
502	 0.166767941932071 
503	 0.167023413672651 
504	 0.167351362271091 
505	 0.167777283489668 
506	 0.168135500347853 
507	 0.168447869846195 
508	 0.168820149375286 
509	 0.169277879486195 
510	 0.169587965342734 
511	 0.169903430994519 
512	 0.170195218901012 
513	 0.170379358670806 
514	 0.170791429699492 
515	 0.171203944121306 
516	 0.171501289677344 
517	 0.171867699020012 
518	 0.172202475110972 
519	 0.172516849839312 
520	 0.172850478754111 
521	 0.173206670315791 
522	 0.173513171622861 
523	 0.17376657393027 
524	 0.174038820357568 
525	 0.174402311692632 
526	 0.174767123531961 
527	 0.175056798933989 
528	 0.175364634475024 
529	 0.175641137466445 
530	 0.175946432764814 
531	 0.176383287990905 
532	 0.176646624253194 
533	 0.176923981157366 
534	 0.177347072995612 
535	 0.177805284635844 
536	 0.178165379570209 
537	 0.178436248943301 
538	 0.178701757803284 
539	 0.179060598066066 
540	 0.179429932502759 
541	 0.17976826883425 
542	 0.180107219750749 
543	 0.180502139793876 
544	 0.180912760914885 
545	 0.181289579750429 
546	 0.181671691879512 
547	 0.182010813731517 
548	 0.182381788609645 
549	 0.182942806950763 
550	 0.183341110415693 
551	 0.183714296371389 
552	 0.184198217407397 
553	 0.184684056194324 
554	 0.185158748998444 
555	 0.18561660007285 
556	 0.186072735402869 
557	 0.186671294906692 
558	 0.187196736781154 
559	 0.187593057885956 
560	 0.188149444020525 
561	 0.188737768450583 
562	 0.189411176151673 
563	 0.190246931185737 
564	 0.191161573505858 
565	 0.192013762750245 
566	 0.192788059460449 
567	 0.19361027745574 
568	 0.194410397503912 
569	 0.195211823953472 
570	 0.19606359925868 
571	 0.19705074719516 
572	 0.197967704255921 
573	 0.198783844560837 
574	 0.199604091935609 
575	 0.200491941562157 
576	 0.201517726111474 
577	 0.202667512476957 
578	 0.203768102775944 
579	 0.204799891441168 
580	 0.205715015199246 
581	 0.206514995699847 
582	 0.207516334814354 
583	 0.208713003943638 
584	 0.210037860615518 
585	 0.211388165418551 
586	 0.21288775229372 
587	 0.214397225613511 
588	 0.215773052456007 
589	 0.217203712708619 
590	 0.218654228987163 
591	 0.22009663563016 
592	 0.221515755766551 
593	 0.222814935887084 
594	 0.223895634343909 
595	 0.224758713585765 
596	 0.225632698842162 
597	 0.226546351740927 
598	 0.227516671391413 
599	 0.228555628093226 
600	 0.22972247660391 
601	 0.231009347640946 
602	 0.232328979953834 
603	 0.233472752130713 
604	 0.234547407600373 
605	 0.235637776647647 
606	 0.236788418247858 
607	 0.237854634771123 
608	 0.238769628636379 
609	 0.239645273822382 
610	 0.240781008704308 
611	 0.241757903534128 
612	 0.242620616147573 
613	 0.243472474788764 
614	 0.244221425230524 
615	 0.244880827890763 
616	 0.245523537420472 
617	 0.246242432260517 
618	 0.246868094278139 
619	 0.24741804410566 
620	 0.247937690439896 
621	 0.248459525291876 
622	 0.249005760497488 
623	 0.249522268305227 
624	 0.249946227895118 
625	 0.250386465215401 
626	 0.250877605795324 
627	 0.251386197194807 
628	 0.251799577629739 
629	 0.252228634984808 
630	 0.252648561359785 
631	 0.253018665708853 
632	 0.253377502347496 
633	 0.253747819965275 
634	 0.254125039512269 
635	 0.254482198322177 
636	 0.254809866021495 
637	 0.255165909759057 
638	 0.255562016562365 
639	 0.255864130649155 
640	 0.256211049657628 
641	 0.256582637499977 
642	 0.256903273991921 
643	 0.257285487871495 
644	 0.257638786333102 
645	 0.257965633148324 
646	 0.258432587976236 
647	 0.258818700762347 
648	 0.259127359048133 
649	 0.259439457683536 
650	 0.25985036515359 
651	 0.260286528224725 
652	 0.260688611502844 
653	 0.261024578054433 
654	 0.261406408981766 
655	 0.261833565567797 
656	 0.262280866604099 
657	 0.262718626177279 
658	 0.263160449198163 
659	 0.263614401359108 
660	 0.264078202802056 
661	 0.264491575382187 
662	 0.264942012202839 
663	 0.265453948242293 
664	 0.26594220386185 
665	 0.266401580947109 
666	 0.266887066537078 
667	 0.267439485739123 
668	 0.267952325190733 
669	 0.268487963208285 
670	 0.26906672149662 
671	 0.26966727377703 
672	 0.270274160006822 
673	 0.270861133607909 
674	 0.271416912947212 
675	 0.271953145340851 
676	 0.27257892591816 
677	 0.273207329756453 
678	 0.273718731427606 
679	 0.274438448951067 
680	 0.275140189523791 
681	 0.275750549906109 
682	 0.276456281051178 
683	 0.277085416895416 
684	 0.277718424342024 
685	 0.278454695563257 
686	 0.279227418407766 
687	 0.27996150493477 
688	 0.28068316209307 
689	 0.281477471192865 
690	 0.282194686210099 
691	 0.282896804375723 
692	 0.283637471622042 
693	 0.284388331016615 
694	 0.28518827085741 
695	 0.286006299969337 
696	 0.286796610709003 
697	 0.287580325749348 
698	 0.288420580218213 
699	 0.289289989642146 
700	 0.290067869754266 
701	 0.290823380254221 
702	 0.291636913261224 
703	 0.292541204870653 
704	 0.293454610098183 
705	 0.294245399010861 
706	 0.294989344058476 
707	 0.295846765170471 
708	 0.296663464157469 
709	 0.297459624019646 
710	 0.298261264142411 
711	 0.299079690293487 
712	 0.299887937844978 
713	 0.300731258995144 
714	 0.301613878044568 
715	 0.3023032064558 
716	 0.302972053968783 
717	 0.303706698470495 
718	 0.304510780816714 
719	 0.305318228267844 
720	 0.306051411980092 
721	 0.306695843856253 
722	 0.307351940168533 
723	 0.308038106820806 
724	 0.308677347484437 
725	 0.309193642137997 
726	 0.309694708423298 
727	 0.310246332386399 
728	 0.310834085089442 
729	 0.311372038417313 
730	 0.31186853113632 
731	 0.312271613097286 
732	 0.312597558852549 
733	 0.313050753474981 
734	 0.313445654486825 
735	 0.313752700524374 
736	 0.314009784878417 
737	 0.314236373168802 
738	 0.314468271877621 
739	 0.314661635141198 
740	 0.314693568909286 
741	 0.314741645157489 
742	 0.314832748542608 
743	 0.314928138815277 
744	 0.314904442232611 
745	 0.314910358549177 
746	 0.314877609896426 
747	 0.314680338945817 
748	 0.314572742832069 
749	 0.314415216998962 
750	 0.314168666202022 
751	 0.313954951954684 
752	 0.313705709935636 
753	 0.313403463227824 
754	 0.313060913961101 
755	 0.312747116590756 
756	 0.312391916703069 
757	 0.311982278300101 
758	 0.311540094741882 
759	 0.311098978481542 
760	 0.310629318551509 
761	 0.310132405414944 
762	 0.309654044216555 
763	 0.309070809289395 
764	 0.308478767381128 
765	 0.307960128074446 
766	 0.307394598030654 
767	 0.306878391250502 
768	 0.306314826104503 
769	 0.305574981743313 
770	 0.305031903288512 
771	 0.304489354918715 
772	 0.303814620995588 
773	 0.303021504986649 
774	 0.302387157848264 
775	 0.301793250261084 
776	 0.301109801942167 
777	 0.300441955605355 
778	 0.2997510927085 
779	 0.29909046237386 
780	 0.298508988507214 
781	 0.297770758429247 
782	 0.297035272935454 
783	 0.29637310834816 
784	 0.295726167289746 
785	 0.295004413719938 
786	 0.294285746750473 
787	 0.293630700366555 
788	 0.292971961216992 
789	 0.292348165877041 
790	 0.29172602211726 
791	 0.291055532967775 
792	 0.290347422061715 
793	 0.289646804990359 
794	 0.288975458312346 
795	 0.288334717825696 
796	 0.287762237089012 
797	 0.287181859608949 
798	 0.286552676708396 
799	 0.285927516403793 
800	 0.285311354315787 
801	 0.284712570894532 
802	 0.284124434978936 
803	 0.283486755893533 
804	 0.282859629013456 
805	 0.282272784063019 
806	 0.281726655655966 
807	 0.281172129071911 
808	 0.280642965986983 
809	 0.280126430768206 
810	 0.279540484613959 
811	 0.279014279360094 
812	 0.278488649858005 
813	 0.277922243904843 
814	 0.277444906560756 
815	 0.276958211694275 
816	 0.276466538234086 
817	 0.276006538394557 
818	 0.275543404678691 
819	 0.275108068278851 
820	 0.274656926038518 
821	 0.274108517493484 
822	 0.273739299213447 
823	 0.273402668496569 
824	 0.272972984299868 
825	 0.272466540571037 
826	 0.272108167684042 
827	 0.271818605601888 
828	 0.271455751579036 
829	 0.27096896215773 
830	 0.270527198252284 
831	 0.270182970535043 
832	 0.26990354230428 
833	 0.269572335975783 
834	 0.269235506408242 
835	 0.268923701767079 
836	 0.268635946120364 
837	 0.26831428143775 
838	 0.267982260351045 
839	 0.267700603984298 
840	 0.267569244687304 
841	 0.267364525095165 
842	 0.267028117527319 
843	 0.26662846354338 
844	 0.266453827930929 
845	 0.266278814785021 
846	 0.266068501708133 
847	 0.265868793411647 
848	 0.265623550903839 
849	 0.26540040820407 
850	 0.265236730707823 
851	 0.2651208277169 
852	 0.264893517593864 
853	 0.264683370150893 
854	 0.264551728509429 
855	 0.264402167429964 
856	 0.264361908372696 
857	 0.264298557015534 
858	 0.264122797093696 
859	 0.264001451339616 
860	 0.263958487094874 
861	 0.263898029805574 
862	 0.263747970908054 
863	 0.263762754901964 
864	 0.263700771007293 
865	 0.263571463606387 
866	 0.263528818615615 
867	 0.263485119719206 
868	 0.263478462341126 
869	 0.263515266712012 
870	 0.263554302666784 
871	 0.263485342505795 
872	 0.263449971506082 
873	 0.26352348143337 
874	 0.263606174351515 
875	 0.263641543487468 
876	 0.263668782534187 
877	 0.263734670881577 
878	 0.263830985182287 
879	 0.263948605405913 
880	 0.264021105790787 
881	 0.264010288401812 
882	 0.264054663052407 
883	 0.264177990854014 
884	 0.264354496582223 
885	 0.264528419952966 
886	 0.264661883380973 
887	 0.26480840452391 
888	 0.264978738344449 
889	 0.265141658396159 
890	 0.265295172716031 
891	 0.265474693742132 
892	 0.26570468229597 
893	 0.265981839676218 
894	 0.266168204745095 
895	 0.266321403674798 
896	 0.266506771219509 
897	 0.266724802376664 
898	 0.267004035707636 
899	 0.267297233459885 
900	 0.267580689335169 
901	 0.267960592939011 
902	 0.268210531510098 
903	 0.268437380309299 
904	 0.268788249535351 
905	 0.269092313484382 
906	 0.269380842098528 
907	 0.269700427543273 
908	 0.270094756044119 
909	 0.270564420978992 
910	 0.27097367639796 
911	 0.271332655969895 
912	 0.271742313696319 
913	 0.272168722324032 
914	 0.272535695348244 
915	 0.272847218179059 
916	 0.273191718358006 
917	 0.273680051227243 
918	 0.274280016858696 
919	 0.274870945300948 
920	 0.275286157914188 
921	 0.275756159996383 
922	 0.276250855136609 
923	 0.276756546979114 
924	 0.277344427587757 
925	 0.277885393267079 
926	 0.278422112696115 
927	 0.27897947746379 
928	 0.279478753269222 
929	 0.280044416297808 
930	 0.280698346804397 
931	 0.281398301800249 
932	 0.282029487171093 
933	 0.282742038295266 
934	 0.28341846955292 
935	 0.283988908759656 
936	 0.28475378387638 
937	 0.285401871794028 
938	 0.286037909705307 
939	 0.28681963340778 
940	 0.28759062423903 
941	 0.288265144297457 
942	 0.288963710218855 
943	 0.289811667008635 
944	 0.290610472336192 
945	 0.291301888277354 
946	 0.292002942554435 
947	 0.29285428748215 
948	 0.293721291459237 
949	 0.294595245300851 
950	 0.295453767357926 
951	 0.29628469284305 
952	 0.29713614449796 
953	 0.298010782380287 
954	 0.298919663415426 
955	 0.299874980881484 
956	 0.300876478293167 
957	 0.301868221888069 
958	 0.302800238910895 
959	 0.303649540794141 
960	 0.304467000765315 
961	 0.305390838798399 
962	 0.306437220448454 
963	 0.307526530933437 
964	 0.308596646296018 
965	 0.309648517775564 
966	 0.310708838163224 
967	 0.311792884986969 
968	 0.312736243141309 
969	 0.313803558496254 
970	 0.31496823575258 
971	 0.316005094053391 
972	 0.316937665224966 
973	 0.317896453517894 
974	 0.318965877050456 
975	 0.320169039435695 
976	 0.321467040347438 
977	 0.322777645347069 
978	 0.323977406713574 
979	 0.324989330887885 
980	 0.326047418786897 
981	 0.327258728728534 
982	 0.328602290341114 
983	 0.329948393254025 
984	 0.331075597770466 
985	 0.332144279845045 
986	 0.333342446296316 
987	 0.334746851635794 
988	 0.335979504227822 
989	 0.337090711554504 
990	 0.338192554235808 
991	 0.339381691974337 
992	 0.340577854335211 
993	 0.341765064755953 
994	 0.342960451119275 
995	 0.344173909448345 
996	 0.345311237714445 
997	 0.34662495521992 
998	 0.348008690276329 
999	 0.349266222832624 
1000	 0.350448764190973 
1001	 0.356076238317881 
1002	 0.357205198418136 
1003	 0.35836474589692 
1004	 0.359562402573096 
1005	 0.360849798467522 
1006	 0.362032064060269 
1007	 0.363202139685116 
1008	 0.364340437889125 
1009	 0.365420510250386 
1010	 0.366478495343937 
1011	 0.367596879798695 
1012	 0.36876205889452 
1013	 0.369907802527933 
1014	 0.37103616531171 
1015	 0.372129467852626 
1016	 0.373199686506826 
1017	 0.374271093011481 
1018	 0.375316300942481 
1019	 0.376367497879604 
1020	 0.377447568622504 
1021	 0.378488330430704 
1022	 0.379518909094176 
1023	 0.380547222534701 
1024	 0.381517201063152 
1025	 0.382550181156106 
1026	 0.383629704421792 
1027	 0.384632009003478 
1028	 0.385681527920592 
1029	 0.386764366300366 
1030	 0.387751957715695 
1031	 0.388749298332964 
1032	 0.389771402587607 
1033	 0.390780643454119 
1034	 0.391720050004819 
1035	 0.392708838553231 
1036	 0.393715074757122 
1037	 0.394734427561707 
1038	 0.395793401352911 
1039	 0.396835321827287 
1040	 0.397837266754161 
1041	 0.3988082917392 
1042	 0.399763215855648 
1043	 0.400718629086396 
1044	 0.401692053125973 
1045	 0.402681204194351 
1046	 0.403695722467444 
1047	 0.4047191212474 
1048	 0.405734479657152 
1049	 0.406711857908813 
1050	 0.40768738947939 
1051	 0.408636837281463 
1052	 0.409543851247993 
1053	 0.410503433060109 
1054	 0.411450236898255 
1055	 0.412363945300618 
1056	 0.413292958856019 
1057	 0.414184128167457 
1058	 0.415036133300952 
1059	 0.415887854710367 
1060	 0.416736672796268 
1061	 0.41753314968038 
1062	 0.418321109759407 
1063	 0.419078966707844 
1064	 0.419816105025732 
1065	 0.420587316758259 
1066	 0.421375276958512 
1067	 0.422093812597994 
1068	 0.422773254746169 
1069	 0.42345608654463 
1070	 0.424157146425027 
1071	 0.424848173946036 
1072	 0.425539052287825 
1073	 0.426266843234361 
1074	 0.426955764901078 
1075	 0.427606693475292 
1076	 0.428247222119978 
1077	 0.428880612963724 
1078	 0.429461023686615 
1079	 0.430075644668757 
1080	 0.430724452700019 
1081	 0.431410334466792 
1082	 0.432118598748523 
1083	 0.432786486271771 
1084	 0.433425323658092 
1085	 0.434072423596686 
1086	 0.434685963488189 
1087	 0.435349726788557 
1088	 0.436045417259307 
1089	 0.43671574265968 
1090	 0.437392912805472 
1091	 0.438058790039308 
1092	 0.438687352678181 
1093	 0.439361738369073 
1094	 0.440096734365135 
1095	 0.440831162059974 
1096	 0.441566455801584 
1097	 0.44234738793375 
1098	 0.443110252733316 
1099	 0.4438281440492 
1100	 0.444613909978944 
1101	 0.445458623736265 
1102	 0.446263796580241 
1103	 0.447053682999458 
1104	 0.447916014476024 
1105	 0.448735319311512 
1106	 0.44957477160816 
1107	 0.450512805656051 
1108	 0.451452621788473 
1109	 0.452391924405071 
1110	 0.453346912078921 
1111	 0.454307001092134 
1112	 0.455254462832994 
1113	 0.456215103412594 
1114	 0.457197653737618 
1115	 0.458203767994397 
1116	 0.459218276145244 
1117	 0.460226889831769 
1118	 0.461272985440963 
1119	 0.462278115471579 
1120	 0.463266034946803 
1121	 0.464305065957195 
1122	 0.465363139148345 
1123	 0.466418187042506 
1124	 0.467474928452311 
1125	 0.46853270229057 
1126	 0.469601968128233 
1127	 0.470680514880242 
1128	 0.471749995351381 
1129	 0.472832090071723 
1130	 0.473890719969768 
1131	 0.474926115356374 
1132	 0.475975321550208 
1133	 0.47701946368946 
1134	 0.478065071639792 
1135	 0.479093201429016 
1136	 0.480167954044636 
1137	 0.481257173358709 
1138	 0.482313457614573 
1139	 0.483389249527256 
1140	 0.484515049614913 
1141	 0.485553326316808 
1142	 0.486545806076665 
1143	 0.487555641622823 
1144	 0.488532938670616 
1145	 0.489507583518329 
1146	 0.490489430030566 
1147	 0.49146518261682 
1148	 0.492433755631551 
1149	 0.493378235149438 
1150	 0.494315149428124 
1151	 0.495245536506967 
1152	 0.496148773348822 
1153	 0.497048917275112 
1154	 0.497952033328655 
1155	 0.498867475524144 
1156	 0.499761196463058 
1157	 0.500654057894562 
1158	 0.501520156679922 
1159	 0.50237179733799 
1160	 0.503210807965376 
1161	 0.504016522824435 
1162	 0.504835527764694 
1163	 0.505687815025151 
1164	 0.506482916483831 
1165	 0.507249665070482 
1166	 0.508012036413255 
1167	 0.508733066043185 
1168	 0.509440436638901 
1169	 0.510158160323335 
1170	 0.510879053614474 
1171	 0.51159500443067 
1172	 0.512311291601554 
1173	 0.513015404429059 
1174	 0.513725609344209 
1175	 0.51441581258338 
1176	 0.515091609603011 
1177	 0.515755611213605 
1178	 0.516394297498175 
1179	 0.517048557834438 
1180	 0.517711591702139 
1181	 0.518358403092083 
1182	 0.519020729855935 
1183	 0.519655820043912 
1184	 0.520263385361009 
1185	 0.520845752214138 
1186	 0.521415427879812 
1187	 0.521963341634347 
1188	 0.522498361829465 
1189	 0.523009617932223 
1190	 0.523523400683017 
1191	 0.524007165780663 
1192	 0.524526348207372 
1193	 0.52506892627446 
1194	 0.525596027662281 
1195	 0.526135374669205 
1196	 0.526664739792025 
1197	 0.527190507582518 
1198	 0.527698837033807 
1199	 0.528197937378216 
1200	 0.52869772062601 
1201	 0.529178381816635 
1202	 0.529640856651577 
1203	 0.530092704606935 
1204	 0.530527268872224 
1205	 0.53097317475698 
1206	 0.531417644529093 
1207	 0.531844395851975 
1208	 0.532271768641741 
1209	 0.532691426761829 
1210	 0.53308336802632 
1211	 0.533487078088098 
1212	 0.533886699848186 
1213	 0.53430417349683 
1214	 0.534747721884264 
1215	 0.535165608325506 
1216	 0.535578413031976 
1217	 0.536010317941959 
1218	 0.536396610723264 
1219	 0.536749662025071 
1220	 0.537100729578786 
1221	 0.537422530184686 
1222	 0.537770929164817 
1223	 0.538118229125145 
1224	 0.53846784939431 
1225	 0.538843095972553 
1226	 0.539192538688912 
1227	 0.539524664687763 
1228	 0.539858856113136 
1229	 0.540181497199416 
1230	 0.540510055566634 
1231	 0.540836808734104 
1232	 0.541168549257258 
1233	 0.541503621568587 
1234	 0.541844970493224 
1235	 0.54218087901045 
1236	 0.542532186849521 
1237	 0.542845218395744 
1238	 0.543156295033768 
1239	 0.543428176904073 
1240	 0.543637494276488 
1241	 0.543895798411543 
1242	 0.544147087592745 
1243	 0.544411679764576 
1244	 0.544717958260521 
1245	 0.544998191880495 
1246	 0.545268237081733 
1247	 0.545532530311509 
1248	 0.545800245423181 
1249	 0.546047189314888 
1250	 0.546273152116091 
1251	 0.546489178100214 
1252	 0.546713383749123 
1253	 0.546922420514967 
1254	 0.547145412219458 
1255	 0.547389131971458 
1256	 0.547608143395247 
1257	 0.547814751010263 
1258	 0.548026519231684 
1259	 0.548223076364259 
1260	 0.548436259286252 
1261	 0.548654555948327 
1262	 0.548878900825756 
1263	 0.549122575897666 
1264	 0.549356471538745 
1265	 0.549591324270761 
1266	 0.549825067110455 
1267	 0.550059238455169 
1268	 0.550270163977016 
1269	 0.550515605230711 
1270	 0.550774856265246 
1271	 0.551032574218553 
1272	 0.551309088992404 
1273	 0.551570814041776 
1274	 0.551811212713556 
1275	 0.552086655247902 
1276	 0.552389110593382 
1277	 0.55266934131955 
1278	 0.552958390271353 
1279	 0.553242753611524 
1280	 0.553523145718059 
1281	 0.553782816271111 
1282	 0.554053349032315 
1283	 0.554290729817298 
1284	 0.554507172485208 
1285	 0.554679103813139 
1286	 0.554856350387214 
1287	 0.555021494411066 
1288	 0.555135369866073 
1289	 0.555209195424356 
1290	 0.55528893860194 
1291	 0.55534914818397 
1292	 0.555368498579512 
1293	 0.55538412099101 
1294	 0.555353061447001 
1295	 0.555265618394407 
1296	 0.555157276800203 
1297	 0.555025220066256 
1298	 0.55486895500503 
1299	 0.554679339960182 
1300	 0.554464890043576 
1301	 0.554194241964352 
1302	 0.553957095169665 
1303	 0.553714121056688 
1304	 0.553462991531177 
1305	 0.553231560277476 
1306	 0.553016863840742 
1307	 0.552761387640946 
1308	 0.55250648353263 
1309	 0.552277060228054 
1310	 0.55206149075956 
1311	 0.551849386749759 
1312	 0.551632498401276 
1313	 0.551465559721468 
1314	 0.551317660358874 
1315	 0.551192379327429 
1316	 0.55111769612348 
1317	 0.551035552904169 
1318	 0.550945981313332 
1319	 0.550889887405495 
1320	 0.550840439037484 
1321	 0.550840006197383 
1322	 0.550883962472551 
1323	 0.550931084995199 
1324	 0.551014037490592 
1325	 0.55112351886685 
1326	 0.55125363422471 
1327	 0.551420861753019 
1328	 0.551589498726373 
1329	 0.551781986268673 
1330	 0.552014340539055 
1331	 0.552257313797492 
1332	 0.552536151342019 
1333	 0.552883825134955 
1334	 0.553200213526745 
1335	 0.553509924809353 
1336	 0.553850610847243 
1337	 0.554201868318987 
1338	 0.554557422742156 
1339	 0.554943380740935 
1340	 0.555311259620903 
1341	 0.555672712127224 
1342	 0.556042228115014 
1343	 0.556417941765161 
1344	 0.556773657265414 
1345	 0.557164497758881 
1346	 0.557558002262062 
1347	 0.557940735228128 
1348	 0.558341629422142 
1349	 0.558733569936912 
1350	 0.559134846850902 
1351	 0.559543588817396 
1352	 0.559980315400792 
1353	 0.560378654652686 
1354	 0.560768706581446 
1355	 0.561145393141855 
1356	 0.561507700683647 
1357	 0.561857627476056 
1358	 0.562190169409317 
1359	 0.562531554101652 
1360	 0.562847182047401 
1361	 0.563186909088879 
1362	 0.563553913537804 
1363	 0.563902238970766 
1364	 0.564248584306617 
1365	 0.564598405356688 
1366	 0.564949413980353 
1367	 0.565289785969982 
1368	 0.565610160039066 
1369	 0.565929792227418 
1370	 0.566257646818204 
1371	 0.566567967956259 
1372	 0.566865011827042 
1373	 0.567145815036097 
1374	 0.567406280603666 
1375	 0.567623924647943 
1376	 0.567854775736809 
1377	 0.568104672722892 
1378	 0.568301984839765 
1379	 0.56847175631794 
1380	 0.568622082778379 
1381	 0.568733111822821 
1382	 0.568848440355198 
1383	 0.568958168050704 
1384	 0.569047652510084 
1385	 0.569145919797525 
1386	 0.569188326212324 
1387	 0.56918052165575 
1388	 0.569170572227072 
1389	 0.569138257155096 
1390	 0.569073507886654 
1391	 0.568998519806539 
1392	 0.568942494647053 
1393	 0.568840732924688 
1394	 0.568723269757633 
1395	 0.568622953993433 
1396	 0.568483441954509 
1397	 0.568324840782646 
1398	 0.568140663910376 
1399	 0.567968614717976 
1400	 0.567763306873023 
1401	 0.567598684751993 
1402	 0.567464905909888 
1403	 0.567314093865715 
1404	 0.567165372839035 
1405	 0.567017047532027 
1406	 0.566868672600845 
1407	 0.566713309087964 
1408	 0.566545534681336 
1409	 0.566402252564588 
1410	 0.566238361026764 
1411	 0.566129218652741 
1412	 0.566039109261043 
1413	 0.566002153742215 
1414	 0.566028487296448 
1415	 0.566077199868695 
1416	 0.566168198245846 
1417	 0.566266980376751 
1418	 0.566343714349171 
1419	 0.566427048216636 
1420	 0.566498795903749 
1421	 0.566556543733109 
1422	 0.566624283349655 
1423	 0.566666567972394 
1424	 0.566687970212323 
1425	 0.566690597426853 
1426	 0.566696582327254 
1427	 0.566679449059781 
1428	 0.566667720722292 
1429	 0.566660458464857 
1430	 0.566644308723786 
1431	 0.56661208087967 
1432	 0.566592669491551 
1433	 0.566585552223337 
1434	 0.566563727414239 
1435	 0.566539953651975 
1436	 0.566511052057227 
1437	 0.566469875322947 
1438	 0.566430245057916 
1439	 0.566398120446985 
1440	 0.566346808476496 
1441	 0.56627674006366 
1442	 0.566222904656578 
1443	 0.566164517956866 
1444	 0.566100320394512 
1445	 0.566061350411724 
1446	 0.566009858944241 
1447	 0.565947765651763 
1448	 0.565889996342095 
1449	 0.565792512810024 
1450	 0.565692991138163 
1451	 0.565596226584927 
1452	 0.565477902603887 
1453	 0.565391048218403 
1454	 0.5653295616696 
1455	 0.565243587131629 
1456	 0.565158494154865 
1457	 0.565066021870883 
1458	 0.564958238154916 
1459	 0.564861704444139 
1460	 0.564776459671718 
1461	 0.564677336188587 
1462	 0.564552509752869 
1463	 0.564463767502371 
1464	 0.564384065443024 
1465	 0.564314667036483 
1466	 0.564275532476866 
1467	 0.56423397162462 
1468	 0.56418505981594 
1469	 0.564150687973701 
1470	 0.56412628820405 
1471	 0.564117592133807 
1472	 0.564110910977126 
1473	 0.564117716663396 
1474	 0.564168549985141 
1475	 0.564222361562355 
1476	 0.564294949390224 
1477	 0.56442573078751 
1478	 0.564571476822931 
1479	 0.564735746475343 
1480	 0.564937945568048 
1481	 0.565127543391321 
1482	 0.565300357536261 
1483	 0.565470012943957 
1484	 0.565632420299049 
1485	 0.565776468257449 
1486	 0.565922126487448 
1487	 0.566064388964052 
1488	 0.566209720370306 
1489	 0.566350168008371 
1490	 0.566491181663122 
1491	 0.566640061673842 
1492	 0.566775080498504 
1493	 0.566899707096285 
1494	 0.567029153420627 
1495	 0.567169057554084 
1496	 0.567280478442214 
1497	 0.567368623131415 
1498	 0.567466016850608 
1499	 0.567545203686387 
1500	 0.567638675073175 
1501	 0.567748559087409 
1502	 0.567852890622151 
1503	 0.567957207314664 
1504	 0.568055566969874 
1505	 0.56816087828725 
1506	 0.568264768129809 
1507	 0.568363107058105 
1508	 0.568469044265008 
1509	 0.568537027255697 
1510	 0.568597767315321 
1511	 0.568679544748084 
1512	 0.568746804246618 
1513	 0.568856676595178 
1514	 0.56898796310982 
1515	 0.569091288878664 
1516	 0.569189874929481 
1517	 0.569271686533569 
1518	 0.569333458647992 
1519	 0.569395680734901 
1520	 0.56945338183354 
1521	 0.56949519150514 
1522	 0.569515548615301 
1523	 0.569556568776583 
1524	 0.569579221467511 
1525	 0.569642514893582 
1526	 0.569747799070382 
1527	 0.56982314214657 
1528	 0.569908350671708 
1529	 0.569985173407482 
1530	 0.570050125919325 
1531	 0.570107157976399 
1532	 0.570176998787875 
1533	 0.570208876048695 
1534	 0.570192221981259 
1535	 0.570210037649808 
1536	 0.570212686926965 
1537	 0.570239257733095 
1538	 0.5702962865031 
1539	 0.570350764993562 
1540	 0.570394176663737 
1541	 0.570476117112096 
1542	 0.570602301569604 
1543	 0.570700266182869 
1544	 0.570828546324917 
1545	 0.570920946090937 
1546	 0.570982116993063 
1547	 0.571021110384526 
1548	 0.571066813990843 
1549	 0.571132290755144 
1550	 0.571215953258005 
1551	 0.571318510764374 
1552	 0.571418728180801 
1553	 0.571493852274995 
1554	 0.571574149139777 
1555	 0.571641105481873 
1556	 0.571702459225125 
1557	 0.571776338776795 
1558	 0.571818033024984 
1559	 0.571853371855868 
1560	 0.571904563264144 
1561	 0.571954849768695 
1562	 0.572018013580938 
1563	 0.572094374309634 
1564	 0.572165595310655 
1565	 0.57223054194685 
1566	 0.572314332140181 
1567	 0.572423586920158 
1568	 0.57250279630448 
1569	 0.572595324032137 
1570	 0.572647087937744 
1571	 0.572646291828135 
1572	 0.572689531786933 
1573	 0.572725058805475 
1574	 0.572780584789312 
1575	 0.572862986295694 
1576	 0.572942889307288 
1577	 0.573042384849071 
1578	 0.573111902172065 
1579	 0.57318473042678 
1580	 0.573231159701839 
1581	 0.573232708068479 
1582	 0.573263313374191 
1583	 0.573290005609687 
1584	 0.573329341671814 
1585	 0.573377173131663 
1586	 0.573439946991186 
1587	 0.573516731792257 
1588	 0.573595922983058 
1589	 0.573713218328832 
1590	 0.573779958234842 
1591	 0.573824491125288 
1592	 0.573866631026108 
1593	 0.573850920628264 
1594	 0.573888511898319 
1595	 0.573956038859907 
1596	 0.574020234239007 
1597	 0.574129661116537 
1598	 0.574200382959482 
1599	 0.574239316661747 
1600	 0.574293442989425 
1601	 0.574332525637053 
1602	 0.574380463607615 
1603	 0.574455630886464 
1604	 0.574508275558572 
1605	 0.574529621913444 
1606	 0.57458133101075 
1607	 0.574642571854836 
1608	 0.574707090897624 
1609	 0.574769120382721 
1610	 0.574840355225546 
1611	 0.574908532513292 
1612	 0.57494670830256 
1613	 0.575013621665826 
1614	 0.575105180629305 
1615	 0.575190979092496 
1616	 0.575291650938567 
1617	 0.575372375113424 
1618	 0.575441831208322 
1619	 0.575523072366464 
1620	 0.575591409290339 
1621	 0.575678427113937 
1622	 0.575792779134621 
1623	 0.575875860116846 
1624	 0.575955083462349 
1625	 0.57601139985656 
1626	 0.576050691815257 
1627	 0.576078430701296 
1628	 0.57608247442608 
1629	 0.576100843635131 
1630	 0.576106232899614 
1631	 0.57614193797846 
1632	 0.576189140868894 
1633	 0.576243893522144 
1634	 0.576322668400874 
1635	 0.576383228914589 
1636	 0.576439456752286 
1637	 0.576505568425431 
1638	 0.576565261116141 
1639	 0.576645005791924 
1640	 0.576743684670931 
1641	 0.576832364941885 
1642	 0.576925157969555 
1643	 0.577021494587047 
1644	 0.577118772251183 
1645	 0.577212712988157 
1646	 0.577323977718479 
1647	 0.577399003464775 
1648	 0.577449594865428 
1649	 0.57750861467395 
1650	 0.577551802635092 
1651	 0.577599976538267 
1652	 0.577648109479352 
1653	 0.577705073762139 
1654	 0.577748576083675 
1655	 0.577826768926805 
1656	 0.577938198584337 
1657	 0.578030749635993 
1658	 0.578141802755613 
1659	 0.578227409495687 
1660	 0.578295333687938 
1661	 0.578362567028797 
1662	 0.578429468335387 
1663	 0.578473490384398 
1664	 0.578498805473188 
1665	 0.578527221972994 
1666	 0.578529186436292 
1667	 0.578559545067499 
1668	 0.578598468765413 
1669	 0.578650713056323 
1670	 0.578712280967642 
1671	 0.578791850369885 
1672	 0.57889923893167 
1673	 0.578988597811258 
1674	 0.579106473897096 
1675	 0.579169867802019 
1676	 0.579194473998491 
1677	 0.579228022936565 
1678	 0.57920974226211 
1679	 0.579259168492702 
1680	 0.57935910983856 
1681	 0.579419953235923 
1682	 0.579495545997825 
1683	 0.579559925150193 
1684	 0.57957532510706 
1685	 0.579650380290129 
1686	 0.579765103312956 
1687	 0.57987129653951 
1688	 0.579996757337405 
1689	 0.580117033079387 
1690	 0.580251254618242 
1691	 0.580356178086214 
1692	 0.580451899277977 
1693	 0.580543714430033 
1694	 0.580599214803412 
1695	 0.5806890754719 
1696	 0.58081158654576 
1697	 0.580897113416578 
1698	 0.580976530870746 
1699	 0.581053858031526 
1700	 0.581112712423258 
1701	 0.581169092991437 
1702	 0.581233876035782 
1703	 0.581277294899232 
1704	 0.581282469299231 
1705	 0.581327060517287 
1706	 0.581392758386752 
1707	 0.581434152930014 
1708	 0.581481063627284 
1709	 0.581522568573259 
1710	 0.581519941346148 
1711	 0.581587721446179 
1712	 0.581698212899193 
1713	 0.581800678965612 
1714	 0.581934021838306 
1715	 0.58205696798705 
1716	 0.582185120359117 
1717	 0.582295030074084 
1718	 0.582421570978259 
1719	 0.582498566596732 
1720	 0.582538448177444 
1721	 0.582571643226806 
1722	 0.582566298957436 
1723	 0.582589865113581 
1724	 0.582616936562144 
1725	 0.582634582354361 
1726	 0.582666269622154 
1727	 0.582671151628039 
1728	 0.582658510823725 
1729	 0.582630761312093 
1730	 0.582584374332864 
1731	 0.582538235472232 
1732	 0.582475686462707 
1733	 0.582421947281625 
1734	 0.582357144292282 
1735	 0.58233691167733 
1736	 0.5823315407342 
1737	 0.582335026942662 
1738	 0.582371788023112 
1739	 0.582392681513842 
1740	 0.582412474875321 
1741	 0.582427237218403 
1742	 0.582453974005687 
1743	 0.582463252038916 
1744	 0.582458879929573 
1745	 0.582444378882953 
1746	 0.582413762487103 
1747	 0.582392726805428 
1748	 0.582379454512345 
1749	 0.582413697307264 
1750	 0.582448287017309 
1751	 0.582467650071134 
1752	 0.582498425697465 
1753	 0.582501907872427 
1754	 0.582503434424928 
1755	 0.582533166048286 
1756	 0.582552364576441 
1757	 0.582567107371115 
1758	 0.582593704269634 
1759	 0.582652806998237 
1760	 0.582721612467262 
1761	 0.582758855497214 
1762	 0.582823822894542 
1763	 0.58287011629932 
1764	 0.582864673799504 
1765	 0.582905519557833 
1766	 0.582917899479733 
1767	 0.582885544345565 
1768	 0.582932764966608 
1769	 0.582970476622094 
1770	 0.582988097343236 
1771	 0.583050994300686 
1772	 0.583059945957042 
1773	 0.583069682766153 
1774	 0.583140006387654 
1775	 0.583178113949738 
1776	 0.583196030947582 
1777	 0.583235585330076 
1778	 0.583253045407593 
1779	 0.583255423200076 
1780	 0.583278966495098 
1781	 0.583298360876967 
1782	 0.583333560122285 
1783	 0.583431232334966 
1784	 0.583487297411638 
1785	 0.583534400842064 
1786	 0.583568695310991 
1787	 0.58354137471823 
1788	 0.583582485174469 
1789	 0.583668708216271 
1790	 0.583730374534114 
1791	 0.583841561348161 
1792	 0.583913523794286 
1793	 0.58393487956276 
1794	 0.583986966349354 
1795	 0.584055640211711 
1796	 0.584077506564659 
1797	 0.584070299610868 
1798	 0.584093381910187 
1799	 0.584090209153381 
1800	 0.584119613103654 
1801	 0.578464198262608 
1802	 0.578572077311649 
1803	 0.578670021663752 
1804	 0.578742289525106 
1805	 0.57884869045497 
1806	 0.57891275298435 
1807	 0.578940867791201 
1808	 0.579002834860802 
1809	 0.579101987257481 
1810	 0.579148579585569 
1811	 0.579175896304297 
1812	 0.57921416250045 
1813	 0.579232362067154 
1814	 0.579230107197746 
1815	 0.579195400225684 
1816	 0.579214718264383 
1817	 0.579230497805918 
1818	 0.579249843410855 
1819	 0.579233145808595 
1820	 0.57923990721023 
1821	 0.579202369795624 
1822	 0.579060426866994 
1823	 0.578952532605181 
1824	 0.578867556066647 
1825	 0.578747434858885 
1826	 0.578648199464832 
1827	 0.578518643652288 
1828	 0.578363726974859 
1829	 0.578163693288747 
1830	 0.577977682841657 
1831	 0.577772112060344 
1832	 0.577579460311824 
1833	 0.577399327397687 
1834	 0.577207683581221 
1835	 0.577054720568703 
1836	 0.576938726235609 
1837	 0.576797789337736 
1838	 0.576650468404161 
1839	 0.576521137203598 
1840	 0.576395485330199 
1841	 0.576260256090262 
1842	 0.576142668977598 
1843	 0.576054283567883 
1844	 0.575958989408896 
1845	 0.57585508932837 
1846	 0.575793064684286 
1847	 0.575751147049594 
1848	 0.575698172751047 
1849	 0.575675364725141 
1850	 0.575671499466407 
1851	 0.575682692136303 
1852	 0.575681854131721 
1853	 0.575729593774174 
1854	 0.575830737180306 
1855	 0.575918084621332 
1856	 0.576020585096112 
1857	 0.576167578127063 
1858	 0.576284231915438 
1859	 0.57637590503941 
1860	 0.576468315940715 
1861	 0.576574830757641 
1862	 0.576644396562903 
1863	 0.576681693214481 
1864	 0.576693804455944 
1865	 0.57669634214127 
1866	 0.576717750820504 
1867	 0.576732204132252 
1868	 0.576793599620816 
1869	 0.576908849803416 
1870	 0.577001146541729 
1871	 0.577080955240683 
1872	 0.577177349232214 
1873	 0.577250147395181 
1874	 0.577253369401486 
1875	 0.577266970836085 
1876	 0.577251574295804 
1877	 0.577157704613269 
1878	 0.577055638481381 
1879	 0.576911950897562 
1880	 0.576745498085679 
1881	 0.576546896057532 
1882	 0.576342952584295 
1883	 0.576123365014169 
1884	 0.575873957327778 
1885	 0.57560957459198 
1886	 0.575288820775125 
1887	 0.57494222622987 
1888	 0.574591465451675 
1889	 0.574219525136657 
1890	 0.573830596944321 
1891	 0.573428491610222 
1892	 0.572996941853908 
1893	 0.572583512358497 
1894	 0.572162280741139 
1895	 0.571745270286778 
1896	 0.571322818425866 
1897	 0.570896320249388 
1898	 0.570456851210326 
1899	 0.570028962585983 
1900	 0.569634285777715 
1901	 0.569282734258981 
1902	 0.568954733856615 
1903	 0.568663743078418 
1904	 0.568378191754197 
1905	 0.568135023720372 
1906	 0.567870793536967 
1907	 0.567575218271346 
1908	 0.567323718391322 
1909	 0.567094967750935 
1910	 0.56687320563879 
1911	 0.566698126635601 
1912	 0.566525987321733 
1913	 0.566310142132576 
1914	 0.566040100935086 
1915	 0.565805383337465 
1916	 0.565561852674846 
1917	 0.565323369845761 
1918	 0.565100772941774 
1919	 0.564929280557583 
1920	 0.564747294749737 
1921	 0.56452755260158 
1922	 0.564324195507547 
1923	 0.56411452495561 
1924	 0.563914709448113 
1925	 0.563706471333849 
1926	 0.563536388885324 
1927	 0.563387041906261 
1928	 0.563240078127194 
1929	 0.563112149837322 
1930	 0.56299860910659 
1931	 0.562898965342134 
1932	 0.562824409803236 
1933	 0.562777342369069 
1934	 0.562743303979657 
1935	 0.562734820325735 
1936	 0.562746056747162 
1937	 0.562778809953419 
1938	 0.562858580343864 
1939	 0.562917241833906 
1940	 0.562992545201971 
1941	 0.563036356630222 
1942	 0.563083387371109 
1943	 0.563140156189196 
1944	 0.563197000944351 
1945	 0.56327540173862 
1946	 0.563350987663399 
1947	 0.563436121126298 
1948	 0.563516769735261 
1949	 0.563598863758739 
1950	 0.563683872842391 
1951	 0.56377478933159 
1952	 0.563843222264045 
1953	 0.563961337343891 
1954	 0.564058292477397 
1955	 0.564133164831903 
1956	 0.564249173130126 
1957	 0.564349194292659 
1958	 0.564419801248935 
1959	 0.564529179089259 
1960	 0.564670868437839 
1961	 0.564796730670804 
1962	 0.564928753772231 
1963	 0.565062556280098 
1964	 0.56519923444467 
1965	 0.565326473705255 
1966	 0.565461825301542 
1967	 0.565593957171971 
1968	 0.565721806014442 
1969	 0.565829236413765 
1970	 0.56597181477046 
1971	 0.566132688694233 
1972	 0.566288438992015 
1973	 0.566454629461377 
1974	 0.566628317520605 
1975	 0.566806971770868 
1976	 0.566980603773778 
1977	 0.567159542570758 
1978	 0.567353983806587 
1979	 0.567516551672139 
1980	 0.567672004605924 
1981	 0.567864373102948 
1982	 0.568078484336262 
1983	 0.56828103595387 
1984	 0.568527450374555 
1985	 0.568728066799408 
1986	 0.56889337323109 
1987	 0.569072014953264 
1988	 0.569255294124298 
1989	 0.569397679645717 
1990	 0.569554804493247 
1991	 0.569719976996304 
1992	 0.569903524549853 
1993	 0.570090604450227 
1994	 0.570299712231661 
1995	 0.570540869518522 
1996	 0.570764010399554 
1997	 0.570987872235437 
1998	 0.571217572917349 
1999	 0.571442308905221 
2000	 0.571684310752689 
2001	 0.571957508849611 
2002	 0.572213584667932 
2003	 0.572439651512725 
2004	 0.572638251416905 
2005	 0.57282059799685 
2006	 0.572935305293535 
2007	 0.573109004064448 
2008	 0.573292901370896 
2009	 0.573488679632548 
2010	 0.57370745965424 
2011	 0.57392831165927 
2012	 0.574144475732263 
2013	 0.574386594225366 
2014	 0.574646059547174 
2015	 0.574919584200929 
2016	 0.575224668469223 
2017	 0.575500634563009 
2018	 0.575770851275758 
2019	 0.576027846412415 
2020	 0.576297754386008 
2021	 0.576549986474652 
2022	 0.576828888431128 
2023	 0.577153272280681 
2024	 0.577433808434293 
2025	 0.577683876342771 
2026	 0.577961841469907 
2027	 0.578252455605348 
2028	 0.578501344794435 
2029	 0.57878064641251 
2030	 0.579096444670844 
2031	 0.579377079155789 
2032	 0.579647119768213 
2033	 0.579905532201221 
2034	 0.580157421842609 
2035	 0.580394524834884 
2036	 0.580624412502306 
2037	 0.580827426243363 
2038	 0.581006556622343 
2039	 0.581181904385914 
2040	 0.581343733980196 
2041	 0.581476672342818 
2042	 0.581600659948098 
2043	 0.581766007360624 
2044	 0.581925580923715 
2045	 0.582088921496723 
2046	 0.582250720660343 
2047	 0.582415371222109 
2048	 0.582592613657267 
2049	 0.582791157860745 
2050	 0.582956849337717 
2051	 0.583132008196064 
2052	 0.583283222207766 
2053	 0.583391662183343 
2054	 0.583506352045309 
2055	 0.583605958652963 
2056	 0.583728043123396 
2057	 0.583834836354126 
2058	 0.583933680876583 
2059	 0.584031315819126 
2060	 0.58411806088224 
2061	 0.584222259316433 
2062	 0.58432543575045 
2063	 0.58444030660254 
2064	 0.584574902739735 
2065	 0.584706484610215 
2066	 0.584838398223484 
2067	 0.584973787913372 
2068	 0.585114320957867 
2069	 0.585259889958237 
2070	 0.585399455326567 
2071	 0.585530441961914 
2072	 0.585689086776939 
2073	 0.58587076043335 
2074	 0.586017161747893 
2075	 0.586177595522924 
2076	 0.586308359818265 
2077	 0.586382250809655 
2078	 0.58649898501469 
2079	 0.586642537067615 
2080	 0.586757910016616 
2081	 0.586856674322192 
2082	 0.586977242781292 
2083	 0.587089412161652 
2084	 0.587216496890863 
2085	 0.587331395091298 
2086	 0.587474941682767 
2087	 0.587577077281196 
2088	 0.587636628131594 
2089	 0.587727231138671 
2090	 0.587815195804513 
2091	 0.587917651456969 
2092	 0.588032826007653 
2093	 0.588148782348195 
2094	 0.588283472661131 
2095	 0.588401067450389 
2096	 0.58849451163717 
2097	 0.588619486584719 
2098	 0.588764046465014 
2099	 0.588882028618562 
2100	 0.589042843665904 
2101	 0.58925303553565 
2102	 0.589414069432377 
2103	 0.589573026154117 
2104	 0.589720617294632 
2105	 0.589813351763501 
2106	 0.589976491846439 
2107	 0.590167048884611 
2108	 0.590367906214211 
2109	 0.590611088320981 
2110	 0.59085066441341 
2111	 0.591108474861227 
2112	 0.591345046533243 
2113	 0.591567723095611 
2114	 0.591819697311254 
2115	 0.592049922129698 
2116	 0.592259483573935 
2117	 0.592483774142244 
2118	 0.592726394763615 
2119	 0.592938554108753 
2120	 0.593124793931915 
2121	 0.593336728459994 
2122	 0.593556415776597 
2123	 0.593756497170473 
2124	 0.593961334170549 
2125	 0.5941614350429 
2126	 0.594355242870377 
2127	 0.594525507710693 
2128	 0.594710961739915 
2129	 0.594855228125679 
2130	 0.594953669912217 
2131	 0.59504277982453 
2132	 0.595103790236478 
2133	 0.595132541118177 
2134	 0.595163805310156 
2135	 0.595198787751908 
2136	 0.595168165471414 
2137	 0.595126786488159 
2138	 0.595024161986084 
2139	 0.594823514598908 
2140	 0.594656670160483 
2141	 0.594479453764505 
2142	 0.594279535282134 
2143	 0.594081877786469 
2144	 0.593852837522292 
2145	 0.593586597791131 
2146	 0.593311008728389 
2147	 0.593012068538656 
2148	 0.592710998799354 
2149	 0.592383750477564 
2150	 0.592045930957816 
2151	 0.591667193203235 
2152	 0.591262988474904 
2153	 0.590829595321558 
2154	 0.59033744197546 
2155	 0.589879623362489 
2156	 0.589428393839451 
2157	 0.588947117362434 
2158	 0.588471070700667 
2159	 0.587965115173464 
2160	 0.58741485904954 
2161	 0.586867583761028 
2162	 0.586307058698952 
2163	 0.585749595687814 
2164	 0.585197875287997 
2165	 0.584616563739711 
2166	 0.584038123515418 
2167	 0.583464028725016 
2168	 0.582863932078407 
2169	 0.582229439426868 
2170	 0.581628620778481 
2171	 0.581024398845039 
2172	 0.580432483114801 
2173	 0.579862027752071 
2174	 0.57928871457899 
2175	 0.578704438800414 
2176	 0.578144579383148 
2177	 0.577624140208633 
2178	 0.57706470922491 
2179	 0.576507800487405 
2180	 0.575934175500967 
2181	 0.575337587467142 
2182	 0.574723798295742 
2183	 0.574089958959698 
2184	 0.573450196427449 
2185	 0.572819913970813 
2186	 0.572161355332593 
2187	 0.571547540373825 
2188	 0.570948598988437 
2189	 0.57038405840026 
2190	 0.569839623819365 
2191	 0.569319883308865 
2192	 0.568817088862513 
2193	 0.56836893591516 
2194	 0.567971341040178 
2195	 0.567574427496642 
2196	 0.56723440152882 
2197	 0.566878847871711 
2198	 0.566515283484442 
2199	 0.56616101906509 
2200	 0.565814809126654 
2201	 0.565483501455251 
2202	 0.565150488851693 
2203	 0.564819957182405 
2204	 0.564571951396044 
2205	 0.564371557980636 
2206	 0.564182947667644 
2207	 0.564054720461255 
2208	 0.563925374686661 
2209	 0.563795876228839 
2210	 0.563705845614866 
2211	 0.563661443802776 
2212	 0.563617138173238 
2213	 0.563590906109304 
2214	 0.563573652246541 
2215	 0.563592320462043 
2216	 0.563578939498086 
2217	 0.563594077271034 
2218	 0.563548970794165 
2219	 0.563480751649898 
2220	 0.563361720165002 
2221	 0.563199297716387 
2222	 0.562979128994739 
2223	 0.562732080965766 
2224	 0.562495057013757 
2225	 0.562282257714882 
2226	 0.562092685256305 
2227	 0.561857944296625 
2228	 0.561637449234095 
2229	 0.561358466107273 
2230	 0.561002848046189 
2231	 0.560708814615065 
2232	 0.560409224527279 
2233	 0.560129885889456 
2234	 0.559892828608318 
2235	 0.559620573104382 
2236	 0.559358751842761 
2237	 0.559057023042544 
2238	 0.558740718015276 
2239	 0.5583889485216 
2240	 0.557991924764942 
2241	 0.557585259167087 
2242	 0.557138540348642 
2243	 0.556700519929279 
2244	 0.55625424626504 
2245	 0.555810124622517 
2246	 0.555336703915765 
2247	 0.554865746843692 
2248	 0.554398463262678 
2249	 0.553899284939116 
2250	 0.553464817619256 
2251	 0.553061367075561 
2252	 0.552668667942736 
2253	 0.552312022777485 
2254	 0.551953165359793 
2255	 0.5515927334404 
2256	 0.551267595799166 
2257	 0.550964606282273 
2258	 0.550677472005937 
2259	 0.550387601298218 
2260	 0.550171689652 
2261	 0.549970757722962 
2262	 0.549847283264853 
2263	 0.549800757842566 
2264	 0.54980501052372 
2265	 0.549868751519706 
2266	 0.549991696706722 
2267	 0.550226293948117 
2268	 0.550428659728021 
2269	 0.550667974623268 
2270	 0.550896963699896 
2271	 0.551135805644462 
2272	 0.551382929054124 
2273	 0.551643468234843 
2274	 0.551953403619395 
2275	 0.552296826286735 
2276	 0.552648344078494 
2277	 0.55307385047577 
2278	 0.553583491016282 
2279	 0.554068418886713 
2280	 0.554593573517791 
2281	 0.555104777957202 
2282	 0.555622519824595 
2283	 0.556138014733446 
2284	 0.556675890534283 
2285	 0.557171551085052 
2286	 0.55764825882914 
2287	 0.558113934634269 
2288	 0.558523934768001 
2289	 0.558982312765617 
2290	 0.559468266002464 
2291	 0.559936684104637 
2292	 0.560426634843483 
2293	 0.56090348814437 
2294	 0.561361902532834 
2295	 0.561812551492465 
2296	 0.562264911628016 
2297	 0.562700560863564 
2298	 0.563126262486005 
2299	 0.563562511105961 
2300	 0.563962133212422 
2301	 0.564366635317811 
2302	 0.564764029499895 
2303	 0.565185543544303 
2304	 0.565630922177374 
2305	 0.566072128096129 
2306	 0.566503425763806 
2307	 0.566948702383858 
2308	 0.567332172174958 
2309	 0.567674375624505 
2310	 0.568034871252483 
2311	 0.568343283069072 
2312	 0.568695956881473 
2313	 0.569085087262314 
2314	 0.569458762838309 
2315	 0.569869739517163 
2316	 0.570221380260648 
2317	 0.570517698831182 
2318	 0.57086661831806 
2319	 0.571196569726089 
2320	 0.571526191413911 
2321	 0.571912258199002 
2322	 0.572250643536729 
2323	 0.572534147568727 
2324	 0.572862986836369 
2325	 0.573204386822993 
2326	 0.573537205771065 
2327	 0.573889305836702 
2328	 0.574217013510253 
2329	 0.574541905853649 
2330	 0.574905606590712 
2331	 0.575267805941975 
2332	 0.575607246779228 
2333	 0.575896729020472 
2334	 0.57619062836803 
2335	 0.576458333377347 
2336	 0.576672565704155 
2337	 0.576895608318235 
2338	 0.577067240492503 
2339	 0.577209478933054 
2340	 0.577383013166069 
2341	 0.577553690570962 
2342	 0.577667896845838 
2343	 0.577776370391718 
2344	 0.577878050183163 
2345	 0.577902784635512 
2346	 0.577848682055705 
2347	 0.577837163992267 
2348	 0.577811834950156 
2349	 0.577724365719231 
2350	 0.577600003111199 
2351	 0.577500130521521 
2352	 0.577343623868687 
2353	 0.577223756132878 
2354	 0.577176806265306 
2355	 0.577077178826493 
2356	 0.576936289208979 
2357	 0.576792799610141 
2358	 0.576624631980259 
2359	 0.576473702142047 
2360	 0.576327453664119 
2361	 0.576188922617647 
2362	 0.576060647224464 
2363	 0.575934812436799 
2364	 0.575811398032175 
2365	 0.575686401475308 
2366	 0.575569992957782 
2367	 0.575430348186459 
2368	 0.575290685196158 
2369	 0.575098460783109 
2370	 0.574798757061554 
2371	 0.574690898566519 
2372	 0.574546836483046 
2373	 0.574301335729146 
2374	 0.574068032803944 
2375	 0.573694588229408 
2376	 0.57324604645149 
2377	 0.572910610516338 
2378	 0.572609893073996 
2379	 0.572347175442586 
2380	 0.572135054249167 
2381	 0.571869433963016 
2382	 0.57161613747089 
2383	 0.571369934283915 
2384	 0.571053954073435 
2385	 0.570682501761367 
2386	 0.570295466570426 
2387	 0.569902249223436 
2388	 0.569440373733069 
2389	 0.569011661531385 
2390	 0.568635455114503 
2391	 0.568238628681129 
2392	 0.567897293255868 
2393	 0.567582588180271 
2394	 0.567178799785956 
2395	 0.566740030644829 
2396	 0.566328777195553 
2397	 0.565854158344129 
2398	 0.565378903225897 
2399	 0.564979971921646 
2400	 0.564621666195617 
2401	 0.564345813939517 
2402	 0.564106904150076 
2403	 0.563778038250123 
2404	 0.563436757098077 
2405	 0.563021751919419 
2406	 0.562432836446238 
2407	 0.562009031207639 
2408	 0.561573994220574 
2409	 0.561052799261448 
2410	 0.560841137664875 
2411	 0.560552286798213 
2412	 0.560204438464197 
2413	 0.559969345926521 
2414	 0.5596040551054 
2415	 0.559285725298699 
2416	 0.558938082790492 
2417	 0.558556275136545 
2418	 0.558202667687561 
2419	 0.557815114990079 
2420	 0.557487025851767 
2421	 0.557218827753437 
2422	 0.556974121507585 
2423	 0.556775431121989 
2424	 0.556556380661508 
2425	 0.556369342658455 
2426	 0.556159337371649 
2427	 0.555941663560112 
2428	 0.555701154253637 
2429	 0.555464687405649 
2430	 0.555136563865866 
2431	 0.554733768034932 
2432	 0.554350934094392 
2433	 0.553906104846014 
2434	 0.553507676724516 
2435	 0.55309496986326 
2436	 0.552805481814226 
2437	 0.552603072493757 
2438	 0.552414381790752 
2439	 0.552339837497683 
2440	 0.552208640272634 
2441	 0.552036212225393 
2442	 0.551812185299185 
2443	 0.55161244502604 
2444	 0.551333882266158 
2445	 0.550957656050732 
2446	 0.550719014078686 
2447	 0.55049027562699 
2448	 0.550214886961663 
2449	 0.550007798430958 
2450	 0.549708609566294 
2451	 0.549317023911859 
2452	 0.548962558576677 
2453	 0.548570486173964 
2454	 0.548203486949387 
2455	 0.54782828425835 
2456	 0.547564936814813 
2457	 0.547402724987258 
2458	 0.547252889854894 
2459	 0.547159488345327 
2460	 0.547002045723676 
2461	 0.546808394813331 
2462	 0.546603242827836 
2463	 0.546391460443452 
2464	 0.546262120992173 
2465	 0.546178891420932 
2466	 0.546050986047459 
2467	 0.546008852159972 
2468	 0.545806229490729 
2469	 0.545456614559206 
2470	 0.545135247342266 
2471	 0.544862527718881 
2472	 0.54460743250591 
2473	 0.544412124896762 
2474	 0.544551796947699 
2475	 0.544408280607647 
2476	 0.544026016904764 
2477	 0.543791797676551 
2478	 0.543248277716514 
2479	 0.542855589682618 
2480	 0.542829079905663 
2481	 0.542659919541657 
2482	 0.542613224299547 
2483	 0.542367722271482 
2484	 0.541918570885672 
2485	 0.541761921214657 
2486	 0.541533219934926 
2487	 0.541427136040931 
2488	 0.541434840592634 
2489	 0.541042804688374 
2490	 0.540696809656729 
2491	 0.540448042356501 
2492	 0.540031556268589 
2493	 0.539921197849721 
2494	 0.539829071569423 
2495	 0.539498873165707 
2496	 0.539166750770126 
2497	 0.538836128842284 
2498	 0.538429102962539 
2499	 0.537931202877376 
2500	 0.537732490081918 
