Wavelength	MM800002.asd
350	 6.41783350480864E-02 
351	 6.22775001434986E-02 
352	 5.65736102183676E-02 
353	 5.20612949259504E-02 
354	 5.14635590190198E-02 
355	 5.58446743370991E-02 
356	 0.060873142785087 
357	 6.22604312566815E-02 
358	 5.97889853242865E-02 
359	 5.87042333075796E-02 
360	 5.83825948760336E-02 
361	 5.52618464895408E-02 
362	 5.87096202215166E-02 
363	 6.05900410003036E-02 
364	 5.75518482279278E-02 
365	 5.64514032205393E-02 
366	 5.62165822456757E-02 
367	 5.71180898530138E-02 
368	 5.93079332250674E-02 
369	 6.24076902663804E-02 
370	 6.19243535269203E-02 
371	 6.02233934148775E-02 
372	 6.34334316644577E-02 
373	 6.33302540464122E-02 
374	 6.48450953834544E-02 
375	 6.89696552068639E-02 
376	 0.067004029796178 
377	 6.42357223591123E-02 
378	 6.43408809116223E-02 
379	 6.84485989336335E-02 
380	 6.97268373162059E-02 
381	 6.95555195558098E-02 
382	 6.99553266318292E-02 
383	 7.27370376505275E-02 
384	 0.073535489128402 
385	 7.31356511747233E-02 
386	 0.073146804643572 
387	 7.52087997964363E-02 
388	 0.078173311911138 
389	 8.00623611008757E-02 
390	 7.96564749602134E-02 
391	 8.01265375572119E-02 
392	 8.19709413373113E-02 
393	 8.48422828527206E-02 
394	 8.77862102740968E-02 
395	 8.97201538424353E-02 
396	 9.12562725683341E-02 
397	 9.29553670669997E-02 
398	 9.46886503812954E-02 
399	 9.56125879289523E-02 
400	 9.66573077375742E-02 
401	 9.89479574014974E-02 
402	 0.100788231355943 
403	 0.102827957446197 
404	 0.104969474497218 
405	 0.106289644577068 
406	 0.107632099835175 
407	 0.110071232549314 
408	 0.113193937668686 
409	 0.112497148415438 
410	 0.113422629645438 
411	 0.115845000956192 
412	 0.117252147442636 
413	 0.118658361234397 
414	 0.119795478668401 
415	 0.120522724492449 
416	 0.120954190659066 
417	 0.121848866239792 
418	 0.122675970497665 
419	 0.122897718919054 
420	 0.123076112999353 
421	 0.122982063603895 
422	 0.123163481097342 
423	 0.124411944065656 
424	 0.124533201271449 
425	 0.123923244886507 
426	 0.123346034863783 
427	 0.123626371044658 
428	 0.12349481276596 
429	 0.122946996329478 
430	 0.12239436085727 
431	 0.122070545838492 
432	 0.121499497486628 
433	 0.121028754718491 
434	 0.121724202563881 
435	 0.121614111550181 
436	 0.12149548088723 
437	 0.12207438813822 
438	 0.12229644967476 
439	 0.123072642406994 
440	 0.124291734806011 
441	 0.125335510469105 
442	 0.12591842552858 
443	 0.127055133980149 
444	 0.128870699490108 
445	 0.130000749341378 
446	 0.131175202711264 
447	 0.132400977214475 
448	 0.13356104014685 
449	 0.134813292038769 
450	 0.136319322459255 
451	 0.137872576607687 
452	 0.13900001869782 
453	 0.140162236031124 
454	 0.141299543541316 
455	 0.142358622621792 
456	 0.143542535500742 
457	 0.144685490108416 
458	 0.145653210396466 
459	 0.146382843186964 
460	 0.147227518415017 
461	 0.147959661449674 
462	 0.148575686024059 
463	 0.149458980703487 
464	 0.150226337728851 
465	 0.150831914111055 
466	 0.15135502402034 
467	 0.151960946174189 
468	 0.152552493031606 
469	 0.153037562590781 
470	 0.153361527593001 
471	 0.15389351509905 
472	 0.15442782162922 
473	 0.154817039056668 
474	 0.155294026593474 
475	 0.155683787741537 
476	 0.156084534910129 
477	 0.156662859675394 
478	 0.157176051311268 
479	 0.157609649677462 
480	 0.157973813036179 
481	 0.158274145891337 
482	 0.158755537506818 
483	 0.159346626531619 
484	 0.159869458826575 
485	 0.160125457368877 
486	 0.160413684271749 
487	 0.16080501815956 
488	 0.161169430185197 
489	 0.161503327300899 
490	 0.16192706773384 
491	 0.162460135831865 
492	 0.162818945865713 
493	 0.16320721939907 
494	 0.163615918056221 
495	 0.163963349537662 
496	 0.164430977766234 
497	 0.164752837862175 
498	 0.164955030862807 
499	 0.165564309487314 
500	 0.16595117291108 
501	 0.166160590396411 
502	 0.166426433645038 
503	 0.166869618364686 
504	 0.167258871155413 
505	 0.167503261020331 
506	 0.16766810844157 
507	 0.168150519079084 
508	 0.168698281688839 
509	 0.169072115956428 
510	 0.169430424145936 
511	 0.169748516476847 
512	 0.170037962180714 
513	 0.170336036909239 
514	 0.170743744577177 
515	 0.171152085120399 
516	 0.171489685532796 
517	 0.171783928968445 
518	 0.172111457358425 
519	 0.172400450164269 
520	 0.172600520148913 
521	 0.173046310594693 
522	 0.173475470501223 
523	 0.173781541194396 
524	 0.174056387796761 
525	 0.174290669008251 
526	 0.17455936819971 
527	 0.174912189975747 
528	 0.175276370814459 
529	 0.175667532593266 
530	 0.176031245623564 
531	 0.176281768132006 
532	 0.176510600795287 
533	 0.176825959456803 
534	 0.17724318491463 
535	 0.177587313200095 
536	 0.177960829535 
537	 0.17834738482585 
538	 0.178688378232615 
539	 0.178948989794095 
540	 0.179263313519577 
541	 0.179654372171187 
542	 0.179981906754332 
543	 0.180349138042124 
544	 0.180774752687671 
545	 0.181224982574745 
546	 0.181554907078239 
547	 0.181891325193814 
548	 0.182306421985597 
549	 0.182809803034613 
550	 0.183260363479545 
551	 0.183690359777447 
552	 0.184142751007601 
553	 0.184597163691329 
554	 0.185038937389969 
555	 0.185488242506641 
556	 0.185984550625829 
557	 0.186569275560603 
558	 0.187063472646976 
559	 0.187457301952221 
560	 0.188080362867578 
561	 0.188690876684047 
562	 0.189336973735625 
563	 0.190137934278991 
564	 0.19105895097262 
565	 0.191983375052593 
566	 0.192832667817278 
567	 0.193580059501033 
568	 0.194298774048302 
569	 0.195084218562548 
570	 0.195992821865404 
571	 0.196965904883399 
572	 0.19788669596943 
573	 0.198725951294346 
574	 0.199531826163923 
575	 0.200418877359444 
576	 0.201470034691076 
577	 0.202650818474599 
578	 0.203702526575647 
579	 0.204699270057203 
580	 0.205601498925736 
581	 0.20638767031124 
582	 0.207409019317282 
583	 0.208600904897528 
584	 0.209906749212597 
585	 0.21134783972952 
586	 0.212815449261555 
587	 0.214281796929985 
588	 0.215740591837149 
589	 0.217153259325614 
590	 0.218605852582607 
591	 0.22008940217712 
592	 0.2215059531019 
593	 0.22273448994312 
594	 0.22380433158253 
595	 0.224764115965773 
596	 0.225590070751433 
597	 0.226508195661322 
598	 0.227535312397945 
599	 0.228581980812041 
600	 0.229719700826692 
601	 0.230977732464658 
602	 0.232294628353117 
603	 0.233463638854769 
604	 0.234559862794033 
605	 0.235658058431192 
606	 0.236805019084491 
607	 0.23787058813117 
608	 0.238810180538725 
609	 0.239704371807947 
610	 0.240763872377966 
611	 0.241722145949287 
612	 0.242598641035624 
613	 0.243444180022558 
614	 0.244181962428007 
615	 0.244821500433919 
616	 0.245428440052233 
617	 0.246094717406509 
618	 0.246755554772791 
619	 0.247341624710792 
620	 0.247860033247262 
621	 0.248490712560382 
622	 0.249021672176629 
623	 0.249467629168028 
624	 0.249929690267921 
625	 0.250418166463197 
626	 0.250863257398899 
627	 0.251259539285873 
628	 0.251694319696684 
629	 0.25213990338518 
630	 0.252566626691647 
631	 0.252947414811952 
632	 0.253259244566764 
633	 0.253629319792583 
634	 0.254043859784762 
635	 0.254380175327804 
636	 0.254765133138734 
637	 0.255146238634549 
638	 0.255472268782945 
639	 0.255760995278407 
640	 0.256110462541125 
641	 0.256521005698636 
642	 0.25693200988065 
643	 0.257247868501016 
644	 0.257529179124787 
645	 0.257852776619744 
646	 0.258297733059023 
647	 0.25866932666639 
648	 0.258967022294118 
649	 0.259267127570945 
650	 0.259691209881363 
651	 0.260123350247835 
652	 0.260502420021497 
653	 0.260831518598662 
654	 0.261234559735048 
655	 0.261691702524432 
656	 0.262156674858408 
657	 0.262587718981053 
658	 0.263038584330697 
659	 0.263492497153905 
660	 0.263909555042903 
661	 0.264351305227242 
662	 0.264830466784618 
663	 0.265340131615788 
664	 0.265856271369088 
665	 0.266272178465873 
666	 0.266715940838649 
667	 0.267306520927283 
668	 0.267821987101667 
669	 0.26833299102645 
670	 0.268888266050579 
671	 0.269503304436894 
672	 0.270082238122604 
673	 0.270672250308347 
674	 0.271289793450444 
675	 0.271797384914912 
676	 0.2724396728175 
677	 0.273110686226529 
678	 0.273613468732538 
679	 0.27429219659713 
680	 0.274972030012269 
681	 0.275599567033925 
682	 0.276337164467457 
683	 0.27698918685193 
684	 0.277620649399807 
685	 0.278335088287431 
686	 0.279125611845695 
687	 0.279854237995864 
688	 0.280549629550342 
689	 0.281344201876258 
690	 0.282062483852334 
691	 0.282777756891849 
692	 0.283541400577221 
693	 0.28428439041879 
694	 0.285088551690789 
695	 0.285911982416745 
696	 0.286686417559041 
697	 0.287460219077292 
698	 0.288296385308839 
699	 0.289155003488553 
700	 0.289894293510807 
701	 0.290655068671713 
702	 0.29149823259056 
703	 0.292420173972286 
704	 0.293310346307671 
705	 0.294111836238091 
706	 0.294885456902074 
707	 0.295737273019091 
708	 0.296567981951314 
709	 0.297365922312075 
710	 0.298145078607771 
711	 0.298943919291077 
712	 0.299792205436886 
713	 0.300650883259642 
714	 0.301462917084377 
715	 0.302180100421106 
716	 0.302888607715239 
717	 0.303626765695673 
718	 0.304391799365253 
719	 0.305198410387056 
720	 0.30597012561229 
721	 0.306657182764222 
722	 0.307276991164312 
723	 0.307954729401296 
724	 0.308591634294672 
725	 0.309069102052755 
726	 0.309585801811627 
727	 0.310135305673882 
728	 0.310707982879998 
729	 0.311292464314721 
730	 0.311752828839137 
731	 0.312166293986481 
732	 0.312599376226418 
733	 0.312996241094601 
734	 0.313342514471415 
735	 0.313641650086364 
736	 0.313904980983654 
737	 0.314117736270812 
738	 0.314355615696216 
739	 0.314577530916913 
740	 0.314618189804112 
741	 0.314686002653346 
742	 0.314773561712935 
743	 0.314834986275161 
744	 0.314854587984043 
745	 0.314863075419809 
746	 0.314805464478015 
747	 0.314621609909867 
748	 0.314517191164786 
749	 0.314345477148211 
750	 0.314078298624556 
751	 0.313864981070348 
752	 0.313610963279916 
753	 0.313303324051454 
754	 0.312959150545666 
755	 0.312629822890544 
756	 0.31225824366773 
757	 0.311837853785353 
758	 0.311391668071977 
759	 0.310942101268036 
760	 0.310473091869229 
761	 0.309981776328836 
762	 0.309485878181376 
763	 0.308894844075174 
764	 0.308309707131174 
765	 0.307797804621132 
766	 0.307181113842191 
767	 0.306654937959042 
768	 0.306109184133719 
769	 0.305356521330725 
770	 0.304844798414619 
771	 0.304336245893148 
772	 0.303672062882269 
773	 0.302871628754242 
774	 0.30221872796983 
775	 0.301615869739472 
776	 0.300940340482788 
777	 0.300261156881728 
778	 0.299559624915235 
779	 0.298879649154159 
780	 0.298263827919077 
781	 0.297574427326327 
782	 0.296870218062969 
783	 0.296197671318513 
784	 0.295569346718012 
785	 0.294850331207123 
786	 0.294138774137659 
787	 0.293500700020137 
788	 0.292807215781901 
789	 0.292161859954848 
790	 0.291537088071752 
791	 0.290861935669897 
792	 0.290112716486099 
793	 0.289399760980257 
794	 0.288756511939139 
795	 0.288142934649912 
796	 0.287563274350854 
797	 0.28698011599976 
798	 0.286367013036806 
799	 0.28572403115504 
800	 0.285091191175591 
801	 0.284482285788904 
802	 0.283896332623661 
803	 0.283323703642716 
804	 0.282698515820268 
805	 0.282071265753185 
806	 0.281545843933554 
807	 0.280997034927691 
808	 0.280460578968781 
809	 0.279940620955817 
810	 0.279378933086006 
811	 0.278845116931501 
812	 0.278315837022481 
813	 0.277774779690116 
814	 0.277288947404217 
815	 0.276773382720196 
816	 0.276256997143525 
817	 0.275797289717785 
818	 0.275323603394468 
819	 0.274906588246048 
820	 0.274479365232609 
821	 0.273892409233433 
822	 0.273529699678426 
823	 0.273181556541389 
824	 0.272712239417601 
825	 0.272255667899601 
826	 0.271913922746595 
827	 0.271616381910079 
828	 0.27125975987841 
829	 0.270811653753003 
830	 0.270365463566703 
831	 0.269980908629617 
832	 0.269673726925585 
833	 0.269337103712614 
834	 0.26900886235092 
835	 0.268706225398033 
836	 0.268413472132488 
837	 0.26807182746591 
838	 0.267749743765365 
839	 0.267502738088438 
840	 0.267328909067964 
841	 0.267134304011378 
842	 0.266812305281576 
843	 0.266380208866463 
844	 0.266231474344099 
845	 0.266047935566862 
846	 0.265817172370255 
847	 0.265644844218968 
848	 0.26541500094459 
849	 0.265190009366903 
850	 0.265009381948988 
851	 0.264872774956033 
852	 0.264686414628221 
853	 0.264497980727127 
854	 0.264344686440023 
855	 0.264216676533289 
856	 0.26416962773382 
857	 0.264102512927266 
858	 0.263949545861505 
859	 0.263819259623752 
860	 0.263771171505274 
861	 0.263725216063185 
862	 0.263597560572925 
863	 0.263541376290716 
864	 0.263468616276203 
865	 0.263390553406933 
866	 0.263365524729947 
867	 0.263290071285909 
868	 0.263265000483465 
869	 0.263316955260365 
870	 0.263371586244102 
871	 0.263297224432033 
872	 0.26324366684639 
873	 0.263307353604248 
874	 0.263418596806192 
875	 0.263488998350445 
876	 0.263527077385003 
877	 0.263570898966214 
878	 0.26365458617931 
879	 0.263771274647217 
880	 0.263845270572155 
881	 0.263826807106507 
882	 0.263854083611598 
883	 0.264002331370403 
884	 0.264206786913618 
885	 0.264343389380694 
886	 0.264461352485923 
887	 0.264613693252954 
888	 0.264776387794058 
889	 0.264879159168339 
890	 0.265077309708386 
891	 0.265288008243409 
892	 0.265502111882314 
893	 0.265825014287206 
894	 0.265985792964307 
895	 0.266106215424688 
896	 0.266311680191305 
897	 0.266585636080375 
898	 0.266843896207603 
899	 0.26709740105205 
900	 0.267383062730395 
901	 0.267737800929512 
902	 0.268011903562418 
903	 0.268287213328439 
904	 0.268655789634041 
905	 0.268920601419773 
906	 0.269200250594155 
907	 0.269540999079136 
908	 0.269944336533556 
909	 0.27040888710992 
910	 0.270814369694731 
911	 0.271177008622067 
912	 0.271595844488623 
913	 0.272035921433649 
914	 0.272416136398333 
915	 0.272736490106945 
916	 0.273081194406829 
917	 0.273537453678762 
918	 0.274120377591582 
919	 0.274724546633385 
920	 0.275153555909557 
921	 0.275685887054104 
922	 0.276158047147459 
923	 0.276552316659694 
924	 0.277154041406979 
925	 0.277743744450567 
926	 0.278298045631137 
927	 0.278844369767102 
928	 0.279422372980808 
929	 0.279935938052423 
930	 0.28054298631419 
931	 0.281307776402929 
932	 0.281944657393131 
933	 0.282555314994755 
934	 0.283213514809771 
935	 0.283925387818576 
936	 0.284518367224082 
937	 0.285138348458293 
938	 0.285848774554637 
939	 0.286633383266843 
940	 0.287313702749159 
941	 0.288123343322076 
942	 0.288967421821058 
943	 0.28968202851312 
944	 0.290386955713501 
945	 0.291098560488719 
946	 0.291860058640501 
947	 0.292695916933542 
948	 0.293511698827023 
949	 0.29443098460732 
950	 0.295391341877884 
951	 0.296261439829698 
952	 0.297090425283791 
953	 0.297915995563868 
954	 0.298802947279864 
955	 0.299796369232685 
956	 0.300793266200528 
957	 0.30176848799849 
958	 0.302703454721556 
959	 0.303589612369836 
960	 0.30443515503597 
961	 0.305333240135315 
962	 0.3063461629325 
963	 0.307462929942663 
964	 0.308452046880574 
965	 0.30948896514807 
966	 0.310581640782959 
967	 0.311625188965263 
968	 0.312667878861659 
969	 0.313750512030316 
970	 0.314832512111547 
971	 0.315839302121766 
972	 0.316849713276126 
973	 0.317958446742859 
974	 0.319116745263304 
975	 0.320218188590988 
976	 0.32142070448877 
977	 0.322729361643284 
978	 0.324001407370493 
979	 0.325074833622538 
980	 0.326167768806437 
981	 0.327314358034947 
982	 0.328549298691756 
983	 0.329863709362975 
984	 0.33103680295428 
985	 0.332162292892544 
986	 0.333350083971902 
987	 0.334646472520936 
988	 0.335837257242424 
989	 0.337030978116349 
990	 0.33820009132313 
991	 0.339316411117365 
992	 0.340720667392581 
993	 0.341855476561616 
994	 0.342945342943031 
995	 0.344362068740647 
996	 0.345471635225088 
997	 0.346655502172378 
998	 0.347949576312704 
999	 0.34924810057622 
1000	 0.350510419691545 
1001	 0.355831562538518 
1002	 0.357068039796223 
1003	 0.358323234194154 
1004	 0.359543229282793 
1005	 0.360785684543618 
1006	 0.361955429645692 
1007	 0.363064864554186 
1008	 0.364165364921892 
1009	 0.365320493800147 
1010	 0.366435895415524 
1011	 0.367526797944223 
1012	 0.368691401127007 
1013	 0.369793083164553 
1014	 0.370870167776601 
1015	 0.371994457029004 
1016	 0.373069482679936 
1017	 0.374148847895432 
1018	 0.375218073425959 
1019	 0.376253805568346 
1020	 0.377264597005326 
1021	 0.37832580303001 
1022	 0.379359896437962 
1023	 0.380396166398116 
1024	 0.381478341833045 
1025	 0.382537057953005 
1026	 0.383558824069135 
1027	 0.384610903507029 
1028	 0.385646496978096 
1029	 0.386611347532739 
1030	 0.387597901446526 
1031	 0.38857597298814 
1032	 0.389532310038674 
1033	 0.390475171484123 
1034	 0.391520860952568 
1035	 0.392562728422445 
1036	 0.393568982389942 
1037	 0.394619133757232 
1038	 0.395652563627787 
1039	 0.396673507614756 
1040	 0.39769851669669 
1041	 0.398715757889227 
1042	 0.399744482555821 
1043	 0.400740855603276 
1044	 0.401737617100076 
1045	 0.402742229327759 
1046	 0.403761669088752 
1047	 0.404711762885251 
1048	 0.405663412594096 
1049	 0.40661225831285 
1050	 0.407558176970869 
1051	 0.408564248976296 
1052	 0.409520613670498 
1053	 0.410479595402004 
1054	 0.411416482708723 
1055	 0.412195932180887 
1056	 0.413056229425649 
1057	 0.413942281825553 
1058	 0.414836165014037 
1059	 0.415680291008329 
1060	 0.416574224842687 
1061	 0.41739663790141 
1062	 0.4181342760452 
1063	 0.418888255205205 
1064	 0.419682354460272 
1065	 0.420473691423825 
1066	 0.421252710812316 
1067	 0.42205099509839 
1068	 0.422781801852169 
1069	 0.423443789618602 
1070	 0.42413590322725 
1071	 0.424767708839527 
1072	 0.425451663291153 
1073	 0.426222837486122 
1074	 0.426922573628955 
1075	 0.427606955622444 
1076	 0.42822036223528 
1077	 0.428850218518189 
1078	 0.429449600564975 
1079	 0.430067259324476 
1080	 0.43072405512745 
1081	 0.431389879405515 
1082	 0.432034000233381 
1083	 0.43266271267263 
1084	 0.43326812757161 
1085	 0.433918890141864 
1086	 0.434564049777627 
1087	 0.435213889604009 
1088	 0.435889028209773 
1089	 0.43656460640425 
1090	 0.43721763489337 
1091	 0.437915478379749 
1092	 0.438618835512914 
1093	 0.439320070635477 
1094	 0.44005503510908 
1095	 0.440750806861138 
1096	 0.441482182917671 
1097	 0.442282162766045 
1098	 0.443046769683046 
1099	 0.443800255037382 
1100	 0.444580926294041 
1101	 0.445339856091249 
1102	 0.44614382833089 
1103	 0.446973399304642 
1104	 0.447856420802459 
1105	 0.448712462229356 
1106	 0.449599620859383 
1107	 0.450483386801691 
1108	 0.451348983542089 
1109	 0.452270818477618 
1110	 0.453230024285268 
1111	 0.454178634262435 
1112	 0.455148003016313 
1113	 0.456106297454358 
1114	 0.457037306724004 
1115	 0.458026588353419 
1116	 0.459056468348109 
1117	 0.46008592094093 
1118	 0.461158482409631 
1119	 0.46218997251782 
1120	 0.463251129423968 
1121	 0.464269034344212 
1122	 0.465282832890052 
1123	 0.466356531136509 
1124	 0.467413851230884 
1125	 0.468458599564516 
1126	 0.469522360768801 
1127	 0.470614575594004 
1128	 0.471686883149915 
1129	 0.472767719037838 
1130	 0.473819721917 
1131	 0.474833544220795 
1132	 0.475879584355832 
1133	 0.476916713591864 
1134	 0.477973958912598 
1135	 0.479070965574922 
1136	 0.480154178314946 
1137	 0.48123091001678 
1138	 0.482258575740012 
1139	 0.483290574160065 
1140	 0.484296248960066 
1141	 0.48534194098149 
1142	 0.486413158762515 
1143	 0.487436298761382 
1144	 0.488473173997158 
1145	 0.489460577621199 
1146	 0.490380107508473 
1147	 0.491330705130192 
1148	 0.492279797732114 
1149	 0.493227208886532 
1150	 0.494187147208676 
1151	 0.495127735098589 
1152	 0.496034510129168 
1153	 0.496923950585282 
1154	 0.497828550287989 
1155	 0.498722081094752 
1156	 0.499605757322153 
1157	 0.500512791098758 
1158	 0.501378714666842 
1159	 0.502207837548331 
1160	 0.503043188055871 
1161	 0.503865491788816 
1162	 0.504689368748963 
1163	 0.505539627835261 
1164	 0.506331416130699 
1165	 0.507088478814573 
1166	 0.50784776215501 
1167	 0.508581896688741 
1168	 0.509305419771596 
1169	 0.510010474206299 
1170	 0.510709468240369 
1171	 0.51141623169374 
1172	 0.512102857176826 
1173	 0.512788490437454 
1174	 0.513498036084762 
1175	 0.51418045109428 
1176	 0.51483893729015 
1177	 0.515493572380977 
1178	 0.51613943828973 
1179	 0.51678763853429 
1180	 0.517427367366871 
1181	 0.518059955988604 
1182	 0.518680869600191 
1183	 0.51933269542631 
1184	 0.519951428242161 
1185	 0.52055934806449 
1186	 0.521152691554045 
1187	 0.521734035237932 
1188	 0.522307510768796 
1189	 0.522874237309967 
1190	 0.523415734212301 
1191	 0.523943204707266 
1192	 0.52446320212826 
1193	 0.524960780445662 
1194	 0.525454165823603 
1195	 0.525933638582924 
1196	 0.526421382861095 
1197	 0.526903435130737 
1198	 0.527383295623048 
1199	 0.527864456137594 
1200	 0.528355331720393 
1201	 0.528839512086412 
1202	 0.529325767224604 
1203	 0.529789108994588 
1204	 0.530248836601128 
1205	 0.5306969897615 
1206	 0.531112177331342 
1207	 0.531550651595851 
1208	 0.532009105976386 
1209	 0.532442671770778 
1210	 0.532878167615967 
1211	 0.533294276371274 
1212	 0.533672628794251 
1213	 0.534072649286393 
1214	 0.534481330843661 
1215	 0.534879436138621 
1216	 0.535276469375417 
1217	 0.535686781351027 
1218	 0.536071234261047 
1219	 0.536445489119026 
1220	 0.536800223911833 
1221	 0.537127715475611 
1222	 0.537478524415479 
1223	 0.537821506226668 
1224	 0.538169099525989 
1225	 0.538539739240298 
1226	 0.538891333819268 
1227	 0.539229171669198 
1228	 0.539566786633231 
1229	 0.539897269777505 
1230	 0.540233033088396 
1231	 0.540586711652846 
1232	 0.540909990658906 
1233	 0.541220391076443 
1234	 0.541517590260152 
1235	 0.541828178915613 
1236	 0.542127317634754 
1237	 0.542421491336004 
1238	 0.542740003084975 
1239	 0.543020873534232 
1240	 0.543250085868809 
1241	 0.543521376404757 
1242	 0.543799583987611 
1243	 0.544080338998721 
1244	 0.544384914817445 
1245	 0.544675577533456 
1246	 0.544971599463354 
1247	 0.54524838836363 
1248	 0.545518593017188 
1249	 0.545777214351913 
1250	 0.546018118904381 
1251	 0.546232233899607 
1252	 0.546459536487228 
1253	 0.54668215328751 
1254	 0.546897535922744 
1255	 0.547110676834302 
1256	 0.547323893861655 
1257	 0.547529060572919 
1258	 0.547736076605097 
1259	 0.547931115848947 
1260	 0.548152292014197 
1261	 0.548391327903164 
1262	 0.548616222592702 
1263	 0.548863375128275 
1264	 0.549093555595756 
1265	 0.549297972544954 
1266	 0.54951087858171 
1267	 0.549725117448533 
1268	 0.549934438899549 
1269	 0.550160963743442 
1270	 0.550383590874381 
1271	 0.550635843681725 
1272	 0.550913449257052 
1273	 0.551188944308925 
1274	 0.551480654834755 
1275	 0.551767865200611 
1276	 0.552059544566329 
1277	 0.552349855835438 
1278	 0.552647472956806 
1279	 0.552936453767025 
1280	 0.55324064971313 
1281	 0.553507160529635 
1282	 0.553757482994161 
1283	 0.553988898819241 
1284	 0.554203081864644 
1285	 0.554375902954884 
1286	 0.554557184968017 
1287	 0.554719181774814 
1288	 0.554846360131423 
1289	 0.554955186421347 
1290	 0.555027964984677 
1291	 0.555067709046831 
1292	 0.555080609902383 
1293	 0.555065727236085 
1294	 0.555017011344662 
1295	 0.554933564355472 
1296	 0.554822913861198 
1297	 0.554671264150418 
1298	 0.554512869075126 
1299	 0.554330705318193 
1300	 0.554136329425361 
1301	 0.553926401607372 
1302	 0.553699865019736 
1303	 0.553451675213496 
1304	 0.553193154394216 
1305	 0.552921297189684 
1306	 0.552664862589808 
1307	 0.552436740724507 
1308	 0.55220307328392 
1309	 0.55197011936267 
1310	 0.551751405239209 
1311	 0.551526729540724 
1312	 0.551268453101947 
1313	 0.551077127900125 
1314	 0.550904729988482 
1315	 0.550765791608848 
1316	 0.550674612249223 
1317	 0.550595796971608 
1318	 0.550539510733231 
1319	 0.550499878100486 
1320	 0.550478663887733 
1321	 0.55048264506577 
1322	 0.550498508646359 
1323	 0.550545434380674 
1324	 0.550633379221043 
1325	 0.550731297733829 
1326	 0.5508798860935 
1327	 0.551047481811148 
1328	 0.551203904831251 
1329	 0.551401302441286 
1330	 0.551633786099345 
1331	 0.551885496327032 
1332	 0.552160156630504 
1333	 0.55249425456503 
1334	 0.552800401166475 
1335	 0.553085723836218 
1336	 0.553417491834153 
1337	 0.553783435300542 
1338	 0.554131550514035 
1339	 0.55449434530122 
1340	 0.554858989829172 
1341	 0.555206758080567 
1342	 0.555577740481736 
1343	 0.555977723884169 
1344	 0.556363253019079 
1345	 0.556760779796825 
1346	 0.557165217388058 
1347	 0.557555602192117 
1348	 0.557961573545897 
1349	 0.558361154112035 
1350	 0.558755395472529 
1351	 0.559155806480095 
1352	 0.559562609261841 
1353	 0.559963161082155 
1354	 0.560377138907857 
1355	 0.560754524295671 
1356	 0.561117926937445 
1357	 0.561477005950471 
1358	 0.561797025134724 
1359	 0.56215144813783 
1360	 0.562525333898881 
1361	 0.562883799609708 
1362	 0.56325872736294 
1363	 0.563609102412083 
1364	 0.563938896258189 
1365	 0.564266874291086 
1366	 0.564586327998901 
1367	 0.564893542523548 
1368	 0.565199424460618 
1369	 0.565510204481097 
1370	 0.565823545378792 
1371	 0.566132125817036 
1372	 0.566436816090086 
1373	 0.566727213712262 
1374	 0.567008051958457 
1375	 0.567284095374171 
1376	 0.567538036121997 
1377	 0.567789552876048 
1378	 0.568004183162096 
1379	 0.56819607268887 
1380	 0.568359928184473 
1381	 0.568489738704295 
1382	 0.568607548803444 
1383	 0.568698468159948 
1384	 0.568778877365556 
1385	 0.568864057592138 
1386	 0.568900367270681 
1387	 0.568890764131914 
1388	 0.568886743411199 
1389	 0.568862230087336 
1390	 0.568812050845765 
1391	 0.568778962202442 
1392	 0.568724326456604 
1393	 0.568622512438095 
1394	 0.568510592013337 
1395	 0.568384205630417 
1396	 0.568239154703214 
1397	 0.568090320775591 
1398	 0.567931548293031 
1399	 0.567776615784714 
1400	 0.567607862202465 
1401	 0.567450438400659 
1402	 0.567303352298368 
1403	 0.56714482284777 
1404	 0.566984415153791 
1405	 0.566825907792012 
1406	 0.566658084960529 
1407	 0.566499006110309 
1408	 0.566335977397246 
1409	 0.566190196375942 
1410	 0.566028082842282 
1411	 0.565926152393928 
1412	 0.565853505611302 
1413	 0.565808385297915 
1414	 0.565813860498905 
1415	 0.565858872467426 
1416	 0.565934436423299 
1417	 0.566012344067337 
1418	 0.566104697564317 
1419	 0.566195063339402 
1420	 0.566247737658473 
1421	 0.566308037742882 
1422	 0.566381057809021 
1423	 0.566417447683319 
1424	 0.566435206094429 
1425	 0.566443305935641 
1426	 0.56643814112868 
1427	 0.566390530895358 
1428	 0.56637089654932 
1429	 0.566364614045035 
1430	 0.56634240037597 
1431	 0.566307663570068 
1432	 0.566290091693266 
1433	 0.566285052801983 
1434	 0.566255757096855 
1435	 0.5662287043098 
1436	 0.566193753362425 
1437	 0.566123352507365 
1438	 0.56607929522005 
1439	 0.566063498782782 
1440	 0.566020573638874 
1441	 0.565952746493338 
1442	 0.565906753713368 
1443	 0.565850171529947 
1444	 0.565789853915201 
1445	 0.565772820167588 
1446	 0.565741959951006 
1447	 0.565687271394575 
1448	 0.565640646014917 
1449	 0.565553599123998 
1450	 0.565452671063959 
1451	 0.565356144447635 
1452	 0.565252857151579 
1453	 0.565138102212643 
1454	 0.565013643821188 
1455	 0.56489538731962 
1456	 0.564762316079195 
1457	 0.564646474765892 
1458	 0.564543520023496 
1459	 0.564447011474638 
1460	 0.56435790417905 
1461	 0.564263222396218 
1462	 0.564159536800766 
1463	 0.564083284578496 
1464	 0.564025303286189 
1465	 0.563961963631593 
1466	 0.563908694042167 
1467	 0.563869881620405 
1468	 0.56381870554566 
1469	 0.563791450593517 
1470	 0.563797978281697 
1471	 0.563804089965777 
1472	 0.563792919946522 
1473	 0.563813129560305 
1474	 0.563859020321342 
1475	 0.563920340051104 
1476	 0.564027683041089 
1477	 0.564160685445267 
1478	 0.564321473371245 
1479	 0.564493368869647 
1480	 0.564657287041162 
1481	 0.564828258857139 
1482	 0.564983305787749 
1483	 0.565109655658351 
1484	 0.565273062146373 
1485	 0.5654571258867 
1486	 0.565615029848156 
1487	 0.565779734179214 
1488	 0.565937848581194 
1489	 0.566072801816191 
1490	 0.566217438182505 
1491	 0.566374605256656 
1492	 0.56652228191328 
1493	 0.566666219700859 
1494	 0.566799236444021 
1495	 0.566938450965632 
1496	 0.567049999243001 
1497	 0.56713740757586 
1498	 0.567224886273798 
1499	 0.567279446701999 
1500	 0.567362074632008 
1501	 0.567452697147097 
1502	 0.567548600753921 
1503	 0.567659703411273 
1504	 0.567776263491393 
1505	 0.567905141542348 
1506	 0.568002658183375 
1507	 0.568105002077223 
1508	 0.568218313990014 
1509	 0.568265436940503 
1510	 0.568321989866272 
1511	 0.568394928705588 
1512	 0.568444829517646 
1513	 0.568533661036094 
1514	 0.568642607681913 
1515	 0.568741235120312 
1516	 0.568843010303362 
1517	 0.568925160626925 
1518	 0.569007165282482 
1519	 0.569062733741122 
1520	 0.569087086878199 
1521	 0.569124750285494 
1522	 0.569146374385465 
1523	 0.569193344404541 
1524	 0.569248212822125 
1525	 0.569315371914404 
1526	 0.569402501674875 
1527	 0.569478084494004 
1528	 0.569562496061111 
1529	 0.569636563182074 
1530	 0.569714664072286 
1531	 0.569768353108638 
1532	 0.569815383011123 
1533	 0.569840302318561 
1534	 0.569802302059403 
1535	 0.569832995813855 
1536	 0.56988004574617 
1537	 0.569938900708419 
1538	 0.570062359036474 
1539	 0.570142395983839 
1540	 0.57019091600846 
1541	 0.570263982552166 
1542	 0.570347432236331 
1543	 0.57041779494737 
1544	 0.570502640045173 
1545	 0.570567413061782 
1546	 0.570602551368394 
1547	 0.570634833219517 
1548	 0.57070498870251 
1549	 0.570790516402745 
1550	 0.570900562584647 
1551	 0.571024805854718 
1552	 0.571130554027246 
1553	 0.571208259280781 
1554	 0.571267572641093 
1555	 0.57130904640802 
1556	 0.571335001483283 
1557	 0.571371003652123 
1558	 0.571416299900963 
1559	 0.571468585510154 
1560	 0.571527901581612 
1561	 0.571602127425314 
1562	 0.571669538404803 
1563	 0.571729308986214 
1564	 0.571812000902974 
1565	 0.571904757077685 
1566	 0.572000219983995 
1567	 0.572122661098987 
1568	 0.572218335781543 
1569	 0.57231556352903 
1570	 0.572380134695032 
1571	 0.572411214018036 
1572	 0.572462630985395 
1573	 0.572493743580387 
1574	 0.572545014844641 
1575	 0.572607091619718 
1576	 0.572688234178201 
1577	 0.572802022154839 
1578	 0.572874364158065 
1579	 0.572958926927195 
1580	 0.573005195169283 
1581	 0.572988804902571 
1582	 0.573010807107127 
1583	 0.573021810604045 
1584	 0.573066666977816 
1585	 0.573142196539045 
1586	 0.573211678403695 
1587	 0.573301324212581 
1588	 0.573385718958508 
1589	 0.573476614535151 
1590	 0.573544712316873 
1591	 0.573607468238315 
1592	 0.573667281560253 
1593	 0.57369747452425 
1594	 0.573748236889867 
1595	 0.573808165351547 
1596	 0.57387022403186 
1597	 0.573947979304361 
1598	 0.574014195934494 
1599	 0.57407623921743 
1600	 0.574141465982115 
1601	 0.574204632621491 
1602	 0.574261049156686 
1603	 0.574313505292786 
1604	 0.574368803341334 
1605	 0.574423311191209 
1606	 0.574472227728878 
1607	 0.574516784220628 
1608	 0.574577603650949 
1609	 0.574607593390398 
1610	 0.574627464038169 
1611	 0.574682015867653 
1612	 0.574737972488585 
1613	 0.5748239450968 
1614	 0.574942147197566 
1615	 0.575043818069274 
1616	 0.575139487765837 
1617	 0.575233862712302 
1618	 0.575304876515966 
1619	 0.575379548692556 
1620	 0.575469615810269 
1621	 0.575562637090693 
1622	 0.575671649745075 
1623	 0.575747551331016 
1624	 0.575826580799258 
1625	 0.575865155406003 
1626	 0.575861136835208 
1627	 0.575879175225617 
1628	 0.575878491233507 
1629	 0.575907163807953 
1630	 0.575953589339598 
1631	 0.575993408942957 
1632	 0.576039580804819 
1633	 0.576086993901577 
1634	 0.57613391007231 
1635	 0.576181499106071 
1636	 0.57623665971576 
1637	 0.576286009281004 
1638	 0.576322261003032 
1639	 0.576387082917396 
1640	 0.576466495062878 
1641	 0.576540077011301 
1642	 0.576623714129635 
1643	 0.576712304260265 
1644	 0.576805789948956 
1645	 0.57688500519718 
1646	 0.576970113049308 
1647	 0.577049841178123 
1648	 0.577105139865856 
1649	 0.577185192110808 
1650	 0.577295462867169 
1651	 0.577364920322216 
1652	 0.577413574179693 
1653	 0.577480621576334 
1654	 0.577527603634077 
1655	 0.577603113404194 
1656	 0.577705823857519 
1657	 0.577800904010389 
1658	 0.577911248838797 
1659	 0.577994895947832 
1660	 0.578070146735003 
1661	 0.57814567788362 
1662	 0.578219320853413 
1663	 0.578259103887984 
1664	 0.578279829459364 
1665	 0.578309431811745 
1666	 0.578294355333164 
1667	 0.578328889953543 
1668	 0.578395091480476 
1669	 0.578467291984635 
1670	 0.578557708544765 
1671	 0.578647285356805 
1672	 0.578760114331978 
1673	 0.578851012732961 
1674	 0.578942786448477 
1675	 0.579011930403381 
1676	 0.57906393416913 
1677	 0.579109814780221 
1678	 0.579124162929862 
1679	 0.579170993310851 
1680	 0.579238762163092 
1681	 0.579279124878551 
1682	 0.579313317863261 
1683	 0.579360171096584 
1684	 0.579369468582751 
1685	 0.579443612764622 
1686	 0.579581804322233 
1687	 0.57968145471526 
1688	 0.579786740560297 
1689	 0.579900204383809 
1690	 0.580000113321079 
1691	 0.580115492124244 
1692	 0.580261980881037 
1693	 0.580382713331366 
1694	 0.580498747939642 
1695	 0.580597668873044 
1696	 0.580687748334479 
1697	 0.580766802124134 
1698	 0.580824962237929 
1699	 0.580881818437004 
1700	 0.580929823913585 
1701	 0.580977653966788 
1702	 0.581013373248577 
1703	 0.581062627272886 
1704	 0.581124485072998 
1705	 0.581167012011461 
1706	 0.581209296368992 
1707	 0.58123990981779 
1708	 0.581250493189211 
1709	 0.581269749057524 
1710	 0.581256462557682 
1711	 0.581323541817376 
1712	 0.581423678776236 
1713	 0.581539250327883 
1714	 0.581733900685109 
1715	 0.58186902810444 
1716	 0.581992788425921 
1717	 0.58209855923719 
1718	 0.582183494455441 
1719	 0.582264212286912 
1720	 0.582331121348548 
1721	 0.582389927272644 
1722	 0.582438366877411 
1723	 0.58248584835488 
1724	 0.582527068078601 
1725	 0.582554246441416 
1726	 0.582584710174801 
1727	 0.582585085655814 
1728	 0.582559689133229 
1729	 0.582524741977054 
1730	 0.582463618919186 
1731	 0.582415027920613 
1732	 0.582349999214854 
1733	 0.582314198740277 
1734	 0.582293431509763 
1735	 0.582272091891714 
1736	 0.582261984014558 
1737	 0.582264217288733 
1738	 0.582272984542685 
1739	 0.582280391142117 
1740	 0.582299968504285 
1741	 0.58231640488788 
1742	 0.582334565113188 
1743	 0.582342884778394 
1744	 0.582361047011734 
1745	 0.582348465857413 
1746	 0.582300243304213 
1747	 0.582268808187903 
1748	 0.582270967315155 
1749	 0.582314676907077 
1750	 0.582341814164592 
1751	 0.582358244310755 
1752	 0.582375125346652 
1753	 0.582365064104156 
1754	 0.582360100158937 
1755	 0.582392135402914 
1756	 0.582412436350358 
1757	 0.582432256653092 
1758	 0.582490355186816 
1759	 0.58252541229547 
1760	 0.582562242937177 
1761	 0.582620976104236 
1762	 0.582665487393818 
1763	 0.582712022555698 
1764	 0.582735146880308 
1765	 0.582732043678066 
1766	 0.582727278421141 
1767	 0.582723026399944 
1768	 0.582726172753548 
1769	 0.582729686070867 
1770	 0.582736975311487 
1771	 0.582763212172322 
1772	 0.582790970745606 
1773	 0.582827247955067 
1774	 0.582891480796682 
1775	 0.58294797612231 
1776	 0.582998405441205 
1777	 0.583073678410402 
1778	 0.583129489421442 
1779	 0.58315798796189 
1780	 0.583197714608299 
1781	 0.583229009740646 
1782	 0.583271767145975 
1783	 0.583304816094604 
1784	 0.583350817448292 
1785	 0.583416513758515 
1786	 0.583453892312779 
1787	 0.583476864324309 
1788	 0.583542781922783 
1789	 0.583614174465327 
1790	 0.583661306587027 
1791	 0.583725555627306 
1792	 0.583790872841386 
1793	 0.583841348563096 
1794	 0.583903410248423 
1795	 0.584016867745059 
1796	 0.584043574550905 
1797	 0.583979611381189 
1798	 0.583981929279348 
1799	 0.583968319543331 
1800	 0.583997401238943 
1801	 0.578166802976991 
1802	 0.578218610240042 
1803	 0.5782427920029 
1804	 0.578296783808433 
1805	 0.57840514570991 
1806	 0.578504973093399 
1807	 0.578540653656449 
1808	 0.57859184712915 
1809	 0.578661675928176 
1810	 0.57869254541375 
1811	 0.578692513222694 
1812	 0.578704530992715 
1813	 0.578716283316407 
1814	 0.578629697460722 
1815	 0.578551346458961 
1816	 0.578549767441323 
1817	 0.578542339002665 
1818	 0.57856111648953 
1819	 0.578556556765785 
1820	 0.578584001979751 
1821	 0.578541962235216 
1822	 0.57845604315806 
1823	 0.57837887499951 
1824	 0.578293739613963 
1825	 0.578207851529138 
1826	 0.57811186366964 
1827	 0.577966337254631 
1828	 0.577819109678097 
1829	 0.577637666636265 
1830	 0.577470503203015 
1831	 0.577290024696147 
1832	 0.577131065738303 
1833	 0.576989899137232 
1834	 0.576823472943782 
1835	 0.576693522531548 
1836	 0.576582432460539 
1837	 0.576424607560161 
1838	 0.576271203807708 
1839	 0.576115917064549 
1840	 0.575939424879995 
1841	 0.575764619922394 
1842	 0.575641634841574 
1843	 0.575526098100388 
1844	 0.57542097033199 
1845	 0.575348868381147 
1846	 0.575282320471502 
1847	 0.575238217952186 
1848	 0.575231232170554 
1849	 0.575226475019174 
1850	 0.575236994427271 
1851	 0.575267712826033 
1852	 0.575298174696689 
1853	 0.575324609487765 
1854	 0.57539908349242 
1855	 0.575489252649475 
1856	 0.575601792426168 
1857	 0.575797613107786 
1858	 0.575968517153356 
1859	 0.57609289929003 
1860	 0.576196543552738 
1861	 0.576292197581241 
1862	 0.576306669735871 
1863	 0.576317845459146 
1864	 0.576328271234623 
1865	 0.576316386307483 
1866	 0.576323893311233 
1867	 0.576346995833803 
1868	 0.576389724067334 
1869	 0.576470042033068 
1870	 0.576551895396576 
1871	 0.576606859109193 
1872	 0.576646353494952 
1873	 0.576688255833206 
1874	 0.576696751657861 
1875	 0.5766956134844 
1876	 0.576692487746361 
1877	 0.576637045740809 
1878	 0.576534009914294 
1879	 0.576401557882918 
1880	 0.576259911489522 
1881	 0.576076674480802 
1882	 0.575895016440768 
1883	 0.575716848539005 
1884	 0.575524720173752 
1885	 0.575275582697415 
1886	 0.574999614819372 
1887	 0.574677472347684 
1888	 0.574314359299112 
1889	 0.573934789403266 
1890	 0.573512796703847 
1891	 0.573097412005502 
1892	 0.572662657172037 
1893	 0.572233525259022 
1894	 0.57179166646494 
1895	 0.571379655497067 
1896	 0.570937291127888 
1897	 0.57047607724804 
1898	 0.570028453043163 
1899	 0.569565428108427 
1900	 0.569158493831181 
1901	 0.568815974841432 
1902	 0.568482608149724 
1903	 0.568191126107961 
1904	 0.567911281048796 
1905	 0.56766531110689 
1906	 0.56740795059031 
1907	 0.567126635565113 
1908	 0.566887640436444 
1909	 0.566652203357897 
1910	 0.566402918225669 
1911	 0.566227485825646 
1912	 0.566059073894247 
1913	 0.565874635882673 
1914	 0.565694431823033 
1915	 0.565510007959005 
1916	 0.565320648100777 
1917	 0.565123972469362 
1918	 0.564901605668991 
1919	 0.564690637269763 
1920	 0.564502547546994 
1921	 0.564303139976124 
1922	 0.564118482409842 
1923	 0.563941964925499 
1924	 0.563760743772422 
1925	 0.563544726955953 
1926	 0.563384034193162 
1927	 0.563251366510681 
1928	 0.563121818990557 
1929	 0.563027028668912 
1930	 0.562926568064094 
1931	 0.562815800424749 
1932	 0.562722277853035 
1933	 0.562658436218156 
1934	 0.562595465170301 
1935	 0.56254817526619 
1936	 0.562520690054366 
1937	 0.562517832882984 
1938	 0.562523423217424 
1939	 0.562548990531235 
1940	 0.56262653228762 
1941	 0.562666046413732 
1942	 0.562699112168463 
1943	 0.562735709472204 
1944	 0.562766975735667 
1945	 0.562821987970694 
1946	 0.562879551368442 
1947	 0.562954105149396 
1948	 0.563031282454627 
1949	 0.563111638514147 
1950	 0.563201391392077 
1951	 0.563309707834797 
1952	 0.563401405531414 
1953	 0.563523285021795 
1954	 0.563621125768571 
1955	 0.563674802431984 
1956	 0.563779450546045 
1957	 0.563885791186329 
1958	 0.563970325232439 
1959	 0.564091069002498 
1960	 0.564269412569974 
1961	 0.564409333360377 
1962	 0.564542130713575 
1963	 0.56468952743382 
1964	 0.564839216173481 
1965	 0.564975442735798 
1966	 0.565141913216627 
1967	 0.565271739111613 
1968	 0.56540066843161 
1969	 0.565512483976021 
1970	 0.565636725272046 
1971	 0.565750427600333 
1972	 0.56588341436498 
1973	 0.566013807935911 
1974	 0.566173901717776 
1975	 0.56635126990069 
1976	 0.566548348865778 
1977	 0.566766824168234 
1978	 0.566942593228006 
1979	 0.567105769252665 
1980	 0.567285227244285 
1981	 0.56748554665854 
1982	 0.56770584596914 
1983	 0.567924015269815 
1984	 0.568167608901341 
1985	 0.568388967857372 
1986	 0.568612275285787 
1987	 0.568814015732085 
1988	 0.569004028922516 
1989	 0.569182525609222 
1990	 0.569354984135392 
1991	 0.569506825275786 
1992	 0.569686674289617 
1993	 0.569883093735 
1994	 0.570079854726119 
1995	 0.570282006657913 
1996	 0.570484546987891 
1997	 0.570684925626731 
1998	 0.57089832962991 
1999	 0.571127757028197 
2000	 0.571353787503482 
2001	 0.57160146962071 
2002	 0.571821927191805 
2003	 0.572024885324221 
2004	 0.572240804056382 
2005	 0.572429071160711 
2006	 0.572583407244806 
2007	 0.572766540027713 
2008	 0.572922484777894 
2009	 0.573129676130387 
2010	 0.573382636732486 
2011	 0.573626779053537 
2012	 0.573887863685227 
2013	 0.574161783474137 
2014	 0.574455994635167 
2015	 0.574725117202833 
2016	 0.575028919074985 
2017	 0.575319509816613 
2018	 0.575593525815536 
2019	 0.57584621752534 
2020	 0.576112997026489 
2021	 0.576369342967405 
2022	 0.576636203093704 
2023	 0.576927573562692 
2024	 0.57718775260523 
2025	 0.577412505536948 
2026	 0.577670887338937 
2027	 0.577939589566539 
2028	 0.578189641430812 
2029	 0.578466870548662 
2030	 0.578783231428517 
2031	 0.579071591731306 
2032	 0.579369770453886 
2033	 0.579629088006115 
2034	 0.57987350316036 
2035	 0.580102810656346 
2036	 0.580309776267132 
2037	 0.580493437051095 
2038	 0.580647636312153 
2039	 0.580811965917789 
2040	 0.580953982164184 
2041	 0.581089197423009 
2042	 0.581257916181717 
2043	 0.581441538920526 
2044	 0.581604147311693 
2045	 0.581758017579462 
2046	 0.581925170108774 
2047	 0.582086063727145 
2048	 0.582255339898606 
2049	 0.582442853547586 
2050	 0.582622125821012 
2051	 0.582814634264787 
2052	 0.582977089492843 
2053	 0.583125344007671 
2054	 0.58326803627417 
2055	 0.583395085737824 
2056	 0.583497021367897 
2057	 0.583616465512435 
2058	 0.583741775496127 
2059	 0.583864168332082 
2060	 0.583987488301876 
2061	 0.584104257451822 
2062	 0.584210289583279 
2063	 0.584334075804515 
2064	 0.584463233284377 
2065	 0.584589431911823 
2066	 0.5847130875227 
2067	 0.584855495441166 
2068	 0.584998370526646 
2069	 0.585164700974843 
2070	 0.585306048646384 
2071	 0.585461536335716 
2072	 0.585608903272778 
2073	 0.585733256378726 
2074	 0.585864226898408 
2075	 0.586005881972188 
2076	 0.586145606465983 
2077	 0.586274234547899 
2078	 0.586408156847573 
2079	 0.586567561887278 
2080	 0.586695801682307 
2081	 0.586791880941136 
2082	 0.586905393444558 
2083	 0.587009872134947 
2084	 0.587129369980021 
2085	 0.587235192175629 
2086	 0.587346790661467 
2087	 0.587452313687633 
2088	 0.587543827136806 
2089	 0.587645316075174 
2090	 0.587756811935502 
2091	 0.587860395199928 
2092	 0.587958365342298 
2093	 0.588055943050629 
2094	 0.588148141069465 
2095	 0.588248995420076 
2096	 0.588340043657904 
2097	 0.588453666886916 
2098	 0.58859389440782 
2099	 0.588721505587702 
2100	 0.588855391987688 
2101	 0.589003235714683 
2102	 0.589141419632449 
2103	 0.589264234522116 
2104	 0.589411920699106 
2105	 0.589547962586006 
2106	 0.589737650322991 
2107	 0.589966148315351 
2108	 0.590196014474683 
2109	 0.590471924953464 
2110	 0.590729326979456 
2111	 0.590984395986637 
2112	 0.591237410164112 
2113	 0.591485403564132 
2114	 0.591755255650507 
2115	 0.591987544193252 
2116	 0.592211231494566 
2117	 0.592414528116031 
2118	 0.592581483048831 
2119	 0.592775554600856 
2120	 0.592962140549517 
2121	 0.593162480029266 
2122	 0.593381826779518 
2123	 0.593589579671875 
2124	 0.593803352131439 
2125	 0.594004271905914 
2126	 0.594203902309204 
2127	 0.594390463118503 
2128	 0.594575820746712 
2129	 0.594733614570722 
2130	 0.594873236401712 
2131	 0.595016519423331 
2132	 0.595084118683919 
2133	 0.595104736984473 
2134	 0.595112903981987 
2135	 0.595075595910911 
2136	 0.595017488176572 
2137	 0.594950151800319 
2138	 0.594838979450666 
2139	 0.594657272532286 
2140	 0.594502213494709 
2141	 0.594358100032484 
2142	 0.59416545344891 
2143	 0.593967985287559 
2144	 0.593728766270547 
2145	 0.593409401239647 
2146	 0.593113445778671 
2147	 0.592796488647644 
2148	 0.592494622042577 
2149	 0.592195174937755 
2150	 0.591935808829136 
2151	 0.591583360284432 
2152	 0.591210475864447 
2153	 0.590791770901414 
2154	 0.590280243112401 
2155	 0.589815431546367 
2156	 0.589355477004587 
2157	 0.588873752745583 
2158	 0.58840623825265 
2159	 0.587890069233994 
2160	 0.5873101519527 
2161	 0.586763833879703 
2162	 0.586215307633487 
2163	 0.585654576899709 
2164	 0.585115572446671 
2165	 0.58455446306356 
2166	 0.583967214320354 
2167	 0.583339888201694 
2168	 0.582732916207263 
2169	 0.58211276404604 
2170	 0.581502633618755 
2171	 0.580902065150378 
2172	 0.580290764992672 
2173	 0.579659245861767 
2174	 0.579064230177286 
2175	 0.578463637980602 
2176	 0.577898075163884 
2177	 0.577400946723198 
2178	 0.576853277129464 
2179	 0.576318274495227 
2180	 0.575750659221453 
2181	 0.575133479338409 
2182	 0.574523127153791 
2183	 0.573889376845274 
2184	 0.573263911376273 
2185	 0.572660150765045 
2186	 0.572066115743857 
2187	 0.571473332172297 
2188	 0.57089818939573 
2189	 0.570319837300601 
2190	 0.569708139291608 
2191	 0.569167649265053 
2192	 0.568649631616492 
2193	 0.56817724633159 
2194	 0.567757180541826 
2195	 0.567361046914467 
2196	 0.567012079463762 
2197	 0.566665440137524 
2198	 0.566362259685923 
2199	 0.566045496372185 
2200	 0.565740171838592 
2201	 0.565426356489731 
2202	 0.565110000897138 
2203	 0.564767086919412 
2204	 0.564488147441499 
2205	 0.564211204338192 
2206	 0.563995637451253 
2207	 0.563839552235614 
2208	 0.563696031870579 
2209	 0.563588212930445 
2210	 0.56349350033056 
2211	 0.563417735680493 
2212	 0.563379476763496 
2213	 0.563393376970262 
2214	 0.563376994459778 
2215	 0.563398677833874 
2216	 0.563382104913755 
2217	 0.563358152824218 
2218	 0.563287658238578 
2219	 0.563182620998464 
2220	 0.563064411744921 
2221	 0.562912801864725 
2222	 0.562730563414725 
2223	 0.562529918704151 
2224	 0.562353771959661 
2225	 0.562134294338641 
2226	 0.561881060487704 
2227	 0.561628425451246 
2228	 0.561356547139394 
2229	 0.561083655738105 
2230	 0.560796535403711 
2231	 0.560516261028305 
2232	 0.560222168970991 
2233	 0.559958848675149 
2234	 0.559728751834959 
2235	 0.559455344213348 
2236	 0.559192184829251 
2237	 0.558901216471559 
2238	 0.558584846735472 
2239	 0.558235006776001 
2240	 0.557864761157645 
2241	 0.557474326796275 
2242	 0.557009709749212 
2243	 0.556586265324095 
2244	 0.55618965764556 
2245	 0.555780398131659 
2246	 0.555326519774846 
2247	 0.554868444495972 
2248	 0.554392458063075 
2249	 0.553850520473404 
2250	 0.553387048026765 
2251	 0.552954460605674 
2252	 0.552525383552525 
2253	 0.552107496185952 
2254	 0.551713399696919 
2255	 0.551328401794535 
2256	 0.550979597930339 
2257	 0.550650591480031 
2258	 0.550372989410682 
2259	 0.550127519157389 
2260	 0.54992230614828 
2261	 0.549779221360263 
2262	 0.54964407867876 
2263	 0.549477387145306 
2264	 0.549441309598751 
2265	 0.549473579451345 
2266	 0.549568949393936 
2267	 0.549811386544754 
2268	 0.550048213067586 
2269	 0.550331055152658 
2270	 0.550608159649638 
2271	 0.550950357500328 
2272	 0.551242240928961 
2273	 0.551520312380458 
2274	 0.55183358859368 
2275	 0.552175327097014 
2276	 0.552513461228115 
2277	 0.552918660338513 
2278	 0.553386102911295 
2279	 0.553856861176182 
2280	 0.554361140936657 
2281	 0.554873779317814 
2282	 0.555425290837257 
2283	 0.555956796192921 
2284	 0.556516236172236 
2285	 0.557025111878971 
2286	 0.557490741828119 
2287	 0.557980025327088 
2288	 0.558441014308933 
2289	 0.558930245394231 
2290	 0.559464595470956 
2291	 0.559966685965141 
2292	 0.560474230766426 
2293	 0.56095354673288 
2294	 0.561393737563645 
2295	 0.561842809603754 
2296	 0.562287115226966 
2297	 0.562717427549469 
2298	 0.563124288221179 
2299	 0.563548446136141 
2300	 0.563966595847725 
2301	 0.564400857303408 
2302	 0.564826362325387 
2303	 0.56527824179154 
2304	 0.565724371045651 
2305	 0.566079902058803 
2306	 0.566469149457594 
2307	 0.566879309425271 
2308	 0.567227031899316 
2309	 0.567524134060019 
2310	 0.567873164946083 
2311	 0.568199090718214 
2312	 0.568548857990577 
2313	 0.568931663708926 
2314	 0.569307063627085 
2315	 0.569715893310084 
2316	 0.570054516218216 
2317	 0.570366343122924 
2318	 0.570692454112793 
2319	 0.570938106219554 
2320	 0.571250596792651 
2321	 0.571636010178322 
2322	 0.571982263122546 
2323	 0.572334628152149 
2324	 0.572667658834075 
2325	 0.572955069279944 
2326	 0.573288063615867 
2327	 0.573632941792579 
2328	 0.573995850885519 
2329	 0.574364717376264 
2330	 0.574751040457277 
2331	 0.575099998923291 
2332	 0.57541345757377 
2333	 0.575705626341741 
2334	 0.575977552623119 
2335	 0.576246598116093 
2336	 0.576459958867754 
2337	 0.576698055090583 
2338	 0.576942782438064 
2339	 0.577138760850205 
2340	 0.577338714718438 
2341	 0.577508204797764 
2342	 0.577682758379779 
2343	 0.57780372657491 
2344	 0.577876731956395 
2345	 0.577928001941643 
2346	 0.577923907747853 
2347	 0.577897544615746 
2348	 0.577870267930678 
2349	 0.577789822419607 
2350	 0.577626946490424 
2351	 0.577497744527424 
2352	 0.577340921468843 
2353	 0.577190035997408 
2354	 0.577049758789361 
2355	 0.57693425786491 
2356	 0.576836383592493 
2357	 0.576699667786542 
2358	 0.576521502124983 
2359	 0.576431275601441 
2360	 0.576372102202314 
2361	 0.576283423823172 
2362	 0.576299386919154 
2363	 0.576206756500568 
2364	 0.576012854341621 
2365	 0.575840114231574 
2366	 0.575615305267797 
2367	 0.575427316570912 
2368	 0.57526905350524 
2369	 0.575072035634059 
2370	 0.574863655622303 
2371	 0.574672747410861 
2372	 0.574501782742283 
2373	 0.574175401576119 
2374	 0.573880855284521 
2375	 0.573645809029835 
2376	 0.573266831665228 
2377	 0.572972463092417 
2378	 0.57269435844943 
2379	 0.57231739517953 
2380	 0.572032226142 
2381	 0.571817314735911 
2382	 0.571559798529506 
2383	 0.571263575795575 
2384	 0.570901103016674 
2385	 0.570389710171524 
2386	 0.569933929111908 
2387	 0.569599261555264 
2388	 0.569164757376709 
2389	 0.568763157052365 
2390	 0.568408266289919 
2391	 0.567967614621291 
2392	 0.56758777804234 
2393	 0.56721618627928 
2394	 0.566746050395139 
2395	 0.566331476023904 
2396	 0.565915321976193 
2397	 0.565446459438408 
2398	 0.56505906817183 
2399	 0.564585732523114 
2400	 0.564135170567595 
2401	 0.563852154453596 
2402	 0.563518275311586 
2403	 0.563168556016118 
2404	 0.5628156261112 
2405	 0.56240466242111 
2406	 0.561999940873673 
2407	 0.56169266453631 
2408	 0.5614237398453 
2409	 0.561227367259121 
2410	 0.561125786863575 
2411	 0.560822637779011 
2412	 0.560461185672007 
2413	 0.560106173010818 
2414	 0.559555140433098 
2415	 0.559078230474569 
2416	 0.558707449277696 
2417	 0.55841909571466 
2418	 0.558083403419766 
2419	 0.557831274727873 
2420	 0.557554188336175 
2421	 0.557210501221655 
2422	 0.556951173032405 
2423	 0.55676779972878 
2424	 0.556530052641187 
2425	 0.556333385595549 
2426	 0.556111818844612 
2427	 0.555835934627473 
2428	 0.555608005831487 
2429	 0.555376121233026 
2430	 0.55508017192004 
2431	 0.554819714220126 
2432	 0.554488998828233 
2433	 0.55405612601257 
2434	 0.553796147037977 
2435	 0.553555403055797 
2436	 0.55338101227857 
2437	 0.553409582157613 
2438	 0.553179433972765 
2439	 0.552820630822539 
2440	 0.552528167687292 
2441	 0.552119130308451 
2442	 0.551804424938774 
2443	 0.551622587547983 
2444	 0.551325861249767 
2445	 0.550940560179028 
2446	 0.550700798799681 
2447	 0.550486607229737 
2448	 0.550226865039179 
2449	 0.550063729335761 
2450	 0.549803613861082 
2451	 0.549484894320502 
2452	 0.549152698423308 
2453	 0.548727315198712 
2454	 0.548436848962539 
2455	 0.548189835639041 
2456	 0.547849833162614 
2457	 0.54758546267639 
2458	 0.547331340843472 
2459	 0.546933774283644 
2460	 0.546687566883384 
2461	 0.546601777525654 
2462	 0.546405863046874 
2463	 0.546172135500115 
2464	 0.545972507645443 
2465	 0.545819088969532 
2466	 0.545601292287438 
2467	 0.545379106191828 
2468	 0.545164409811014 
2469	 0.544833573525736 
2470	 0.544663775796411 
2471	 0.544620842853545 
2472	 0.544490809462023 
2473	 0.544347123180096 
2474	 0.544274913521122 
2475	 0.543930421743064 
2476	 0.543581836823162 
2477	 0.543352296883502 
2478	 0.542915282606925 
2479	 0.542645043090797 
2480	 0.542600084492223 
2481	 0.542372460837715 
2482	 0.542192997667093 
2483	 0.541975862844463 
2484	 0.541457950305401 
2485	 0.541052545590051 
2486	 0.540813590907825 
2487	 0.54053611443503 
2488	 0.540351000720953 
2489	 0.540104101262269 
2490	 0.539808722324878 
2491	 0.539723074112523 
2492	 0.539608878915837 
2493	 0.539481278763501 
2494	 0.539378029794231 
2495	 0.538970460967762 
2496	 0.538550682603354 
2497	 0.538408564401779 
2498	 0.53804343620717 
2499	 0.537583907772569 
2500	 0.537532205960603 
