Wavelength	MM900002.asd
350	 6.75324777141424E-02 
351	 6.73384683036121E-02 
352	 0.063708601907695 
353	 6.26412852254399E-02 
354	 6.41333896359934E-02 
355	 0.061138251561029 
356	 5.64424003767652E-02 
357	 5.55159180552841E-02 
358	 6.39372013773732E-02 
359	 6.52325642366639E-02 
360	 6.21760572108501E-02 
361	 0.068059396348867 
362	 6.53234879167012E-02 
363	 6.24279305226641E-02 
364	 0.063520556776966 
365	 6.08736259908224E-02 
366	 5.99782677259209E-02 
367	 6.02933059544816E-02 
368	 6.02833284170364E-02 
369	 6.16175150240294E-02 
370	 5.98994439135868E-02 
371	 5.84639151102528E-02 
372	 6.44825811468689E-02 
373	 6.45110755270971E-02 
374	 6.38457810973338E-02 
375	 6.59327261707214E-02 
376	 0.066993239157847 
377	 6.52613689986338E-02 
378	 6.32760380539252E-02 
379	 6.39506778797151E-02 
380	 6.57145473223508E-02 
381	 0.065326691627183 
382	 6.40606843602414E-02 
383	 6.62386227561724E-02 
384	 0.069613284740964 
385	 6.93103962566973E-02 
386	 0.065244114352688 
387	 6.69596587124688E-02 
388	 6.69044454246685E-02 
389	 6.57024480692961E-02 
390	 6.59983208414456E-02 
391	 6.71371141468448E-02 
392	 6.84277963314755E-02 
393	 6.96312765731514E-02 
394	 7.08738837033237E-02 
395	 0.071081561288897 
396	 7.08601658293335E-02 
397	 7.11999782282459E-02 
398	 7.36285689862927E-02 
399	 7.40192423039011E-02 
400	 7.37674216461678E-02 
401	 0.075408826137963 
402	 7.53874023319371E-02 
403	 7.51841280098016E-02 
404	 7.52987589749645E-02 
405	 7.49880321083611E-02 
406	 7.64966587274451E-02 
407	 7.78031141104558E-02 
408	 7.75716524891461E-02 
409	 7.83322003386769E-02 
410	 7.87164465990007E-02 
411	 7.86427696600862E-02 
412	 7.87280723885147E-02 
413	 8.01939705467459E-02 
414	 8.04642834806861E-02 
415	 7.94370588038157E-02 
416	 8.04926046393659E-02 
417	 8.11495208895391E-02 
418	 8.16298128047967E-02 
419	 0.08236367957825 
420	 8.22010715471776E-02 
421	 8.19753359099503E-02 
422	 8.22447766381821E-02 
423	 8.31526300521364E-02 
424	 8.26299678167979E-02 
425	 8.21799544693082E-02 
426	 8.26014190890303E-02 
427	 8.26171865630998E-02 
428	 0.082646623508513 
429	 0.082767415505165 
430	 8.28742031670708E-02 
431	 8.24031041063255E-02 
432	 8.19030096604088E-02 
433	 8.17825707321691E-02 
434	 8.22186860275518E-02 
435	 8.22531104935948E-02 
436	 8.21443718011446E-02 
437	 8.21370435901317E-02 
438	 8.16699594283807E-02 
439	 0.081743969299439 
440	 0.082155695499342 
441	 8.21880741771552E-02 
442	 8.23595036142719E-02 
443	 8.25032131525571E-02 
444	 8.24885761190614E-02 
445	 8.23005696939948E-02 
446	 8.27333873866088E-02 
447	 8.33201628158074E-02 
448	 8.34761198347301E-02 
449	 8.38270187128424E-02 
450	 8.41870832725865E-02 
451	 8.45175786609644E-02 
452	 8.49088372879991E-02 
453	 8.51207950826553E-02 
454	 8.51659159089076E-02 
455	 8.52248247440684E-02 
456	 8.58371411369254E-02 
457	 8.60352949244415E-02 
458	 8.59152016060698E-02 
459	 8.60269978411917E-02 
460	 8.62586137768409E-02 
461	 8.65325892648249E-02 
462	 8.67323988916223E-02 
463	 8.66830749290518E-02 
464	 8.68292329614685E-02 
465	 8.70855508052939E-02 
466	 0.087244344889364 
467	 8.72542540915542E-02 
468	 8.73575886770917E-02 
469	 8.75537284983568E-02 
470	 8.76462225982351E-02 
471	 8.77081158235352E-02 
472	 8.76807958069794E-02 
473	 0.087592640073073 
474	 8.77213072919441E-02 
475	 8.79174000714977E-02 
476	 8.79816720918743E-02 
477	 8.77787507736187E-02 
478	 0.087775852807595 
479	 8.80235010407613E-02 
480	 8.83783466393034E-02 
481	 0.088497861353442 
482	 8.85384795013533E-02 
483	 8.85088863345069E-02 
484	 8.84422447615807E-02 
485	 8.86070338361657E-02 
486	 8.87591818415542E-02 
487	 8.87913030699998E-02 
488	 8.87386219081166E-02 
489	 8.88610089323649E-02 
490	 8.89809538454392E-02 
491	 8.89825168305798E-02 
492	 8.91233955901014E-02 
493	 8.90425833992205E-02 
494	 8.89283501580382E-02 
495	 8.91554394963988E-02 
496	 8.94106946004718E-02 
497	 8.93842529393748E-02 
498	 8.91438892504481E-02 
499	 8.93061678442885E-02 
500	 8.93411483805252E-02 
501	 8.93131400500204E-02 
502	 8.94008429428569E-02 
503	 8.95003086313385E-02 
504	 8.95787711402669E-02 
505	 8.95727086475918E-02 
506	 8.94098081516393E-02 
507	 8.95114199356028E-02 
508	 8.97282959418891E-02 
509	 8.98363637101961E-02 
510	 8.97192945881578E-02 
511	 8.96289498959465E-02 
512	 8.95926332339737E-02 
513	 8.95392384972531E-02 
514	 8.97123660248545E-02 
515	 8.98606906574134E-02 
516	 0.08987616886284 
517	 8.99922161358597E-02 
518	 8.99834636621138E-02 
519	 8.99389602015387E-02 
520	 8.99935406760866E-02 
521	 8.99429674652874E-02 
522	 8.99657695546374E-02 
523	 9.00897309143439E-02 
524	 9.01659442440501E-02 
525	 9.00792173889334E-02 
526	 8.99812245941159E-02 
527	 9.00143647168932E-02 
528	 9.00887187959366E-02 
529	 9.01796037963093E-02 
530	 9.02485066379307E-02 
531	 9.02608256327717E-02 
532	 9.03213158497132E-02 
533	 9.04083281066452E-02 
534	 9.04853573438948E-02 
535	 9.05256168710762E-02 
536	 9.05330471878526E-02 
537	 9.05718692443499E-02 
538	 0.090702976510768 
539	 9.07941468274576E-02 
540	 9.08766210084395E-02 
541	 9.09448699710958E-02 
542	 9.09238714423927E-02 
543	 9.09549340381152E-02 
544	 9.10568646592019E-02 
545	 9.11929520182114E-02 
546	 9.12627369084068E-02 
547	 9.13505939658988E-02 
548	 9.14673248480919E-02 
549	 9.15600372759234E-02 
550	 9.16724145182626E-02 
551	 9.18203510423753E-02 
552	 0.091990947678322 
553	 9.21118044958753E-02 
554	 9.22289637687965E-02 
555	 9.23439303037609E-02 
556	 9.24413920426802E-02 
557	 9.25610770991141E-02 
558	 9.27304946286523E-02 
559	 9.29498547381253E-02 
560	 9.31761873155635E-02 
561	 9.34376361159229E-02 
562	 9.37597337915318E-02 
563	 9.41567147251487E-02 
564	 9.45928572684108E-02 
565	 9.50448006133551E-02 
566	 9.54891160800987E-02 
567	 9.59019657796571E-02 
568	 9.62694685845395E-02 
569	 9.65553717360177E-02 
570	 9.67576134368146E-02 
571	 9.69768902822316E-02 
572	 9.72997627724152E-02 
573	 9.77564282153379E-02 
574	 9.83176541055358E-02 
575	 9.88035993504777E-02 
576	 9.92821909997249E-02 
577	 0.099816240774829 
578	 0.100349435017936 
579	 0.10101803918792 
580	 0.101824113942511 
581	 0.102701531073072 
582	 0.103588480814532 
583	 0.104430587453122 
584	 0.105206638718745 
585	 0.105932207469778 
586	 0.106865622520177 
587	 0.107861195870363 
588	 0.108720229199258 
589	 0.109598767100813 
590	 0.110487475370356 
591	 0.111365138876771 
592	 0.112203975181354 
593	 0.112882722886282 
594	 0.113571934925248 
595	 0.114388083807601 
596	 0.115133549526558 
597	 0.116047804143588 
598	 0.117076048464181 
599	 0.118027553568209 
600	 0.119026683167186 
601	 0.119995720214954 
602	 0.120875298303843 
603	 0.121669955635802 
604	 0.122540820912872 
605	 0.123441095856034 
606	 0.124271836661623 
607	 0.125129683647113 
608	 0.125913067467293 
609	 0.126609637517515 
610	 0.127321161076542 
611	 0.12801321030439 
612	 0.128694058458417 
613	 0.129363031470439 
614	 0.129974537923501 
615	 0.130549199351546 
616	 0.131090955895915 
617	 0.131595251518717 
618	 0.132142635870857 
619	 0.132608327120836 
620	 0.132958319260822 
621	 0.133419523752432 
622	 0.133860805735233 
623	 0.134254749399211 
624	 0.134620105300654 
625	 0.135013099206922 
626	 0.135398088617077 
627	 0.135763049624104 
628	 0.136136902147493 
629	 0.13651103992533 
630	 0.136830817347796 
631	 0.137076175786684 
632	 0.137402735591122 
633	 0.137736939087143 
634	 0.138028699397749 
635	 0.138262980634216 
636	 0.138598480728727 
637	 0.138931069632793 
638	 0.139184010917729 
639	 0.139464654238664 
640	 0.139736079870888 
641	 0.140010677211786 
642	 0.140318860489845 
643	 0.140672506564837 
644	 0.14095202306653 
645	 0.141145734009626 
646	 0.141411226688814 
647	 0.141729185471148 
648	 0.142047908838575 
649	 0.142330300795054 
650	 0.142663543271395 
651	 0.143000113821018 
652	 0.143327042230957 
653	 0.143664854003281 
654	 0.144010835869421 
655	 0.144326082697282 
656	 0.144616431419632 
657	 0.145015560388548 
658	 0.145440509903283 
659	 0.145837495151487 
660	 0.146182619974988 
661	 0.146587858924337 
662	 0.146965912520116 
663	 0.147307783973448 
664	 0.147745695812966 
665	 0.148159896215978 
666	 0.148587754217726 
667	 0.149072894465951 
668	 0.14948781135418 
669	 0.149942991222465 
670	 0.150446736450715 
671	 0.150921565470396 
672	 0.151433288997437 
673	 0.151962133044627 
674	 0.152481746760429 
675	 0.15298417073974 
676	 0.153485524439799 
677	 0.15401100254276 
678	 0.154582041664567 
679	 0.155162554338398 
680	 0.155750150660335 
681	 0.156344298826077 
682	 0.156943429936295 
683	 0.157509170843284 
684	 0.158099260189614 
685	 0.1587579772554 
686	 0.159384186982319 
687	 0.160066124247183 
688	 0.160791861771132 
689	 0.16147607688912 
690	 0.162103209117877 
691	 0.16274770518302 
692	 0.163455945546847 
693	 0.16420047814137 
694	 0.164877208046903 
695	 0.165555256784085 
696	 0.166334815094143 
697	 0.16708849364604 
698	 0.16783506406138 
699	 0.168602855588649 
700	 0.169418694264914 
701	 0.170196323401737 
702	 0.170931334155296 
703	 0.171659614604469 
704	 0.172479190463365 
705	 0.173268815852032 
706	 0.174043575395102 
707	 0.174869243362735 
708	 0.175584427272042 
709	 0.176340785625696 
710	 0.177183696113332 
711	 0.177960433033366 
712	 0.178760272833702 
713	 0.17956078659975 
714	 0.180325694174295 
715	 0.181069838869649 
716	 0.181837185425224 
717	 0.182604301603739 
718	 0.18330755421902 
719	 0.184038185065573 
720	 0.18475759477015 
721	 0.185439929999793 
722	 0.186126898104978 
723	 0.186744637682608 
724	 0.187338029546718 
725	 0.187976741869703 
726	 0.188634268782367 
727	 0.189204212087208 
728	 0.189694764220803 
729	 0.190218436422788 
730	 0.190727447668424 
731	 0.191199280597597 
732	 0.191634576131046 
733	 0.1920856139135 
734	 0.192472355249628 
735	 0.192795171990747 
736	 0.193088275490167 
737	 0.193363996356975 
738	 0.193597718299907 
739	 0.193794164553577 
740	 0.193991724730725 
741	 0.194184907342737 
742	 0.194308344463445 
743	 0.194339181034659 
744	 0.194408204360484 
745	 0.194387402725965 
746	 0.194341427391212 
747	 0.19438550358246 
748	 0.19430180631696 
749	 0.194171154360109 
750	 0.194035399122398 
751	 0.193857039311348 
752	 0.193666087632318 
753	 0.193443446609605 
754	 0.19317557902754 
755	 0.192895324813253 
756	 0.192615863347497 
757	 0.192325714774072 
758	 0.191997340908341 
759	 0.191592963083127 
760	 0.191180507628465 
761	 0.190785318895368 
762	 0.190367781330139 
763	 0.189938148858319 
764	 0.189487327941303 
765	 0.189011404423514 
766	 0.18853259137857 
767	 0.188015649044637 
768	 0.187499565941403 
769	 0.187038667974526 
770	 0.186514722320524 
771	 0.18598527301798 
772	 0.185463136516789 
773	 0.184891361697417 
774	 0.184322906891782 
775	 0.183742366967213 
776	 0.1831517570135 
777	 0.182649339632269 
778	 0.182114136650125 
779	 0.181546112981682 
780	 0.180988905677506 
781	 0.180375879227229 
782	 0.179751466638336 
783	 0.179162890469613 
784	 0.178645852901369 
785	 0.178085468712926 
786	 0.177512968858097 
787	 0.176962297624321 
788	 0.176397487887988 
789	 0.175840993019977 
790	 0.175282752983738 
791	 0.174708847108018 
792	 0.174151381921151 
793	 0.173627205563419 
794	 0.173129540943497 
795	 0.172628169300535 
796	 0.172041977491626 
797	 0.17150112375889 
798	 0.171046196624529 
799	 0.170494704834975 
800	 0.169969638988383 
801	 0.169461475374986 
802	 0.168946641816932 
803	 0.168505725477943 
804	 0.168081739576971 
805	 0.167627040625229 
806	 0.167121559257081 
807	 0.16668910991637 
808	 0.166257195314001 
809	 0.165803071379327 
810	 0.165394049182051 
811	 0.164994725639121 
812	 0.164565644281162 
813	 0.16411359348069 
814	 0.163774855589927 
815	 0.163415755930556 
816	 0.163035496442345 
817	 0.162677863514394 
818	 0.162301743089761 
819	 0.161937339944633 
820	 0.161602711571535 
821	 0.161296565114261 
822	 0.160969108638155 
823	 0.160594375037196 
824	 0.160209488562572 
825	 0.159942795303058 
826	 0.159658933785382 
827	 0.159361116079965 
828	 0.159086468474214 
829	 0.158855906877825 
830	 0.158580867406705 
831	 0.15830351935583 
832	 0.158107599658282 
833	 0.157909554204517 
834	 0.157635126849865 
835	 0.15733702498095 
836	 0.157168403158196 
837	 0.156995519654399 
838	 0.156796647036834 
839	 0.15658242298544 
840	 0.156385080970467 
841	 0.156221925526928 
842	 0.156064197056136 
843	 0.155888102645673 
844	 0.155731435821117 
845	 0.155587804783665 
846	 0.155454574341342 
847	 0.155337844592382 
848	 0.155287973867442 
849	 0.155211288606279 
850	 0.155087378970804 
851	 0.154964662534033 
852	 0.154818229732717 
853	 0.154725575094868 
854	 0.154715996186405 
855	 0.154730122356451 
856	 0.154653594303808 
857	 0.154560453866937 
858	 0.154513992529426 
859	 0.154415202734154 
860	 0.154387781136337 
861	 0.154399920429549 
862	 0.154387355860149 
863	 0.154415207708167 
864	 0.154422617635111 
865	 0.154410186775034 
866	 0.154418254527681 
867	 0.154452032074127 
868	 0.154531265446364 
869	 0.154610110172492 
870	 0.154592324862414 
871	 0.154604105176689 
872	 0.154706841925821 
873	 0.154866969025959 
874	 0.154925985299796 
875	 0.155042384593217 
876	 0.155116996792364 
877	 0.15510648685451 
878	 0.155284312900594 
879	 0.15542266861281 
880	 0.155477384227649 
881	 0.155513786751138 
882	 0.155744866611224 
883	 0.155956329192127 
884	 0.156118162345488 
885	 0.156304234599155 
886	 0.156486656844286 
887	 0.15665251263221 
888	 0.156809022691158 
889	 0.156978519153952 
890	 0.157159103823466 
891	 0.157358453758954 
892	 0.157572390974063 
893	 0.157782806214037 
894	 0.158008643321777 
895	 0.15827460146131 
896	 0.158578120632435 
897	 0.158869812329569 
898	 0.159159767634572 
899	 0.159407915583483 
900	 0.159617139535504 
901	 0.159927132528752 
902	 0.16025895659054 
903	 0.160611987082779 
904	 0.160985643541825 
905	 0.161286422834975 
906	 0.161578332347604 
907	 0.161885960654639 
908	 0.162218008211696 
909	 0.162618396538737 
910	 0.163006282319045 
911	 0.163373103273709 
912	 0.163766603574579 
913	 0.164228232580787 
914	 0.164688612674932 
915	 0.16509800863756 
916	 0.165457146983078 
917	 0.165936313923084 
918	 0.166433237843591 
919	 0.166903929516162 
920	 0.167406387654828 
921	 0.167834602345917 
922	 0.168298334559053 
923	 0.168854753149069 
924	 0.16943068559895 
925	 0.169983416056846 
926	 0.170500442227939 
927	 0.170988660409708 
928	 0.171465343852756 
929	 0.172087279216962 
930	 0.172752946132063 
931	 0.173350576024202 
932	 0.173910103096334 
933	 0.174600885692061 
934	 0.175284329888416 
935	 0.175839211781646 
936	 0.176470753879591 
937	 0.177083922000173 
938	 0.177751994812386 
939	 0.17853506580505 
940	 0.179273224965125 
941	 0.179997486571048 
942	 0.180714076390956 
943	 0.181424447917349 
944	 0.182126335816182 
945	 0.182917797666172 
946	 0.183716865346182 
947	 0.184424889956537 
948	 0.185277661313548 
949	 0.18609484731917 
950	 0.186865645538453 
951	 0.187668543936873 
952	 0.188490803723769 
953	 0.189360154650886 
954	 0.190267055507624 
955	 0.191179191465579 
956	 0.192079928679673 
957	 0.192987736574901 
958	 0.193877904210737 
959	 0.194729842531767 
960	 0.19570814929575 
961	 0.196652944110911 
962	 0.197603691139489 
963	 0.198678395502572 
964	 0.19958522184599 
965	 0.200537721223729 
966	 0.201560024285248 
967	 0.20255809587654 
968	 0.203692563149631 
969	 0.204687728176886 
970	 0.205633632527366 
971	 0.206810312613068 
972	 0.207945076695173 
973	 0.208957240555182 
974	 0.209981383721558 
975	 0.211203487907699 
976	 0.212272038889903 
977	 0.213463667303558 
978	 0.214691580544802 
979	 0.215700896176435 
980	 0.216868112222447 
981	 0.218027181765111 
982	 0.219150607273796 
983	 0.220325006645738 
984	 0.221642898338584 
985	 0.222822337262178 
986	 0.22389037676303 
987	 0.225052828045219 
988	 0.226353777346198 
989	 0.227561109566387 
990	 0.228678830552917 
991	 0.22984542466921 
992	 0.231130227750064 
993	 0.232382588282675 
994	 0.233601468311729 
995	 0.234820195921839 
996	 0.23588008262084 
997	 0.237176415423183 
998	 0.23845913615551 
999	 0.239483441428819 
1000	 0.240999666787904 
1001	 0.248963593865662 
1002	 0.250207937195352 
1003	 0.251439974959257 
1004	 0.252677242702806 
1005	 0.25391404773726 
1006	 0.255128821735806 
1007	 0.256333436004677 
1008	 0.257559043713494 
1009	 0.258734396999839 
1010	 0.2598797839766 
1011	 0.261096089114154 
1012	 0.262345613617188 
1013	 0.263595707275041 
1014	 0.264841602737052 
1015	 0.266027165828896 
1016	 0.267203008160972 
1017	 0.268370625546775 
1018	 0.269507712512189 
1019	 0.270666078100007 
1020	 0.271842892326265 
1021	 0.272976948502437 
1022	 0.274118072731465 
1023	 0.275215714732309 
1024	 0.276279898258385 
1025	 0.27737451588825 
1026	 0.2784283138733 
1027	 0.279494522305998 
1028	 0.280618116954427 
1029	 0.281705196349712 
1030	 0.282757486626601 
1031	 0.283788613089272 
1032	 0.284808888983564 
1033	 0.285806957903094 
1034	 0.286806469154675 
1035	 0.287800074489809 
1036	 0.288846485807017 
1037	 0.289876585296755 
1038	 0.290814620258473 
1039	 0.291741571842723 
1040	 0.292650547411136 
1041	 0.293599723048334 
1042	 0.294569868202819 
1043	 0.29552962556149 
1044	 0.296493567992001 
1045	 0.29747774305563 
1046	 0.298385032446396 
1047	 0.299329615506551 
1048	 0.300316955015979 
1049	 0.30129542791031 
1050	 0.302331717002076 
1051	 0.303337944614774 
1052	 0.304315739190003 
1053	 0.30527807258549 
1054	 0.306214323662028 
1055	 0.307173375900608 
1056	 0.308164997387977 
1057	 0.309169672321214 
1058	 0.310200981689434 
1059	 0.311221330111817 
1060	 0.312244698161548 
1061	 0.313294572206422 
1062	 0.314312058187188 
1063	 0.315329194014466 
1064	 0.316358554355486 
1065	 0.317423108457736 
1066	 0.318495667783694 
1067	 0.3196387490393 
1068	 0.320805047859922 
1069	 0.321832542333174 
1070	 0.322890885253711 
1071	 0.323929545378987 
1072	 0.324985251021025 
1073	 0.326012886587075 
1074	 0.327085432758557 
1075	 0.328185432700892 
1076	 0.32925166088587 
1077	 0.330350939489529 
1078	 0.331494804064955 
1079	 0.332563516381834 
1080	 0.333597906187847 
1081	 0.33467098054016 
1082	 0.33573252871617 
1083	 0.336791948367892 
1084	 0.337873469627538 
1085	 0.338958177100009 
1086	 0.340000033279036 
1087	 0.341083846758293 
1088	 0.342196167058254 
1089	 0.343343258381625 
1090	 0.344435282738339 
1091	 0.345493730281887 
1092	 0.346561128120717 
1093	 0.34758403608481 
1094	 0.34862091990008 
1095	 0.349672918914032 
1096	 0.350685722836485 
1097	 0.351721918966578 
1098	 0.352779533450341 
1099	 0.353865041880678 
1100	 0.354918768271817 
1101	 0.355983393034776 
1102	 0.357043873788108 
1103	 0.358095077668348 
1104	 0.359121126198393 
1105	 0.360155028315893 
1106	 0.36120331338772 
1107	 0.362248190718596 
1108	 0.363288069744816 
1109	 0.364324635866062 
1110	 0.365371027665849 
1111	 0.366418802019132 
1112	 0.367437515918775 
1113	 0.368491094412034 
1114	 0.369587600710655 
1115	 0.370659622419186 
1116	 0.371727769608006 
1117	 0.372807912867524 
1118	 0.373918913726191 
1119	 0.374950716830353 
1120	 0.37601798591641 
1121	 0.377091171814261 
1122	 0.378129594951605 
1123	 0.379211265654201 
1124	 0.380290665990198 
1125	 0.381376097767164 
1126	 0.382468657592436 
1127	 0.383569207932104 
1128	 0.384664974867749 
1129	 0.385763137202829 
1130	 0.386857029757951 
1131	 0.387961374629396 
1132	 0.389056515946576 
1133	 0.390139273457275 
1134	 0.39123091650207 
1135	 0.392315790660037 
1136	 0.393379452152881 
1137	 0.394537623186273 
1138	 0.395692151278234 
1139	 0.396824941035672 
1140	 0.397989345379666 
1141	 0.399116367706505 
1142	 0.400202426464724 
1143	 0.401303972855905 
1144	 0.402402189326801 
1145	 0.40350380638583 
1146	 0.404594356589509 
1147	 0.405690460050551 
1148	 0.406796847118758 
1149	 0.407908140764306 
1150	 0.409027374403532 
1151	 0.410138246803175 
1152	 0.411245604469051 
1153	 0.412325005263364 
1154	 0.413419636823175 
1155	 0.414507310795949 
1156	 0.415592317832481 
1157	 0.416680519439486 
1158	 0.417773908654357 
1159	 0.418860622484906 
1160	 0.419950336929081 
1161	 0.421055303634162 
1162	 0.422149917307962 
1163	 0.423236272751063 
1164	 0.424326766899755 
1165	 0.425417971788215 
1166	 0.426519608435227 
1167	 0.427612265859916 
1168	 0.428684001265242 
1169	 0.429733217127232 
1170	 0.4307489383524 
1171	 0.431793872916613 
1172	 0.432848387348172 
1173	 0.433866749259361 
1174	 0.434872907889431 
1175	 0.435893631934985 
1176	 0.436906556122723 
1177	 0.437901437488717 
1178	 0.438906204711633 
1179	 0.439905162612651 
1180	 0.440863050176309 
1181	 0.441840961364729 
1182	 0.442844909522133 
1183	 0.443855516648369 
1184	 0.444820297704964 
1185	 0.445769346125741 
1186	 0.446704114532644 
1187	 0.447612094617661 
1188	 0.448512243099991 
1189	 0.449392141517824 
1190	 0.450287295390346 
1191	 0.451172621457271 
1192	 0.452063121758918 
1193	 0.452984376300771 
1194	 0.453868908947831 
1195	 0.454737892826219 
1196	 0.455591473938969 
1197	 0.456433049130026 
1198	 0.45725161296101 
1199	 0.458052026443637 
1200	 0.45883330320561 
1201	 0.45960925699546 
1202	 0.460365506344494 
1203	 0.461120409907463 
1204	 0.461866117486273 
1205	 0.462614562729241 
1206	 0.463363558831835 
1207	 0.46409561741762 
1208	 0.464838961915739 
1209	 0.46554567650264 
1210	 0.466216446317081 
1211	 0.46689170922453 
1212	 0.467544159551107 
1213	 0.468203273251631 
1214	 0.468872383331862 
1215	 0.469526320942107 
1216	 0.470172754255666 
1217	 0.470820019275143 
1218	 0.471441635467286 
1219	 0.472044496699143 
1220	 0.472645818178947 
1221	 0.473228885694856 
1222	 0.473819506839297 
1223	 0.474429605660664 
1224	 0.474995351459142 
1225	 0.475542373343963 
1226	 0.476079118563102 
1227	 0.476580023830952 
1228	 0.477087278804832 
1229	 0.477597760050749 
1230	 0.478097095243719 
1231	 0.478587899123334 
1232	 0.479070051373528 
1233	 0.479544448708931 
1234	 0.480010123961803 
1235	 0.48047433633813 
1236	 0.480931621177098 
1237	 0.481386114740648 
1238	 0.481843912206051 
1239	 0.48228549530814 
1240	 0.482719480894798 
1241	 0.483144588894735 
1242	 0.483559620231409 
1243	 0.483965336062318 
1244	 0.484360586544922 
1245	 0.484751421659022 
1246	 0.485118504259987 
1247	 0.485506954990392 
1248	 0.485922709553701 
1249	 0.486306900149969 
1250	 0.486685380795055 
1251	 0.487064127363117 
1252	 0.487422750142858 
1253	 0.487743129530903 
1254	 0.488096966115876 
1255	 0.488469028922384 
1256	 0.48881398791869 
1257	 0.489156233533887 
1258	 0.489492169917995 
1259	 0.489809415548893 
1260	 0.490130085339517 
1261	 0.490480740371563 
1262	 0.49077495748798 
1263	 0.49103395105056 
1264	 0.491289195429104 
1265	 0.491481709019922 
1266	 0.491714759954862 
1267	 0.491972373150557 
1268	 0.492220406098676 
1269	 0.492475937764818 
1270	 0.492746766095259 
1271	 0.493015525174264 
1272	 0.493289414529724 
1273	 0.493545384109148 
1274	 0.493800816442041 
1275	 0.494054061749791 
1276	 0.494274872091042 
1277	 0.494535003669808 
1278	 0.494822627886038 
1279	 0.495099679524759 
1280	 0.495380929159119 
1281	 0.49567095204845 
1282	 0.495965931027706 
1283	 0.496259591217759 
1284	 0.496554877760967 
1285	 0.496865279879611 
1286	 0.497171282276223 
1287	 0.497488469175562 
1288	 0.497809806197072 
1289	 0.498145697750903 
1290	 0.498479910654154 
1291	 0.498807687951523 
1292	 0.499155621178932 
1293	 0.499516197176574 
1294	 0.49988336128619 
1295	 0.500264480469365 
1296	 0.500647804597654 
1297	 0.501052317672381 
1298	 0.50143232864831 
1299	 0.501818737947055 
1300	 0.502174263194068 
1301	 0.502497237506036 
1302	 0.502823520674791 
1303	 0.503133410480385 
1304	 0.503441687479423 
1305	 0.503750678940852 
1306	 0.504045784032052 
1307	 0.504299985927194 
1308	 0.504557053260195 
1309	 0.504818460727437 
1310	 0.505066552687119 
1311	 0.505318823302773 
1312	 0.505586973194614 
1313	 0.505830094398862 
1314	 0.506058333021764 
1315	 0.50627873756456 
1316	 0.506508283930718 
1317	 0.506694616835762 
1318	 0.50684935671984 
1319	 0.506998926916781 
1320	 0.507090901796639 
1321	 0.507225861550755 
1322	 0.507381391806057 
1323	 0.507541890266696 
1324	 0.507671262689022 
1325	 0.507799091796832 
1326	 0.507890310644518 
1327	 0.507941722592282 
1328	 0.508009884123233 
1329	 0.508068830133396 
1330	 0.508116136521336 
1331	 0.508156576634403 
1332	 0.508181217639141 
1333	 0.508181616962569 
1334	 0.508201061021624 
1335	 0.50820442711785 
1336	 0.508232536521684 
1337	 0.508289869070032 
1338	 0.508326606048792 
1339	 0.508371790025502 
1340	 0.508400139860017 
1341	 0.508407590903654 
1342	 0.508425018830496 
1343	 0.508445411628225 
1344	 0.508451605952452 
1345	 0.508458951377286 
1346	 0.50848321102355 
1347	 0.508537128332552 
1348	 0.508597476431942 
1349	 0.508653415015745 
1350	 0.508700288787218 
1351	 0.508721245794497 
1352	 0.508693901385873 
1353	 0.508711997354996 
1354	 0.508724531446885 
1355	 0.50876734665868 
1356	 0.508839472259967 
1357	 0.508915630348276 
1358	 0.509028077942388 
1359	 0.509103796400269 
1360	 0.509173110530153 
1361	 0.509228776937928 
1362	 0.509258701182021 
1363	 0.509290226442425 
1364	 0.509335361892123 
1365	 0.509354481559118 
1366	 0.509354284658456 
1367	 0.509344994569813 
1368	 0.509325947685156 
1369	 0.509288395448123 
1370	 0.509257737761875 
1371	 0.509213376853618 
1372	 0.509131036162423 
1373	 0.509055959531459 
1374	 0.508998913632715 
1375	 0.508927404547176 
1376	 0.508893345736937 
1377	 0.508896663558961 
1378	 0.508884406468672 
1379	 0.508882308422938 
1380	 0.508876359391168 
1381	 0.508884437298633 
1382	 0.508866678734884 
1383	 0.508826943359262 
1384	 0.508806954847742 
1385	 0.508780380358475 
1386	 0.508753997823259 
1387	 0.508771001643613 
1388	 0.5087289317989 
1389	 0.508645017435252 
1390	 0.508562532554535 
1391	 0.508468185039395 
1392	 0.508358590403123 
1393	 0.50826922704587 
1394	 0.508183427155399 
1395	 0.508059013348567 
1396	 0.507935243068214 
1397	 0.507810922297725 
1398	 0.507670525634698 
1399	 0.50753849219238 
1400	 0.507404058913928 
1401	 0.507291495031511 
1402	 0.507179557397558 
1403	 0.507088118622045 
1404	 0.507034554092331 
1405	 0.506953520336557 
1406	 0.50687708561328 
1407	 0.506785868927751 
1408	 0.506658845694834 
1409	 0.506567145943384 
1410	 0.506473538702897 
1411	 0.506405953322159 
1412	 0.506354222231898 
1413	 0.50634054766136 
1414	 0.506341436526177 
1415	 0.506349818087722 
1416	 0.506362973401762 
1417	 0.506380206324596 
1418	 0.506394697555802 
1419	 0.506381359727164 
1420	 0.5063698802581 
1421	 0.50636843543554 
1422	 0.506359455078976 
1423	 0.506358062393663 
1424	 0.506356639879252 
1425	 0.506355518636867 
1426	 0.506366760226832 
1427	 0.506388089401583 
1428	 0.506401667602349 
1429	 0.506428403436144 
1430	 0.506435541527662 
1431	 0.506413981689239 
1432	 0.506420336102581 
1433	 0.506438773563568 
1434	 0.506450656556812 
1435	 0.506481392827354 
1436	 0.506493067060334 
1437	 0.506469900430232 
1438	 0.506482673496481 
1439	 0.506513831603783 
1440	 0.506539666904714 
1441	 0.506571208402398 
1442	 0.506589614392791 
1443	 0.506564069793374 
1444	 0.506550294910205 
1445	 0.506552444198086 
1446	 0.506553979920438 
1447	 0.506561153666064 
1448	 0.506555957980074 
1449	 0.506544112514261 
1450	 0.506532784909524 
1451	 0.506519311999551 
1452	 0.506510428222913 
1453	 0.506487198434491 
1454	 0.50644977497494 
1455	 0.506424762074906 
1456	 0.506385427428589 
1457	 0.506384515849363 
1458	 0.506419150100943 
1459	 0.50642395130837 
1460	 0.506444674551996 
1461	 0.50644219594122 
1462	 0.506398422186472 
1463	 0.506381801930853 
1464	 0.506370007184588 
1465	 0.506367773892687 
1466	 0.506373471346256 
1467	 0.506390461409582 
1468	 0.50641566084481 
1469	 0.50644900070239 
1470	 0.506483383959992 
1471	 0.506545676669877 
1472	 0.50662305960879 
1473	 0.506702352020789 
1474	 0.506798824345395 
1475	 0.506885916263698 
1476	 0.506969924767485 
1477	 0.507059348859067 
1478	 0.507155828879017 
1479	 0.507269810132917 
1480	 0.507388797069905 
1481	 0.507517152677393 
1482	 0.507639635130321 
1483	 0.507756244249425 
1484	 0.507894694428555 
1485	 0.508039636562361 
1486	 0.508185074930153 
1487	 0.508354842660271 
1488	 0.508501360353303 
1489	 0.508627872530676 
1490	 0.508782090151786 
1491	 0.508944465435351 
1492	 0.509097494969445 
1493	 0.509275176891846 
1494	 0.509418780284197 
1495	 0.509537171422067 
1496	 0.509661106666912 
1497	 0.509766835530051 
1498	 0.509878991024236 
1499	 0.509988578295834 
1500	 0.510104822756918 
1501	 0.510233458709604 
1502	 0.510352686198031 
1503	 0.510472873637553 
1504	 0.510591183822122 
1505	 0.510691769877154 
1506	 0.510758896150984 
1507	 0.510832239301118 
1508	 0.510908021463906 
1509	 0.510988063729346 
1510	 0.51109521239255 
1511	 0.5112010965711 
1512	 0.511302891249744 
1513	 0.511399784571636 
1514	 0.511496183025431 
1515	 0.511606712084013 
1516	 0.511705500112461 
1517	 0.511806209987783 
1518	 0.511916289034957 
1519	 0.512011401680796 
1520	 0.512094120349203 
1521	 0.512180624399448 
1522	 0.512264597107303 
1523	 0.512347658441512 
1524	 0.51242585600458 
1525	 0.512513979988925 
1526	 0.512598382271889 
1527	 0.512694643690281 
1528	 0.512809914747673 
1529	 0.512907805815725 
1530	 0.513007828646355 
1531	 0.513103174220976 
1532	 0.513187786898 
1533	 0.513268183874372 
1534	 0.513348825263993 
1535	 0.513422387539526 
1536	 0.513468553855439 
1537	 0.513551252515852 
1538	 0.513657696970756 
1539	 0.513748979814809 
1540	 0.513863088705591 
1541	 0.513957178543319 
1542	 0.514012302080607 
1543	 0.514098657895211 
1544	 0.514193003815503 
1545	 0.514293095213508 
1546	 0.51440708085294 
1547	 0.514538734408764 
1548	 0.514640597179287 
1549	 0.514757274069606 
1550	 0.514891206643687 
1551	 0.514981037673098 
1552	 0.515074092264553 
1553	 0.515158800582553 
1554	 0.515182159436704 
1555	 0.515230622086283 
1556	 0.515287608592904 
1557	 0.515341004978832 
1558	 0.51544846445895 
1559	 0.515558506807097 
1560	 0.515658787601076 
1561	 0.515785412864568 
1562	 0.515851342176413 
1563	 0.51588677750981 
1564	 0.515917114740951 
1565	 0.515903033680967 
1566	 0.515922339330222 
1567	 0.515941197644287 
1568	 0.515976336246902 
1569	 0.516024973603657 
1570	 0.516078231738991 
1571	 0.516147717891475 
1572	 0.516214201608415 
1573	 0.516294993902203 
1574	 0.516348856749541 
1575	 0.516380425189658 
1576	 0.516431707131937 
1577	 0.516467706834425 
1578	 0.516531500654955 
1579	 0.516629436492622 
1580	 0.516713708536961 
1581	 0.516817236263013 
1582	 0.516881087904612 
1583	 0.516929481160671 
1584	 0.516968893458353 
1585	 0.516950922244157 
1586	 0.516992136504023 
1587	 0.517059221920915 
1588	 0.517126932826736 
1589	 0.517237240711716 
1590	 0.517318310812926 
1591	 0.517383529205569 
1592	 0.517450066188808 
1593	 0.517509987056199 
1594	 0.517569338575723 
1595	 0.517626859112118 
1596	 0.517682529938653 
1597	 0.517747862903006 
1598	 0.517788160086383 
1599	 0.517807626862561 
1600	 0.517836835655172 
1601	 0.517835168024813 
1602	 0.517866426731759 
1603	 0.517940262975781 
1604	 0.517984882976059 
1605	 0.518036360378848 
1606	 0.518073553958085 
1607	 0.518086950455112 
1608	 0.51809260178317 
1609	 0.518114029786336 
1610	 0.518132880055252 
1611	 0.51816396557764 
1612	 0.518225822398227 
1613	 0.518293913700957 
1614	 0.518351495682394 
1615	 0.518401905728617 
1616	 0.518453782007354 
1617	 0.518524713676946 
1618	 0.518587656979503 
1619	 0.518641000029148 
1620	 0.518700502910346 
1621	 0.518746020856336 
1622	 0.518769473676805 
1623	 0.518813211454893 
1624	 0.518866998698231 
1625	 0.518905506945103 
1626	 0.518940793280675 
1627	 0.518973235515551 
1628	 0.519002295520236 
1629	 0.519017781951333 
1630	 0.519018528156821 
1631	 0.519045926124196 
1632	 0.519068633619973 
1633	 0.519108114823385 
1634	 0.519172968518769 
1635	 0.519231747295945 
1636	 0.519291082762386 
1637	 0.519348278190414 
1638	 0.519419908034085 
1639	 0.519471530805667 
1640	 0.519511853736151 
1641	 0.519547340368391 
1642	 0.519573102535832 
1643	 0.519601068561056 
1644	 0.519612197834668 
1645	 0.519651739673742 
1646	 0.519701317080189 
1647	 0.519759130870172 
1648	 0.519836948986501 
1649	 0.51990999928809 
1650	 0.519987404631888 
1651	 0.520062068130418 
1652	 0.520156380097073 
1653	 0.52020726211935 
1654	 0.520242084116674 
1655	 0.52026069009179 
1656	 0.520235588034605 
1657	 0.520238706005975 
1658	 0.52023210116802 
1659	 0.520255988877222 
1660	 0.52030959056438 
1661	 0.520341511325053 
1662	 0.520388375273277 
1663	 0.520414062013102 
1664	 0.520412933414812 
1665	 0.520428112865191 
1666	 0.520447808908539 
1667	 0.520461854218618 
1668	 0.520457782387902 
1669	 0.520496130758008 
1670	 0.520548295935242 
1671	 0.520612017877536 
1672	 0.520732826516561 
1673	 0.52079445892601 
1674	 0.520825961096178 
1675	 0.520870299117711 
1676	 0.520890439341967 
1677	 0.520930102812914 
1678	 0.520998505963176 
1679	 0.521034164138585 
1680	 0.521052243826198 
1681	 0.521077829139525 
1682	 0.521084505174799 
1683	 0.52111005530584 
1684	 0.521152365487645 
1685	 0.521188145945355 
1686	 0.521233036077248 
1687	 0.521261981863931 
1688	 0.52127204642441 
1689	 0.521304247253087 
1690	 0.521338384755469 
1691	 0.521375282780534 
1692	 0.521429495403206 
1693	 0.52147835376034 
1694	 0.521518990175165 
1695	 0.521567076759869 
1696	 0.52163945770776 
1697	 0.521673028242507 
1698	 0.52169274818203 
1699	 0.521700614357251 
1700	 0.521649705390698 
1701	 0.521674743951375 
1702	 0.521726698163385 
1703	 0.521785487096728 
1704	 0.521907198569472 
1705	 0.521978213867443 
1706	 0.522019973197673 
1707	 0.522081205333257 
1708	 0.522155197360596 
1709	 0.522189135595719 
1710	 0.522214407953488 
1711	 0.522224583686781 
1712	 0.522182075952996 
1713	 0.522182879265267 
1714	 0.522201115801549 
1715	 0.522218467154547 
1716	 0.522246579158209 
1717	 0.522272739879943 
1718	 0.522303768225973 
1719	 0.522330717057814 
1720	 0.522359710989977 
1721	 0.522381948943232 
1722	 0.52239843337471 
1723	 0.522418287029933 
1724	 0.522445431837282 
1725	 0.522447332944701 
1726	 0.522448826812702 
1727	 0.52241615485627 
1728	 0.522339276828973 
1729	 0.522302437112005 
1730	 0.522260723654185 
1731	 0.522226861962118 
1732	 0.52222325482988 
1733	 0.522191390060442 
1734	 0.522150246328117 
1735	 0.522096928562151 
1736	 0.522026977981544 
1737	 0.521953165408012 
1738	 0.521852821689206 
1739	 0.521795737194487 
1740	 0.52176322851428 
1741	 0.521721373829801 
1742	 0.521696986842115 
1743	 0.521660409781123 
1744	 0.521610123688983 
1745	 0.521567505470571 
1746	 0.521529835595439 
1747	 0.521479931795844 
1748	 0.521430850574764 
1749	 0.521383909262638 
1750	 0.52135634300168 
1751	 0.521279097909249 
1752	 0.521216409960904 
1753	 0.521187937470846 
1754	 0.521142842809017 
1755	 0.521146906183409 
1756	 0.521168963954752 
1757	 0.521132763329655 
1758	 0.521106615242717 
1759	 0.521102951403764 
1760	 0.521056033585329 
1761	 0.521016979334904 
1762	 0.520997809221341 
1763	 0.520957975610615 
1764	 0.520916828675205 
1765	 0.520860590935699 
1766	 0.520776754172187 
1767	 0.520687881953979 
1768	 0.520617415015407 
1769	 0.52058520982664 
1770	 0.520578518720476 
1771	 0.520570313138282 
1772	 0.5205461033216 
1773	 0.520525360275951 
1774	 0.520518825726627 
1775	 0.520516050109768 
1776	 0.520497182357785 
1777	 0.520428369429089 
1778	 0.520375035149299 
1779	 0.520341352646241 
1780	 0.520348103150922 
1781	 0.520435455770235 
1782	 0.520492238452008 
1783	 0.520560291213281 
1784	 0.520559353882569 
1785	 0.520481800472103 
1786	 0.52044959459575 
1787	 0.520393671264681 
1788	 0.520345794406583 
1789	 0.520313659396368 
1790	 0.520310803647289 
1791	 0.520318774385115 
1792	 0.52033169134026 
1793	 0.520382579438782 
1794	 0.520399660769464 
1795	 0.520369888768232 
1796	 0.520381154451718 
1797	 0.520461763104116 
1798	 0.52046601816825 
1799	 0.520434381728481 
1800	 0.520400117443762 
1801	 0.534391260647975 
1802	 0.534387570449818 
1803	 0.534398151214485 
1804	 0.534417579666313 
1805	 0.534430038491587 
1806	 0.534443319574685 
1807	 0.534434202703572 
1808	 0.534422977274119 
1809	 0.534384016613356 
1810	 0.534383210568042 
1811	 0.53439679190157 
1812	 0.534398483326761 
1813	 0.534423924093312 
1814	 0.534457993504819 
1815	 0.534479457763058 
1816	 0.534510223683163 
1817	 0.53453989237552 
1818	 0.534578492457126 
1819	 0.53459862397386 
1820	 0.534596889582742 
1821	 0.53463623833261 
1822	 0.53467120698398 
1823	 0.53467970410325 
1824	 0.534670041110873 
1825	 0.534628778158131 
1826	 0.534545884223515 
1827	 0.534452706946255 
1828	 0.534381982616239 
1829	 0.534315135266559 
1830	 0.534256038352264 
1831	 0.534204515052091 
1832	 0.534164600461208 
1833	 0.534138098674475 
1834	 0.534093242755773 
1835	 0.534050757181529 
1836	 0.534001778028866 
1837	 0.533933499982003 
1838	 0.533864359068547 
1839	 0.5337950415225 
1840	 0.53372102710436 
1841	 0.53365024122681 
1842	 0.533567530839554 
1843	 0.533508728979168 
1844	 0.533470100059232 
1845	 0.533421758667326 
1846	 0.533425964389131 
1847	 0.533464618246929 
1848	 0.533485501661487 
1849	 0.533528971190225 
1850	 0.53354911458106 
1851	 0.533574747479883 
1852	 0.533536159160171 
1853	 0.533488695289909 
1854	 0.533435642615865 
1855	 0.533401538308617 
1856	 0.533362837917364 
1857	 0.533296384951009 
1858	 0.533274400173339 
1859	 0.533232289335885 
1860	 0.533168135061506 
1861	 0.533094799799054 
1862	 0.533034197871896 
1863	 0.532930622687648 
1864	 0.532810522048733 
1865	 0.532703175959146 
1866	 0.532637130836669 
1867	 0.532582076016597 
1868	 0.532530269085329 
1869	 0.532468592547022 
1870	 0.532396703642433 
1871	 0.532285800048366 
1872	 0.532162144034205 
1873	 0.531969604311257 
1874	 0.531723824595761 
1875	 0.531416083938198 
1876	 0.531080964789195 
1877	 0.530744584688707 
1878	 0.530403463138625 
1879	 0.530057449108751 
1880	 0.529680002707305 
1881	 0.529269482104609 
1882	 0.528851341720416 
1883	 0.528424243364412 
1884	 0.527962343589792 
1885	 0.527481111837018 
1886	 0.526943054239128 
1887	 0.526338759984859 
1888	 0.525646701911617 
1889	 0.524874018739405 
1890	 0.524074969674782 
1891	 0.523278930088864 
1892	 0.522418958393102 
1893	 0.521617440415689 
1894	 0.520846559235108 
1895	 0.520054997692024 
1896	 0.519271848866727 
1897	 0.518559648709805 
1898	 0.517821126583066 
1899	 0.517078062732274 
1900	 0.516368950979961 
1901	 0.515657826541573 
1902	 0.514968432691682 
1903	 0.514313080941894 
1904	 0.513662311143361 
1905	 0.513034736595416 
1906	 0.51238502270193 
1907	 0.511737732294566 
1908	 0.51113018976415 
1909	 0.510541589743782 
1910	 0.509979704570968 
1911	 0.509464093074397 
1912	 0.50897848151828 
1913	 0.508538465203285 
1914	 0.508149293839278 
1915	 0.507770263501797 
1916	 0.507425072574678 
1917	 0.507115532300762 
1918	 0.506808672780697 
1919	 0.506498136979952 
1920	 0.506216313280333 
1921	 0.505921756870264 
1922	 0.505632711534051 
1923	 0.505377897796284 
1924	 0.505158496940462 
1925	 0.504979571473652 
1926	 0.504817399538173 
1927	 0.504682148231971 
1928	 0.504566203075187 
1929	 0.504483881270766 
1930	 0.504436486580002 
1931	 0.504428579411114 
1932	 0.504436736682667 
1933	 0.504444932503431 
1934	 0.504439328854905 
1935	 0.504466315099979 
1936	 0.504495514055344 
1937	 0.504563749159323 
1938	 0.504682101082894 
1939	 0.504788753471187 
1940	 0.504903677189516 
1941	 0.50502764431749 
1942	 0.505168778400109 
1943	 0.505319179367615 
1944	 0.505509368978668 
1945	 0.505703978016573 
1946	 0.505905543549035 
1947	 0.506114909255482 
1948	 0.506335054776931 
1949	 0.506568160550211 
1950	 0.506807185842665 
1951	 0.507051176550259 
1952	 0.50731781506442 
1953	 0.507576927326754 
1954	 0.507818143490432 
1955	 0.508060279635114 
1956	 0.508272562477327 
1957	 0.508521651612098 
1958	 0.508774474687948 
1959	 0.509043828612195 
1960	 0.509348339610275 
1961	 0.509644058223072 
1962	 0.509944821839787 
1963	 0.510245045262186 
1964	 0.510557914659899 
1965	 0.510851800264266 
1966	 0.511146604703164 
1967	 0.511408225606078 
1968	 0.511678239905891 
1969	 0.511931246097934 
1970	 0.512195997471995 
1971	 0.512454891808931 
1972	 0.51274338303881 
1973	 0.513051419084154 
1974	 0.513354579747003 
1975	 0.513676260687639 
1976	 0.51398271530643 
1977	 0.51431742476525 
1978	 0.514636735014432 
1979	 0.514950127755645 
1980	 0.515290167453904 
1981	 0.515617579623435 
1982	 0.515920917617712 
1983	 0.516252332105222 
1984	 0.51660842123626 
1985	 0.516949097667642 
1986	 0.517289935806531 
1987	 0.517632575455932 
1988	 0.51797923025796 
1989	 0.51831861434013 
1990	 0.518650132055453 
1991	 0.518971176055962 
1992	 0.519293576311857 
1993	 0.519601362360169 
1994	 0.519919890204319 
1995	 0.520237488808729 
1996	 0.520567284206723 
1997	 0.520888825450659 
1998	 0.52124051934604 
1999	 0.521623089368988 
2000	 0.521999054402131 
2001	 0.522396783835629 
2002	 0.522786376096284 
2003	 0.523153670968229 
2004	 0.523527193770202 
2005	 0.52388310712165 
2006	 0.524226075285088 
2007	 0.524560233055122 
2008	 0.52488652635848 
2009	 0.525199545261378 
2010	 0.525472221189308 
2011	 0.525787972321065 
2012	 0.526112229763555 
2013	 0.526442358050332 
2014	 0.526779012910403 
2015	 0.527171368344732 
2016	 0.527524863778719 
2017	 0.527859394884282 
2018	 0.528188367097655 
2019	 0.528507090459078 
2020	 0.528815261087842 
2021	 0.529096759935659 
2022	 0.529406343129064 
2023	 0.52972846834017 
2024	 0.530041876184575 
2025	 0.53036793328093 
2026	 0.530680920949628 
2027	 0.530982875430825 
2028	 0.531269706481078 
2029	 0.531579156021436 
2030	 0.531894396618221 
2031	 0.532211211487727 
2032	 0.532546505176663 
2033	 0.532860786721243 
2034	 0.533154692105367 
2035	 0.533474675574269 
2036	 0.533818618007173 
2037	 0.534127221690756 
2038	 0.53445794084505 
2039	 0.534741580837635 
2040	 0.534995818976881 
2041	 0.535195570841477 
2042	 0.535399018041152 
2043	 0.535605098323988 
2044	 0.535821489772561 
2045	 0.536040170297278 
2046	 0.536262176252697 
2047	 0.536486300468887 
2048	 0.536723198198226 
2049	 0.536979896995446 
2050	 0.537212406409473 
2051	 0.537456307779959 
2052	 0.53767761552011 
2053	 0.537860748071765 
2054	 0.53805754524086 
2055	 0.538255941696916 
2056	 0.538439080393919 
2057	 0.538651935098969 
2058	 0.538863607497481 
2059	 0.539117866310145 
2060	 0.539427657245828 
2061	 0.539688848876766 
2062	 0.539975929623145 
2063	 0.540212128057373 
2064	 0.540385523013804 
2065	 0.540587226892581 
2066	 0.540768995914114 
2067	 0.540976311889747 
2068	 0.541209892832353 
2069	 0.541438723547237 
2070	 0.541644759175256 
2071	 0.541849118642175 
2072	 0.542047657752454 
2073	 0.542212269649369 
2074	 0.542416093277403 
2075	 0.542655864392614 
2076	 0.542856985023987 
2077	 0.543050558408411 
2078	 0.543243389477617 
2079	 0.543410695327535 
2080	 0.5435938197588 
2081	 0.543774394378665 
2082	 0.543977021906513 
2083	 0.54420473690019 
2084	 0.544425347955015 
2085	 0.544619208888612 
2086	 0.544820226240881 
2087	 0.545002181391773 
2088	 0.545134594033861 
2089	 0.545308186148514 
2090	 0.545498676245637 
2091	 0.545690037997351 
2092	 0.545894028343047 
2093	 0.546088874749084 
2094	 0.546287870255243 
2095	 0.546483471994474 
2096	 0.546668169213344 
2097	 0.546860198812076 
2098	 0.547068080072745 
2099	 0.547255861661915 
2100	 0.547445386918842 
2101	 0.547634045787757 
2102	 0.547821500094692 
2103	 0.547986319933777 
2104	 0.548193641756605 
2105	 0.548411905989412 
2106	 0.548649964087757 
2107	 0.548927470169595 
2108	 0.549190171733946 
2109	 0.549463938040761 
2110	 0.54973089275953 
2111	 0.549996744063064 
2112	 0.550261295109828 
2113	 0.550530430293747 
2114	 0.550780761139903 
2115	 0.551049196555693 
2116	 0.551329405956843 
2117	 0.551582081080368 
2118	 0.551827509315061 
2119	 0.552077403059487 
2120	 0.552302168974529 
2121	 0.55255231170451 
2122	 0.552834155926927 
2123	 0.553086661208141 
2124	 0.553332996718727 
2125	 0.553573562594444 
2126	 0.553796043450831 
2127	 0.554023977510488 
2128	 0.554253666040034 
2129	 0.55447803053255 
2130	 0.554717023298475 
2131	 0.554940528725755 
2132	 0.555101504662429 
2133	 0.555234138916169 
2134	 0.555342637415425 
2135	 0.555399343248055 
2136	 0.555441926232872 
2137	 0.555476863182499 
2138	 0.555473417903906 
2139	 0.5554255232931 
2140	 0.555357998703059 
2141	 0.555251105113179 
2142	 0.555153522931793 
2143	 0.555045476918904 
2144	 0.554912035003411 
2145	 0.554798391970563 
2146	 0.55462860762708 
2147	 0.554389595096523 
2148	 0.554152028060488 
2149	 0.553910834419928 
2150	 0.553643849302073 
2151	 0.55337732737964 
2152	 0.553119025483221 
2153	 0.55283590304869 
2154	 0.552542245811408 
2155	 0.552216869286842 
2156	 0.551882982413755 
2157	 0.551511388170363 
2158	 0.551069483189097 
2159	 0.550668815062296 
2160	 0.550274294697061 
2161	 0.549862220121738 
2162	 0.549453201930092 
2163	 0.549044268621972 
2164	 0.548620701357151 
2165	 0.54818728377457 
2166	 0.547766988415894 
2167	 0.547363155141553 
2168	 0.546948691166327 
2169	 0.546530955188255 
2170	 0.546109363902494 
2171	 0.54569123511404 
2172	 0.545262387082135 
2173	 0.544812162645541 
2174	 0.544381173447138 
2175	 0.543951085202749 
2176	 0.543530552712825 
2177	 0.543137183532479 
2178	 0.542717812782348 
2179	 0.542303566507601 
2180	 0.541864460271225 
2181	 0.541396513909043 
2182	 0.54092721797022 
2183	 0.540440211741555 
2184	 0.539945061318319 
2185	 0.539471356256796 
2186	 0.538983311141336 
2187	 0.538548943570854 
2188	 0.538148181579655 
2189	 0.53775354590531 
2190	 0.537386140246801 
2191	 0.537030792407288 
2192	 0.536702359648212 
2193	 0.536354267767532 
2194	 0.536022147925214 
2195	 0.535677544887541 
2196	 0.535299112101598 
2197	 0.534948689704696 
2198	 0.534585485182914 
2199	 0.534273831583646 
2200	 0.534006357396587 
2201	 0.533742876196036 
2202	 0.53351924819231 
2203	 0.53329573945206 
2204	 0.533083453591065 
2205	 0.532871789962317 
2206	 0.532673922409717 
2207	 0.53249426129051 
2208	 0.532321518794125 
2209	 0.532147936834382 
2210	 0.531995785128619 
2211	 0.531879177375462 
2212	 0.531738083064308 
2213	 0.531600911536708 
2214	 0.531462168746708 
2215	 0.531324737727551 
2216	 0.531161987553821 
2217	 0.530981773939383 
2218	 0.530809820891935 
2219	 0.530620439435978 
2220	 0.530435805706048 
2221	 0.53025912868571 
2222	 0.530090762067002 
2223	 0.529900970971552 
2224	 0.529722787253975 
2225	 0.529521154052237 
2226	 0.529327946675475 
2227	 0.529078528215916 
2228	 0.528778679842821 
2229	 0.528506096548903 
2230	 0.528220201217891 
2231	 0.527926695359089 
2232	 0.527661501051257 
2233	 0.527336614385244 
2234	 0.526928923699471 
2235	 0.52659434689931 
2236	 0.526265964402274 
2237	 0.525944434004677 
2238	 0.525652874824782 
2239	 0.525373463424426 
2240	 0.525094511674533 
2241	 0.524824426667037 
2242	 0.524597319425302 
2243	 0.524349130553253 
2244	 0.524076697164925 
2245	 0.523809788358116 
2246	 0.52357394100532 
2247	 0.523378023226394 
2248	 0.523230012046902 
2249	 0.523147688835198 
2250	 0.52304779017517 
2251	 0.522981032383133 
2252	 0.522903650547956 
2253	 0.522822624609466 
2254	 0.522754474877234 
2255	 0.522682490229357 
2256	 0.522651227495096 
2257	 0.522624407917271 
2258	 0.522655416335511 
2259	 0.522765006276841 
2260	 0.522836072616401 
2261	 0.522935041851265 
2262	 0.523012460555292 
2263	 0.523049955206544 
2264	 0.523121350926598 
2265	 0.523242459198097 
2266	 0.523305219833039 
2267	 0.52335463582981 
2268	 0.523394665610117 
2269	 0.523399003015538 
2270	 0.52336954186803 
2271	 0.523400574059264 
2272	 0.523436068095041 
2273	 0.523461394565289 
2274	 0.523538412709824 
2275	 0.523620929768628 
2276	 0.523714196195332 
2277	 0.523816546439617 
2278	 0.523958222609056 
2279	 0.524070373060181 
2280	 0.524178520384541 
2281	 0.52427851209559 
2282	 0.524365125828998 
2283	 0.524451297379296 
2284	 0.524523016486927 
2285	 0.524614904752071 
2286	 0.524692859521704 
2287	 0.524822425839901 
2288	 0.52496887069942 
2289	 0.525159088288508 
2290	 0.525393206544502 
2291	 0.525651909108571 
2292	 0.525973898664515 
2293	 0.526273927541128 
2294	 0.526592843573692 
2295	 0.526907879200567 
2296	 0.527217770407076 
2297	 0.527517813118049 
2298	 0.527848365802005 
2299	 0.528174587390491 
2300	 0.528513296316154 
2301	 0.528856911092854 
2302	 0.529110266942304 
2303	 0.529400864088848 
2304	 0.529712902059734 
2305	 0.529959816017091 
2306	 0.530270547634566 
2307	 0.530659430030064 
2308	 0.530970192550715 
2309	 0.531279683564923 
2310	 0.531542334609591 
2311	 0.531738477697284 
2312	 0.531978026733428 
2313	 0.532180929099869 
2314	 0.532426603460384 
2315	 0.532726682914238 
2316	 0.533006226529143 
2317	 0.533287907380224 
2318	 0.533577684143656 
2319	 0.533858793458357 
2320	 0.534154674098256 
2321	 0.534465653409668 
2322	 0.534777843865232 
2323	 0.535106114983673 
2324	 0.535434733563929 
2325	 0.535744344237081 
2326	 0.536084423989156 
2327	 0.536463349875225 
2328	 0.536821655477049 
2329	 0.537126583232985 
2330	 0.537470526548011 
2331	 0.537781325239856 
2332	 0.5380527728845 
2333	 0.538414017974657 
2334	 0.538777094779806 
2335	 0.539072104479829 
2336	 0.539377795369196 
2337	 0.53962152972251 
2338	 0.539804442320424 
2339	 0.539984923224271 
2340	 0.540179768500191 
2341	 0.540443239778979 
2342	 0.540686812248855 
2343	 0.540893796076331 
2344	 0.541042095747583 
2345	 0.541115354184042 
2346	 0.5410501929227 
2347	 0.541059283650404 
2348	 0.54106662739051 
2349	 0.541045046382429 
2350	 0.541009341251227 
2351	 0.540947714624873 
2352	 0.540810323490401 
2353	 0.540770030597419 
2354	 0.540773520277007 
2355	 0.540777585777057 
2356	 0.540887634379788 
2357	 0.540845451422859 
2358	 0.540739015561989 
2359	 0.540596922562688 
2360	 0.540320663645001 
2361	 0.540122019401763 
2362	 0.539914681144436 
2363	 0.539744649555239 
2364	 0.539637596223792 
2365	 0.539493640956874 
2366	 0.539384762923172 
2367	 0.539223533329844 
2368	 0.538988379950631 
2369	 0.538807856503414 
2370	 0.53868462199815 
2371	 0.538410448166663 
2372	 0.53817845141991 
2373	 0.537917964186646 
2374	 0.537575537061024 
2375	 0.537348930381996 
2376	 0.537134340292491 
2377	 0.536894461013313 
2378	 0.536729031772135 
2379	 0.536482887600973 
2380	 0.53623055560363 
2381	 0.53600128738862 
2382	 0.535628174604068 
2383	 0.535311962204982 
2384	 0.534998771461429 
2385	 0.534596588384599 
2386	 0.534361413997686 
2387	 0.53417169210824 
2388	 0.533903385774724 
2389	 0.533714119428022 
2390	 0.533412866043815 
2391	 0.532970827003831 
2392	 0.532607680036953 
2393	 0.532190090693957 
2394	 0.531835762375982 
2395	 0.531579106998566 
2396	 0.531273615344936 
2397	 0.530970665570411 
2398	 0.530587255415329 
2399	 0.53017259342063 
2400	 0.529824530116203 
2401	 0.529519369277913 
2402	 0.529170686096843 
2403	 0.528787026375108 
2404	 0.52840879058243 
2405	 0.527978751080505 
2406	 0.527593035791879 
2407	 0.527273041482339 
2408	 0.52694638953497 
2409	 0.526633269227849 
2410	 0.526369366523892 
2411	 0.526180560899818 
2412	 0.525950401454135 
2413	 0.525699705653081 
2414	 0.525445814278514 
2415	 0.525075348787474 
2416	 0.524718462115689 
2417	 0.524248147309522 
2418	 0.523989312862022 
2419	 0.523869133711785 
2420	 0.523613878404111 
2421	 0.52344180016432 
2422	 0.523181542113818 
2423	 0.522756150233593 
2424	 0.522436698871611 
2425	 0.522148085790933 
2426	 0.521879223376707 
2427	 0.521625912146071 
2428	 0.521426271070915 
2429	 0.521319703022759 
2430	 0.521171223186441 
2431	 0.520997352736962 
2432	 0.520802866218355 
2433	 0.520573900572492 
2434	 0.520442813829146 
2435	 0.520431716693327 
2436	 0.520234770155876 
2437	 0.519971049587243 
2438	 0.519737665580131 
2439	 0.519395117200966 
2440	 0.519053100725417 
2441	 0.518754179751935 
2442	 0.518541082043433 
2443	 0.518276173187282 
2444	 0.518089234130168 
2445	 0.518097170386408 
2446	 0.517944281426214 
2447	 0.517686390152157 
2448	 0.517440695132831 
2449	 0.517188193601013 
2450	 0.516908046839286 
2451	 0.516540919034252 
2452	 0.516243645715521 
2453	 0.515921873097074 
2454	 0.51578761451255 
2455	 0.515868817756949 
2456	 0.515849939177279 
2457	 0.515942483307381 
2458	 0.515751597351236 
2459	 0.515293670541143 
2460	 0.514988936281623 
2461	 0.514615020240464 
2462	 0.514465814606774 
2463	 0.514483103271069 
2464	 0.514340431156344 
2465	 0.514299571238431 
2466	 0.514133395917922 
2467	 0.513880481740703 
2468	 0.513571058040528 
2469	 0.513052252884924 
2470	 0.512649767296582 
2471	 0.51229068741517 
2472	 0.512098013495659 
2473	 0.512203997150957 
2474	 0.512145711456854 
2475	 0.511856765276825 
2476	 0.511611203904382 
2477	 0.511228136425983 
2478	 0.510860581906067 
2479	 0.510736016388375 
2480	 0.510609976755325 
2481	 0.510571850056111 
2482	 0.510441137237132 
2483	 0.510154776762044 
2484	 0.510003865410889 
2485	 0.509731467368947 
2486	 0.509274412026863 
2487	 0.508850762205274 
2488	 0.508617779177804 
2489	 0.508625192214313 
2490	 0.508661313165992 
2491	 0.508817576501584 
2492	 0.508736410913977 
2493	 0.50839526381099 
2494	 0.508184966957596 
2495	 0.507902409771128 
2496	 0.507663532159408 
2497	 0.507464080095006 
2498	 0.507189669239179 
2499	 0.50693766946869 
2500	 0.506825252285562 
