Wavelength	lmw-9-100004.asd
350	 9.82775638874499E-02 
351	 0.106731485780361 
352	 0.103427062161718 
353	 8.40041700133066E-02 
354	 9.09117377598898E-02 
355	 9.80660045172003E-02 
356	 9.73902569492156E-02 
357	 9.01781360429912E-02 
358	 9.21600294028687E-02 
359	 0.09135892151338 
360	 8.75157767980424E-02 
361	 8.75489463644741E-02 
362	 8.31887016156485E-02 
363	 8.20711056409138E-02 
364	 8.57313254774937E-02 
365	 8.34152307248049E-02 
366	 8.31364072591352E-02 
367	 8.39941008037893E-02 
368	 0.083825280051449 
369	 8.58341522499809E-02 
370	 8.52872020264623E-02 
371	 8.25318745857597E-02 
372	 8.14057297039304E-02 
373	 8.15566033099603E-02 
374	 8.19307960894921E-02 
375	 8.22690107045966E-02 
376	 8.42532568456709E-02 
377	 8.05526339466962E-02 
378	 7.69369182612487E-02 
379	 7.98051800782346E-02 
380	 8.06822514769057E-02 
381	 7.80105125608298E-02 
382	 7.48908545930523E-02 
383	 7.69057864853083E-02 
384	 7.75189369677952E-02 
385	 7.74819712689536E-02 
386	 7.80759265109311E-02 
387	 7.95824426602762E-02 
388	 8.08760996940757E-02 
389	 8.02038364224814E-02 
390	 0.077147596506464 
391	 7.78679346626985E-02 
392	 7.93961740229375E-02 
393	 8.03228074803398E-02 
394	 0.080929069631782 
395	 8.06643518229426E-02 
396	 8.04725655816204E-02 
397	 8.11762965733005E-02 
398	 0.083236031832904 
399	 8.27855326619394E-02 
400	 8.15714822854398E-02 
401	 8.25841736772169E-02 
402	 8.27492845698004E-02 
403	 8.37624645463355E-02 
404	 8.49124124691728E-02 
405	 8.30636152098114E-02 
406	 8.34590055524011E-02 
407	 8.41638522363841E-02 
408	 8.34743490254454E-02 
409	 8.40523852547658E-02 
410	 8.43199786287355E-02 
411	 8.45745857208532E-02 
412	 8.55762790948444E-02 
413	 8.47359569937164E-02 
414	 8.41359104599986E-02 
415	 8.43587884682056E-02 
416	 8.35523353648704E-02 
417	 0.083973586654902 
418	 0.084422024064476 
419	 8.36784033956284E-02 
420	 8.33278809096378E-02 
421	 8.29910970882037E-02 
422	 8.28078640982647E-02 
423	 8.31210539733747E-02 
424	 8.24493077712964E-02 
425	 8.17967311624327E-02 
426	 8.17256991253113E-02 
427	 8.15135050278996E-02 
428	 8.05362518154642E-02 
429	 0.079535117018798 
430	 7.94298456088885E-02 
431	 7.95072521153984E-02 
432	 7.99338395408943E-02 
433	 8.06301160336431E-02 
434	 8.12535633447599E-02 
435	 8.15984358870155E-02 
436	 8.19730193500799E-02 
437	 8.25665018658333E-02 
438	 0.082882091744054 
439	 8.38957936639687E-02 
440	 8.53154967216225E-02 
441	 8.63088917380284E-02 
442	 8.73676501927146E-02 
443	 8.85136771233392E-02 
444	 0.089694433483854 
445	 9.07977297069398E-02 
446	 9.22526447743709E-02 
447	 0.093834949503679 
448	 9.52084437389596E-02 
449	 9.63760083178943E-02 
450	 9.80500940186717E-02 
451	 0.100136127778866 
452	 0.101867042797115 
453	 0.103279910249338 
454	 0.104559243059506 
455	 0.106032093555448 
456	 0.108361728322679 
457	 0.110369590453335 
458	 0.112008690086694 
459	 0.11374410535466 
460	 0.115547624357663 
461	 0.11744579557646 
462	 0.119477737328973 
463	 0.12170440616555 
464	 0.123796750227796 
465	 0.125994296478905 
466	 0.128499294890656 
467	 0.130693750331525 
468	 0.132906814092092 
469	 0.135257763914779 
470	 0.137685887285723 
471	 0.140403096502236 
472	 0.143149318867209 
473	 0.145698230133465 
474	 0.148012096839902 
475	 0.150665095675913 
476	 0.153546371532253 
477	 0.156278026491665 
478	 0.159059769808998 
479	 0.161793004815521 
480	 0.164516841505842 
481	 0.167502929193269 
482	 0.170418245096684 
483	 0.173161917828031 
484	 0.175718425759229 
485	 0.17811670019887 
486	 0.180521905581026 
487	 0.182964892152541 
488	 0.185366502928146 
489	 0.187751654724647 
490	 0.190076923005777 
491	 0.192292784704969 
492	 0.194352370174274 
493	 0.196295828313348 
494	 0.198097489454672 
495	 0.199740944812315 
496	 0.201495429001168 
497	 0.203175240274454 
498	 0.204632492030014 
499	 0.205842987424696 
500	 0.2069351191126 
501	 0.208009063087326 
502	 0.209124606759579 
503	 0.210270078417903 
504	 0.211112429364198 
505	 0.211742962078475 
506	 0.212618897951334 
507	 0.213382590349919 
508	 0.2139831706224 
509	 0.214446392612335 
510	 0.214839309732154 
511	 0.215075107891892 
512	 0.215255822947373 
513	 0.215573073378102 
514	 0.216064004365856 
515	 0.21642983968521 
516	 0.216582262146141 
517	 0.216851499061557 
518	 0.217011097646602 
519	 0.217064537737058 
520	 0.217112148972983 
521	 0.217351192407539 
522	 0.217545886052422 
523	 0.217639125869341 
524	 0.217782661497172 
525	 0.21778196538307 
526	 0.217841600567634 
527	 0.218103046690664 
528	 0.218240549145004 
529	 0.218350535312478 
530	 0.218450658366952 
531	 0.218519961615441 
532	 0.218713383583162 
533	 0.218978967896774 
534	 0.219219821694752 
535	 0.219295087095292 
536	 0.219398843928995 
537	 0.219645836616114 
538	 0.220062653587754 
539	 0.220346365610448 
540	 0.220603669542759 
541	 0.220906568855049 
542	 0.22123372906675 
543	 0.221557821643775 
544	 0.221914345219146 
545	 0.222337296171695 
546	 0.222788371794622 
547	 0.223238755384751 
548	 0.223690683918518 
549	 0.224170884601224 
550	 0.224647761421979 
551	 0.225122769124172 
552	 0.225628747580731 
553	 0.226278061761146 
554	 0.226879576142022 
555	 0.227443320228495 
556	 0.228078957683168 
557	 0.228743520881951 
558	 0.229419642650582 
559	 0.230118621613418 
560	 0.23090656289823 
561	 0.231634762077729 
562	 0.232313288954833 
563	 0.233005280942771 
564	 0.233728022692388 
565	 0.234368813543143 
566	 0.234954642569952 
567	 0.235672657593436 
568	 0.236538811517744 
569	 0.23744006472086 
570	 0.238301562033881 
571	 0.239317846579937 
572	 0.24024634325013 
573	 0.241095172979228 
574	 0.242045633027372 
575	 0.243026440598016 
576	 0.24401710894174 
577	 0.244998142969234 
578	 0.24593746748261 
579	 0.246850903692038 
580	 0.247730717375816 
581	 0.248571924640868 
582	 0.249429101813426 
583	 0.250345317862996 
584	 0.251308681486049 
585	 0.252240307173323 
586	 0.253151297889445 
587	 0.254085576364958 
588	 0.255081844958147 
589	 0.256104287552739 
590	 0.257169452157595 
591	 0.25826919890555 
592	 0.25937946643426 
593	 0.260601245447795 
594	 0.261804253544097 
595	 0.262889098564263 
596	 0.263968270674876 
597	 0.264955635550301 
598	 0.265885892408151 
599	 0.266850648511686 
600	 0.267775986309363 
601	 0.268699937944936 
602	 0.269669787587755 
603	 0.270742466072949 
604	 0.271770240414532 
605	 0.272767006720904 
606	 0.273789402977817 
607	 0.27476727103902 
608	 0.275772112718919 
609	 0.276820560999342 
610	 0.277860107093962 
611	 0.278914064134984 
612	 0.27989259261868 
613	 0.280738873732362 
614	 0.281593727102438 
615	 0.282463126413608 
616	 0.283323899103703 
617	 0.284136541546872 
618	 0.28500504627346 
619	 0.285871782818188 
620	 0.286692158165382 
621	 0.287504516859118 
622	 0.288219854507852 
623	 0.288926509617875 
624	 0.289743153485553 
625	 0.290451819891671 
626	 0.29114536261153 
627	 0.29187885073682 
628	 0.292623529931248 
629	 0.293348254829788 
630	 0.294052119816882 
631	 0.294736101844704 
632	 0.295356502123647 
633	 0.295977323032105 
634	 0.296588919906071 
635	 0.297129131513952 
636	 0.297724571858731 
637	 0.298303957873975 
638	 0.298820577874501 
639	 0.299378025441489 
640	 0.299910586977492 
641	 0.300422442584517 
642	 0.300938378350547 
643	 0.301393020054751 
644	 0.301830296442078 
645	 0.302269330759293 
646	 0.302677580455331 
647	 0.303064744237446 
648	 0.3034172104375 
649	 0.303734192117746 
650	 0.304095164145962 
651	 0.304414729253925 
652	 0.304681014903188 
653	 0.304946814294735 
654	 0.305149832145436 
655	 0.305310023836713 
656	 0.305470430302643 
657	 0.30570531010542 
658	 0.305857146725097 
659	 0.305920991219312 
660	 0.305962395171264 
661	 0.305951476580308 
662	 0.305947019108467 
663	 0.305963234114585 
664	 0.305941827095731 
665	 0.305854315427406 
666	 0.305729768930329 
667	 0.305603017675119 
668	 0.305441798121786 
669	 0.305307522276005 
670	 0.30516123514366 
671	 0.304886000256903 
672	 0.30451807755201 
673	 0.304160739494345 
674	 0.303854662577365 
675	 0.303469674853691 
676	 0.303041241955027 
677	 0.30261802132171 
678	 0.302227578367797 
679	 0.301690203672659 
680	 0.301144858620318 
681	 0.300635164765048 
682	 0.300044811859355 
683	 0.299517415417636 
684	 0.298971317367795 
685	 0.298315069344033 
686	 0.297635044278448 
687	 0.296952272364899 
688	 0.296269769967921 
689	 0.295572171749325 
690	 0.29478208716513 
691	 0.294002829994671 
692	 0.293287817313227 
693	 0.292547567833874 
694	 0.291697573673242 
695	 0.290818284090641 
696	 0.290014083914353 
697	 0.289131743190963 
698	 0.288252618747742 
699	 0.287405754932918 
700	 0.286550827605849 
701	 0.28560957425683 
702	 0.284634480711655 
703	 0.283691910247373 
704	 0.282809935349575 
705	 0.281858188974773 
706	 0.280843280211137 
707	 0.279846819008282 
708	 0.278875640381193 
709	 0.277943386186352 
710	 0.277015031438309 
711	 0.275985709539753 
712	 0.274926654316508 
713	 0.27386069256507 
714	 0.272809223341755 
715	 0.271849741140545 
716	 0.270854454902325 
717	 0.269789749601453 
718	 0.268706566584699 
719	 0.267761068008477 
720	 0.26674890732394 
721	 0.26558500707026 
722	 0.264502811913046 
723	 0.263477652708212 
724	 0.262445090042629 
725	 0.261352396287039 
726	 0.260317686656639 
727	 0.259291226502757 
728	 0.258223749799149 
729	 0.257083868341389 
730	 0.256019451372603 
731	 0.254959788300415 
732	 0.253854764672566 
733	 0.252800321506134 
734	 0.251788583808181 
735	 0.250752702479182 
736	 0.249623198296256 
737	 0.248474673715902 
738	 0.247391819614249 
739	 0.246355941709011 
740	 0.245241450914943 
741	 0.244192300976408 
742	 0.243122506855774 
743	 0.241985612306876 
744	 0.240985152758306 
745	 0.23991381741522 
746	 0.238801683334489 
747	 0.237773009903501 
748	 0.23675334087719 
749	 0.235687757184707 
750	 0.23460456546708 
751	 0.233624555872741 
752	 0.232615893205333 
753	 0.231554170396473 
754	 0.230463673286152 
755	 0.229426535822121 
756	 0.228457334691888 
757	 0.227459955916245 
758	 0.226330722925887 
759	 0.22534956107538 
760	 0.224419357764513 
761	 0.223457581232231 
762	 0.222449277492068 
763	 0.221508110709785 
764	 0.220545046752778 
765	 0.219505735114415 
766	 0.218576271311315 
767	 0.21768534709954 
768	 0.216761390015656 
769	 0.215761129712077 
770	 0.214845174054815 
771	 0.213961143065057 
772	 0.213065279277057 
773	 0.2121510455753 
774	 0.211282535175976 
775	 0.21043939848862 
776	 0.209589200177643 
777	 0.208719513863169 
778	 0.207884284520221 
779	 0.207075883149757 
780	 0.206260192246022 
781	 0.205442246702282 
782	 0.204636524679509 
783	 0.203844597522494 
784	 0.20305744642017 
785	 0.202310535833042 
786	 0.201583965135661 
787	 0.200858201518085 
788	 0.200141561942942 
789	 0.1994379343169 
790	 0.198727348648894 
791	 0.197997969086061 
792	 0.197319013925806 
793	 0.196673381195612 
794	 0.196036160624649 
795	 0.195381069292211 
796	 0.194689561251524 
797	 0.194033693198617 
798	 0.193444613987582 
799	 0.192856138890734 
800	 0.192270765098316 
801	 0.19169703568123 
802	 0.191148301795882 
803	 0.190650876646895 
804	 0.19009245853129 
805	 0.189503653479377 
806	 0.188997702377636 
807	 0.188530921376752 
808	 0.188039110419722 
809	 0.187519476403345 
810	 0.187048684497309 
811	 0.186569760312598 
812	 0.186099410556592 
813	 0.185664096069501 
814	 0.185275832993745 
815	 0.184895892689664 
816	 0.184492794089797 
817	 0.184058813452996 
818	 0.183675294370209 
819	 0.183322666951788 
820	 0.182976447895576 
821	 0.182617452244199 
822	 0.182273944867707 
823	 0.181922896537063 
824	 0.181577782085507 
825	 0.181322515124353 
826	 0.181024097428235 
827	 0.180688590314978 
828	 0.180368610585951 
829	 0.180133409695335 
830	 0.17985281705618 
831	 0.179556122050718 
832	 0.179337776722836 
833	 0.179163840603236 
834	 0.178966123325863 
835	 0.178735564182764 
836	 0.178520337060824 
837	 0.178304889268296 
838	 0.178117278919997 
839	 0.177952075659518 
840	 0.177736800911297 
841	 0.177571192153037 
842	 0.177437211971755 
843	 0.177300031506458 
844	 0.177184713145424 
845	 0.177080300454501 
846	 0.176962410155385 
847	 0.176824065979593 
848	 0.176787602274919 
849	 0.176727040964933 
850	 0.176610014035601 
851	 0.176500803176685 
852	 0.176438676756951 
853	 0.17639886391548 
854	 0.176367499545196 
855	 0.176362081873574 
856	 0.176336578244616 
857	 0.176293978400441 
858	 0.176267093479692 
859	 0.176337512132239 
860	 0.176369619594464 
861	 0.176367126011964 
862	 0.17637514289261 
863	 0.176361767748459 
864	 0.176434183985485 
865	 0.176557869489144 
866	 0.176624214785178 
867	 0.176700142666004 
868	 0.176759720046 
869	 0.176827907841649 
870	 0.176976896579842 
871	 0.177112652365978 
872	 0.177236366475521 
873	 0.177365652105455 
874	 0.17751662631986 
875	 0.177677927273051 
876	 0.177837092323097 
877	 0.177990462821481 
878	 0.178157577686734 
879	 0.178313791031384 
880	 0.178545132662897 
881	 0.178891892344967 
882	 0.179059629477282 
883	 0.179250579988094 
884	 0.179502718748897 
885	 0.17975844241452 
886	 0.180041182610911 
887	 0.180303163589427 
888	 0.180544668912015 
889	 0.180813820722138 
890	 0.18116777389339 
891	 0.181499234439335 
892	 0.181780514380952 
893	 0.182107609149821 
894	 0.182465607280182 
895	 0.182850119715944 
896	 0.183238040402461 
897	 0.183575438844933 
898	 0.183957967337222 
899	 0.184362371490349 
900	 0.184742594242964 
901	 0.185074201590104 
902	 0.185474128576275 
903	 0.185965055143737 
904	 0.186510987782663 
905	 0.187022806974844 
906	 0.187512939730426 
907	 0.187957088676375 
908	 0.188350626280672 
909	 0.188855824961988 
910	 0.189391083339724 
911	 0.189928886548775 
912	 0.190482282336773 
913	 0.191024423711062 
914	 0.191586238536407 
915	 0.192167235845852 
916	 0.192740765131812 
917	 0.193346494729859 
918	 0.193934706757704 
919	 0.194512532991454 
920	 0.195155465538816 
921	 0.195824882024032 
922	 0.196471569790821 
923	 0.197090710681962 
924	 0.197743303257745 
925	 0.198355805839097 
926	 0.199012064033682 
927	 0.199738397620439 
928	 0.200398225674087 
929	 0.201122782370981 
930	 0.201945492205948 
931	 0.202814430830152 
932	 0.203558014334635 
933	 0.20432100249147 
934	 0.205046206031856 
935	 0.205714158680733 
936	 0.20659171376058 
937	 0.207318267666502 
938	 0.207962512224651 
939	 0.208715142077941 
940	 0.209627388861951 
941	 0.210595091205092 
942	 0.21150472209168 
943	 0.212318427350682 
944	 0.21327485175446 
945	 0.214136627786611 
946	 0.214944823158201 
947	 0.215838387568928 
948	 0.216765678725137 
949	 0.217609453253136 
950	 0.218440791376482 
951	 0.219386551767191 
952	 0.220329669198259 
953	 0.221144388422071 
954	 0.221914316621697 
955	 0.222835628230064 
956	 0.224011225741872 
957	 0.22503888819442 
958	 0.2259085303336 
959	 0.226847865501144 
960	 0.227778866850606 
961	 0.228820479175691 
962	 0.229927944926241 
963	 0.230939478060814 
964	 0.231723120879887 
965	 0.232719823259314 
966	 0.233892677573663 
967	 0.234900803628683 
968	 0.235842975176255 
969	 0.236946955582436 
970	 0.238101110471496 
971	 0.239040957218375 
972	 0.240106835164817 
973	 0.241348366300935 
974	 0.242595672877402 
975	 0.2436405367742 
976	 0.244875109841449 
977	 0.246038692300043 
978	 0.247146809242942 
979	 0.248376079237945 
980	 0.249552706706468 
981	 0.250795095682552 
982	 0.252100451247412 
983	 0.253366542378593 
984	 0.254440129957342 
985	 0.255732058776673 
986	 0.257194421308173 
987	 0.25851786398541 
988	 0.259665284602529 
989	 0.260760009947361 
990	 0.262050487019348 
991	 0.263664209687834 
992	 0.265011324634737 
993	 0.266341354157498 
994	 0.267721369602824 
995	 0.26907441829334 
996	 0.270156342339734 
997	 0.271583028369396 
998	 0.27317450447593 
999	 0.274597352597242 
1000	 0.276254957718221 
1001	 0.280527728780107 
1002	 0.281966044008816 
1003	 0.283390699516101 
1004	 0.28484454528451 
1005	 0.286348679739644 
1006	 0.287825452239547 
1007	 0.289280634592225 
1008	 0.290785673419306 
1009	 0.292308016802473 
1010	 0.293762744533264 
1011	 0.295248296709673 
1012	 0.296773133079787 
1013	 0.298259183366083 
1014	 0.299743185457386 
1015	 0.301231890272668 
1016	 0.302655629637628 
1017	 0.304133212039101 
1018	 0.30560534762829 
1019	 0.307126327580075 
1020	 0.308649530505796 
1021	 0.310185156873052 
1022	 0.311691489016748 
1023	 0.313183319100387 
1024	 0.314623040143705 
1025	 0.316071060614065 
1026	 0.317560262847501 
1027	 0.319018980103265 
1028	 0.320527902856558 
1029	 0.322016642870585 
1030	 0.323453212582764 
1031	 0.324887819442789 
1032	 0.326293440779103 
1033	 0.327690682427657 
1034	 0.329160703359515 
1035	 0.330603754299141 
1036	 0.33203050278104 
1037	 0.333493549342537 
1038	 0.334919774653412 
1039	 0.336401277859948 
1040	 0.337903848011285 
1041	 0.339348167718802 
1042	 0.340779735594379 
1043	 0.342136463563002 
1044	 0.343484133970288 
1045	 0.344782959009718 
1046	 0.346122074038341 
1047	 0.347480863062447 
1048	 0.348904638064893 
1049	 0.350329322391229 
1050	 0.351707179015316 
1051	 0.353121738444398 
1052	 0.354473846547558 
1053	 0.355782351896495 
1054	 0.357208777192583 
1055	 0.358604967614522 
1056	 0.359921070049176 
1057	 0.361246669032249 
1058	 0.362566200672224 
1059	 0.363882365016723 
1060	 0.365158197257214 
1061	 0.366477443964887 
1062	 0.367835438145484 
1063	 0.369177057938131 
1064	 0.370485941567272 
1065	 0.371803323418549 
1066	 0.373075708023388 
1067	 0.374279002799269 
1068	 0.375533179966696 
1069	 0.376807150397752 
1070	 0.37808823930869 
1071	 0.379423128264015 
1072	 0.380718991603354 
1073	 0.381999552803208 
1074	 0.383248947427382 
1075	 0.384475697415327 
1076	 0.385679434407854 
1077	 0.386834625577443 
1078	 0.387954962656728 
1079	 0.389127841913578 
1080	 0.390294357161455 
1081	 0.391413514240836 
1082	 0.392601961058159 
1083	 0.393739972842178 
1084	 0.394787672034306 
1085	 0.395914996960319 
1086	 0.39711147933274 
1087	 0.398199721581722 
1088	 0.39924068637514 
1089	 0.400346209880893 
1090	 0.401346956740116 
1091	 0.402344297658534 
1092	 0.403398974965813 
1093	 0.404378135826925 
1094	 0.405333408856213 
1095	 0.406292577616433 
1096	 0.407198018235497 
1097	 0.408087067926545 
1098	 0.408971060665264 
1099	 0.409845225014774 
1100	 0.410690117882969 
1101	 0.41151465161864 
1102	 0.412340593928327 
1103	 0.413162886540133 
1104	 0.413947026525487 
1105	 0.414721233040246 
1106	 0.415487753667239 
1107	 0.41620517270368 
1108	 0.41691432192632 
1109	 0.417612231120024 
1110	 0.418278062503658 
1111	 0.418933164250296 
1112	 0.419568300882474 
1113	 0.420181433262311 
1114	 0.420770678827503 
1115	 0.421366885794677 
1116	 0.421947143520032 
1117	 0.42252453727711 
1118	 0.423108366900963 
1119	 0.423685994305721 
1120	 0.424222783043477 
1121	 0.424730891661536 
1122	 0.425207512884242 
1123	 0.425632740290899 
1124	 0.426045209472562 
1125	 0.426439378687763 
1126	 0.426790741203446 
1127	 0.427117722539066 
1128	 0.427397020291317 
1129	 0.427665925386681 
1130	 0.427846671129397 
1131	 0.427981183408063 
1132	 0.428058891633999 
1133	 0.428069851710678 
1134	 0.428023900665761 
1135	 0.427945155907511 
1136	 0.427804345332228 
1137	 0.427560050495235 
1138	 0.427231918485573 
1139	 0.426803994130374 
1140	 0.426285174630159 
1141	 0.425668079814212 
1142	 0.424964073719991 
1143	 0.424174793781564 
1144	 0.423284908179682 
1145	 0.422333080388015 
1146	 0.421284220946327 
1147	 0.420215877867127 
1148	 0.419055315736046 
1149	 0.417914438988769 
1150	 0.416745369842428 
1151	 0.415567911477964 
1152	 0.414417569904557 
1153	 0.413304426349803 
1154	 0.412263550169009 
1155	 0.411239483676477 
1156	 0.410347669830103 
1157	 0.409521810890301 
1158	 0.408792539481108 
1159	 0.408149533857678 
1160	 0.407604190418936 
1161	 0.407171621297321 
1162	 0.406766952084 
1163	 0.406448858145989 
1164	 0.40616791675388 
1165	 0.405918875810854 
1166	 0.405720033007346 
1167	 0.4055769667266 
1168	 0.405472004447208 
1169	 0.405410474485717 
1170	 0.405393341022733 
1171	 0.405391150439105 
1172	 0.405439087703094 
1173	 0.405486036372933 
1174	 0.405531539734624 
1175	 0.405619634957936 
1176	 0.405715502416955 
1177	 0.405873023003436 
1178	 0.40608104799981 
1179	 0.406311357467742 
1180	 0.406593614417778 
1181	 0.406885146349954 
1182	 0.407208701577588 
1183	 0.407532827883117 
1184	 0.407856314025789 
1185	 0.408205587575704 
1186	 0.408522799533388 
1187	 0.40882958341966 
1188	 0.409123533473594 
1189	 0.409414170387159 
1190	 0.409678276027425 
1191	 0.409915145612991 
1192	 0.41015758903469 
1193	 0.410378462900174 
1194	 0.410610030425028 
1195	 0.410864139039322 
1196	 0.411085395816666 
1197	 0.41127899574544 
1198	 0.411486095175898 
1199	 0.411690059562375 
1200	 0.411870190602274 
1201	 0.41208536403001 
1202	 0.412323434905921 
1203	 0.412554240568097 
1204	 0.412793073388074 
1205	 0.413028676380425 
1206	 0.413271401989152 
1207	 0.41350331857631 
1208	 0.413744255128349 
1209	 0.413957938373113 
1210	 0.414153404665969 
1211	 0.414345433890166 
1212	 0.41450653884282 
1213	 0.414686950882763 
1214	 0.414886989208322 
1215	 0.415067380010982 
1216	 0.41524202746268 
1217	 0.415426060159252 
1218	 0.415576325798429 
1219	 0.4156943520195 
1220	 0.415830859643084 
1221	 0.415954355842352 
1222	 0.416091803136789 
1223	 0.416248940003235 
1224	 0.416384349134089 
1225	 0.416514028862576 
1226	 0.416639825650919 
1227	 0.416762624554568 
1228	 0.4168702467162 
1229	 0.416960431252731 
1230	 0.417060680602678 
1231	 0.417161135344016 
1232	 0.417248182352587 
1233	 0.417331443339908 
1234	 0.417420444748246 
1235	 0.417500925285282 
1236	 0.417558644734017 
1237	 0.41763853497141 
1238	 0.417742413610643 
1239	 0.417815536412108 
1240	 0.417881187613991 
1241	 0.417939773681619 
1242	 0.417978210446862 
1243	 0.418021850569245 
1244	 0.418062291103443 
1245	 0.418106084914399 
1246	 0.418150529721364 
1247	 0.418190509907945 
1248	 0.418228148834974 
1249	 0.418273107244811 
1250	 0.418304308115852 
1251	 0.418335630342589 
1252	 0.418345723449156 
1253	 0.418351040318923 
1254	 0.418330975791905 
1255	 0.418287220080079 
1256	 0.418237760608544 
1257	 0.418165161833122 
1258	 0.418101202011043 
1259	 0.418019837688363 
1260	 0.417958621210645 
1261	 0.417908714464833 
1262	 0.417855027491524 
1263	 0.41782704118391 
1264	 0.417767998043232 
1265	 0.417691663072121 
1266	 0.41761252418672 
1267	 0.417519595225512 
1268	 0.417415408658877 
1269	 0.417305235688588 
1270	 0.417195641051584 
1271	 0.417057521862266 
1272	 0.416900054504528 
1273	 0.416735831049651 
1274	 0.41655247432626 
1275	 0.416369636452106 
1276	 0.41618351589558 
1277	 0.415980844117919 
1278	 0.415770793263303 
1279	 0.415546332370338 
1280	 0.415312590322735 
1281	 0.415057681342088 
1282	 0.414791989057472 
1283	 0.414501865740152 
1284	 0.41417575278061 
1285	 0.413856703271218 
1286	 0.413526313600468 
1287	 0.413167935416701 
1288	 0.41280807763154 
1289	 0.41243882044857 
1290	 0.412065410338355 
1291	 0.411686311639814 
1292	 0.411289229578369 
1293	 0.410901497710409 
1294	 0.41045890231718 
1295	 0.409984254426848 
1296	 0.409485597490964 
1297	 0.408943126508305 
1298	 0.408397795474432 
1299	 0.407822213557498 
1300	 0.40725493337776 
1301	 0.40670388735337 
1302	 0.406110112102459 
1303	 0.405507353063046 
1304	 0.404878236743106 
1305	 0.404210073242219 
1306	 0.403499683936785 
1307	 0.402754234235594 
1308	 0.401982000029489 
1309	 0.40119180989288 
1310	 0.400373159776387 
1311	 0.399524177814697 
1312	 0.398671290204982 
1313	 0.397764822165485 
1314	 0.396826920713689 
1315	 0.395832393487948 
1316	 0.394787869806922 
1317	 0.393719842578811 
1318	 0.392616720930233 
1319	 0.391472702589271 
1320	 0.390313539974319 
1321	 0.389098651391095 
1322	 0.387845243324867 
1323	 0.386534069728934 
1324	 0.38515878572131 
1325	 0.383756090913594 
1326	 0.382338978207233 
1327	 0.380874187805943 
1328	 0.379379963885896 
1329	 0.377905660407632 
1330	 0.376356118979586 
1331	 0.374748675784097 
1332	 0.373119889499476 
1333	 0.37144228767903 
1334	 0.369773866815585 
1335	 0.368076595623755 
1336	 0.366399630860877 
1337	 0.364727179640657 
1338	 0.363060904597046 
1339	 0.361398517949825 
1340	 0.359729941657835 
1341	 0.358031860758398 
1342	 0.356395717211495 
1343	 0.35476088882197 
1344	 0.35318134173934 
1345	 0.351651786706094 
1346	 0.350171997963524 
1347	 0.348733072370136 
1348	 0.347307404634819 
1349	 0.345929952330584 
1350	 0.344579094783097 
1351	 0.343268262404155 
1352	 0.341996973395172 
1353	 0.340740178229496 
1354	 0.339513106663014 
1355	 0.338307362891082 
1356	 0.337124797447109 
1357	 0.335938450917421 
1358	 0.334787325471022 
1359	 0.333612058284914 
1360	 0.332426356967481 
1361	 0.331241287414327 
1362	 0.330055507663477 
1363	 0.328867201444804 
1364	 0.327698520000313 
1365	 0.326489301625725 
1366	 0.325276451094906 
1367	 0.32403425214398 
1368	 0.322742622022554 
1369	 0.321409075943221 
1370	 0.320029473679275 
1371	 0.31860168004243 
1372	 0.31711752665133 
1373	 0.315560180138937 
1374	 0.313905625489638 
1375	 0.312181147970745 
1376	 0.310331172444841 
1377	 0.308386953322539 
1378	 0.30631634000597 
1379	 0.304124576218154 
1380	 0.301830597375784 
1381	 0.299450706254505 
1382	 0.296904217037325 
1383	 0.294240884005944 
1384	 0.291449275391363 
1385	 0.288533252508323 
1386	 0.28548899185651 
1387	 0.282319605877913 
1388	 0.279055626577688 
1389	 0.27569958585779 
1390	 0.27215795153239 
1391	 0.26851854693388 
1392	 0.264766436253757 
1393	 0.260905398946661 
1394	 0.256994190024418 
1395	 0.252976105004626 
1396	 0.248945689273473 
1397	 0.244894822578733 
1398	 0.240750011221175 
1399	 0.236661425706617 
1400	 0.232551740971496 
1401	 0.228537444656123 
1402	 0.224518488494521 
1403	 0.220644015094925 
1404	 0.216826218314784 
1405	 0.213182987304463 
1406	 0.209624764630259 
1407	 0.20623016082641 
1408	 0.202953703449809 
1409	 0.199888065676064 
1410	 0.196981457209995 
1411	 0.194258511725506 
1412	 0.191717487655871 
1413	 0.18938056385339 
1414	 0.187215941577373 
1415	 0.185143861468364 
1416	 0.183230038149367 
1417	 0.181443148959251 
1418	 0.179729318136615 
1419	 0.178143029793946 
1420	 0.176656466778594 
1421	 0.175258281864428 
1422	 0.173947134889125 
1423	 0.172689276254991 
1424	 0.171484576248627 
1425	 0.170341345707154 
1426	 0.169259128406672 
1427	 0.168234617742701 
1428	 0.16726413618681 
1429	 0.166375992571966 
1430	 0.165497590068489 
1431	 0.164660834808682 
1432	 0.163841217123197 
1433	 0.16304939101346 
1434	 0.162281240292685 
1435	 0.161545659176397 
1436	 0.160820347139803 
1437	 0.160116749660716 
1438	 0.159429830234923 
1439	 0.158768944738624 
1440	 0.158099628531524 
1441	 0.157435820606262 
1442	 0.156781995140318 
1443	 0.156135385594786 
1444	 0.155525032377854 
1445	 0.154954678388014 
1446	 0.154431094169797 
1447	 0.153948425914693 
1448	 0.153514790340879 
1449	 0.153167746633733 
1450	 0.15288894377023 
1451	 0.15269469419789 
1452	 0.152591793342776 
1453	 0.152544637410953 
1454	 0.152580385456767 
1455	 0.152649098098893 
1456	 0.152790195066982 
1457	 0.152945058922669 
1458	 0.153161244923664 
1459	 0.153354398889608 
1460	 0.153581571938409 
1461	 0.153772683925087 
1462	 0.153950499197791 
1463	 0.154119512360609 
1464	 0.154285019838636 
1465	 0.154423556948612 
1466	 0.154544668781669 
1467	 0.154648744464892 
1468	 0.154711432407607 
1469	 0.154791364192299 
1470	 0.154868665761674 
1471	 0.154942797715878 
1472	 0.155024287145655 
1473	 0.155125074205933 
1474	 0.155225256547319 
1475	 0.155324102440664 
1476	 0.155424970488441 
1477	 0.155523918828993 
1478	 0.15562696102842 
1479	 0.155750191561121 
1480	 0.155895241523142 
1481	 0.156033674653205 
1482	 0.156187846923237 
1483	 0.156352341308892 
1484	 0.156527847065103 
1485	 0.156714413377629 
1486	 0.156913057467687 
1487	 0.157126251359284 
1488	 0.157337901594493 
1489	 0.157561200428492 
1490	 0.15777899103552 
1491	 0.158003322133115 
1492	 0.158215984705221 
1493	 0.158428340573302 
1494	 0.158630893324341 
1495	 0.158814978054411 
1496	 0.15900853466102 
1497	 0.159209863181892 
1498	 0.159393752397304 
1499	 0.159571255892831 
1500	 0.159750347069199 
1501	 0.159921866205145 
1502	 0.160082225259217 
1503	 0.160240792262974 
1504	 0.160397617653418 
1505	 0.160527379889763 
1506	 0.160657767118239 
1507	 0.16079881788557 
1508	 0.160927783819925 
1509	 0.161045269054915 
1510	 0.161167070280521 
1511	 0.161289645504918 
1512	 0.161394462531913 
1513	 0.161499012428926 
1514	 0.161616240710969 
1515	 0.161720818517012 
1516	 0.161829144419287 
1517	 0.16194108660757 
1518	 0.162063111820546 
1519	 0.162165112323314 
1520	 0.162267898981608 
1521	 0.162351547995372 
1522	 0.162409646383431 
1523	 0.162487082875756 
1524	 0.162556404409455 
1525	 0.162638825745108 
1526	 0.162744656349028 
1527	 0.162825236864467 
1528	 0.162902653025176 
1529	 0.162970958017765 
1530	 0.163017680751972 
1531	 0.163076758687022 
1532	 0.16314741785367 
1533	 0.163191770495711 
1534	 0.163218167048214 
1535	 0.163259273917089 
1536	 0.163292387970774 
1537	 0.163327161126122 
1538	 0.163380659995547 
1539	 0.163417159881256 
1540	 0.163434507765312 
1541	 0.163455151594093 
1542	 0.163473507172741 
1543	 0.163490282281899 
1544	 0.163504145574198 
1545	 0.163519987484996 
1546	 0.163532002830017 
1547	 0.16355623935917 
1548	 0.163570077616097 
1549	 0.163570628495191 
1550	 0.163575673757606 
1551	 0.163565451979186 
1552	 0.163548368745108 
1553	 0.163539312758545 
1554	 0.163530494565999 
1555	 0.163516775197901 
1556	 0.163502894201219 
1557	 0.163481308293798 
1558	 0.163461413941217 
1559	 0.163444647466615 
1560	 0.163427408839749 
1561	 0.163426580375432 
1562	 0.16339722239679 
1563	 0.163351611708756 
1564	 0.163309766583483 
1565	 0.163248160026165 
1566	 0.163209065561242 
1567	 0.163178623210831 
1568	 0.163151596546664 
1569	 0.163139872116444 
1570	 0.163113952722493 
1571	 0.163094359747242 
1572	 0.163051331193699 
1573	 0.162989512402586 
1574	 0.162933732124605 
1575	 0.162862364019261 
1576	 0.162802977304799 
1577	 0.162753803671648 
1578	 0.162696191903782 
1579	 0.162637959971822 
1580	 0.162574953334034 
1581	 0.162497935943865 
1582	 0.162439187133534 
1583	 0.162397682767724 
1584	 0.162336201078551 
1585	 0.162280300074915 
1586	 0.162210157934904 
1587	 0.162119991433545 
1588	 0.162027733411201 
1589	 0.161928131520915 
1590	 0.161829026662943 
1591	 0.161718192820938 
1592	 0.161616878840283 
1593	 0.161515325191244 
1594	 0.161426264498354 
1595	 0.161363980713686 
1596	 0.161268881891645 
1597	 0.161171679241366 
1598	 0.161059498758442 
1599	 0.160906468930005 
1600	 0.160771171513982 
1601	 0.160635550834848 
1602	 0.160509844332986 
1603	 0.160401576366892 
1604	 0.160280267883287 
1605	 0.160165303893512 
1606	 0.16003508634114 
1607	 0.159893100448343 
1608	 0.159737342867839 
1609	 0.159579994436844 
1610	 0.159427118408396 
1611	 0.159266715778742 
1612	 0.159107204944976 
1613	 0.158940044628315 
1614	 0.158768127515222 
1615	 0.158594332383539 
1616	 0.158423861218018 
1617	 0.15825595248555 
1618	 0.158085491046346 
1619	 0.157917314089856 
1620	 0.157732533474011 
1621	 0.157557500641763 
1622	 0.157382949595772 
1623	 0.157200123926569 
1624	 0.157017759217863 
1625	 0.156833781728636 
1626	 0.156643110319509 
1627	 0.156447368671271 
1628	 0.156248773959214 
1629	 0.156053991087258 
1630	 0.155848094089382 
1631	 0.155660085022885 
1632	 0.155489518718677 
1633	 0.15530486681037 
1634	 0.155126097008986 
1635	 0.154926981105947 
1636	 0.154714338757821 
1637	 0.154500644928984 
1638	 0.154269080801318 
1639	 0.154056071199748 
1640	 0.153844961093854 
1641	 0.153645826798817 
1642	 0.153466837610652 
1643	 0.153264542084162 
1644	 0.153055931763382 
1645	 0.152853658299432 
1646	 0.152639207672501 
1647	 0.152436969369375 
1648	 0.152253301256262 
1649	 0.152051958191421 
1650	 0.151841149118775 
1651	 0.151635590397142 
1652	 0.151431207030529 
1653	 0.151217043463069 
1654	 0.151004946657545 
1655	 0.150778895453169 
1656	 0.150530684786632 
1657	 0.150301411943275 
1658	 0.150067174187806 
1659	 0.149850570841701 
1660	 0.14965254082157 
1661	 0.149446880164851 
1662	 0.149252353527368 
1663	 0.149042801558186 
1664	 0.148824624738786 
1665	 0.148607849969327 
1666	 0.148380308065602 
1667	 0.148165000343368 
1668	 0.147955382648698 
1669	 0.147746003404686 
1670	 0.147544231823635 
1671	 0.147337146341223 
1672	 0.147127832944429 
1673	 0.146920748584258 
1674	 0.146716261617688 
1675	 0.146507144590078 
1676	 0.146294296082632 
1677	 0.146087548524307 
1678	 0.145877859260547 
1679	 0.145674912122724 
1680	 0.14547770771399 
1681	 0.145284711686857 
1682	 0.145097537503472 
1683	 0.144906847453237 
1684	 0.144727046691178 
1685	 0.144531025568653 
1686	 0.14431914191534 
1687	 0.144119913220403 
1688	 0.143914295746931 
1689	 0.143720516317446 
1690	 0.143540127557126 
1691	 0.143357067220826 
1692	 0.143176778367858 
1693	 0.142997679125579 
1694	 0.142822747358371 
1695	 0.142644822381558 
1696	 0.142466443909675 
1697	 0.142289062630998 
1698	 0.142117843884335 
1699	 0.141931174653169 
1700	 0.141733139746894 
1701	 0.141546001186911 
1702	 0.141346736180404 
1703	 0.141164588402213 
1704	 0.141012584645616 
1705	 0.140828468857883 
1706	 0.140630199560627 
1707	 0.14043868605252 
1708	 0.140222617320578 
1709	 0.140040475403336 
1710	 0.139889283516449 
1711	 0.139719230818764 
1712	 0.139561655526048 
1713	 0.139379233600365 
1714	 0.139167150319241 
1715	 0.138980873590855 
1716	 0.138791790199924 
1717	 0.13861878519422 
1718	 0.13846743938977 
1719	 0.138305897991074 
1720	 0.138144382069 
1721	 0.137987846523458 
1722	 0.137836497256146 
1723	 0.137679297234359 
1724	 0.137520141603219 
1725	 0.137368474373983 
1726	 0.137215991769762 
1727	 0.137069241198009 
1728	 0.136938457835027 
1729	 0.136783225801633 
1730	 0.136613617007524 
1731	 0.136453527064391 
1732	 0.13628856471961 
1733	 0.136123818483864 
1734	 0.13596424505094 
1735	 0.135801839548302 
1736	 0.135625810067904 
1737	 0.135475586439665 
1738	 0.135345435943488 
1739	 0.135199443114778 
1740	 0.135048599360641 
1741	 0.134914875600215 
1742	 0.13478092228784 
1743	 0.134656916673355 
1744	 0.134565442942148 
1745	 0.134434219962484 
1746	 0.134282256466453 
1747	 0.134137719071134 
1748	 0.133986693285912 
1749	 0.133854546103337 
1750	 0.133723177782709 
1751	 0.133576610496807 
1752	 0.133434004474204 
1753	 0.133290933662109 
1754	 0.133144851783688 
1755	 0.133022568213177 
1756	 0.132900627953309 
1757	 0.132791075163945 
1758	 0.132678425100502 
1759	 0.132505763847992 
1760	 0.132368078675036 
1761	 0.132251902107972 
1762	 0.132130051348693 
1763	 0.132052220699728 
1764	 0.131936758960765 
1765	 0.131787829383111 
1766	 0.131650565571445 
1767	 0.131515112787768 
1768	 0.131407779759491 
1769	 0.13132632119439 
1770	 0.131210611109849 
1771	 0.131093496921453 
1772	 0.131001847956264 
1773	 0.130896839498073 
1774	 0.130820595630454 
1775	 0.130739599060354 
1776	 0.130623137011424 
1777	 0.130518755758477 
1778	 0.130392846951173 
1779	 0.130279987190764 
1780	 0.130216873700171 
1781	 0.130139727202449 
1782	 0.130071587138512 
1783	 0.129984582643015 
1784	 0.129899845838346 
1785	 0.129793693560973 
1786	 0.129713770332585 
1787	 0.129673497531556 
1788	 0.129604313992258 
1789	 0.129518923834042 
1790	 0.129456274972598 
1791	 0.129395555834229 
1792	 0.129340943301776 
1793	 0.129310196302541 
1794	 0.129259933945084 
1795	 0.12917954038128 
1796	 0.129112811544446 
1797	 0.12906309980736 
1798	 0.129017103525371 
1799	 0.128976270610144 
1800	 0.128936953334503 
1801	 0.12909878185706 
1802	 0.129078393502334 
1803	 0.129081853373231 
1804	 0.129065838324288 
1805	 0.12902297960659 
1806	 0.128982297294464 
1807	 0.128937407962037 
1808	 0.128919055555528 
1809	 0.128929905002987 
1810	 0.128918760917391 
1811	 0.128911701515902 
1812	 0.128916018553156 
1813	 0.128877761893779 
1814	 0.128840558923153 
1815	 0.128801326334383 
1816	 0.1287474207639 
1817	 0.128710712281638 
1818	 0.128666781725034 
1819	 0.128639226513815 
1820	 0.128632573404655 
1821	 0.128616719205698 
1822	 0.128594310060876 
1823	 0.128587943878435 
1824	 0.128549345005916 
1825	 0.128500704575378 
1826	 0.128446856700315 
1827	 0.128396566012569 
1828	 0.12835138682126 
1829	 0.128312611203805 
1830	 0.128268126612102 
1831	 0.128235048500258 
1832	 0.128178971570506 
1833	 0.128102682744076 
1834	 0.128042800985042 
1835	 0.127969944490779 
1836	 0.127892318906804 
1837	 0.12785768366307 
1838	 0.127811949575794 
1839	 0.127745626640105 
1840	 0.127671967623159 
1841	 0.127611752388908 
1842	 0.127517594627975 
1843	 0.127411644666444 
1844	 0.127317159554572 
1845	 0.127211153704374 
1846	 0.127088952743182 
1847	 0.126954846268817 
1848	 0.126837178423666 
1849	 0.126706894300268 
1850	 0.126560438028953 
1851	 0.126400742888941 
1852	 0.1262468758579 
1853	 0.126076138449497 
1854	 0.125878650676224 
1855	 0.125656427290477 
1856	 0.125404367872359 
1857	 0.125117065211302 
1858	 0.124823375338433 
1859	 0.124524070504278 
1860	 0.124204219358582 
1861	 0.123875665152867 
1862	 0.123526410071125 
1863	 0.123141987867365 
1864	 0.122737731082045 
1865	 0.122294272487279 
1866	 0.121815616810293 
1867	 0.121330794732763 
1868	 0.120799649072048 
1869	 0.120233880775341 
1870	 0.11965630832307 
1871	 0.119033362785392 
1872	 0.11836510543297 
1873	 0.117679950519078 
1874	 0.116962637341593 
1875	 0.116187195068533 
1876	 0.115396358362735 
1877	 0.11455743678333 
1878	 0.113667396790481 
1879	 0.112749551639116 
1880	 0.111778068926321 
1881	 0.110746743503611 
1882	 0.109680486203779 
1883	 0.108574384054139 
1884	 0.107401240159682 
1885	 0.106219121164118 
1886	 0.105009588318693 
1887	 0.103736994808986 
1888	 0.102455317637034 
1889	 0.10111147862648 
1890	 9.97422228450361E-02 
1891	 9.83909093106933E-02 
1892	 9.70265518089714E-02 
1893	 9.56591335077599E-02 
1894	 9.42937909339102E-02 
1895	 0.092934826500234 
1896	 9.15350160458371E-02 
1897	 0.090183506335776 
1898	 8.88606078904455E-02 
1899	 0.087544430740614 
1900	 8.63131891476304E-02 
1901	 8.51316257785716E-02 
1902	 8.39987142884778E-02 
1903	 8.29285598347093E-02 
1904	 8.19085824126382E-02 
1905	 8.09225898566333E-02 
1906	 8.00121658074625E-02 
1907	 7.91766661792303E-02 
1908	 7.84184701244777E-02 
1909	 7.77366420332482E-02 
1910	 7.70925346431401E-02 
1911	 7.65042373002438E-02 
1912	 7.59327328136366E-02 
1913	 7.53876163336114E-02 
1914	 7.48699905888071E-02 
1915	 7.43883833504194E-02 
1916	 7.39253444528377E-02 
1917	 0.073514335324707 
1918	 7.31427527420705E-02 
1919	 7.27742576234065E-02 
1920	 0.072437052152283 
1921	 7.21109605283226E-02 
1922	 7.18089711932017E-02 
1923	 7.15463928015847E-02 
1924	 7.12859801192211E-02 
1925	 7.10324660268868E-02 
1926	 7.08155499990882E-02 
1927	 0.070622516790728 
1928	 7.04404723805253E-02 
1929	 7.02796538473934E-02 
1930	 7.01594841894112E-02 
1931	 7.00358841232724E-02 
1932	 6.99182050271638E-02 
1933	 6.98391116234028E-02 
1934	 6.97868422032401E-02 
1935	 6.97331687026293E-02 
1936	 6.96873412011268E-02 
1937	 6.96547693346888E-02 
1938	 6.96214360352196E-02 
1939	 6.96193350164828E-02 
1940	 6.96324383018683E-02 
1941	 6.96795987686132E-02 
1942	 6.97456096173974E-02 
1943	 6.98318376423492E-02 
1944	 6.99262456433731E-02 
1945	 7.00276385729121E-02 
1946	 7.01455599604592E-02 
1947	 7.02705164055841E-02 
1948	 0.070412128471296 
1949	 7.05824548226314E-02 
1950	 7.07488965355809E-02 
1951	 7.09217008945967E-02 
1952	 7.11140068830942E-02 
1953	 0.071292051630148 
1954	 7.14532655195564E-02 
1955	 7.16257245232913E-02 
1956	 7.17847196171447E-02 
1957	 7.19410769895526E-02 
1958	 7.20972643334669E-02 
1959	 7.22457140726805E-02 
1960	 7.23742537150079E-02 
1961	 0.072516637967393 
1962	 7.26676337621321E-02 
1963	 7.28101484791374E-02 
1964	 7.29413777004918E-02 
1965	 7.30992304038243E-02 
1966	 7.32554431097936E-02 
1967	 7.33981381818708E-02 
1968	 7.35490008173438E-02 
1969	 7.37096895035619E-02 
1970	 7.38652550697898E-02 
1971	 0.074012414849474 
1972	 7.41729382465537E-02 
1973	 7.43385540045606E-02 
1974	 7.45122172737367E-02 
1975	 7.47037469460156E-02 
1976	 7.48805850046884E-02 
1977	 7.50479119982472E-02 
1978	 7.52182002495311E-02 
1979	 7.53922034713846E-02 
1980	 7.55625813404842E-02 
1981	 0.075748942060221 
1982	 7.59635772563758E-02 
1983	 7.61593382296232E-02 
1984	 7.63466293538282E-02 
1985	 0.076545583127026 
1986	 7.67439455281269E-02 
1987	 7.69438863936173E-02 
1988	 7.71592762338624E-02 
1989	 0.077361357990536 
1990	 7.75529027873036E-02 
1991	 7.77683652665175E-02 
1992	 7.79600016706652E-02 
1993	 7.81416368975393E-02 
1994	 7.83246351591801E-02 
1995	 7.84866275577209E-02 
1996	 7.86730021890664E-02 
1997	 7.88801015049171E-02 
1998	 7.90703922719979E-02 
1999	 7.92585850536553E-02 
2000	 7.94571438725758E-02 
2001	 7.96584592791528E-02 
2002	 7.98489124511573E-02 
2003	 8.00598516914771E-02 
2004	 8.02299859773319E-02 
2005	 8.03965118723307E-02 
2006	 8.05349153752383E-02 
2007	 8.06870843819054E-02 
2008	 8.08275113973535E-02 
2009	 8.09859522922418E-02 
2010	 8.11432076477598E-02 
2011	 0.081311728034722 
2012	 0.081504300064839 
2013	 8.16858397725825E-02 
2014	 8.18641333404035E-02 
2015	 8.20509441394738E-02 
2016	 8.22310197481537E-02 
2017	 8.24158862482563E-02 
2018	 8.26039066821318E-02 
2019	 8.28085263181803E-02 
2020	 8.29880843427832E-02 
2021	 8.31606355443779E-02 
2022	 8.33258798058835E-02 
2023	 8.34562092304762E-02 
2024	 8.36227419457941E-02 
2025	 8.38155579966036E-02 
2026	 0.083989878129472 
2027	 8.41701280130469E-02 
2028	 8.43502706540946E-02 
2029	 0.084528048308716 
2030	 8.46892363684948E-02 
2031	 8.48600107939704E-02 
2032	 8.50514067223471E-02 
2033	 8.52145644277877E-02 
2034	 8.53518941641572E-02 
2035	 8.55097726919061E-02 
2036	 8.56676800736995E-02 
2037	 8.58242648791523E-02 
2038	 8.59952596635153E-02 
2039	 8.61524578244154E-02 
2040	 8.63011852146647E-02 
2041	 0.086442359748135 
2042	 8.65748906781485E-02 
2043	 8.67222589596826E-02 
2044	 8.68741367737476E-02 
2045	 8.70335664982268E-02 
2046	 8.71858315440802E-02 
2047	 8.73516122755636E-02 
2048	 8.74963744365308E-02 
2049	 8.76236270188223E-02 
2050	 8.77583568044547E-02 
2051	 8.78826351383885E-02 
2052	 8.80160761440295E-02 
2053	 8.81495740144399E-02 
2054	 8.82912586975756E-02 
2055	 0.088452881204873 
2056	 8.86009918647409E-02 
2057	 8.87359862353403E-02 
2058	 8.88660874610246E-02 
2059	 8.89995472888492E-02 
2060	 8.91122511447782E-02 
2061	 8.92442733916171E-02 
2062	 8.93993067935083E-02 
2063	 8.95350499622832E-02 
2064	 8.96596356786852E-02 
2065	 8.97928560858245E-02 
2066	 8.99271276426148E-02 
2067	 9.00567411160449E-02 
2068	 0.090195416088549 
2069	 9.03205677729783E-02 
2070	 9.04419728568495E-02 
2071	 9.05587539738839E-02 
2072	 0.090665435695578 
2073	 9.07521072520096E-02 
2074	 0.090866237866072 
2075	 9.09790678503415E-02 
2076	 9.11020525401633E-02 
2077	 0.09125726209954 
2078	 9.13873319062374E-02 
2079	 9.15050828206212E-02 
2080	 9.16260406752562E-02 
2081	 9.17426021551369E-02 
2082	 9.18584483581349E-02 
2083	 9.19721817845945E-02 
2084	 9.20856127151915E-02 
2085	 9.22072658646931E-02 
2086	 9.23295934237198E-02 
2087	 9.24516749279699E-02 
2088	 9.25879455094333E-02 
2089	 9.27065452094186E-02 
2090	 9.28105716447707E-02 
2091	 9.29241012371652E-02 
2092	 9.30360657783861E-02 
2093	 9.31474380221041E-02 
2094	 0.093268564077743 
2095	 9.33764355653559E-02 
2096	 9.34825581150502E-02 
2097	 9.35757917154803E-02 
2098	 9.36453845004206E-02 
2099	 9.37200325657871E-02 
2100	 0.093821978984292 
2101	 9.39264650954116E-02 
2102	 9.40434231325846E-02 
2103	 0.094198741085247 
2104	 9.43264294190383E-02 
2105	 9.44474372083007E-02 
2106	 9.45610335594265E-02 
2107	 9.46645255281635E-02 
2108	 9.47725470222889E-02 
2109	 9.48678583486536E-02 
2110	 9.49779365600403E-02 
2111	 9.51005054788419E-02 
2112	 0.09522009989208 
2113	 9.53461027954355E-02 
2114	 9.54686714611009E-02 
2115	 9.55899601628859E-02 
2116	 9.57112110106157E-02 
2117	 9.58283678805941E-02 
2118	 9.59390399845723E-02 
2119	 9.60593908411097E-02 
2120	 0.096188549560299 
2121	 9.63007111823867E-02 
2122	 0.096406084409623 
2123	 9.65187468822925E-02 
2124	 9.66297542751447E-02 
2125	 9.67292976250995E-02 
2126	 9.68384141461566E-02 
2127	 9.69321560043535E-02 
2128	 0.096988542902372 
2129	 9.70681862684249E-02 
2130	 9.71619785130895E-02 
2131	 9.72501836270047E-02 
2132	 9.73327332585338E-02 
2133	 9.74281543846583E-02 
2134	 9.74958455751654E-02 
2135	 9.75394679907255E-02 
2136	 9.75919663369398E-02 
2137	 9.76399938702846E-02 
2138	 9.76817322519085E-02 
2139	 9.77227413455532E-02 
2140	 9.77576178226704E-02 
2141	 0.097779991967484 
2142	 0.097803036107353 
2143	 9.78207993780255E-02 
2144	 9.78433930864235E-02 
2145	 9.78687069584747E-02 
2146	 9.78895331354602E-02 
2147	 9.79199517039892E-02 
2148	 9.79366662466682E-02 
2149	 9.79409370219197E-02 
2150	 0.097934357519796 
2151	 9.79222346295452E-02 
2152	 9.78826731376138E-02 
2153	 9.78758678511407E-02 
2154	 9.78914381556049E-02 
2155	 9.78773014579681E-02 
2156	 9.78641245814148E-02 
2157	 0.097848007463172 
2158	 9.78073889440199E-02 
2159	 9.77749679604012E-02 
2160	 9.77612540678456E-02 
2161	 9.77299484416463E-02 
2162	 9.76725567598724E-02 
2163	 9.76315506649426E-02 
2164	 9.75910608157927E-02 
2165	 9.75626701102228E-02 
2166	 9.75201009024666E-02 
2167	 9.74800595239694E-02 
2168	 9.74352454019544E-02 
2169	 9.73738621191769E-02 
2170	 9.73328404594131E-02 
2171	 0.097303830057509 
2172	 9.72725396933308E-02 
2173	 9.72481657608758E-02 
2174	 9.72188998122459E-02 
2175	 0.097190016032633 
2176	 9.71593485654463E-02 
2177	 9.71340839939127E-02 
2178	 9.70944221039929E-02 
2179	 9.70481643340083E-02 
2180	 9.69970450080122E-02 
2181	 9.69255572001913E-02 
2182	 9.68663001756231E-02 
2183	 9.68165861647403E-02 
2184	 9.67627028632825E-02 
2185	 9.66925599193742E-02 
2186	 9.66049184043437E-02 
2187	 9.65534959317835E-02 
2188	 9.65051876643421E-02 
2189	 9.64561214496794E-02 
2190	 9.64410350900453E-02 
2191	 9.64013352977308E-02 
2192	 9.63309369190672E-02 
2193	 9.62823282006176E-02 
2194	 9.62598376404541E-02 
2195	 9.62074846922124E-02 
2196	 9.61386050514478E-02 
2197	 9.60753680081871E-02 
2198	 9.59882793924165E-02 
2199	 9.59221189416279E-02 
2200	 9.58792118563919E-02 
2201	 9.58287023829722E-02 
2202	 9.57794484963957E-02 
2203	 9.57333660269001E-02 
2204	 9.56852126072503E-02 
2205	 9.56237851671086E-02 
2206	 9.55888400955645E-02 
2207	 9.55733710089643E-02 
2208	 9.55396517318619E-02 
2209	 9.55063069486207E-02 
2210	 9.54872322172048E-02 
2211	 9.54644816334563E-02 
2212	 9.54455140913314E-02 
2213	 9.54540144679739E-02 
2214	 9.54353932576682E-02 
2215	 9.53934845553347E-02 
2216	 0.095365142885592 
2217	 9.53402596705114E-02 
2218	 9.53097427058281E-02 
2219	 9.52619606304726E-02 
2220	 9.52400893422624E-02 
2221	 9.52410875095548E-02 
2222	 9.52214716428842E-02 
2223	 9.52113445600137E-02 
2224	 9.52212083183924E-02 
2225	 9.51953462473532E-02 
2226	 9.51287779160446E-02 
2227	 9.51173876073512E-02 
2228	 0.095120508631331 
2229	 9.51153286135403E-02 
2230	 9.51366942486549E-02 
2231	 9.51419925494037E-02 
2232	 0.095132357592209 
2233	 9.51222457299919E-02 
2234	 9.51284227522119E-02 
2235	 9.51058855133942E-02 
2236	 0.095045921836436 
2237	 9.50139946229478E-02 
2238	 9.49808541781988E-02 
2239	 9.49523469585056E-02 
2240	 9.49548940032756E-02 
2241	 0.094929800555158 
2242	 9.48778233329117E-02 
2243	 9.48398335505101E-02 
2244	 9.48032882562458E-02 
2245	 9.47531694894681E-02 
2246	 9.46978577624703E-02 
2247	 9.46960477328845E-02 
2248	 0.094658108811301 
2249	 9.46076520874201E-02 
2250	 9.45568282701019E-02 
2251	 9.44946376014094E-02 
2252	 9.44501393541335E-02 
2253	 9.44094116172692E-02 
2254	 9.43717620339051E-02 
2255	 9.43561074321162E-02 
2256	 9.43200283844784E-02 
2257	 9.42661452677376E-02 
2258	 0.094226554214907 
2259	 0.094194612979377 
2260	 9.41441893961957E-02 
2261	 0.0940909155542 
2262	 0.094036377723108 
2263	 9.39724078411197E-02 
2264	 0.093901565944214 
2265	 9.38338884074696E-02 
2266	 9.37549434452001E-02 
2267	 0.093651268889566 
2268	 0.093563421882827 
2269	 9.34811887590286E-02 
2270	 9.33890271852894E-02 
2271	 9.33308125447487E-02 
2272	 9.32615489445676E-02 
2273	 9.31829116416599E-02 
2274	 9.31263142581342E-02 
2275	 9.30308107022501E-02 
2276	 9.29097800535425E-02 
2277	 9.27964645199873E-02 
2278	 9.26608607335296E-02 
2279	 9.25408458258904E-02 
2280	 9.24321083626993E-02 
2281	 9.23117932484165E-02 
2282	 9.21836550838989E-02 
2283	 9.20700230666315E-02 
2284	 9.19560572764342E-02 
2285	 9.18515114729517E-02 
2286	 9.17671404881099E-02 
2287	 9.16626896638847E-02 
2288	 9.15440699018625E-02 
2289	 9.14413419093104E-02 
2290	 9.13503056782955E-02 
2291	 0.091241899117121 
2292	 9.11411747699196E-02 
2293	 0.091022892473059 
2294	 9.08938415584977E-02 
2295	 9.07371007146764E-02 
2296	 9.05370649678809E-02 
2297	 9.03773713859141E-02 
2298	 9.01985772044505E-02 
2299	 9.00310895523133E-02 
2300	 8.99236044541646E-02 
2301	 8.98004744156198E-02 
2302	 8.96616973262945E-02 
2303	 8.95134997506209E-02 
2304	 8.93833669050506E-02 
2305	 8.92545952763524E-02 
2306	 8.91212118337467E-02 
2307	 8.89948930194552E-02 
2308	 8.88782567967564E-02 
2309	 8.87730283858685E-02 
2310	 8.86293190722819E-02 
2311	 8.84804300654093E-02 
2312	 8.83293700911697E-02 
2313	 0.088137312784056 
2314	 8.79747613252785E-02 
2315	 8.78402411591884E-02 
2316	 8.76885392293313E-02 
2317	 8.75176575592977E-02 
2318	 8.73604028260212E-02 
2319	 8.72345209072565E-02 
2320	 8.70662601841104E-02 
2321	 8.68828618459924E-02 
2322	 8.66965856157069E-02 
2323	 8.64390676977311E-02 
2324	 8.62564582682984E-02 
2325	 8.61309589464019E-02 
2326	 8.59839749612401E-02 
2327	 8.58658033920078E-02 
2328	 8.57410971603439E-02 
2329	 8.56038089446075E-02 
2330	 8.54528350918926E-02 
2331	 8.52881311283172E-02 
2332	 8.51518024678228E-02 
2333	 8.50087403585376E-02 
2334	 8.48696919205998E-02 
2335	 0.084724022060477 
2336	 8.45331429858574E-02 
2337	 8.43526501614607E-02 
2338	 8.41688431001329E-02 
2339	 8.39791805494535E-02 
2340	 8.38389045642206E-02 
2341	 8.36968320919595E-02 
2342	 8.35318291860143E-02 
2343	 8.33804999255935E-02 
2344	 8.32293423490469E-02 
2345	 8.30416094299995E-02 
2346	 8.28161509976955E-02 
2347	 8.26172934037479E-02 
2348	 8.24046705257891E-02 
2349	 8.21797464688824E-02 
2350	 8.19631851846929E-02 
2351	 8.17244512426707E-02 
2352	 8.14489484718525E-02 
2353	 8.12162213424593E-02 
2354	 8.10035862746275E-02 
2355	 8.07851763883217E-02 
2356	 8.05811373201789E-02 
2357	 8.03603467464142E-02 
2358	 8.01246881317656E-02 
2359	 7.99183544122261E-02 
2360	 7.97113727369762E-02 
2361	 7.95044580124251E-02 
2362	 0.079331556217288 
2363	 7.91230745655453E-02 
2364	 0.078896677023699 
2365	 7.86725873258392E-02 
2366	 7.84434272837541E-02 
2367	 7.82112530426371E-02 
2368	 7.79494130009853E-02 
2369	 7.77232742079791E-02 
2370	 7.75397517451978E-02 
2371	 7.72913666272621E-02 
2372	 7.70560996172315E-02 
2373	 7.68540020528773E-02 
2374	 7.66122918412966E-02 
2375	 7.63988050195959E-02 
2376	 7.61755356083362E-02 
2377	 7.59269720747297E-02 
2378	 7.57172020368767E-02 
2379	 7.54898575561268E-02 
2380	 7.53498218668737E-02 
2381	 7.52678832882644E-02 
2382	 7.51149554089098E-02 
2383	 7.49259338906669E-02 
2384	 7.46856882059683E-02 
2385	 7.43822750709801E-02 
2386	 7.40684023899792E-02 
2387	 7.38554493858556E-02 
2388	 7.36955220961937E-02 
2389	 7.35065046249405E-02 
2390	 7.33659902204639E-02 
2391	 7.32071422044791E-02 
2392	 7.29574253757449E-02 
2393	 7.27270571483909E-02 
2394	 7.25363025071417E-02 
2395	 0.07233187878549 
2396	 0.072171053197542 
2397	 7.20442362150633E-02 
2398	 7.19311870897683E-02 
2399	 7.18118970559341E-02 
2400	 7.15772534319118E-02 
2401	 7.13208488753856E-02 
2402	 7.10723614249357E-02 
2403	 7.07942414862354E-02 
2404	 0.070589786273336 
2405	 7.04154092637045E-02 
2406	 7.02176606938299E-02 
2407	 0.070002700907226 
2408	 6.98692869520514E-02 
2409	 6.97661101029304E-02 
2410	 6.96208867276988E-02 
2411	 6.95468392357244E-02 
2412	 6.94778308296794E-02 
2413	 6.93967551830627E-02 
2414	 6.92301678345884E-02 
2415	 6.90286136140947E-02 
2416	 0.068874360555443 
2417	 6.86700580324173E-02 
2418	 6.84714386917945E-02 
2419	 6.83446121771379E-02 
2420	 6.81939888568908E-02 
2421	 6.79843361409526E-02 
2422	 6.78209021093732E-02 
2423	 6.77202758933163E-02 
2424	 6.75685346958626E-02 
2425	 6.73717939694275E-02 
2426	 6.71857917929244E-02 
2427	 0.067019903026826 
2428	 6.68565991851967E-02 
2429	 6.66695463810251E-02 
2430	 6.64978615272581E-02 
2431	 6.63694938149043E-02 
2432	 6.61636837276135E-02 
2433	 6.58960359573459E-02 
2434	 0.065703673706011 
2435	 6.54725273467321E-02 
2436	 6.53357174465265E-02 
2437	 6.53281261103735E-02 
2438	 6.52196786502776E-02 
2439	 6.51168570861617E-02 
2440	 6.49925761955849E-02 
2441	 6.48488616729235E-02 
2442	 6.46214118393654E-02 
2443	 6.42970841378216E-02 
2444	 6.40573271767882E-02 
2445	 6.37743589201211E-02 
2446	 6.35705609560638E-02 
2447	 0.063519970737611 
2448	 6.33560471502893E-02 
2449	 6.30908962501988E-02 
2450	 6.29413233425508E-02 
2451	 6.28483786471105E-02 
2452	 6.27043472002615E-02 
2453	 6.25998279157941E-02 
2454	 6.24496105648259E-02 
2455	 6.21452396154428E-02 
2456	 6.19912152237451E-02 
2457	 6.20681662180868E-02 
2458	 6.19605460829216E-02 
2459	 6.18093339127312E-02 
2460	 0.061710637814053 
2461	 6.14515562565315E-02 
2462	 6.12545206936633E-02 
2463	 6.11637246823291E-02 
2464	 0.060998874726731 
2465	 6.08032165170088E-02 
2466	 6.06842349189316E-02 
2467	 0.060551253431053 
2468	 6.04695082171595E-02 
2469	 6.04443844037316E-02 
2470	 6.03198296872578E-02 
2471	 6.03148467708622E-02 
2472	 6.01992035892381E-02 
2473	 6.01406989430209E-02 
2474	 6.00401571871419E-02 
2475	 5.97657398269995E-02 
2476	 5.95078926261209E-02 
2477	 5.92778825299799E-02 
2478	 5.90948575423696E-02 
2479	 5.90962464752556E-02 
2480	 5.90688308702197E-02 
2481	 5.88745751079324E-02 
2482	 5.87165068226714E-02 
2483	 5.85089049972747E-02 
2484	 5.82683779321583E-02 
2485	 5.81208100149026E-02 
2486	 5.80328261374122E-02 
2487	 5.80150752554348E-02 
2488	 5.81664806189324E-02 
2489	 5.81779639799051E-02 
2490	 5.79125288157136E-02 
2491	 5.76550271592473E-02 
2492	 5.72996290705204E-02 
2493	 5.70190771209988E-02 
2494	 5.68992756861987E-02 
2495	 5.67767703048772E-02 
2496	 5.64887739184285E-02 
2497	 5.62737248716237E-02 
2498	 5.62897088614511E-02 
2499	 5.62810524411772E-02 
2500	 5.64797756836029E-02 
