Wavelength	lmw-9-100008.asd
350	 0.106901392074228 
351	 0.105483146815196 
352	 9.95385717805071E-02 
353	 9.37643776926053E-02 
354	 0.102875180555595 
355	 0.103279343819393 
356	 0.100706149139201 
357	 0.103541874733242 
358	 9.96120969395725E-02 
359	 8.97653741646637E-02 
360	 8.18090833677119E-02 
361	 8.56956056776623E-02 
362	 8.64688170492873E-02 
363	 8.84343403590456E-02 
364	 9.19020651886856E-02 
365	 8.69487183758382E-02 
366	 8.49585361920742E-02 
367	 8.37049699122542E-02 
368	 8.02950258539484E-02 
369	 8.53895895275279E-02 
370	 8.75117893643459E-02 
371	 8.57492360094436E-02 
372	 0.086484862698358 
373	 8.70569663980492E-02 
374	 8.60156783933289E-02 
375	 0.084066056236323 
376	 8.56126635309099E-02 
377	 8.33876025429124E-02 
378	 7.97910445022393E-02 
379	 0.079495562315647 
380	 8.36232009178909E-02 
381	 8.51117571417514E-02 
382	 8.39545320608406E-02 
383	 8.51845396875631E-02 
384	 8.35235734796382E-02 
385	 8.12789108950029E-02 
386	 8.08091691933384E-02 
387	 8.26617735186687E-02 
388	 8.38185191539875E-02 
389	 8.41141270605309E-02 
390	 8.40579110217538E-02 
391	 8.20378025449638E-02 
392	 8.19434355433553E-02 
393	 8.37127567830521E-02 
394	 8.39484804728255E-02 
395	 8.39662323782075E-02 
396	 8.40551712309608E-02 
397	 8.41447657036838E-02 
398	 8.35651565492529E-02 
399	 0.083843228093987 
400	 0.085183882171096 
401	 8.67888111910475E-02 
402	 8.56066897207309E-02 
403	 8.44520599153208E-02 
404	 8.47981017328783E-02 
405	 0.08629157795389 
406	 8.62762178561353E-02 
407	 0.085904647623004 
408	 0.086210353586711 
409	 8.57992644541849E-02 
410	 8.54214183885315E-02 
411	 8.55713230341035E-02 
412	 8.63767306592032E-02 
413	 8.64558989126651E-02 
414	 8.61271960005743E-02 
415	 8.56609258213802E-02 
416	 8.50165639977731E-02 
417	 8.51067010151128E-02 
418	 8.52514555008593E-02 
419	 8.48189223067199E-02 
420	 8.48228810338785E-02 
421	 8.40803469977557E-02 
422	 8.30513997755912E-02 
423	 0.083084526519124 
424	 8.27419945411135E-02 
425	 8.24100420004658E-02 
426	 8.22444687077704E-02 
427	 8.15247874525653E-02 
428	 8.08725055545382E-02 
429	 8.07298929163327E-02 
430	 8.11690845910019E-02 
431	 8.08274681002801E-02 
432	 8.05474514986412E-02 
433	 8.08047432431878E-02 
434	 8.15814748075237E-02 
435	 8.20392687275809E-02 
436	 8.24734987108599E-02 
437	 8.31136835011101E-02 
438	 8.32535272898244E-02 
439	 8.42815418906531E-02 
440	 8.58191891245292E-02 
441	 0.086729768164372 
442	 8.76531616565099E-02 
443	 0.088734441014796 
444	 0.089958952838071 
445	 9.11387221663882E-02 
446	 9.26560050144786E-02 
447	 9.40737576153471E-02 
448	 9.50642422240649E-02 
449	 9.67946080133482E-02 
450	 9.84558473008642E-02 
451	 9.99951639460526E-02 
452	 0.101986943169785 
453	 0.103284049511462 
454	 0.104460559987387 
455	 0.106128885336748 
456	 0.108315944395788 
457	 0.110179987274523 
458	 0.111731217374593 
459	 0.113407719552556 
460	 0.115470116540367 
461	 0.117621749476572 
462	 0.119632002579693 
463	 0.121427565607805 
464	 0.123501590669184 
465	 0.125726161125803 
466	 0.127902919886692 
467	 0.130346104283331 
468	 0.132733498528148 
469	 0.134993233953562 
470	 0.137281540295195 
471	 0.139845646604599 
472	 0.142410510209667 
473	 0.144839201129162 
474	 0.147522959083982 
475	 0.150304892128962 
476	 0.152952095317063 
477	 0.155313584651629 
478	 0.158071115686258 
479	 0.161019349621633 
480	 0.163897532307326 
481	 0.166496539614845 
482	 0.169122551127355 
483	 0.171720744684942 
484	 0.174215282737145 
485	 0.176920370733565 
486	 0.179372627921143 
487	 0.181615256894486 
488	 0.184099295955948 
489	 0.186437948554881 
490	 0.188679635215377 
491	 0.190874112695632 
492	 0.192878799253429 
493	 0.194779938025826 
494	 0.196590936180603 
495	 0.198307709230597 
496	 0.200049870269222 
497	 0.201609397715601 
498	 0.202954150462903 
499	 0.204366896484837 
500	 0.205488678968085 
501	 0.206471051531273 
502	 0.207522418889655 
503	 0.20839878372219 
504	 0.209212404493583 
505	 0.21005060073153 
506	 0.210952202057478 
507	 0.211608335405099 
508	 0.212141188328842 
509	 0.212688732134806 
510	 0.213200308069568 
511	 0.213564221698385 
512	 0.213827934131473 
513	 0.214124384035962 
514	 0.214501802020933 
515	 0.214760338646666 
516	 0.214881867037117 
517	 0.215218624678128 
518	 0.215327497766634 
519	 0.215372200740705 
520	 0.215619910655905 
521	 0.215772419558592 
522	 0.215907741835374 
523	 0.216030845261129 
524	 0.216053056318899 
525	 0.216147374812 
526	 0.216293987452853 
527	 0.216446014762666 
528	 0.216631855179626 
529	 0.216783241274394 
530	 0.216889457080326 
531	 0.216982365654119 
532	 0.217082648524038 
533	 0.217303674045067 
534	 0.217639613256576 
535	 0.217820091183892 
536	 0.217947808270708 
537	 0.218190025506278 
538	 0.218653730907521 
539	 0.218830287198241 
540	 0.21899593211112 
541	 0.219303825540577 
542	 0.219660797791238 
543	 0.220005023363794 
544	 0.220368736040655 
545	 0.220791024833626 
546	 0.221218851187392 
547	 0.221653185649803 
548	 0.222102933168251 
549	 0.222579719942194 
550	 0.223014137822237 
551	 0.223510455992245 
552	 0.224125739313631 
553	 0.224732123972169 
554	 0.225225042989348 
555	 0.225717999766414 
556	 0.226415354306274 
557	 0.227172775911119 
558	 0.22785803324289 
559	 0.22847814655574 
560	 0.229287403013818 
561	 0.229985013204075 
562	 0.230647538355696 
563	 0.23141954934371 
564	 0.232066438873184 
565	 0.232612995816239 
566	 0.233180540681432 
567	 0.233972578742853 
568	 0.23477101676959 
569	 0.235637114546207 
570	 0.236623822254122 
571	 0.237541646067956 
572	 0.238420915489208 
573	 0.239324765717969 
574	 0.240322377714601 
575	 0.241235922149313 
576	 0.242168201758321 
577	 0.243169750474647 
578	 0.244071919590333 
579	 0.244998938747829 
580	 0.245916346981318 
581	 0.246746465551591 
582	 0.247582775039898 
583	 0.248470844896841 
584	 0.249398561716014 
585	 0.250286033130322 
586	 0.251161504703984 
587	 0.252094605824623 
588	 0.253123386286585 
589	 0.254091048999291 
590	 0.255125424559839 
591	 0.256253144740966 
592	 0.257403873755041 
593	 0.258580776432298 
594	 0.259763248885036 
595	 0.260901936610848 
596	 0.261869956148779 
597	 0.262842137969789 
598	 0.263845659603538 
599	 0.264820440734263 
600	 0.265665228913103 
601	 0.266523083693735 
602	 0.267489825167151 
603	 0.26853680390619 
604	 0.269627770456198 
605	 0.270643799938875 
606	 0.271512619312383 
607	 0.272554863912064 
608	 0.273608931292389 
609	 0.274629651804303 
610	 0.275735330049827 
611	 0.276664278240439 
612	 0.277562696458628 
613	 0.278570881565032 
614	 0.279480494383043 
615	 0.280261173461719 
616	 0.280995076760523 
617	 0.281828710736762 
618	 0.282692481642547 
619	 0.283578891907951 
620	 0.284452878954292 
621	 0.285187125164874 
622	 0.285928930504716 
623	 0.286714394172493 
624	 0.287518240750181 
625	 0.288228518495294 
626	 0.288899624947866 
627	 0.289576848477302 
628	 0.29027207096212 
629	 0.290984837417868 
630	 0.291668218948492 
631	 0.292291342479862 
632	 0.292923141745763 
633	 0.293575467453666 
634	 0.294232486549058 
635	 0.294856944927309 
636	 0.295431662890834 
637	 0.295991351910993 
638	 0.296546401590898 
639	 0.297017597920514 
640	 0.297517136425961 
641	 0.298037925775528 
642	 0.298525892029271 
643	 0.299046126358746 
644	 0.299526849775616 
645	 0.299926687851999 
646	 0.300261701312276 
647	 0.300645461955602 
648	 0.301024309747158 
649	 0.301334021746112 
650	 0.301702570362207 
651	 0.302038110553542 
652	 0.302308147491836 
653	 0.30253948217678 
654	 0.302755678346885 
655	 0.302927948102554 
656	 0.303056861031691 
657	 0.303245408177163 
658	 0.30340259657051 
659	 0.303497451529946 
660	 0.303530404662239 
661	 0.303500157373352 
662	 0.303494407583881 
663	 0.303531490128712 
664	 0.303522542030117 
665	 0.303418510505366 
666	 0.303266587012555 
667	 0.303127530530448 
668	 0.30297101676963 
669	 0.302841438529183 
670	 0.302693454104479 
671	 0.302414689200438 
672	 0.302062172060127 
673	 0.301731189975047 
674	 0.30144696500009 
675	 0.301056937859663 
676	 0.300633200245453 
677	 0.300214004037973 
678	 0.299809578543674 
679	 0.299337885594234 
680	 0.298789618286316 
681	 0.298200628887689 
682	 0.297654027133853 
683	 0.297111577978153 
684	 0.296535263711186 
685	 0.295902700940383 
686	 0.295242769424668 
687	 0.294596524508261 
688	 0.293927798581148 
689	 0.29316031403625 
690	 0.292428375013171 
691	 0.291703249515094 
692	 0.290954479534999 
693	 0.290205632336751 
694	 0.289342579825451 
695	 0.288451093289497 
696	 0.287652795987745 
697	 0.286823918096895 
698	 0.285977008799938 
699	 0.285125837299451 
700	 0.284276692140837 
701	 0.283365605711609 
702	 0.2823989851868 
703	 0.281424360155314 
704	 0.280567163116313 
705	 0.279626570702504 
706	 0.278622466215336 
707	 0.277675991399505 
708	 0.276670704080265 
709	 0.275695788675562 
710	 0.274773165307466 
711	 0.273797910139115 
712	 0.272787420201968 
713	 0.271749253716237 
714	 0.270712577190338 
715	 0.269804558939549 
716	 0.268801051079098 
717	 0.267692646848876 
718	 0.266635389899134 
719	 0.265715669198597 
720	 0.264711587916049 
721	 0.263546260895845 
722	 0.262500165633344 
723	 0.261471330452571 
724	 0.260405465338248 
725	 0.259292985053051 
726	 0.258289043342562 
727	 0.257293331788821 
728	 0.256247328640695 
729	 0.255150228084883 
730	 0.254101201957019 
731	 0.253048486321779 
732	 0.251959107515942 
733	 0.250912021023689 
734	 0.249894791793064 
735	 0.248861349910748 
736	 0.247761725368106 
737	 0.246609003055002 
738	 0.245540627376789 
739	 0.244544517425292 
740	 0.243443540942172 
741	 0.242384301384662 
742	 0.241326075952112 
743	 0.240240587946926 
744	 0.239251682789853 
745	 0.238185861445805 
746	 0.237077455665447 
747	 0.236045106345948 
748	 0.235033865979106 
749	 0.233989806294137 
750	 0.232934652004224 
751	 0.231975983041944 
752	 0.230949154439962 
753	 0.229878304612257 
754	 0.228825835790898 
755	 0.22782979658981 
756	 0.22685958335163 
757	 0.225861477005897 
758	 0.224799299516758 
759	 0.223834450395959 
760	 0.222917531885754 
761	 0.221973794121284 
762	 0.220928491382844 
763	 0.219986977762225 
764	 0.219060727310132 
765	 0.218059889867543 
766	 0.21709358090219 
767	 0.216212066021562 
768	 0.215337651625875 
769	 0.214359498986379 
770	 0.213452705549228 
771	 0.212574654399495 
772	 0.21169004616698 
773	 0.21079813407605 
774	 0.209948996605022 
775	 0.209110910674235 
776	 0.208259041553303 
777	 0.207445153978337 
778	 0.206601751456688 
779	 0.205764448550465 
780	 0.204993493598412 
781	 0.204176744490424 
782	 0.203409705390178 
783	 0.202682427401049 
784	 0.201868911715799 
785	 0.201102031240265 
786	 0.200372968788393 
787	 0.19965422988928 
788	 0.198942311579436 
789	 0.198250263774577 
790	 0.197554304617881 
791	 0.196836600371831 
792	 0.196175348606273 
793	 0.195549474542768 
794	 0.194932523571919 
795	 0.194297808114003 
796	 0.193602258141268 
797	 0.192953955949764 
798	 0.192396251558419 
799	 0.191815361330253 
800	 0.19122182449061 
801	 0.190647176879528 
802	 0.190118188309299 
803	 0.189615413289598 
804	 0.189059530647934 
805	 0.188484583099829 
806	 0.187986397479165 
807	 0.187505954475728 
808	 0.187015397553097 
809	 0.186523344970972 
810	 0.186078209859594 
811	 0.185622329227846 
812	 0.185159521119375 
813	 0.184710597796896 
814	 0.18429854208184 
815	 0.183947857155425 
816	 0.183584535047113 
817	 0.183133529899955 
818	 0.182740803263481 
819	 0.182409797967463 
820	 0.182087420282225 
821	 0.181696571058363 
822	 0.181389185112667 
823	 0.181082579386364 
824	 0.180736095028164 
825	 0.180435185265758 
826	 0.180120223343003 
827	 0.179808678906089 
828	 0.179533695980693 
829	 0.179320236323846 
830	 0.179026585793127 
831	 0.178694365413166 
832	 0.178446760220385 
833	 0.17828750117499 
834	 0.178090040457718 
835	 0.177846407131728 
836	 0.177662378162321 
837	 0.177467102239063 
838	 0.177280563126372 
839	 0.177108710487527 
840	 0.176909430844816 
841	 0.176746305848077 
842	 0.176615917141584 
843	 0.176487139911193 
844	 0.176299372445483 
845	 0.176199333672432 
846	 0.176139990033381 
847	 0.17601502694672 
848	 0.175960470572172 
849	 0.17587262558436 
850	 0.175760043399847 
851	 0.175722061664971 
852	 0.175624676610225 
853	 0.175551570160045 
854	 0.175550316505042 
855	 0.17557132041088 
856	 0.175528278904595 
857	 0.175482576158416 
858	 0.175495511578764 
859	 0.175534948413488 
860	 0.175538373764759 
861	 0.175525398939216 
862	 0.17554532127218 
863	 0.175622691476149 
864	 0.175679940723121 
865	 0.175721353515102 
866	 0.175797987802296 
867	 0.175882809285795 
868	 0.175963789652997 
869	 0.176052444406399 
870	 0.176178048805651 
871	 0.176297201092847 
872	 0.176400149298028 
873	 0.176494352292016 
874	 0.176603035864566 
875	 0.176800978041363 
876	 0.176994971470407 
877	 0.177122712851581 
878	 0.177317587832796 
879	 0.177513534814901 
880	 0.177727062792739 
881	 0.177982885095638 
882	 0.178232701539762 
883	 0.178434607742948 
884	 0.178617441828548 
885	 0.178847273547718 
886	 0.179146874240649 
887	 0.179446866422289 
888	 0.179698409404653 
889	 0.179898627549949 
890	 0.180216401173688 
891	 0.180556377143692 
892	 0.180866232502301 
893	 0.181192590587366 
894	 0.181519669577273 
895	 0.181886510106344 
896	 0.182288259998298 
897	 0.182627656861146 
898	 0.183029947103569 
899	 0.183433031846209 
900	 0.183775342431616 
901	 0.18412146378082 
902	 0.18455754301682 
903	 0.185061682818476 
904	 0.185563972544015 
905	 0.185996769526251 
906	 0.186443456096128 
907	 0.186902703203937 
908	 0.187345291662722 
909	 0.187824817454463 
910	 0.188391375150527 
911	 0.188960536119452 
912	 0.189402826100951 
913	 0.189908709895428 
914	 0.190476343942177 
915	 0.191063242096898 
916	 0.191620551844606 
917	 0.192244362048368 
918	 0.192852460204909 
919	 0.193424594356133 
920	 0.194034555097969 
921	 0.19471355579884 
922	 0.195392570259137 
923	 0.196015574072133 
924	 0.196581322424232 
925	 0.197148665485388 
926	 0.19782027033771 
927	 0.198588559557248 
928	 0.199241724972869 
929	 0.199964344280138 
930	 0.200737744570911 
931	 0.201518646463678 
932	 0.20234031630901 
933	 0.203062025813964 
934	 0.20376531744747 
935	 0.204541513017759 
936	 0.205315813844899 
937	 0.205951866199528 
938	 0.206621456139936 
939	 0.207493801153684 
940	 0.208343452789987 
941	 0.209245117402363 
942	 0.210171212807561 
943	 0.211053368902547 
944	 0.211816385087684 
945	 0.212618540330993 
946	 0.213513151505156 
947	 0.214455686849389 
948	 0.215256401405888 
949	 0.216100944132674 
950	 0.217015926498926 
951	 0.217930592249517 
952	 0.218793641259481 
953	 0.219580169636976 
954	 0.220376436118093 
955	 0.221313755812707 
956	 0.222428620904078 
957	 0.223428042202973 
958	 0.224323949437307 
959	 0.225288151444452 
960	 0.226143649739147 
961	 0.227040034365997 
962	 0.228061401180158 
963	 0.22916912653066 
964	 0.230017492179866 
965	 0.2309830042352 
966	 0.232108388010717 
967	 0.233177868446008 
968	 0.234118184414489 
969	 0.235162074344927 
970	 0.236285228252036 
971	 0.237302191684799 
972	 0.238306579605495 
973	 0.239465142610173 
974	 0.240709972966857 
975	 0.241857453056659 
976	 0.243097747931729 
977	 0.244198265851529 
978	 0.245206283866874 
979	 0.246338266220103 
980	 0.247537655741007 
981	 0.248834839345847 
982	 0.250052322805737 
983	 0.251038350226906 
984	 0.252432108996312 
985	 0.253772009144015 
986	 0.254977803330733 
987	 0.256223629636295 
988	 0.25756868359127 
989	 0.258749768374855 
990	 0.259997955187516 
991	 0.261591871441117 
992	 0.262783802020847 
993	 0.26412439923674 
994	 0.265554684687994 
995	 0.266786691060142 
996	 0.267905190627483 
997	 0.269312286957745 
998	 0.270843679625865 
999	 0.272246805648336 
1000	 0.273882630082515 
1001	 0.278075066169877 
1002	 0.279441415140714 
1003	 0.280836070193172 
1004	 0.28223530904479 
1005	 0.28367833465779 
1006	 0.285142114796495 
1007	 0.28660624047392 
1008	 0.288087790370823 
1009	 0.289562090006985 
1010	 0.291027542961024 
1011	 0.292464591547662 
1012	 0.293843017333033 
1013	 0.295305340147631 
1014	 0.296822300870425 
1015	 0.298284762494888 
1016	 0.299794820190829 
1017	 0.301301434464665 
1018	 0.302805867632483 
1019	 0.304268002834056 
1020	 0.305779678970962 
1021	 0.307214518384864 
1022	 0.308594587062211 
1023	 0.310055189539141 
1024	 0.311529403209762 
1025	 0.31300873265666 
1026	 0.31446032710654 
1027	 0.315899538896032 
1028	 0.31735746339792 
1029	 0.318829954946675 
1030	 0.320300417641597 
1031	 0.321727840610365 
1032	 0.323124784815749 
1033	 0.324515221746096 
1034	 0.325947031444284 
1035	 0.327377588659305 
1036	 0.328814417070255 
1037	 0.330250847128681 
1038	 0.331669693478716 
1039	 0.333119207798193 
1040	 0.334539148648902 
1041	 0.335917347257007 
1042	 0.337314428831692 
1043	 0.338649026221716 
1044	 0.34000341555763 
1045	 0.341390143654695 
1046	 0.342806745745726 
1047	 0.344139677019327 
1048	 0.345506410781596 
1049	 0.346870185031858 
1050	 0.348232280539794 
1051	 0.34958945972279 
1052	 0.350905758986414 
1053	 0.352254478242495 
1054	 0.353554700000197 
1055	 0.354829461110227 
1056	 0.356146308183254 
1057	 0.357479081548616 
1058	 0.358844159213136 
1059	 0.36018122236267 
1060	 0.361547858413416 
1061	 0.362837967357458 
1062	 0.364098321185047 
1063	 0.365400204012257 
1064	 0.366712610188717 
1065	 0.368029931994656 
1066	 0.369308107717694 
1067	 0.370519323524757 
1068	 0.371719278576533 
1069	 0.372940455008659 
1070	 0.374190141370729 
1071	 0.375494066291193 
1072	 0.376749818449071 
1073	 0.377995573865792 
1074	 0.379214856631559 
1075	 0.380376367610936 
1076	 0.381607386539699 
1077	 0.382805297072794 
1078	 0.38398433289219 
1079	 0.385213747792364 
1080	 0.386345304625145 
1081	 0.387446355575966 
1082	 0.388652846968234 
1083	 0.389793000116955 
1084	 0.390895806459357 
1085	 0.391993003872255 
1086	 0.393087936613596 
1087	 0.394121091360131 
1088	 0.395079020310944 
1089	 0.396131825439246 
1090	 0.397158170933264 
1091	 0.398178879478561 
1092	 0.399213336382307 
1093	 0.400183657385177 
1094	 0.401122974099153 
1095	 0.402039500549127 
1096	 0.402969973312439 
1097	 0.403898726621877 
1098	 0.404787803045408 
1099	 0.40565797468887 
1100	 0.406514512129145 
1101	 0.407350783097211 
1102	 0.408146470323461 
1103	 0.408951260544768 
1104	 0.409660246141751 
1105	 0.41032005560519 
1106	 0.411062608311162 
1107	 0.411804805029874 
1108	 0.412560978323746 
1109	 0.413292821226743 
1110	 0.413986266956934 
1111	 0.414658424095247 
1112	 0.415286324127718 
1113	 0.41590493989471 
1114	 0.416505628074064 
1115	 0.417101806315776 
1116	 0.417691957003791 
1117	 0.418254900832536 
1118	 0.418802404165399 
1119	 0.419345429693184 
1120	 0.419871010496303 
1121	 0.420336924665988 
1122	 0.420825457069639 
1123	 0.421306153555175 
1124	 0.421732913846198 
1125	 0.422146443912271 
1126	 0.422497143117071 
1127	 0.422797315746257 
1128	 0.423062315460886 
1129	 0.423291691134376 
1130	 0.423475139595566 
1131	 0.423656379773619 
1132	 0.423736922771549 
1133	 0.423760267005595 
1134	 0.423715679853673 
1135	 0.423610646577732 
1136	 0.42341819553829 
1137	 0.42317499162149 
1138	 0.422855112125424 
1139	 0.422442642613424 
1140	 0.421962392499896 
1141	 0.421372988577723 
1142	 0.420702834366886 
1143	 0.4199290314528 
1144	 0.419055685574528 
1145	 0.418100955742473 
1146	 0.417020073935591 
1147	 0.415941382215367 
1148	 0.414754254345056 
1149	 0.413609997246056 
1150	 0.412463349405939 
1151	 0.411308632643375 
1152	 0.410155315735381 
1153	 0.409060276576585 
1154	 0.408032373346437 
1155	 0.406996196450946 
1156	 0.406137033479919 
1157	 0.405397842599234 
1158	 0.404694370356334 
1159	 0.40406890370657 
1160	 0.403532513302196 
1161	 0.403053476680847 
1162	 0.402645408113781 
1163	 0.402358518437404 
1164	 0.402091614169281 
1165	 0.401863222314394 
1166	 0.401672291498994 
1167	 0.401549529000937 
1168	 0.401471248557907 
1169	 0.401410758243191 
1170	 0.401386017042813 
1171	 0.401395426264639 
1172	 0.401435929246666 
1173	 0.401493314500687 
1174	 0.401579976277229 
1175	 0.401694741344715 
1176	 0.401821003108918 
1177	 0.401987068551366 
1178	 0.402185497866165 
1179	 0.40242374403615 
1180	 0.402719404297829 
1181	 0.40300324666906 
1182	 0.403310617069585 
1183	 0.403630869069336 
1184	 0.403957792259095 
1185	 0.404289469695817 
1186	 0.404609777436522 
1187	 0.40495972840358 
1188	 0.405261556637246 
1189	 0.405532129028329 
1190	 0.405797775062381 
1191	 0.406046429477891 
1192	 0.40628966650198 
1193	 0.406506786361923 
1194	 0.406742753719635 
1195	 0.40699913879675 
1196	 0.40722397225372 
1197	 0.407431809584263 
1198	 0.407648536375212 
1199	 0.407859650994281 
1200	 0.408044827369316 
1201	 0.408254837507398 
1202	 0.408482968403214 
1203	 0.408704301634658 
1204	 0.408920093522722 
1205	 0.409146076277421 
1206	 0.409373679056188 
1207	 0.409617278966342 
1208	 0.409896924144057 
1209	 0.410129128192857 
1210	 0.410360204106589 
1211	 0.410570746575921 
1212	 0.410733847217596 
1213	 0.410908917515524 
1214	 0.411078735795933 
1215	 0.411254653968691 
1216	 0.411431462586994 
1217	 0.411615062766822 
1218	 0.411770668707384 
1219	 0.411920246952943 
1220	 0.412065837437032 
1221	 0.412179089427152 
1222	 0.412322198249449 
1223	 0.41249695703146 
1224	 0.412635127652598 
1225	 0.41276764930771 
1226	 0.412888018060225 
1227	 0.412977264326097 
1228	 0.413081011714857 
1229	 0.413196458243189 
1230	 0.413294106194061 
1231	 0.413387151518102 
1232	 0.413471722944675 
1233	 0.413546931900621 
1234	 0.413597109223901 
1235	 0.413680724712388 
1236	 0.413773566691403 
1237	 0.413863674652178 
1238	 0.413981466692476 
1239	 0.414060753832801 
1240	 0.414120913018539 
1241	 0.414177721678643 
1242	 0.414218973623288 
1243	 0.414256307605918 
1244	 0.414272322290549 
1245	 0.414311787227934 
1246	 0.414350992290255 
1247	 0.414397484206602 
1248	 0.414456633676315 
1249	 0.414541611335834 
1250	 0.414580458292857 
1251	 0.414607945119759 
1252	 0.414619808669303 
1253	 0.414604400758127 
1254	 0.414591235796428 
1255	 0.414580429346393 
1256	 0.414540286603064 
1257	 0.414476449842446 
1258	 0.414413700334527 
1259	 0.414315291183252 
1260	 0.414250001553692 
1261	 0.414207461410244 
1262	 0.414146832664938 
1263	 0.414096149916012 
1264	 0.414033600055794 
1265	 0.413948822346936 
1266	 0.413872195284147 
1267	 0.413804537054389 
1268	 0.413729977734129 
1269	 0.413632019797562 
1270	 0.413525175734907 
1271	 0.413404321193907 
1272	 0.413266373521774 
1273	 0.413109037759346 
1274	 0.412934376498239 
1275	 0.412760507582773 
1276	 0.412575152835228 
1277	 0.412370381212134 
1278	 0.412170703808039 
1279	 0.41193453469534 
1280	 0.41164872903039 
1281	 0.411379319262121 
1282	 0.411107511151429 
1283	 0.410820561010732 
1284	 0.410536666841813 
1285	 0.410230625205889 
1286	 0.409886700855558 
1287	 0.409561134561665 
1288	 0.40922108156979 
1289	 0.408878627304322 
1290	 0.408507463351643 
1291	 0.40811918443417 
1292	 0.407722638531389 
1293	 0.407314493249985 
1294	 0.406873766542665 
1295	 0.406421699387421 
1296	 0.405949679077251 
1297	 0.405442616108959 
1298	 0.404925760966102 
1299	 0.404405580551542 
1300	 0.403859031416144 
1301	 0.403290250555497 
1302	 0.40269430683626 
1303	 0.402084403789952 
1304	 0.401444266673562 
1305	 0.400764169995735 
1306	 0.400073082752772 
1307	 0.399343236381192 
1308	 0.39857558106371 
1309	 0.397798649557241 
1310	 0.39700869976114 
1311	 0.396166302826463 
1312	 0.395301321922378 
1313	 0.394404181166671 
1314	 0.393467634892154 
1315	 0.392494133882429 
1316	 0.391513288214214 
1317	 0.390464095197479 
1318	 0.389365677155281 
1319	 0.388224490438443 
1320	 0.387033230443563 
1321	 0.385813021640197 
1322	 0.384561682789839 
1323	 0.383260476406273 
1324	 0.381931211633576 
1325	 0.380562655652955 
1326	 0.379177576926031 
1327	 0.377756033530102 
1328	 0.376277250568445 
1329	 0.374777582419357 
1330	 0.373239538405889 
1331	 0.371653833647294 
1332	 0.370040053468297 
1333	 0.36839318669478 
1334	 0.366744459009186 
1335	 0.365047151224761 
1336	 0.363384141407914 
1337	 0.361733206264846 
1338	 0.360084099581389 
1339	 0.358442274594683 
1340	 0.356794368272518 
1341	 0.35512196257319 
1342	 0.353500850135932 
1343	 0.351885534922244 
1344	 0.350303095922601 
1345	 0.348767400631507 
1346	 0.347280579799035 
1347	 0.345841803984811 
1348	 0.344441896881242 
1349	 0.343089367477621 
1350	 0.341757373356031 
1351	 0.340458007054558 
1352	 0.339182674708527 
1353	 0.337941915201864 
1354	 0.336744000829409 
1355	 0.335545068563768 
1356	 0.334367652632267 
1357	 0.333193447493919 
1358	 0.332039770957515 
1359	 0.330862669352682 
1360	 0.329687200912603 
1361	 0.328510632845606 
1362	 0.327332784503256 
1363	 0.326142233359872 
1364	 0.324966374442907 
1365	 0.323751385649022 
1366	 0.322525742577897 
1367	 0.321251020279533 
1368	 0.319962611127215 
1369	 0.318667683238356 
1370	 0.317271818697634 
1371	 0.315848572648155 
1372	 0.314389452852457 
1373	 0.312835046334949 
1374	 0.311209995631674 
1375	 0.309555622384612 
1376	 0.307743232521115 
1377	 0.305831610318393 
1378	 0.303777649578666 
1379	 0.301595117536511 
1380	 0.299309180999999 
1381	 0.29690579669158 
1382	 0.294368387151389 
1383	 0.291736281435866 
1384	 0.288957868473844 
1385	 0.286059959055343 
1386	 0.283038167593689 
1387	 0.279884386397962 
1388	 0.276632183195554 
1389	 0.273284147661642 
1390	 0.269765727889014 
1391	 0.266160011966667 
1392	 0.262437602049311 
1393	 0.258601890530739 
1394	 0.25472265796417 
1395	 0.250721443828982 
1396	 0.246712299179814 
1397	 0.242698678105424 
1398	 0.238615483547464 
1399	 0.234571333122928 
1400	 0.230509197195389 
1401	 0.226531555978836 
1402	 0.222540798424939 
1403	 0.218696967168577 
1404	 0.214903725046241 
1405	 0.211291046394038 
1406	 0.207760395217217 
1407	 0.204402909739997 
1408	 0.201173900508928 
1409	 0.198148894388413 
1410	 0.195285723833042 
1411	 0.192607375974083 
1412	 0.190119358528393 
1413	 0.187813247436025 
1414	 0.185659797584174 
1415	 0.183619763487315 
1416	 0.181724140332045 
1417	 0.179936477674863 
1418	 0.178259684997827 
1419	 0.1767021800265 
1420	 0.175223337635039 
1421	 0.173855859468342 
1422	 0.172560852268974 
1423	 0.171304141095264 
1424	 0.1701242865826 
1425	 0.169026833358012 
1426	 0.167969387055395 
1427	 0.166976503224404 
1428	 0.166019822154523 
1429	 0.165113796624708 
1430	 0.164250626892791 
1431	 0.16343726802303 
1432	 0.162643614594675 
1433	 0.161904824554225 
1434	 0.161164481791776 
1435	 0.160445404499598 
1436	 0.159737373690689 
1437	 0.159041575735405 
1438	 0.158361002342391 
1439	 0.157704185598159 
1440	 0.157032357536413 
1441	 0.156376832686478 
1442	 0.155740747835466 
1443	 0.155106197213617 
1444	 0.154519864116255 
1445	 0.153978798277042 
1446	 0.153478809303368 
1447	 0.153033128789537 
1448	 0.152627805210491 
1449	 0.152275715144327 
1450	 0.151995192957015 
1451	 0.151802428812779 
1452	 0.151687202157068 
1453	 0.151648011862569 
1454	 0.151712365509393 
1455	 0.151790051511066 
1456	 0.15193722558886 
1457	 0.152095816444867 
1458	 0.152303865503251 
1459	 0.152501672229566 
1460	 0.152742611707097 
1461	 0.152945531428307 
1462	 0.153139933565849 
1463	 0.153315282543224 
1464	 0.153478829574634 
1465	 0.153619068735285 
1466	 0.153737778944709 
1467	 0.153847949603844 
1468	 0.153927354560744 
1469	 0.154014786169211 
1470	 0.154096589132095 
1471	 0.154177152571551 
1472	 0.154264353119176 
1473	 0.154364107210224 
1474	 0.154453060595748 
1475	 0.154538718207411 
1476	 0.154640406312599 
1477	 0.15475355900585 
1478	 0.154890743873388 
1479	 0.155043728248953 
1480	 0.155193726643047 
1481	 0.15533679977678 
1482	 0.155492870896098 
1483	 0.155647658728709 
1484	 0.155829743832028 
1485	 0.156030304101639 
1486	 0.156235021375361 
1487	 0.156458616314399 
1488	 0.156677862544067 
1489	 0.15690211083861 
1490	 0.157125524675623 
1491	 0.157361985979166 
1492	 0.157583075955349 
1493	 0.157798142480025 
1494	 0.158005856408927 
1495	 0.158195178680478 
1496	 0.158393070662255 
1497	 0.158592929128426 
1498	 0.158792780914696 
1499	 0.159014575168021 
1500	 0.159203688859718 
1501	 0.159372155710487 
1502	 0.159535459224868 
1503	 0.159679767119211 
1504	 0.159811772480349 
1505	 0.159955140991063 
1506	 0.160106777839807 
1507	 0.160254888306585 
1508	 0.160387724199999 
1509	 0.160518298936938 
1510	 0.160636478717331 
1511	 0.160746533700957 
1512	 0.160872212909624 
1513	 0.160990717926252 
1514	 0.161110128889349 
1515	 0.161225902618714 
1516	 0.161339148919778 
1517	 0.161460566698129 
1518	 0.161595245560783 
1519	 0.161697969246313 
1520	 0.161789269960737 
1521	 0.161884941507743 
1522	 0.161958584119774 
1523	 0.162049129046164 
1524	 0.162164109359352 
1525	 0.162252143869033 
1526	 0.162323765862517 
1527	 0.162399281010274 
1528	 0.162468638687725 
1529	 0.162535386626976 
1530	 0.162604881584422 
1531	 0.162663514953568 
1532	 0.162714090783672 
1533	 0.162758076656098 
1534	 0.162786026961098 
1535	 0.162824907154332 
1536	 0.162864081895949 
1537	 0.162904096674492 
1538	 0.162957108892405 
1539	 0.162999163906116 
1540	 0.163033114668355 
1541	 0.163062958140209 
1542	 0.163081155742112 
1543	 0.163107287692317 
1544	 0.163142567376704 
1545	 0.163165669539008 
1546	 0.163194348378147 
1547	 0.163200196994506 
1548	 0.163201039253536 
1549	 0.163203474153215 
1550	 0.163206288351359 
1551	 0.163221466839113 
1552	 0.163219382309769 
1553	 0.163217034681325 
1554	 0.1632241754161 
1555	 0.163213761443228 
1556	 0.163215494033566 
1557	 0.163206250864453 
1558	 0.163173932835673 
1559	 0.163153025468211 
1560	 0.163130325420089 
1561	 0.163098138281778 
1562	 0.163085859706873 
1563	 0.163088367056835 
1564	 0.163073488018293 
1565	 0.163072020937824 
1566	 0.163039211174182 
1567	 0.162980516673962 
1568	 0.162939150006285 
1569	 0.162880019135332 
1570	 0.162841269806866 
1571	 0.162822841955244 
1572	 0.162788577217972 
1573	 0.162759842893755 
1574	 0.162719429159564 
1575	 0.162668017753035 
1576	 0.162614356912089 
1577	 0.162556221527743 
1578	 0.162495331255942 
1579	 0.162424203698663 
1580	 0.162363307974369 
1581	 0.162302888584095 
1582	 0.162245551595574 
1583	 0.162197229682503 
1584	 0.162139990844071 
1585	 0.162089827608315 
1586	 0.162020195858569 
1587	 0.161939604597131 
1588	 0.161853373444808 
1589	 0.16174158309145 
1590	 0.161648268636412 
1591	 0.161559692486172 
1592	 0.161471886810074 
1593	 0.161404728216998 
1594	 0.16131235489055 
1595	 0.161199058579807 
1596	 0.161095562343278 
1597	 0.160984724926217 
1598	 0.160875773463171 
1599	 0.160782816559957 
1600	 0.16067209198044 
1601	 0.160547335285624 
1602	 0.160421708358664 
1603	 0.160276558529424 
1604	 0.160147315758029 
1605	 0.160035079023282 
1606	 0.159908437453223 
1607	 0.159787316534298 
1608	 0.159656220269024 
1609	 0.159501012580669 
1610	 0.159339673682394 
1611	 0.159179819944502 
1612	 0.159026611998212 
1613	 0.158880633132604 
1614	 0.158725833845443 
1615	 0.158553306814669 
1616	 0.158372314671923 
1617	 0.158202194117031 
1618	 0.158044512996342 
1619	 0.157898448384076 
1620	 0.157754251057035 
1621	 0.157583542464267 
1622	 0.157395595067309 
1623	 0.157205237441857 
1624	 0.156996640022176 
1625	 0.156803167869433 
1626	 0.156613622227893 
1627	 0.156413971808525 
1628	 0.156207322763964 
1629	 0.15602024921385 
1630	 0.155830160731976 
1631	 0.155654750583453 
1632	 0.155511574200991 
1633	 0.155330207165521 
1634	 0.155137980109417 
1635	 0.154938579804907 
1636	 0.154720678097139 
1637	 0.154508093862345 
1638	 0.154285497693668 
1639	 0.154083387805957 
1640	 0.15389066747521 
1641	 0.153688422047077 
1642	 0.153501260979068 
1643	 0.153291950063346 
1644	 0.153050683941896 
1645	 0.152847539788048 
1646	 0.15265176666383 
1647	 0.152467685943058 
1648	 0.152322585960592 
1649	 0.152132047284016 
1650	 0.151928780202784 
1651	 0.151717876240532 
1652	 0.15147912286717 
1653	 0.151255058677871 
1654	 0.151027692051783 
1655	 0.150813720784859 
1656	 0.150606109700678 
1657	 0.150397649925254 
1658	 0.15020440511589 
1659	 0.149994964458022 
1660	 0.14977155274818 
1661	 0.149559137971694 
1662	 0.149352476640248 
1663	 0.149132748728641 
1664	 0.148908883334566 
1665	 0.148688450165594 
1666	 0.148450249910727 
1667	 0.148237093111068 
1668	 0.148046655721663 
1669	 0.147842890122352 
1670	 0.147649435810628 
1671	 0.147439868395233 
1672	 0.147210201836596 
1673	 0.147001034174467 
1674	 0.146791474154235 
1675	 0.146592639201498 
1676	 0.146414114736619 
1677	 0.146224446088084 
1678	 0.146037849195866 
1679	 0.145840839217777 
1680	 0.145629392574083 
1681	 0.145434660647826 
1682	 0.145236979214021 
1683	 0.145052777360327 
1684	 0.144893023386202 
1685	 0.144714026379674 
1686	 0.144542475046646 
1687	 0.144343486230501 
1688	 0.144108301598362 
1689	 0.14390930272352 
1690	 0.143707990777759 
1691	 0.143518665196639 
1692	 0.143361884237511 
1693	 0.143186897872838 
1694	 0.143003209916773 
1695	 0.142822941269648 
1696	 0.1426440453958 
1697	 0.142464850051438 
1698	 0.142280239069934 
1699	 0.142101853242191 
1700	 0.141929900845884 
1701	 0.141757857184319 
1702	 0.141596740777998 
1703	 0.141416093837308 
1704	 0.141223659960442 
1705	 0.141034929467415 
1706	 0.140830256317666 
1707	 0.140643530482319 
1708	 0.140469712928117 
1709	 0.140291093670804 
1710	 0.140118002510167 
1711	 0.139941632874766 
1712	 0.139764881810776 
1713	 0.139584641058358 
1714	 0.139400004818696 
1715	 0.139217693518861 
1716	 0.139029467204673 
1717	 0.138855967217849 
1718	 0.138691659156571 
1719	 0.138524822536334 
1720	 0.138361399008601 
1721	 0.13820501906454 
1722	 0.138053840996464 
1723	 0.137898256305939 
1724	 0.137751473150374 
1725	 0.137594362086581 
1726	 0.137425673156802 
1727	 0.137266598984585 
1728	 0.137106290651292 
1729	 0.136955344687462 
1730	 0.136817523846418 
1731	 0.136658037168288 
1732	 0.136489728598591 
1733	 0.13634368333852 
1734	 0.13618776966506 
1735	 0.136049878497714 
1736	 0.135946286659655 
1737	 0.13580645483769 
1738	 0.135648559078304 
1739	 0.13551045469141 
1740	 0.135367738763855 
1741	 0.135235081608314 
1742	 0.135120693471573 
1743	 0.134996970175262 
1744	 0.134877111769152 
1745	 0.134739546643636 
1746	 0.134588795088626 
1747	 0.134430026784323 
1748	 0.134281601642642 
1749	 0.134135097376425 
1750	 0.134004139696833 
1751	 0.133870093721098 
1752	 0.133733122173009 
1753	 0.133592818609493 
1754	 0.133463643402789 
1755	 0.133358114966802 
1756	 0.133230182355145 
1757	 0.133082725423658 
1758	 0.13295257644322 
1759	 0.13282298062535 
1760	 0.132698282666006 
1761	 0.132609101315138 
1762	 0.132516828375465 
1763	 0.132371936584764 
1764	 0.132234595385251 
1765	 0.132118426747273 
1766	 0.131984006166054 
1767	 0.131885249295482 
1768	 0.131786172343942 
1769	 0.131654534630809 
1770	 0.131528176147252 
1771	 0.131401708047021 
1772	 0.131298292272859 
1773	 0.131208609851456 
1774	 0.131119286926554 
1775	 0.131047227793515 
1776	 0.130946652150171 
1777	 0.130802661036227 
1778	 0.130676555421075 
1779	 0.130547635289811 
1780	 0.130429378127988 
1781	 0.130375491780485 
1782	 0.130322165870065 
1783	 0.130261354409171 
1784	 0.130194790352956 
1785	 0.13011030834381 
1786	 0.130040537994456 
1787	 0.129986301111583 
1788	 0.129920810780364 
1789	 0.129845386444427 
1790	 0.129776515006874 
1791	 0.129707117085847 
1792	 0.129636195063362 
1793	 0.129564789227945 
1794	 0.129516746404318 
1795	 0.129486476657554 
1796	 0.129437360169494 
1797	 0.12939424114914 
1798	 0.129355541112197 
1799	 0.129292960220685 
1800	 0.129243095084498 
1801	 0.12915406873133 
1802	 0.129146704861929 
1803	 0.129138137720827 
1804	 0.129154960792649 
1805	 0.129150114126934 
1806	 0.129144097691342 
1807	 0.129162103133185 
1808	 0.129150088858513 
1809	 0.12912681980466 
1810	 0.1291104429223 
1811	 0.129095737379273 
1812	 0.129044786832144 
1813	 0.128999784442965 
1814	 0.128948498241618 
1815	 0.128887104278731 
1816	 0.128849385914823 
1817	 0.128843252453254 
1818	 0.128885354993945 
1819	 0.128889158982377 
1820	 0.128897366823558 
1821	 0.128920066982745 
1822	 0.128899529321475 
1823	 0.128869980907395 
1824	 0.128868149288878 
1825	 0.128812223151859 
1826	 0.128736885220097 
1827	 0.128710147472573 
1828	 0.128664590395099 
1829	 0.12861032605639 
1830	 0.128551573354467 
1831	 0.128493326840749 
1832	 0.128430386111241 
1833	 0.128348459752482 
1834	 0.128293290279716 
1835	 0.12825897269257 
1836	 0.128197099363566 
1837	 0.128139915144567 
1838	 0.12807767769129 
1839	 0.128011464735862 
1840	 0.127934936304013 
1841	 0.127868275620876 
1842	 0.127803948696383 
1843	 0.127721041305017 
1844	 0.127606147974906 
1845	 0.127489354665707 
1846	 0.127367853952743 
1847	 0.127237920928872 
1848	 0.127120931521357 
1849	 0.126984180900404 
1850	 0.126834664766208 
1851	 0.126665611730442 
1852	 0.126491148879687 
1853	 0.12629576287049 
1854	 0.126095967476526 
1855	 0.125869397511318 
1856	 0.125622455533778 
1857	 0.12537639664428 
1858	 0.125088942917517 
1859	 0.124771739975367 
1860	 0.124446505781288 
1861	 0.124103378851048 
1862	 0.123735276726054 
1863	 0.123361987927985 
1864	 0.12296860370978 
1865	 0.122524504701935 
1866	 0.122036920860522 
1867	 0.121548825078553 
1868	 0.121033732465273 
1869	 0.120453208844041 
1870	 0.119862812167261 
1871	 0.119229891635525 
1872	 0.118545818223227 
1873	 0.117820265105506 
1874	 0.117103318707704 
1875	 0.116321153516626 
1876	 0.115493709075256 
1877	 0.114631224548783 
1878	 0.113717181595761 
1879	 0.112763312337667 
1880	 0.111755148149812 
1881	 0.110685433920277 
1882	 0.109591388105361 
1883	 0.108448849920036 
1884	 0.107258310501645 
1885	 0.106072348691948 
1886	 0.104851666062611 
1887	 0.103562985766205 
1888	 0.102257895719513 
1889	 0.100915203603747 
1890	 9.95171176780645E-02 
1891	 0.098121091665146 
1892	 9.66873935015322E-02 
1893	 9.52788445750294E-02 
1894	 9.38569463660072E-02 
1895	 9.24542208307503E-02 
1896	 9.10572888855658E-02 
1897	 8.96891111433211E-02 
1898	 8.83287038053504E-02 
1899	 8.70048068011221E-02 
1900	 8.57678927957958E-02 
1901	 8.45666504407603E-02 
1902	 8.34316765117156E-02 
1903	 8.23727111906351E-02 
1904	 8.13634436687305E-02 
1905	 8.03898134879761E-02 
1906	 7.95178771721375E-02 
1907	 7.87023807173535E-02 
1908	 7.79382165189446E-02 
1909	 0.077239010770784 
1910	 7.65611144731084E-02 
1911	 7.59415127651905E-02 
1912	 7.53620603143874E-02 
1913	 7.48125839438538E-02 
1914	 7.42996167811574E-02 
1915	 7.38304757413415E-02 
1916	 0.073401694623234 
1917	 7.29981862434813E-02 
1918	 7.26418928013995E-02 
1919	 7.22849253238152E-02 
1920	 7.19479656375678E-02 
1921	 7.16374580316146E-02 
1922	 7.13318873844707E-02 
1923	 7.10608932806145E-02 
1924	 7.08071770195424E-02 
1925	 7.05710470910002E-02 
1926	 7.03549535028748E-02 
1927	 7.01609842816232E-02 
1928	 6.99872242484603E-02 
1929	 6.98273234364273E-02 
1930	 6.96940690871592E-02 
1931	 6.95971303736738E-02 
1932	 6.94964387067559E-02 
1933	 6.94162531308267E-02 
1934	 6.93652197980185E-02 
1935	 6.93168936823312E-02 
1936	 6.92699203391645E-02 
1937	 6.92551532349408E-02 
1938	 6.92560685187093E-02 
1939	 6.92764389712935E-02 
1940	 6.93206593978152E-02 
1941	 6.93914000955389E-02 
1942	 6.94541880741009E-02 
1943	 6.95158702227049E-02 
1944	 6.96044064380759E-02 
1945	 6.96987895383246E-02 
1946	 6.98120182392167E-02 
1947	 6.99569392182905E-02 
1948	 7.01019576616136E-02 
1949	 7.02515320027887E-02 
1950	 7.04129904340503E-02 
1951	 7.05850511380481E-02 
1952	 7.07756107799087E-02 
1953	 7.09640518394289E-02 
1954	 7.11560854182708E-02 
1955	 7.13455040143109E-02 
1956	 0.071525240227047 
1957	 7.17061565129786E-02 
1958	 7.18866589021343E-02 
1959	 0.07205847443879 
1960	 7.22300841090828E-02 
1961	 7.23907067877111E-02 
1962	 7.25345257873513E-02 
1963	 7.26835894890244E-02 
1964	 7.28243116607514E-02 
1965	 7.29776149356364E-02 
1966	 7.31181279392579E-02 
1967	 7.32733245544924E-02 
1968	 7.34381678313819E-02 
1969	 7.36169319154241E-02 
1970	 7.37794233529045E-02 
1971	 7.39401454093772E-02 
1972	 7.41134252593707E-02 
1973	 7.42827160949611E-02 
1974	 7.44535060865686E-02 
1975	 7.46337337677047E-02 
1976	 7.48249410596174E-02 
1977	 7.49995768339481E-02 
1978	 7.51835386910715E-02 
1979	 0.075381659829945 
1980	 7.55765205522868E-02 
1981	 7.57830448053288E-02 
1982	 7.60042372895672E-02 
1983	 7.62111134460406E-02 
1984	 7.64199736635102E-02 
1985	 7.66274159367643E-02 
1986	 7.68278650546878E-02 
1987	 7.70256990997251E-02 
1988	 7.72213251436384E-02 
1989	 7.74282050946226E-02 
1990	 7.76139758153581E-02 
1991	 7.77901741437363E-02 
1992	 7.79826677637177E-02 
1993	 7.81802207665925E-02 
1994	 7.83740236790343E-02 
1995	 7.85771823035631E-02 
1996	 7.87732983224631E-02 
1997	 7.89599455929155E-02 
1998	 7.91506016354385E-02 
1999	 7.93434198411419E-02 
2000	 7.95387647259792E-02 
2001	 7.97435029079304E-02 
2002	 7.99322774987723E-02 
2003	 8.01214340282188E-02 
2004	 8.03140167326532E-02 
2005	 8.04848238098667E-02 
2006	 8.06271947714271E-02 
2007	 8.07994755944652E-02 
2008	 8.09646975731881E-02 
2009	 8.11428451526725E-02 
2010	 8.13438996947432E-02 
2011	 0.081538904737295 
2012	 8.17434195140626E-02 
2013	 8.19383225371266E-02 
2014	 8.21354487771869E-02 
2015	 8.23254770293885E-02 
2016	 8.24914659006635E-02 
2017	 8.26606265668951E-02 
2018	 0.082832037771207 
2019	 0.082995068535203 
2020	 8.31686518462528E-02 
2021	 8.33510176710604E-02 
2022	 0.083527501828157 
2023	 8.37053982607559E-02 
2024	 8.38831573124259E-02 
2025	 8.40530207198211E-02 
2026	 8.42359133459305E-02 
2027	 8.44224151491556E-02 
2028	 8.46190115748651E-02 
2029	 8.48130666387087E-02 
2030	 8.50208178923919E-02 
2031	 8.52078551351305E-02 
2032	 0.085383882338898 
2033	 8.55648414894853E-02 
2034	 8.57430215612263E-02 
2035	 8.59159099726175E-02 
2036	 8.60951005639179E-02 
2037	 8.62589143817164E-02 
2038	 8.63951140628985E-02 
2039	 8.65510663497095E-02 
2040	 8.67196522537544E-02 
2041	 8.68740591976795E-02 
2042	 8.70192573203414E-02 
2043	 8.71733848437132E-02 
2044	 8.73363505311386E-02 
2045	 8.74948666971298E-02 
2046	 8.76573500427301E-02 
2047	 8.78477301293972E-02 
2048	 8.80106337336713E-02 
2049	 8.81507374012613E-02 
2050	 8.82986019454593E-02 
2051	 8.84386173920288E-02 
2052	 8.85866377786731E-02 
2053	 8.87494836652617E-02 
2054	 8.88943155433165E-02 
2055	 8.90313433061606E-02 
2056	 8.91654110035086E-02 
2057	 8.93073658336626E-02 
2058	 8.94372563168836E-02 
2059	 8.95830503420527E-02 
2060	 8.97530417930615E-02 
2061	 8.99001227311507E-02 
2062	 0.090042625679031 
2063	 9.01762572538725E-02 
2064	 9.02965069854994E-02 
2065	 9.04212643173121E-02 
2066	 9.05314736868258E-02 
2067	 9.06572671375739E-02 
2068	 9.07837795623123E-02 
2069	 9.09296618653445E-02 
2070	 0.091068969540799 
2071	 9.12199994239774E-02 
2072	 9.13611056179647E-02 
2073	 0.091505542287463 
2074	 9.16293249219075E-02 
2075	 9.17364601342313E-02 
2076	 9.18543998911831E-02 
2077	 9.19601295991407E-02 
2078	 9.20757838022593E-02 
2079	 9.22088109601407E-02 
2080	 0.092330746823155 
2081	 9.24309844941856E-02 
2082	 9.25554106715829E-02 
2083	 9.27063509343881E-02 
2084	 9.28409892760866E-02 
2085	 9.29539065001803E-02 
2086	 9.30686503759249E-02 
2087	 9.31741866320459E-02 
2088	 9.32313405109573E-02 
2089	 9.33408229644145E-02 
2090	 9.34907342177788E-02 
2091	 9.36082380116683E-02 
2092	 9.37277560077951E-02 
2093	 9.38433387715018E-02 
2094	 9.39401584114077E-02 
2095	 9.40458922779778E-02 
2096	 9.41573585312585E-02 
2097	 9.42702050474202E-02 
2098	 9.43888540869228E-02 
2099	 9.45018996384825E-02 
2100	 9.46008642855518E-02 
2101	 9.46892068281824E-02 
2102	 9.47933057002068E-02 
2103	 9.48867342829592E-02 
2104	 9.49933770373005E-02 
2105	 9.51275245353637E-02 
2106	 9.52399952597496E-02 
2107	 0.095328657694213 
2108	 0.095443068719078 
2109	 9.55649905425863E-02 
2110	 9.56902423322155E-02 
2111	 0.095842542386235 
2112	 9.59759319229203E-02 
2113	 9.60992296956005E-02 
2114	 9.62217783098073E-02 
2115	 9.63466032568291E-02 
2116	 9.64664190850194E-02 
2117	 9.65879613057887E-02 
2118	 9.67113210662979E-02 
2119	 9.68361863217081E-02 
2120	 9.69704063135596E-02 
2121	 9.70783151526039E-02 
2122	 9.71717958587982E-02 
2123	 9.72762013960854E-02 
2124	 9.73580452556728E-02 
2125	 9.74583829659767E-02 
2126	 9.75948010439063E-02 
2127	 9.77007427450843E-02 
2128	 9.77922671422847E-02 
2129	 9.78833997866357E-02 
2130	 9.79593352521358E-02 
2131	 9.80382629049232E-02 
2132	 9.81099153980694E-02 
2133	 9.81787107412545E-02 
2134	 9.82457179902275E-02 
2135	 0.098303919030764 
2136	 9.83684109999577E-02 
2137	 9.84509467464976E-02 
2138	 9.84997960458452E-02 
2139	 9.85245892976798E-02 
2140	 9.85614165769526E-02 
2141	 9.85780789083254E-02 
2142	 9.86089331646728E-02 
2143	 9.86830996972976E-02 
2144	 9.87087015629379E-02 
2145	 9.86950037214056E-02 
2146	 9.86970935794535E-02 
2147	 9.86723475031827E-02 
2148	 9.86612966857527E-02 
2149	 9.86586982557296E-02 
2150	 9.86793208517076E-02 
2151	 9.86827235724357E-02 
2152	 9.86840225178441E-02 
2153	 9.86787301600184E-02 
2154	 9.86661064317379E-02 
2155	 9.86612585649515E-02 
2156	 0.098656791171162 
2157	 0.098647431206952 
2158	 0.098650543540229 
2159	 9.86336593985236E-02 
2160	 9.86038606459466E-02 
2161	 9.85670296054029E-02 
2162	 9.85198206806539E-02 
2163	 9.84646811768669E-02 
2164	 0.098387689029899 
2165	 9.83194072732334E-02 
2166	 9.82689017349408E-02 
2167	 9.82166147195097E-02 
2168	 9.81857273019109E-02 
2169	 9.81994901345648E-02 
2170	 9.81613484050878E-02 
2171	 0.098100454261814 
2172	 9.80590695777377E-02 
2173	 9.79888205074558E-02 
2174	 9.79544148953413E-02 
2175	 0.097965478245595 
2176	 9.79478385721914E-02 
2177	 9.79473357963403E-02 
2178	 9.79099718811181E-02 
2179	 9.78281561133056E-02 
2180	 9.77701628672312E-02 
2181	 0.097703402329012 
2182	 9.76366955526282E-02 
2183	 9.75774716774518E-02 
2184	 9.75326816813212E-02 
2185	 9.74709542529243E-02 
2186	 9.73885850801065E-02 
2187	 9.73294512406779E-02 
2188	 9.72763592814245E-02 
2189	 9.72280997774806E-02 
2190	 9.71804065386011E-02 
2191	 9.71548178720943E-02 
2192	 9.71634263961263E-02 
2193	 9.71342181456823E-02 
2194	 9.71092763126032E-02 
2195	 9.70673745965751E-02 
2196	 9.69808148045141E-02 
2197	 9.69196155884148E-02 
2198	 9.68782406995758E-02 
2199	 9.68204760888571E-02 
2200	 9.67419302784845E-02 
2201	 9.66880472467691E-02 
2202	 9.66388195205474E-02 
2203	 9.66010175926407E-02 
2204	 9.65488421353729E-02 
2205	 9.65043275118365E-02 
2206	 9.64711338023419E-02 
2207	 0.096422681927646 
2208	 9.63932080607086E-02 
2209	 9.63993099546176E-02 
2210	 9.63850824408869E-02 
2211	 0.096362336692309 
2212	 9.63406198849694E-02 
2213	 9.63297341017927E-02 
2214	 9.62981105083214E-02 
2215	 9.62411375905727E-02 
2216	 9.62030702304903E-02 
2217	 9.61617168058976E-02 
2218	 9.61265597025062E-02 
2219	 0.096099875475143 
2220	 9.60798416200912E-02 
2221	 9.60650387519889E-02 
2222	 9.60522082918931E-02 
2223	 9.60381892955335E-02 
2224	 9.60418803436166E-02 
2225	 9.60318248505749E-02 
2226	 9.60177379195792E-02 
2227	 9.59964737303808E-02 
2228	 9.59685713605648E-02 
2229	 9.59480111680276E-02 
2230	 9.59217969706848E-02 
2231	 9.58997960721173E-02 
2232	 9.58999845748181E-02 
2233	 9.58675379442251E-02 
2234	 0.095797549334655 
2235	 9.57670977668759E-02 
2236	 9.57481993791579E-02 
2237	 9.57170481071761E-02 
2238	 9.57182202169605E-02 
2239	 9.56861013745642E-02 
2240	 9.55969999299241E-02 
2241	 9.55494491611166E-02 
2242	 9.55211708352609E-02 
2243	 0.095485713669454 
2244	 9.54602051909682E-02 
2245	 9.54516542860949E-02 
2246	 9.54123040312783E-02 
2247	 9.53672285387437E-02 
2248	 9.53359104119125E-02 
2249	 9.53161138833742E-02 
2250	 9.52792341199028E-02 
2251	 9.52421956531759E-02 
2252	 9.51968244549549E-02 
2253	 0.095134227499043 
2254	 0.095082234872871 
2255	 9.50335114081487E-02 
2256	 9.49840095304623E-02 
2257	 9.49352899150112E-02 
2258	 9.48884090888842E-02 
2259	 9.48462394507209E-02 
2260	 9.47934213665399E-02 
2261	 9.47498917258487E-02 
2262	 0.094676756760992 
2263	 0.094557123597846 
2264	 9.44808100812932E-02 
2265	 9.44071644048994E-02 
2266	 9.43434991297909E-02 
2267	 9.43291580817599E-02 
2268	 9.42878817887637E-02 
2269	 9.42388980268454E-02 
2270	 9.41720970169352E-02 
2271	 9.41015201042718E-02 
2272	 9.40051951999747E-02 
2273	 9.38940391043965E-02 
2274	 9.37717048451901E-02 
2275	 9.36544883395638E-02 
2276	 9.35227568003645E-02 
2277	 9.34174640139205E-02 
2278	 9.33234023629931E-02 
2279	 9.32292934942445E-02 
2280	 9.31693700771908E-02 
2281	 9.30500435300613E-02 
2282	 9.28837128945361E-02 
2283	 9.27666478107171E-02 
2284	 9.26359659674808E-02 
2285	 9.25247685863274E-02 
2286	 9.24778956822895E-02 
2287	 9.23715517939465E-02 
2288	 9.22178753739014E-02 
2289	 9.20943206800613E-02 
2290	 0.091970539319354 
2291	 9.18437333260722E-02 
2292	 9.17151766518804E-02 
2293	 9.16057129408266E-02 
2294	 9.15132712156595E-02 
2295	 9.13948204172993E-02 
2296	 0.091270868262367 
2297	 9.11657355659715E-02 
2298	 9.10389502291536E-02 
2299	 9.09377849849514E-02 
2300	 9.08509105904772E-02 
2301	 9.07784793286775E-02 
2302	 9.06561312807173E-02 
2303	 9.04641793130017E-02 
2304	 9.03119459587724E-02 
2305	 9.01731035333741E-02 
2306	 9.00359595762721E-02 
2307	 0.089937642252641 
2308	 8.97923277061736E-02 
2309	 8.96214568505298E-02 
2310	 8.94487618845763E-02 
2311	 8.92530777624069E-02 
2312	 8.90867225976133E-02 
2313	 8.89389760865065E-02 
2314	 8.87529865242567E-02 
2315	 8.85345042663227E-02 
2316	 8.83667312412181E-02 
2317	 8.82188064216775E-02 
2318	 8.80448429184579E-02 
2319	 8.78847657659094E-02 
2320	 8.77324933943444E-02 
2321	 8.75498838526972E-02 
2322	 0.087388890033872 
2323	 8.72828491524802E-02 
2324	 8.71411054442196E-02 
2325	 8.69698325654823E-02 
2326	 8.67969508037683E-02 
2327	 8.66010078648836E-02 
2328	 8.64472912534121E-02 
2329	 8.62841226675317E-02 
2330	 8.60952480204806E-02 
2331	 8.59120158790897E-02 
2332	 8.57515551647262E-02 
2333	 8.55864470233611E-02 
2334	 8.54352620461544E-02 
2335	 8.53091944254502E-02 
2336	 8.51465114059124E-02 
2337	 8.49461664003241E-02 
2338	 8.47522073778626E-02 
2339	 8.45864266362541E-02 
2340	 8.44046835685857E-02 
2341	 8.42532216443865E-02 
2342	 8.41369053168345E-02 
2343	 8.39490663168654E-02 
2344	 8.37514864107164E-02 
2345	 0.083560340805954 
2346	 0.083360879559549 
2347	 8.31544143649815E-02 
2348	 8.29471036985019E-02 
2349	 8.27287898364542E-02 
2350	 8.24823020662972E-02 
2351	 8.22668648500536E-02 
2352	 8.20748579250185E-02 
2353	 8.18736146359766E-02 
2354	 8.16872294738376E-02 
2355	 8.14841112769522E-02 
2356	 8.12520782559572E-02 
2357	 8.10339670610538E-02 
2358	 8.08153859531539E-02 
2359	 8.06137665746047E-02 
2360	 8.04396487992869E-02 
2361	 0.080242671241857 
2362	 8.00588874586772E-02 
2363	 7.98438158969062E-02 
2364	 7.95812769580599E-02 
2365	 7.93414158477862E-02 
2366	 7.90998658641539E-02 
2367	 7.88684312337016E-02 
2368	 7.86381950065927E-02 
2369	 7.84125874832095E-02 
2370	 7.81932110122395E-02 
2371	 7.79782941963651E-02 
2372	 7.77930582411427E-02 
2373	 7.76242985161056E-02 
2374	 7.74063827703248E-02 
2375	 7.71457541540003E-02 
2376	 7.68673319607405E-02 
2377	 7.66195066851964E-02 
2378	 7.63436377895995E-02 
2379	 7.61171834032902E-02 
2380	 7.58856100046484E-02 
2381	 7.56426086507393E-02 
2382	 7.55024920668363E-02 
2383	 7.53153570173881E-02 
2384	 7.50908788735278E-02 
2385	 7.48790417293859E-02 
2386	 7.46914271150092E-02 
2387	 7.45460633152547E-02 
2388	 7.43709288434045E-02 
2389	 7.41369160100623E-02 
2390	 0.073844427095753 
2391	 7.35468109535491E-02 
2392	 7.32917213652989E-02 
2393	 0.073111683265191 
2394	 7.30119581734346E-02 
2395	 7.28633328730638E-02 
2396	 7.27243631349958E-02 
2397	 7.26252299080427E-02 
2398	 7.24062434160452E-02 
2399	 7.21634052597911E-02 
2400	 7.19680413859102E-02 
2401	 7.17134196671603E-02 
2402	 7.14937652748676E-02 
2403	 0.071370634624144 
2404	 7.11831575476601E-02 
2405	 7.10233962193859E-02 
2406	 7.08903666799087E-02 
2407	 0.070723506599722 
2408	 7.05672217391689E-02 
2409	 7.03541270412889E-02 
2410	 0.070238048458595 
2411	 7.01580432138163E-02 
2412	 0.06999899188931 
2413	 0.069925401541709 
2414	 6.97593525555347E-02 
2415	 6.94483192107108E-02 
2416	 6.92690522760202E-02 
2417	 6.91659455065831E-02 
2418	 6.90064650106858E-02 
2419	 6.89074080410314E-02 
2420	 6.87946832776205E-02 
2421	 6.86384581936067E-02 
2422	 6.84778735070793E-02 
2423	 6.83092195226012E-02 
2424	 6.81404970674815E-02 
2425	 6.79250979738864E-02 
2426	 6.77810416641162E-02 
2427	 6.77493335266132E-02 
2428	 6.75933436668076E-02 
2429	 6.74328698478688E-02 
2430	 6.72130156195323E-02 
2431	 6.68000693846026E-02 
2432	 6.65864319948336E-02 
2433	 6.64499738544718E-02 
2434	 0.066299980316331 
2435	 6.62787536211211E-02 
2436	 6.62029421519434E-02 
2437	 0.066050164171818 
2438	 0.06595222612271 
2439	 6.59451332827173E-02 
2440	 6.58070379058534E-02 
2441	 6.56354817327559E-02 
2442	 6.54274727605147E-02 
2443	 6.50886957486865E-02 
2444	 6.48342538864093E-02 
2445	 6.45868725517959E-02 
2446	 6.43695960723546E-02 
2447	 6.42231610131795E-02 
2448	 6.40178857996872E-02 
2449	 6.37954219418447E-02 
2450	 6.36032654502656E-02 
2451	 6.34052694355063E-02 
2452	 6.31727964731399E-02 
2453	 6.29092330100922E-02 
2454	 6.26978798937079E-02 
2455	 6.24568660764117E-02 
2456	 6.23183927083608E-02 
2457	 6.23443423956177E-02 
2458	 6.22590167874976E-02 
2459	 6.21336673190899E-02 
2460	 6.20275273700399E-02 
2461	 6.19389869095108E-02 
2462	 6.17162179458301E-02 
2463	 6.14581668812129E-02 
2464	 6.11683948827354E-02 
2465	 6.06426978455865E-02 
2466	 6.03194292896563E-02 
2467	 6.01199101787733E-02 
2468	 0.060001466478293 
2469	 6.00583433518639E-02 
2470	 6.01217713838395E-02 
2471	 5.99474702255859E-02 
2472	 5.95948749931645E-02 
2473	 5.92490231762266E-02 
2474	 5.90155188126986E-02 
2475	 5.89660879028737E-02 
2476	 0.058880919005159 
2477	 0.0589082378235 
2478	 0.058790541346881 
2479	 5.84204340828894E-02 
2480	 5.84062036425256E-02 
2481	 5.82564544905827E-02 
2482	 5.80235015713031E-02 
2483	 5.80861253777295E-02 
2484	 5.77922285375286E-02 
2485	 0.057567318554992 
2486	 0.057608515237861 
2487	 5.73480563589407E-02 
2488	 5.72350203171394E-02 
2489	 5.71691658658162E-02 
2490	 5.71253041210053E-02 
2491	 5.72494013408769E-02 
2492	 5.73191411901212E-02 
2493	 5.74964587048655E-02 
2494	 5.74187096692646E-02 
2495	 5.71878834802644E-02 
2496	 5.69502321268157E-02 
2497	 5.67001482619265E-02 
2498	 5.66410104014947E-02 
2499	 5.67114049349349E-02 
2500	 5.69123321527142E-02 
