Wavelength	lmw-9-200004.asd
350	 6.66360405955302E-02 
351	 6.88975642715626E-02 
352	 6.05967250702309E-02 
353	 4.77597004055024E-02 
354	 0.054283402595695 
355	 5.96153818467298E-02 
356	 5.79101966513512E-02 
357	 5.18563592578522E-02 
358	 5.93393239404705E-02 
359	 5.82481594729738E-02 
360	 5.23568299311014E-02 
361	 5.98739036800138E-02 
362	 5.83242809766571E-02 
363	 5.44753862831536E-02 
364	 5.35044628895035E-02 
365	 5.23544038509463E-02 
366	 5.21676538594478E-02 
367	 5.20963725710243E-02 
368	 0.051585672800313 
369	 5.33129625342785E-02 
370	 5.49977421409968E-02 
371	 5.57553044776216E-02 
372	 5.56883098662025E-02 
373	 5.29656718398027E-02 
374	 5.20243575401298E-02 
375	 5.36546900893587E-02 
376	 5.10900062365499E-02 
377	 4.93388551405062E-02 
378	 4.92872252456989E-02 
379	 5.05144127565412E-02 
380	 5.29624907359733E-02 
381	 5.21890241467589E-02 
382	 5.04621304607422E-02 
383	 5.43123816808003E-02 
384	 5.70935930119239E-02 
385	 5.69008390448847E-02 
386	 5.49232561464486E-02 
387	 5.69421247480471E-02 
388	 0.056761477898802 
389	 5.46520291912867E-02 
390	 5.30356559924649E-02 
391	 5.39002462086373E-02 
392	 5.43911834316068E-02 
393	 5.44747961543489E-02 
394	 5.63922074623141E-02 
395	 5.61857562363946E-02 
396	 5.54557271667764E-02 
397	 5.57106489113049E-02 
398	 5.63026402883875E-02 
399	 5.68390520474054E-02 
400	 5.78929247343916E-02 
401	 5.97557552626858E-02 
402	 5.91158011598877E-02 
403	 5.81059833341693E-02 
404	 5.81878785552501E-02 
405	 5.96610578559955E-02 
406	 5.92680802510492E-02 
407	 5.87135635671798E-02 
408	 5.92302839892904E-02 
409	 5.80365805623135E-02 
410	 5.79405135013531E-02 
411	 5.90216169644548E-02 
412	 0.060052306767707 
413	 6.08115379889308E-02 
414	 6.04824222213841E-02 
415	 5.96310078343996E-02 
416	 6.05791931967598E-02 
417	 6.03949462141998E-02 
418	 5.99759661275757E-02 
419	 6.05454661940692E-02 
420	 6.13595984722635E-02 
421	 6.05309479975025E-02 
422	 5.95028953570388E-02 
423	 6.12993633456745E-02 
424	 6.13362121375251E-02 
425	 6.05368739885315E-02 
426	 6.00863751579594E-02 
427	 6.03607985888064E-02 
428	 6.01573297848513E-02 
429	 5.98230211333852E-02 
430	 5.99894795412232E-02 
431	 5.99276716224635E-02 
432	 6.02468536129216E-02 
433	 6.08231622153119E-02 
434	 6.08295072816197E-02 
435	 6.10520538540656E-02 
436	 6.14528321270781E-02 
437	 6.18769523418183E-02 
438	 6.23053266481153E-02 
439	 6.27148996622172E-02 
440	 6.31299357905883E-02 
441	 6.36072971314306E-02 
442	 6.42959369714762E-02 
443	 6.48013207833103E-02 
444	 6.50322450299891E-02 
445	 6.54195703118812E-02 
446	 6.56563641165539E-02 
447	 6.59164293466442E-02 
448	 6.63766462749463E-02 
449	 6.66619606609568E-02 
450	 6.68764705030521E-02 
451	 6.71354772319708E-02 
452	 6.75288540260802E-02 
453	 6.77220765753829E-02 
454	 0.067826789720742 
455	 6.80418291629988E-02 
456	 6.86333248845651E-02 
457	 6.88863226953721E-02 
458	 6.89215852412988E-02 
459	 6.91822228692037E-02 
460	 6.93489559188162E-02 
461	 6.92948233601406E-02 
462	 6.92767770427112E-02 
463	 7.00723956045957E-02 
464	 7.03547260873752E-02 
465	 7.03639556284054E-02 
466	 7.05990348001978E-02 
467	 7.06962785887061E-02 
468	 7.06631697070238E-02 
469	 7.06169187334637E-02 
470	 7.07432385959151E-02 
471	 7.09404655200969E-02 
472	 7.12056508145666E-02 
473	 7.14836469515112E-02 
474	 7.15560807168956E-02 
475	 0.071579610978386 
476	 0.071621496453914 
477	 7.17055526978305E-02 
478	 7.18156918687167E-02 
479	 7.19803722384423E-02 
480	 7.21482179289002E-02 
481	 7.21529675584579E-02 
482	 7.22432624253882E-02 
483	 7.23217148384609E-02 
484	 7.22615996566271E-02 
485	 7.22038474628074E-02 
486	 0.072286919694188 
487	 7.24260247359253E-02 
488	 7.23695955705056E-02 
489	 7.22684911638387E-02 
490	 7.23592122262536E-02 
491	 7.26637378623718E-02 
492	 7.26736110071973E-02 
493	 7.25097020723063E-02 
494	 7.24017686009141E-02 
495	 7.25630844288568E-02 
496	 7.25671708595486E-02 
497	 7.24821557848956E-02 
498	 0.072444153711145 
499	 7.26187850651243E-02 
500	 7.27633490109803E-02 
501	 7.27774774127231E-02 
502	 7.26532369658075E-02 
503	 7.25580410209073E-02 
504	 7.24356899251312E-02 
505	 7.23194188100121E-02 
506	 7.23248480024071E-02 
507	 7.24308222910251E-02 
508	 7.25466650414688E-02 
509	 7.25952807046163E-02 
510	 7.25797407554193E-02 
511	 7.24461029345323E-02 
512	 7.22583029452122E-02 
513	 7.21351586243571E-02 
514	 7.20418425123329E-02 
515	 7.20487495517191E-02 
516	 7.21431319786118E-02 
517	 0.072163449740055 
518	 7.21138515641189E-02 
519	 7.20648519910398E-02 
520	 7.20860284127629E-02 
521	 7.20973800696539E-02 
522	 0.072073905865816 
523	 7.20395190130195E-02 
524	 7.20631347782729E-02 
525	 7.20636316421536E-02 
526	 0.072079595530824 
527	 7.21166264328353E-02 
528	 7.19777323543307E-02 
529	 7.18837584364425E-02 
530	 0.071913136538835 
531	 7.20305859744319E-02 
532	 7.20892745079607E-02 
533	 7.20811827138098E-02 
534	 7.20531283333491E-02 
535	 7.21221599795237E-02 
536	 7.21564357241049E-02 
537	 7.21509330790144E-02 
538	 7.21545704786398E-02 
539	 7.22233690182867E-02 
540	 0.072224337467749 
541	 7.21447374534541E-02 
542	 7.21457746741614E-02 
543	 7.22131005198897E-02 
544	 7.22948702049209E-02 
545	 7.23520765794667E-02 
546	 7.24664134360942E-02 
547	 7.25343480912586E-02 
548	 7.25600500270985E-02 
549	 7.26392396670635E-02 
550	 7.27475310826897E-02 
551	 7.27999037277975E-02 
552	 7.27832849123867E-02 
553	 7.29024657892779E-02 
554	 7.30143654936884E-02 
555	 7.30821812076353E-02 
556	 7.31377996806649E-02 
557	 7.33014020256522E-02 
558	 7.34870076065533E-02 
559	 7.36443294073786E-02 
560	 7.38296161387499E-02 
561	 7.40020273509033E-02 
562	 7.41464758796139E-02 
563	 7.42739457382283E-02 
564	 7.44792302310197E-02 
565	 7.46867219113591E-02 
566	 7.48928387830632E-02 
567	 7.51838632817117E-02 
568	 7.55264659220057E-02 
569	 7.58546314276673E-02 
570	 7.61239032146216E-02 
571	 7.63741342086331E-02 
572	 7.67168451207329E-02 
573	 7.71300330829986E-02 
574	 7.74992678984381E-02 
575	 7.78529249946786E-02 
576	 7.82514152657954E-02 
577	 7.87018325662653E-02 
578	 7.90707899660716E-02 
579	 0.079506268309198 
580	 8.00316463445153E-02 
581	 8.06178715768607E-02 
582	 8.12908143469927E-02 
583	 0.081888831114981 
584	 8.23788348333934E-02 
585	 8.29305285825673E-02 
586	 8.34716276315877E-02 
587	 8.39794609760964E-02 
588	 0.084479584658476 
589	 8.51563793311889E-02 
590	 8.58157208217696E-02 
591	 8.64172551344812E-02 
592	 8.70690669301798E-02 
593	 8.76481744909097E-02 
594	 8.82082167159107E-02 
595	 8.88135753623686E-02 
596	 0.089459660907693 
597	 9.01914263575247E-02 
598	 9.09488747059987E-02 
599	 9.16298029871704E-02 
600	 9.22961049628819E-02 
601	 9.29698039060104E-02 
602	 9.36361766638976E-02 
603	 9.42246234360739E-02 
604	 9.47933643013055E-02 
605	 9.53667066047288E-02 
606	 9.59575549255352E-02 
607	 9.65844599691518E-02 
608	 9.71783369248331E-02 
609	 9.77228431325931E-02 
610	 9.82676636851447E-02 
611	 0.098775214253675 
612	 9.92898988919215E-02 
613	 9.98316757946231E-02 
614	 0.10028485179774 
615	 0.100687645230437 
616	 0.101070970267244 
617	 0.101457449841551 
618	 0.101859719867089 
619	 0.102244491245599 
620	 0.102594753312272 
621	 0.102943920107444 
622	 0.103255740530551 
623	 0.103530683095202 
624	 0.103793304801513 
625	 0.104113322763925 
626	 0.10441230578098 
627	 0.10465419202089 
628	 0.104872540751959 
629	 0.105145330254506 
630	 0.105418378870369 
631	 0.105625876112425 
632	 0.105803503985491 
633	 0.106044929137874 
634	 0.106313536159718 
635	 0.106476438080797 
636	 0.106663353937177 
637	 0.106889033264799 
638	 0.107130469994366 
639	 0.107325124225514 
640	 0.107504202567881 
641	 0.107698538963471 
642	 0.107929787635013 
643	 0.108143744182557 
644	 0.108349738691575 
645	 0.108548414624015 
646	 0.108716706912358 
647	 0.108919206082144 
648	 0.109127194505448 
649	 0.109312232522889 
650	 0.109576277606417 
651	 0.109817266210937 
652	 0.1100260293852 
653	 0.110274213327352 
654	 0.110484102642145 
655	 0.110682817236129 
656	 0.110909864387759 
657	 0.111196553620674 
658	 0.111427484268119 
659	 0.11162413088654 
660	 0.111861401666685 
661	 0.112050887022693 
662	 0.11230359737233 
663	 0.112619408487381 
664	 0.112809993953953 
665	 0.113086128691239 
666	 0.113395147270103 
667	 0.113647456123305 
668	 0.113930656771402 
669	 0.11422826484936 
670	 0.114534545514458 
671	 0.114849761498489 
672	 0.115087470044758 
673	 0.11539105337016 
674	 0.115814866692341 
675	 0.116109233217294 
676	 0.116405187598782 
677	 0.116737717107579 
678	 0.117089901595988 
679	 0.11735355917135 
680	 0.117715394572292 
681	 0.118167675272659 
682	 0.118420031201294 
683	 0.11882984935712 
684	 0.119284638991505 
685	 0.119633051700842 
686	 0.120053376854858 
687	 0.120460057755245 
688	 0.120845575647983 
689	 0.121257372866291 
690	 0.121685515047199 
691	 0.122080057391482 
692	 0.122445884669722 
693	 0.122914451574012 
694	 0.123350427991924 
695	 0.123783788807219 
696	 0.124277381819449 
697	 0.124722846993904 
698	 0.125181557709381 
699	 0.125664682460864 
700	 0.12612169003054 
701	 0.126591641648028 
702	 0.127065903145283 
703	 0.127536786056624 
704	 0.128027144460937 
705	 0.128536762093596 
706	 0.129031357765139 
707	 0.129472651904481 
708	 0.129950214428576 
709	 0.130433439416123 
710	 0.13091651957627 
711	 0.131451530498815 
712	 0.131921887648198 
713	 0.13237664843592 
714	 0.132880096418854 
715	 0.133366028941237 
716	 0.133813469242035 
717	 0.13422975239963 
718	 0.134646819603456 
719	 0.13512159512653 
720	 0.135587566834414 
721	 0.135999892306832 
722	 0.136391988934598 
723	 0.136777536572812 
724	 0.13715204496459 
725	 0.137509882905384 
726	 0.137883099153425 
727	 0.138220332139001 
728	 0.138518367883099 
729	 0.138820648290219 
730	 0.139115327299245 
731	 0.139370972014537 
732	 0.139581633465425 
733	 0.139810071782608 
734	 0.140027779645942 
735	 0.140221163501554 
736	 0.14038318413483 
737	 0.140516936167463 
738	 0.140626384252052 
739	 0.140712374517059 
740	 0.140771887734846 
741	 0.140780904833843 
742	 0.140801529823041 
743	 0.140856646634649 
744	 0.140816119794057 
745	 0.140729148959844 
746	 0.14065199744132 
747	 0.140618647207712 
748	 0.140476330796212 
749	 0.140314252775606 
750	 0.140178900286365 
751	 0.140037186218182 
752	 0.139803739789679 
753	 0.139538723909666 
754	 0.139303540380893 
755	 0.139052933049181 
756	 0.138812831870906 
757	 0.13855132539035 
758	 0.138225594846834 
759	 0.137940552205463 
760	 0.137635365608064 
761	 0.137283459487834 
762	 0.136920955844681 
763	 0.136596799029124 
764	 0.136260139084681 
765	 0.135869665665698 
766	 0.135484461102378 
767	 0.135092075527329 
768	 0.134706011753941 
769	 0.134339498630434 
770	 0.133913791365906 
771	 0.133510617915542 
772	 0.133132303433606 
773	 0.132673695979117 
774	 0.132246380255638 
775	 0.131845344907687 
776	 0.131441971005517 
777	 0.131020739816015 
778	 0.13057496362254 
779	 0.130139360344009 
780	 0.129748676854707 
781	 0.129307396589892 
782	 0.128876468356838 
783	 0.128477758378143 
784	 0.128080289077454 
785	 0.127676415034172 
786	 0.127281316122109 
787	 0.126901736471256 
788	 0.126510570246786 
789	 0.126140409839061 
790	 0.125759737046821 
791	 0.125335228421208 
792	 0.124949908452216 
793	 0.124583622988377 
794	 0.124225101257387 
795	 0.123873399161375 
796	 0.123490690518167 
797	 0.123147737679847 
798	 0.122861935059115 
799	 0.122524829391664 
800	 0.122185958081523 
801	 0.12184983263945 
802	 0.121516158977538 
803	 0.12121495893586 
804	 0.120912238945228 
805	 0.120611383304011 
806	 0.120336268146541 
807	 0.120063844077067 
808	 0.119755839218569 
809	 0.119428980235959 
810	 0.119168430038281 
811	 0.118932642073402 
812	 0.118685205265888 
813	 0.118417850275764 
814	 0.118193743329337 
815	 0.118000406849608 
816	 0.117773929949147 
817	 0.117468283389039 
818	 0.117242966786888 
819	 0.11708296732212 
820	 0.116921270771536 
821	 0.116674354250474 
822	 0.11650580535836 
823	 0.116325424122759 
824	 0.116102429110111 
825	 0.115964597901207 
826	 0.115818859143224 
827	 0.115656351924388 
828	 0.115497093435594 
829	 0.115381147695647 
830	 0.115227224674949 
831	 0.115049322411857 
832	 0.114905546049018 
833	 0.114797647837789 
834	 0.114717262609287 
835	 0.1146337804139 
836	 0.114506966119042 
837	 0.114427635691555 
838	 0.11435977268994 
839	 0.114274786653799 
840	 0.114194696433648 
841	 0.114057002187304 
842	 0.113938705873173 
843	 0.113906929084296 
844	 0.113873545760131 
845	 0.113872825312834 
846	 0.113844188775997 
847	 0.113732409353672 
848	 0.113763780921752 
849	 0.113746460626776 
850	 0.1136763945255 
851	 0.11371007533178 
852	 0.113682505721669 
853	 0.113647817263855 
854	 0.113642951982085 
855	 0.113635451742347 
856	 0.11366127395602 
857	 0.113705588043728 
858	 0.113740292432161 
859	 0.113727325942034 
860	 0.113793222059309 
861	 0.113881813760985 
862	 0.113901653052902 
863	 0.113921001013131 
864	 0.113982917481927 
865	 0.114067855068514 
866	 0.11412020428169 
867	 0.114128763048147 
868	 0.114200342149 
869	 0.114325881967371 
870	 0.114380882601585 
871	 0.114479291998133 
872	 0.114607731508595 
873	 0.114742701092794 
874	 0.114879324793031 
875	 0.114952383348295 
876	 0.115011739973748 
877	 0.115119281427742 
878	 0.115287458298753 
879	 0.115478667697379 
880	 0.115639637050307 
881	 0.115746020404512 
882	 0.115900880665864 
883	 0.116069348488639 
884	 0.11620792572802 
885	 0.116300856589978 
886	 0.116506070546509 
887	 0.116760707692147 
888	 0.116968770709749 
889	 0.117057455938238 
890	 0.117286647522362 
891	 0.117513929342208 
892	 0.117676511833228 
893	 0.117876938008032 
894	 0.118130361562709 
895	 0.118392331721853 
896	 0.118628259451711 
897	 0.118847128572271 
898	 0.119106360221358 
899	 0.119365559108572 
900	 0.119593403030105 
901	 0.119855062156498 
902	 0.120130336370675 
903	 0.120406638166389 
904	 0.1206814089409 
905	 0.120982472238648 
906	 0.121311180965309 
907	 0.121646125777501 
908	 0.121954723132579 
909	 0.122199901818776 
910	 0.122533634062033 
911	 0.122912216438368 
912	 0.123192329168522 
913	 0.123542590032146 
914	 0.1239551674347 
915	 0.124361584734984 
916	 0.124680424385312 
917	 0.125087991182952 
918	 0.125460821166022 
919	 0.125773084999783 
920	 0.126148206752015 
921	 0.12657831057905 
922	 0.12703201924945 
923	 0.127483066491445 
924	 0.127923914186719 
925	 0.128258853023113 
926	 0.128675723714486 
927	 0.129238347275158 
928	 0.129679808502676 
929	 0.130135746113045 
930	 0.130628264894015 
931	 0.131141433729874 
932	 0.131640037891855 
933	 0.13212043073598 
934	 0.13262360909757 
935	 0.133178020206371 
936	 0.133741215422785 
937	 0.134262747187423 
938	 0.134778020492412 
939	 0.135335522112244 
940	 0.13590911944032 
941	 0.136513305159445 
942	 0.137152335145976 
943	 0.137801758916892 
944	 0.138340140058827 
945	 0.13895773546941 
946	 0.139623198501338 
947	 0.140227705057614 
948	 0.140837250969789 
949	 0.141434073890936 
950	 0.142062232866696 
951	 0.142775068883041 
952	 0.143525293534747 
953	 0.14415745006763 
954	 0.144735659978795 
955	 0.14544488635988 
956	 0.146374522220062 
957	 0.147126962347984 
958	 0.147743738218986 
959	 0.148502901124954 
960	 0.149227681977894 
961	 0.150004059905069 
962	 0.150838764166371 
963	 0.151657145111162 
964	 0.152297782371947 
965	 0.153108127077084 
966	 0.154052153767628 
967	 0.154863619259487 
968	 0.155717071425191 
969	 0.156649392144267 
970	 0.157567992632182 
971	 0.158352241924109 
972	 0.159230174039989 
973	 0.160175889483989 
974	 0.161120518630419 
975	 0.162012656015174 
976	 0.163004771110605 
977	 0.16399156423929 
978	 0.164939499494254 
979	 0.165897149620676 
980	 0.167014050886791 
981	 0.168060797315376 
982	 0.168994091707507 
983	 0.169911675380743 
984	 0.170858127415501 
985	 0.171842374817598 
986	 0.172891071692873 
987	 0.174014887503679 
988	 0.175137776073696 
989	 0.176067863859076 
990	 0.17696914526322 
991	 0.178093193217988 
992	 0.179174136286259 
993	 0.180258170519598 
994	 0.181432755505607 
995	 0.182672889680479 
996	 0.183464238199294 
997	 0.184553382440174 
998	 0.18575832542574 
999	 0.186713358194557 
1000	 0.187869061635762 
1001	 0.195015095747367 
1002	 0.19607400813989 
1003	 0.197188518751401 
1004	 0.198349711550971 
1005	 0.199652027801818 
1006	 0.200799977904973 
1007	 0.20191330858866 
1008	 0.202996270474662 
1009	 0.20406747479434 
1010	 0.20514233182148 
1011	 0.20622234049216 
1012	 0.2073335665074 
1013	 0.20845983748986 
1014	 0.209558091272852 
1015	 0.210668079525659 
1016	 0.211800001459322 
1017	 0.212910191851598 
1018	 0.213978182335482 
1019	 0.215062574685348 
1020	 0.216174791601671 
1021	 0.21725036518361 
1022	 0.218265703552908 
1023	 0.219212795833582 
1024	 0.220196358162302 
1025	 0.221227156335945 
1026	 0.222287404735638 
1027	 0.223373481873958 
1028	 0.224431577882828 
1029	 0.225454789873287 
1030	 0.226388672156784 
1031	 0.227340364089825 
1032	 0.228282348696251 
1033	 0.229235772612185 
1034	 0.230139273276677 
1035	 0.231106001440011 
1036	 0.23208015889227 
1037	 0.233014123336108 
1038	 0.233976470145293 
1039	 0.234976463775456 
1040	 0.235941293401495 
1041	 0.236878811466263 
1042	 0.237824843890099 
1043	 0.238747885128568 
1044	 0.239684235243532 
1045	 0.240626193397062 
1046	 0.241575680386097 
1047	 0.242563234585521 
1048	 0.243523285396241 
1049	 0.244388846157449 
1050	 0.245317805148022 
1051	 0.2462853438564 
1052	 0.24720564906355 
1053	 0.248164222274558 
1054	 0.24917583955157 
1055	 0.250136290740588 
1056	 0.251097799789748 
1057	 0.252086051632927 
1058	 0.253124993619521 
1059	 0.254124835077722 
1060	 0.255106697013391 
1061	 0.256108411639165 
1062	 0.257087547018459 
1063	 0.258092107111571 
1064	 0.259110844528946 
1065	 0.260105261232901 
1066	 0.261068376840972 
1067	 0.262046731556818 
1068	 0.263079025939995 
1069	 0.264113150733353 
1070	 0.26514883426971 
1071	 0.266242629802088 
1072	 0.267308422315616 
1073	 0.268335360547085 
1074	 0.269364182744605 
1075	 0.270399919823132 
1076	 0.271420903123634 
1077	 0.272448476845467 
1078	 0.273455190367205 
1079	 0.27444154233493 
1080	 0.275435068821019 
1081	 0.2764106386891 
1082	 0.27744439085578 
1083	 0.278480879684426 
1084	 0.279551202859384 
1085	 0.280607557643495 
1086	 0.281669676501307 
1087	 0.282701457451145 
1088	 0.283709803043752 
1089	 0.284761635604721 
1090	 0.285775196999209 
1091	 0.28678850819114 
1092	 0.287833718209286 
1093	 0.288861829079387 
1094	 0.289885708758465 
1095	 0.290869426155291 
1096	 0.291844288305689 
1097	 0.292842212701631 
1098	 0.293830214022257 
1099	 0.294813669293483 
1100	 0.29581768172343 
1101	 0.296827473276336 
1102	 0.297827830213892 
1103	 0.298842568193134 
1104	 0.299844832388335 
1105	 0.300830221226121 
1106	 0.301844076689657 
1107	 0.302853317291646 
1108	 0.303863074556296 
1109	 0.304884969380138 
1110	 0.305880417298591 
1111	 0.306860815157824 
1112	 0.307822680431613 
1113	 0.308797257408241 
1114	 0.309739068873105 
1115	 0.310727891972552 
1116	 0.311773240461499 
1117	 0.31276609563 
1118	 0.313739037910243 
1119	 0.314730464839784 
1120	 0.315726037354442 
1121	 0.316716890698969 
1122	 0.317696324226776 
1123	 0.318661275037447 
1124	 0.319652627982958 
1125	 0.32062360989624 
1126	 0.321600547167428 
1127	 0.322613890817397 
1128	 0.323612344762239 
1129	 0.324585241330496 
1130	 0.325565496538487 
1131	 0.326575176634268 
1132	 0.32755101640697 
1133	 0.328491813249448 
1134	 0.329444966605979 
1135	 0.330391995915234 
1136	 0.331347540528978 
1137	 0.332303883146535 
1138	 0.333224415248598 
1139	 0.334135843251752 
1140	 0.335036033518292 
1141	 0.335915469593165 
1142	 0.336792812571864 
1143	 0.337626574675333 
1144	 0.338415323772692 
1145	 0.339213323688087 
1146	 0.339979908907537 
1147	 0.340755243731386 
1148	 0.341547739222485 
1149	 0.342318898587149 
1150	 0.343051659499785 
1151	 0.343827483166194 
1152	 0.344584287852158 
1153	 0.345340389043256 
1154	 0.346136441827819 
1155	 0.346934967201771 
1156	 0.347791380800834 
1157	 0.348695190838726 
1158	 0.349602591811482 
1159	 0.350552568332525 
1160	 0.351505447615218 
1161	 0.352462425308178 
1162	 0.353436159209811 
1163	 0.354463058581061 
1164	 0.355441197313679 
1165	 0.356391616951743 
1166	 0.357376670797184 
1167	 0.358309958699197 
1168	 0.359225522298559 
1169	 0.360137849230378 
1170	 0.361040691189993 
1171	 0.361936611400743 
1172	 0.36282924223882 
1173	 0.363701491020289 
1174	 0.364557172327531 
1175	 0.365417122106844 
1176	 0.366271262014289 
1177	 0.367113873476977 
1178	 0.36796333136921 
1179	 0.368792227484946 
1180	 0.369599260188787 
1181	 0.370400737292807 
1182	 0.371198787692294 
1183	 0.371982017576827 
1184	 0.372751690552772 
1185	 0.373509808693808 
1186	 0.374259555538461 
1187	 0.374999594007387 
1188	 0.375724674180858 
1189	 0.376439991716344 
1190	 0.377141426748968 
1191	 0.377825608167981 
1192	 0.378506205206174 
1193	 0.379183486502758 
1194	 0.379844769337331 
1195	 0.380508556681385 
1196	 0.381137075035009 
1197	 0.381719845403763 
1198	 0.382322297524348 
1199	 0.382920817683383 
1200	 0.383494215769389 
1201	 0.384100565657493 
1202	 0.38474220055009 
1203	 0.385340669526814 
1204	 0.385942370587114 
1205	 0.386510204226924 
1206	 0.387038288815753 
1207	 0.387583373720439 
1208	 0.388130935626841 
1209	 0.388652738745477 
1210	 0.389172884923172 
1211	 0.389673241210167 
1212	 0.390124714600813 
1213	 0.390603058202957 
1214	 0.391103457659987 
1215	 0.391578656196739 
1216	 0.392046241874329 
1217	 0.392527733918377 
1218	 0.392961075840388 
1219	 0.39335004097337 
1220	 0.39376448265399 
1221	 0.394168978620882 
1222	 0.394572326925004 
1223	 0.394977346837278 
1224	 0.395386792741588 
1225	 0.395808412453771 
1226	 0.396197147147288 
1227	 0.396598302291579 
1228	 0.396958557633788 
1229	 0.397243732374345 
1230	 0.397570822196506 
1231	 0.397907810690065 
1232	 0.398235644694428 
1233	 0.398566847283444 
1234	 0.398922735751894 
1235	 0.399249652711413 
1236	 0.399555616521848 
1237	 0.399867944754095 
1238	 0.40019316041427 
1239	 0.400479963550433 
1240	 0.400744299199524 
1241	 0.401008542589492 
1242	 0.4012408383178 
1243	 0.40149298524614 
1244	 0.401761511274563 
1245	 0.402014279765649 
1246	 0.402254199250341 
1247	 0.40250438266499 
1248	 0.40275957626565 
1249	 0.403012063683154 
1250	 0.403239661958142 
1251	 0.403458482725708 
1252	 0.403660844055382 
1253	 0.403827612020071 
1254	 0.404005165985215 
1255	 0.404183691671967 
1256	 0.404355502954987 
1257	 0.40452663948006 
1258	 0.404672136443225 
1259	 0.404792577133921 
1260	 0.404933016531808 
1261	 0.40505924013536 
1262	 0.405193332504104 
1263	 0.405357181185312 
1264	 0.405500503134276 
1265	 0.405626641586972 
1266	 0.405752591331861 
1267	 0.405870565976573 
1268	 0.405990900172005 
1269	 0.40611678328359 
1270	 0.406239601262904 
1271	 0.406373329832282 
1272	 0.406519969970827 
1273	 0.406656995940348 
1274	 0.406798091524538 
1275	 0.406929907420549 
1276	 0.407052043795651 
1277	 0.407179179785964 
1278	 0.407300039785072 
1279	 0.407430267805219 
1280	 0.407567897196116 
1281	 0.407703284777333 
1282	 0.407853654212373 
1283	 0.407983070540489 
1284	 0.408101359714564 
1285	 0.408217947233388 
1286	 0.408315241615347 
1287	 0.40840624411527 
1288	 0.408499176041845 
1289	 0.408580553259657 
1290	 0.408684371628657 
1291	 0.408794237374209 
1292	 0.408906116787627 
1293	 0.409043703613841 
1294	 0.409148373997788 
1295	 0.409247758630178 
1296	 0.40932873909708 
1297	 0.409392024066377 
1298	 0.40944482396792 
1299	 0.409477998908154 
1300	 0.409509481698699 
1301	 0.409532518468042 
1302	 0.409544114248649 
1303	 0.409546191663005 
1304	 0.409546152631752 
1305	 0.409536237403583 
1306	 0.409507372718751 
1307	 0.409469295811595 
1308	 0.40943660066523 
1309	 0.409392307649908 
1310	 0.409355569860632 
1311	 0.40926034632059 
1312	 0.409135202251648 
1313	 0.409014639596894 
1314	 0.408848979683763 
1315	 0.408705514846973 
1316	 0.408603961341429 
1317	 0.408432239943231 
1318	 0.408222209497501 
1319	 0.40801159334545 
1320	 0.407769533025267 
1321	 0.407524499209262 
1322	 0.407293211402683 
1323	 0.407017521090685 
1324	 0.406712496328585 
1325	 0.40640414988106 
1326	 0.406081862962598 
1327	 0.405746573450023 
1328	 0.40541095884513 
1329	 0.405059537853856 
1330	 0.404679378678482 
1331	 0.404274139059457 
1332	 0.403866178319994 
1333	 0.403432987832113 
1334	 0.40300404081952 
1335	 0.402555289858698 
1336	 0.402134855006642 
1337	 0.401735586260042 
1338	 0.401316043402096 
1339	 0.400909855801309 
1340	 0.400486270350844 
1341	 0.400010960809106 
1342	 0.399586107072152 
1343	 0.399189402549944 
1344	 0.398796377959908 
1345	 0.398383138185975 
1346	 0.397974782798037 
1347	 0.397545710638767 
1348	 0.397125604809577 
1349	 0.396728184694691 
1350	 0.396332418701596 
1351	 0.395950554149762 
1352	 0.39557424274796 
1353	 0.395196050018839 
1354	 0.394836303179135 
1355	 0.394464503392081 
1356	 0.394072585293208 
1357	 0.393700606000537 
1358	 0.393350222249438 
1359	 0.392975748999383 
1360	 0.392594553374736 
1361	 0.392217006943262 
1362	 0.391814155434267 
1363	 0.391438432502292 
1364	 0.39109321635165 
1365	 0.390734306344855 
1366	 0.390385232602917 
1367	 0.39002237766408 
1368	 0.389664339596928 
1369	 0.389285044632048 
1370	 0.38887947032973 
1371	 0.388465596909009 
1372	 0.388023876170399 
1373	 0.387543907529254 
1374	 0.387038555221597 
1375	 0.386518493900906 
1376	 0.385951442610664 
1377	 0.385353038493001 
1378	 0.384696686117808 
1379	 0.383997967350896 
1380	 0.383256353585602 
1381	 0.382460284629145 
1382	 0.381626791062167 
1383	 0.380775989382504 
1384	 0.379849089617866 
1385	 0.378877956244026 
1386	 0.377844875273517 
1387	 0.376757320476229 
1388	 0.37560477146729 
1389	 0.374404752163678 
1390	 0.373121373003587 
1391	 0.371768050135392 
1392	 0.37033587387804 
1393	 0.368805818696571 
1394	 0.367232478821754 
1395	 0.365581807403863 
1396	 0.363869561349215 
1397	 0.362132755534062 
1398	 0.360342616247284 
1399	 0.358527243740183 
1400	 0.356655824938452 
1401	 0.354816671779853 
1402	 0.352931824745579 
1403	 0.351122447483488 
1404	 0.349314635361093 
1405	 0.347601350735543 
1406	 0.34592832235858 
1407	 0.344334832007667 
1408	 0.342774757281305 
1409	 0.341361410651163 
1410	 0.340050772567674 
1411	 0.338825533840124 
1412	 0.337713018951359 
1413	 0.336705942668534 
1414	 0.335751826579545 
1415	 0.334840836775986 
1416	 0.334025392065831 
1417	 0.333258531888401 
1418	 0.332506590217994 
1419	 0.331802806438291 
1420	 0.331107374484741 
1421	 0.33043043370577 
1422	 0.329799031045128 
1423	 0.329181430362104 
1424	 0.328579475871516 
1425	 0.3279951533051 
1426	 0.32744462608715 
1427	 0.326911970882611 
1428	 0.326405127835275 
1429	 0.325933615843604 
1430	 0.325480436857011 
1431	 0.32504370235179 
1432	 0.32462557872108 
1433	 0.324231384643493 
1434	 0.323858665902061 
1435	 0.323501923765268 
1436	 0.323170789929743 
1437	 0.322874180105743 
1438	 0.322583630677681 
1439	 0.322312606779788 
1440	 0.322044440203172 
1441	 0.3217869202009 
1442	 0.321533551635816 
1443	 0.321289352592078 
1444	 0.321056601834836 
1445	 0.320822300113401 
1446	 0.320601369562174 
1447	 0.320391170926453 
1448	 0.3201662980367 
1449	 0.319941964646734 
1450	 0.319727233660483 
1451	 0.319532257364172 
1452	 0.319343969894835 
1453	 0.319169029099085 
1454	 0.319023588229622 
1455	 0.318861344707325 
1456	 0.318687321544299 
1457	 0.31853580712992 
1458	 0.318402242040125 
1459	 0.318257298602216 
1460	 0.318116442845591 
1461	 0.317974647061507 
1462	 0.317820689747977 
1463	 0.317681788761673 
1464	 0.317551384445405 
1465	 0.317427344627067 
1466	 0.317301764637122 
1467	 0.317194599443522 
1468	 0.317084821717686 
1469	 0.317015977789454 
1470	 0.316982282264637 
1471	 0.316951275088978 
1472	 0.316943256011028 
1473	 0.316965624954337 
1474	 0.31698644228111 
1475	 0.317035431224658 
1476	 0.3171050715486 
1477	 0.317179701123783 
1478	 0.317271601969383 
1479	 0.317373620102147 
1480	 0.31749319135086 
1481	 0.317627014047287 
1482	 0.317770806834833 
1483	 0.317928797399849 
1484	 0.318091409690782 
1485	 0.318266887668847 
1486	 0.318448124500854 
1487	 0.318635875348661 
1488	 0.31882825964328 
1489	 0.319033812736128 
1490	 0.319229421566588 
1491	 0.319429190216309 
1492	 0.319624057689413 
1493	 0.319807936422199 
1494	 0.31999966980639 
1495	 0.32020406142818 
1496	 0.320391746617539 
1497	 0.32057568173317 
1498	 0.320754813700018 
1499	 0.320919133150377 
1500	 0.321078658354028 
1501	 0.321232837043536 
1502	 0.321392821270575 
1503	 0.321552466890284 
1504	 0.321703964092901 
1505	 0.321871353947942 
1506	 0.322027769352963 
1507	 0.322157918865604 
1508	 0.322289635555053 
1509	 0.322409953945055 
1510	 0.322537813413751 
1511	 0.322671228927701 
1512	 0.322796754180702 
1513	 0.322922954766011 
1514	 0.323039706098006 
1515	 0.323142661611563 
1516	 0.323259130490751 
1517	 0.323380975037002 
1518	 0.323509376134425 
1519	 0.323620936739628 
1520	 0.323744952394562 
1521	 0.323838861730169 
1522	 0.323906502590445 
1523	 0.323970096299637 
1524	 0.32401456747856 
1525	 0.324074084643182 
1526	 0.324118720843652 
1527	 0.324190777139932 
1528	 0.324295873926462 
1529	 0.324369390951146 
1530	 0.32445525935434 
1531	 0.324508167130978 
1532	 0.324510661677949 
1533	 0.324549177374971 
1534	 0.324590571809994 
1535	 0.324631314684998 
1536	 0.324686705682535 
1537	 0.324745322001448 
1538	 0.324798734367741 
1539	 0.324852789959739 
1540	 0.324919968440996 
1541	 0.324980282948906 
1542	 0.325038635880945 
1543	 0.325086204849013 
1544	 0.325137597495302 
1545	 0.325174154524751 
1546	 0.325198593630551 
1547	 0.325207259197272 
1548	 0.325203373234862 
1549	 0.32519439188592 
1550	 0.325169205976887 
1551	 0.325164590682657 
1552	 0.325164455237174 
1553	 0.325159727414965 
1554	 0.325192581673549 
1555	 0.325192271621351 
1556	 0.325185701144657 
1557	 0.325206063031145 
1558	 0.325175801346255 
1559	 0.325151763315396 
1560	 0.325146868345881 
1561	 0.325150757039385 
1562	 0.325142333450811 
1563	 0.325146228541222 
1564	 0.325144250056533 
1565	 0.325134925286076 
1566	 0.325119394575749 
1567	 0.325105606053089 
1568	 0.325085780893027 
1569	 0.325048562391184 
1570	 0.325021148243661 
1571	 0.325003160433348 
1572	 0.324978179605479 
1573	 0.324941102945709 
1574	 0.324920806280454 
1575	 0.324918121193953 
1576	 0.324890614659857 
1577	 0.324859763779877 
1578	 0.32482523008643 
1579	 0.324768678094188 
1580	 0.32472823524959 
1581	 0.32469180806835 
1582	 0.324666445351901 
1583	 0.324651304039785 
1584	 0.324630160906835 
1585	 0.324627539433961 
1586	 0.324600888611869 
1587	 0.324557349162791 
1588	 0.324513946284509 
1589	 0.324455696382658 
1590	 0.324405278415869 
1591	 0.324370651048691 
1592	 0.324308819478719 
1593	 0.324224961189923 
1594	 0.324153356749395 
1595	 0.324066477881923 
1596	 0.323988266173185 
1597	 0.323922681677662 
1598	 0.323860445161431 
1599	 0.323799929544261 
1600	 0.323737326331596 
1601	 0.323680348153458 
1602	 0.323626295630842 
1603	 0.323559517436709 
1604	 0.323509678743951 
1605	 0.323485799333407 
1606	 0.323445101776358 
1607	 0.323393287580609 
1608	 0.323365396065604 
1609	 0.323324733942023 
1610	 0.323267003986486 
1611	 0.323197953863069 
1612	 0.323130919539143 
1613	 0.323025499701305 
1614	 0.322912795506727 
1615	 0.322844775169504 
1616	 0.322756467349966 
1617	 0.322684092659955 
1618	 0.322640055374802 
1619	 0.32255816214339 
1620	 0.32246657383487 
1621	 0.322368494190969 
1622	 0.32225616421251 
1623	 0.322152061808702 
1624	 0.322040011930633 
1625	 0.321945331719234 
1626	 0.321858908942835 
1627	 0.3217743341697 
1628	 0.321699712727091 
1629	 0.321617627733762 
1630	 0.321532080336126 
1631	 0.321457455767073 
1632	 0.321384744232698 
1633	 0.321318106058527 
1634	 0.321266748104158 
1635	 0.321195563547776 
1636	 0.321128750402806 
1637	 0.321031065553723 
1638	 0.320905174830523 
1639	 0.32079825840819 
1640	 0.320671208333842 
1641	 0.320574771053176 
1642	 0.320505416756426 
1643	 0.320418725594385 
1644	 0.320338171087976 
1645	 0.320246646912228 
1646	 0.320147017779904 
1647	 0.320046872386339 
1648	 0.319942955972019 
1649	 0.319837306070731 
1650	 0.319728146029574 
1651	 0.319617010812092 
1652	 0.319503268716329 
1653	 0.31938915243962 
1654	 0.319274589049991 
1655	 0.319154542741814 
1656	 0.319038927261171 
1657	 0.318903171900204 
1658	 0.318752074234773 
1659	 0.318603065315758 
1660	 0.318447958709973 
1661	 0.318279865555333 
1662	 0.318093349785817 
1663	 0.31793273456796 
1664	 0.317755923784871 
1665	 0.317619243465573 
1666	 0.317525463852186 
1667	 0.317417744610206 
1668	 0.317328837615424 
1669	 0.317221460056664 
1670	 0.31712338312963 
1671	 0.316987563366769 
1672	 0.316824393637413 
1673	 0.316663554498133 
1674	 0.316461797050824 
1675	 0.316305583126623 
1676	 0.316182669391784 
1677	 0.316031680981649 
1678	 0.315873373634768 
1679	 0.315739944264213 
1680	 0.315596959077748 
1681	 0.315474971534229 
1682	 0.315398838044554 
1683	 0.315291457572861 
1684	 0.315177492810769 
1685	 0.315050550297856 
1686	 0.314918611868028 
1687	 0.314770333828254 
1688	 0.314593734819044 
1689	 0.314435944609919 
1690	 0.314271515073785 
1691	 0.314120117987863 
1692	 0.313979959430014 
1693	 0.313843230136738 
1694	 0.313723350962765 
1695	 0.3135811077765 
1696	 0.313434840756268 
1697	 0.313284255565075 
1698	 0.31311132054335 
1699	 0.312957837204176 
1700	 0.312821600001783 
1701	 0.312667963464764 
1702	 0.312506137191792 
1703	 0.312350483577254 
1704	 0.31218337154313 
1705	 0.312032260608783 
1706	 0.311910277429487 
1707	 0.311753676516594 
1708	 0.311575928182948 
1709	 0.311420205415151 
1710	 0.31124626497446 
1711	 0.311103521618077 
1712	 0.311010441196323 
1713	 0.310866065119399 
1714	 0.310706492593035 
1715	 0.310544929593131 
1716	 0.310347761282556 
1717	 0.310189221946817 
1718	 0.310056108436967 
1719	 0.309907204438165 
1720	 0.30975932542498 
1721	 0.309616828835441 
1722	 0.309466300429823 
1723	 0.309334301162122 
1724	 0.309229467274361 
1725	 0.30909682733601 
1726	 0.308962967664147 
1727	 0.308805839524952 
1728	 0.308627059958081 
1729	 0.308455683877833 
1730	 0.308276413294646 
1731	 0.30809323236972 
1732	 0.307907615318868 
1733	 0.307716472358931 
1734	 0.307507678458888 
1735	 0.307323171244835 
1736	 0.307147795334324 
1737	 0.306976031122619 
1738	 0.306809641436861 
1739	 0.306661872020347 
1740	 0.306519382742276 
1741	 0.306394200978545 
1742	 0.306311177121378 
1743	 0.306173067606147 
1744	 0.306027161018773 
1745	 0.305856626682446 
1746	 0.305637787948872 
1747	 0.305451707122124 
1748	 0.305272822450684 
1749	 0.305122769496957 
1750	 0.304999103055219 
1751	 0.304885467020114 
1752	 0.304783410877661 
1753	 0.304669813544475 
1754	 0.304540010361183 
1755	 0.304404588178098 
1756	 0.30425985382335 
1757	 0.304105773648146 
1758	 0.303943871607387 
1759	 0.303776877710487 
1760	 0.303636708522959 
1761	 0.303504631091072 
1762	 0.303376507747965 
1763	 0.303270887607031 
1764	 0.303121504708147 
1765	 0.302952393489894 
1766	 0.302781410042703 
1767	 0.302570150289656 
1768	 0.302377206059435 
1769	 0.302205460441453 
1770	 0.302053649964778 
1771	 0.301958925904232 
1772	 0.301877693256718 
1773	 0.301794212013598 
1774	 0.301708705137677 
1775	 0.301599195031971 
1776	 0.301473206413419 
1777	 0.301331996376583 
1778	 0.301197620056276 
1779	 0.301077012744343 
1780	 0.300938189876369 
1781	 0.300819499782838 
1782	 0.300727596348973 
1783	 0.300617694430542 
1784	 0.300502384103297 
1785	 0.3003831218135 
1786	 0.300267146285293 
1787	 0.300143123342341 
1788	 0.300031164401939 
1789	 0.29992114269649 
1790	 0.29982625040367 
1791	 0.299750978175878 
1792	 0.299671406657327 
1793	 0.2995974652522 
1794	 0.299541043716892 
1795	 0.299484089006059 
1796	 0.29941503373447 
1797	 0.299369075702345 
1798	 0.299300602492083 
1799	 0.299196796314745 
1800	 0.29914799066555 
1801	 0.303575570301232 
1802	 0.303543645989128 
1803	 0.303510895069597 
1804	 0.303491025228649 
1805	 0.303478720591032 
1806	 0.303496243299016 
1807	 0.303508974172 
1808	 0.303500784332249 
1809	 0.303484503359802 
1810	 0.303457354846425 
1811	 0.303402996376508 
1812	 0.303373362739937 
1813	 0.303342514859402 
1814	 0.303256603033931 
1815	 0.30319198166699 
1816	 0.303129962861577 
1817	 0.303074374284273 
1818	 0.303039056709011 
1819	 0.302986582158869 
1820	 0.302935762977297 
1821	 0.302864155446815 
1822	 0.302796097404709 
1823	 0.302716116823274 
1824	 0.302633101522178 
1825	 0.302550838103613 
1826	 0.302491433403957 
1827	 0.302426182578765 
1828	 0.302339373689672 
1829	 0.302262199674345 
1830	 0.302164664466657 
1831	 0.302024998051498 
1832	 0.301904772703668 
1833	 0.301817439948881 
1834	 0.301712317710585 
1835	 0.301651545368614 
1836	 0.30155802544244 
1837	 0.301455603533716 
1838	 0.301392438050319 
1839	 0.301299748954762 
1840	 0.301187267747854 
1841	 0.30109246706867 
1842	 0.301002543695343 
1843	 0.300881113030147 
1844	 0.300753085211966 
1845	 0.300602409272138 
1846	 0.300436734163888 
1847	 0.300284621005774 
1848	 0.30015062752433 
1849	 0.300016224379888 
1850	 0.29986697139927 
1851	 0.299719728096863 
1852	 0.299551913610821 
1853	 0.299343709736966 
1854	 0.299115376907908 
1855	 0.298886154527825 
1856	 0.298617290631981 
1857	 0.298322955536821 
1858	 0.298022970210749 
1859	 0.297677761174038 
1860	 0.29730235705529 
1861	 0.296884919649534 
1862	 0.296467521224189 
1863	 0.296018980080975 
1864	 0.29554959676123 
1865	 0.29507139934621 
1866	 0.294521063553293 
1867	 0.293934245755152 
1868	 0.293304836122633 
1869	 0.292610233095704 
1870	 0.291887272286369 
1871	 0.29113759956756 
1872	 0.2903569448602 
1873	 0.289557553841396 
1874	 0.288707257117873 
1875	 0.287801341977829 
1876	 0.28684707577969 
1877	 0.285805277158575 
1878	 0.284698986301433 
1879	 0.283539526677923 
1880	 0.282274866044468 
1881	 0.280925526872093 
1882	 0.279480955060207 
1883	 0.277956232559791 
1884	 0.276287468431518 
1885	 0.274552580633554 
1886	 0.272726445797667 
1887	 0.270771431210346 
1888	 0.268782088592617 
1889	 0.266702465401006 
1890	 0.264533602698633 
1891	 0.262338246922914 
1892	 0.260066788350971 
1893	 0.257773087908841 
1894	 0.255436343734822 
1895	 0.253086134285227 
1896	 0.25065065887522 
1897	 0.248215979759172 
1898	 0.245759357002354 
1899	 0.243295775268524 
1900	 0.240929405681576 
1901	 0.238600074621598 
1902	 0.236368918269029 
1903	 0.234229496041793 
1904	 0.23216450514124 
1905	 0.230143279902427 
1906	 0.228281659783644 
1907	 0.226513019511974 
1908	 0.224837319447966 
1909	 0.223326951756388 
1910	 0.221883677877584 
1911	 0.220527191646499 
1912	 0.219271091041428 
1913	 0.218066399039241 
1914	 0.216919609358735 
1915	 0.21585490696872 
1916	 0.214857888111142 
1917	 0.213949364489368 
1918	 0.21311112460958 
1919	 0.212300884792434 
1920	 0.211585646408773 
1921	 0.210908725077388 
1922	 0.210277674199617 
1923	 0.20974038388901 
1924	 0.209231366145715 
1925	 0.208758725768242 
1926	 0.208353356358789 
1927	 0.208004430472947 
1928	 0.207697901674091 
1929	 0.207453013775135 
1930	 0.207275554712159 
1931	 0.207117153126689 
1932	 0.206966618613774 
1933	 0.206873260183794 
1934	 0.20679868311555 
1935	 0.206746902176809 
1936	 0.206725217540779 
1937	 0.206739959504843 
1938	 0.206770166274833 
1939	 0.206839172446897 
1940	 0.206960670498225 
1941	 0.207082502477257 
1942	 0.2072253798634 
1943	 0.207396957746629 
1944	 0.20758715772994 
1945	 0.207819754719404 
1946	 0.208045847215269 
1947	 0.208287393491948 
1948	 0.20854310248166 
1949	 0.208803889679317 
1950	 0.20907714683303 
1951	 0.209364729140497 
1952	 0.209686765697852 
1953	 0.209986128040675 
1954	 0.210309738343927 
1955	 0.210652564516556 
1956	 0.21100142694188 
1957	 0.211350398533496 
1958	 0.211717223077681 
1959	 0.212058055053121 
1960	 0.212383104172624 
1961	 0.212722066692685 
1962	 0.21303863890793 
1963	 0.213394593139414 
1964	 0.213780007672276 
1965	 0.214165216043259 
1966	 0.214551630380076 
1967	 0.21497062902326 
1968	 0.215366474542156 
1969	 0.215742421031019 
1970	 0.216144476068724 
1971	 0.216549531853625 
1972	 0.216965226932665 
1973	 0.21739356967531 
1974	 0.217835125422985 
1975	 0.218285912741719 
1976	 0.218749116284941 
1977	 0.219228834774249 
1978	 0.219702929851843 
1979	 0.220179692428568 
1980	 0.220671780796005 
1981	 0.221140726537652 
1982	 0.221586494824021 
1983	 0.22206753468287 
1984	 0.22253884110752 
1985	 0.223035006931432 
1986	 0.223594009316456 
1987	 0.224105553546515 
1988	 0.224594621411066 
1989	 0.225099761822634 
1990	 0.225580897016711 
1991	 0.226062134259655 
1992	 0.226553134323261 
1993	 0.227051155365038 
1994	 0.227548744636423 
1995	 0.228050506480835 
1996	 0.228548623008543 
1997	 0.229055325767478 
1998	 0.229556141094277 
1999	 0.230044848665584 
2000	 0.230544603944485 
2001	 0.231060850643074 
2002	 0.231553268613766 
2003	 0.232054916587739 
2004	 0.232546945533518 
2005	 0.23300819121004 
2006	 0.233442461540363 
2007	 0.233876789313884 
2008	 0.234271528957113 
2009	 0.234700562648401 
2010	 0.235140211233466 
2011	 0.235577821660018 
2012	 0.236037540995679 
2013	 0.236481006383788 
2014	 0.236906022610436 
2015	 0.237345290799996 
2016	 0.237785215653008 
2017	 0.238222338716591 
2018	 0.238654378835331 
2019	 0.239081467898985 
2020	 0.239517737066255 
2021	 0.239959877989763 
2022	 0.240390394437578 
2023	 0.240828948532214 
2024	 0.241257261196 
2025	 0.24166779940409 
2026	 0.242075521916177 
2027	 0.242487512361557 
2028	 0.242882569118029 
2029	 0.243285646973768 
2030	 0.243689742735687 
2031	 0.244081782009212 
2032	 0.24447309244951 
2033	 0.24485902483195 
2034	 0.245231951675403 
2035	 0.245601333225933 
2036	 0.245978635953044 
2037	 0.246334787565554 
2038	 0.246663823165996 
2039	 0.247004626203114 
2040	 0.247341066069159 
2041	 0.247675226573362 
2042	 0.248016116583436 
2043	 0.248356032613915 
2044	 0.248684819755211 
2045	 0.248992759638232 
2046	 0.249329262304923 
2047	 0.249685522735828 
2048	 0.250013931867942 
2049	 0.25036870829329 
2050	 0.250673841859405 
2051	 0.250915603363023 
2052	 0.251187925384967 
2053	 0.251443256947467 
2054	 0.251712548837741 
2055	 0.251989472459816 
2056	 0.252293463181381 
2057	 0.252576586753002 
2058	 0.25285381330553 
2059	 0.253141803256079 
2060	 0.253435282238678 
2061	 0.253716027563485 
2062	 0.254002298946485 
2063	 0.254278844138703 
2064	 0.254543917484361 
2065	 0.254804398314438 
2066	 0.255064841764256 
2067	 0.25531401359929 
2068	 0.255537150561367 
2069	 0.255779583112987 
2070	 0.256019707966597 
2071	 0.256254878978221 
2072	 0.256506092420431 
2073	 0.256760358258683 
2074	 0.257031550370431 
2075	 0.257335256379983 
2076	 0.25760346709897 
2077	 0.257867576772584 
2078	 0.258129453851297 
2079	 0.258359423222951 
2080	 0.258611785472324 
2081	 0.25888582522577 
2082	 0.259150921939532 
2083	 0.259408049249737 
2084	 0.259680250261723 
2085	 0.259949303934929 
2086	 0.260221701529574 
2087	 0.260485281448546 
2088	 0.260759233005524 
2089	 0.261004338880347 
2090	 0.261227664021724 
2091	 0.261453274727539 
2092	 0.261651202137653 
2093	 0.261878408092258 
2094	 0.262112482696735 
2095	 0.262355520736508 
2096	 0.262631080682947 
2097	 0.262883453883997 
2098	 0.263121437209977 
2099	 0.263375054180006 
2100	 0.263612076789868 
2101	 0.263823952555195 
2102	 0.264069450995821 
2103	 0.264334333334731 
2104	 0.26457962205389 
2105	 0.264844626411056 
2106	 0.265076216714034 
2107	 0.265258674010287 
2108	 0.265484079887367 
2109	 0.265714946439502 
2110	 0.265951443754999 
2111	 0.266208941442322 
2112	 0.266469626133934 
2113	 0.266731097514259 
2114	 0.266996296179251 
2115	 0.26726750026995 
2116	 0.26755134944834 
2117	 0.267835508946996 
2118	 0.268129482549364 
2119	 0.268402709781783 
2120	 0.268682674694352 
2121	 0.268941849121708 
2122	 0.269177804370622 
2123	 0.269411647447805 
2124	 0.269646631216326 
2125	 0.269858792028823 
2126	 0.270054474400321 
2127	 0.270238819198959 
2128	 0.270385154828848 
2129	 0.270555744021902 
2130	 0.270737511181218 
2131	 0.270909198235129 
2132	 0.271069963053151 
2133	 0.271245426357939 
2134	 0.271384801136858 
2135	 0.27148930264733 
2136	 0.271603333017417 
2137	 0.271729385857958 
2138	 0.271807509614185 
2139	 0.271847712943195 
2140	 0.271903390750542 
2141	 0.271924210857904 
2142	 0.271963296694254 
2143	 0.27203319005914 
2144	 0.272079979394978 
2145	 0.272107582743693 
2146	 0.272141231984353 
2147	 0.272185899952743 
2148	 0.272209034746365 
2149	 0.27221032294012 
2150	 0.272204103123271 
2151	 0.272179345659688 
2152	 0.272115214360411 
2153	 0.272070830979564 
2154	 0.27203295074861 
2155	 0.271976786834601 
2156	 0.271936398612565 
2157	 0.271841696341499 
2158	 0.271710161875696 
2159	 0.271573424006242 
2160	 0.271387011865532 
2161	 0.271218646622778 
2162	 0.271043051968578 
2163	 0.27088042815931 
2164	 0.270716946014233 
2165	 0.270571173871895 
2166	 0.270423817067661 
2167	 0.270287593654651 
2168	 0.270148517655655 
2169	 0.270008481252952 
2170	 0.269874584867798 
2171	 0.269750853506107 
2172	 0.269617907317952 
2173	 0.26949261571906 
2174	 0.269348743357248 
2175	 0.269180281964793 
2176	 0.269033922315383 
2177	 0.268885260631256 
2178	 0.268741664818865 
2179	 0.268605437187056 
2180	 0.268482504422995 
2181	 0.268377832938025 
2182	 0.268256642864653 
2183	 0.268132061904022 
2184	 0.268025869995884 
2185	 0.267900644121983 
2186	 0.267739169374499 
2187	 0.267635174749477 
2188	 0.267557322056316 
2189	 0.267472119577303 
2190	 0.267423097830044 
2191	 0.267339132099999 
2192	 0.267223042366057 
2193	 0.267140203626277 
2194	 0.267077001456451 
2195	 0.266987627707371 
2196	 0.266913528746439 
2197	 0.266812346455395 
2198	 0.266646325558055 
2199	 0.266532827467457 
2200	 0.26645685056077 
2201	 0.266356511927581 
2202	 0.266259523963514 
2203	 0.266173630337199 
2204	 0.266081262824144 
2205	 0.265953109190184 
2206	 0.265880616683279 
2207	 0.26584230490386 
2208	 0.265800375620851 
2209	 0.265785954136496 
2210	 0.265748836743829 
2211	 0.265713286533313 
2212	 0.265664934921637 
2213	 0.265592367146463 
2214	 0.265546106916826 
2215	 0.265509198454482 
2216	 0.265469798919666 
2217	 0.265436600775286 
2218	 0.265406228812771 
2219	 0.265373842851716 
2220	 0.265345441512034 
2221	 0.265315738411339 
2222	 0.265319655266666 
2223	 0.265281057930902 
2224	 0.26523876883071 
2225	 0.265206768861951 
2226	 0.265162673650675 
2227	 0.265136311691813 
2228	 0.265128692382011 
2229	 0.265111261168936 
2230	 0.265109642922916 
2231	 0.265075522089205 
2232	 0.265015098950656 
2233	 0.264979017211689 
2234	 0.264931868786388 
2235	 0.264890670734989 
2236	 0.264888611292524 
2237	 0.264841375489075 
2238	 0.264756175842312 
2239	 0.264686253473276 
2240	 0.264586921514214 
2241	 0.264524787452142 
2242	 0.264494726212349 
2243	 0.264455658311222 
2244	 0.264429190276202 
2245	 0.264411273635425 
2246	 0.26437122791392 
2247	 0.264288475708686 
2248	 0.264235362226734 
2249	 0.2641742085238 
2250	 0.26412432481132 
2251	 0.264105114296941 
2252	 0.264037919918047 
2253	 0.26393700671177 
2254	 0.263871985965318 
2255	 0.263800470706843 
2256	 0.26372901717511 
2257	 0.263683436805031 
2258	 0.263623670316168 
2259	 0.263542119155808 
2260	 0.263469249537045 
2261	 0.26341235142383 
2262	 0.263343663381317 
2263	 0.263270252855596 
2264	 0.263182932142164 
2265	 0.263061901310368 
2266	 0.262982950647328 
2267	 0.262911039366576 
2268	 0.262849502372534 
2269	 0.262827661953125 
2270	 0.262805172062078 
2271	 0.262758281748456 
2272	 0.262725007041661 
2273	 0.262681030878547 
2274	 0.26260654286818 
2275	 0.262503200416533 
2276	 0.262353710947506 
2277	 0.262225614425978 
2278	 0.262065798351819 
2279	 0.261951168492123 
2280	 0.261874774692434 
2281	 0.261770668372587 
2282	 0.261656992207872 
2283	 0.261576472416159 
2284	 0.261505388545847 
2285	 0.261417585107044 
2286	 0.26135793340974 
2287	 0.261272059537758 
2288	 0.261141332243243 
2289	 0.261047695221876 
2290	 0.260993800377676 
2291	 0.260899383464432 
2292	 0.260789056614394 
2293	 0.260682566175475 
2294	 0.260574538632627 
2295	 0.260426734060248 
2296	 0.260254401613083 
2297	 0.260089504321768 
2298	 0.259900469993808 
2299	 0.259722551419956 
2300	 0.259588522664232 
2301	 0.25945996958629 
2302	 0.259295359477793 
2303	 0.259145286834162 
2304	 0.258998669807673 
2305	 0.258794057625369 
2306	 0.258605603585162 
2307	 0.258390701495306 
2308	 0.258227400396773 
2309	 0.258099685698559 
2310	 0.257930897812283 
2311	 0.257754701767839 
2312	 0.257600976481831 
2313	 0.257447765123962 
2314	 0.257270998306984 
2315	 0.25713061810488 
2316	 0.256941832389635 
2317	 0.256679388043687 
2318	 0.256440717279827 
2319	 0.256197732714446 
2320	 0.255971563667787 
2321	 0.255752654707004 
2322	 0.255528053770035 
2323	 0.255316611351084 
2324	 0.255096694727601 
2325	 0.254838217240957 
2326	 0.254621189675717 
2327	 0.254438804134968 
2328	 0.25425371879764 
2329	 0.254014480728429 
2330	 0.253828774436462 
2331	 0.253631302122127 
2332	 0.253397092966712 
2333	 0.253242809941977 
2334	 0.253084639273472 
2335	 0.252913162248138 
2336	 0.252756213474107 
2337	 0.25253518475846 
2338	 0.252313712067436 
2339	 0.252103343297235 
2340	 0.251795471602081 
2341	 0.251483136525137 
2342	 0.251235829307631 
2343	 0.250928474978294 
2344	 0.250658383182216 
2345	 0.250384893822005 
2346	 0.250141932334145 
2347	 0.249834413230013 
2348	 0.249493550865827 
2349	 0.249177426013308 
2350	 0.248849105646911 
2351	 0.248493203737057 
2352	 0.248130294065072 
2353	 0.24778336033912 
2354	 0.247444478312635 
2355	 0.247065253324424 
2356	 0.246682862299993 
2357	 0.246275106185914 
2358	 0.245766215478459 
2359	 0.245352543416973 
2360	 0.245001714356807 
2361	 0.244648624861558 
2362	 0.244343677696024 
2363	 0.24399379972713 
2364	 0.243611579971943 
2365	 0.243256775755131 
2366	 0.242898533355715 
2367	 0.242552684485976 
2368	 0.24226705264059 
2369	 0.241915627297623 
2370	 0.241524019566796 
2371	 0.241140784397718 
2372	 0.240721025962038 
2373	 0.240221603814309 
2374	 0.239727848162649 
2375	 0.239317002329107 
2376	 0.238921344294738 
2377	 0.238508779402054 
2378	 0.238152005395594 
2379	 0.237740469419831 
2380	 0.237236265431099 
2381	 0.236785468025369 
2382	 0.236374665164082 
2383	 0.235939996886741 
2384	 0.235492176351211 
2385	 0.235054024172682 
2386	 0.23465665394525 
2387	 0.234195050985778 
2388	 0.233734446227086 
2389	 0.233421707210615 
2390	 0.233034832406044 
2391	 0.232523671595147 
2392	 0.232097390739653 
2393	 0.231669524045095 
2394	 0.231244777408468 
2395	 0.230901510869675 
2396	 0.230506002755306 
2397	 0.23006498414164 
2398	 0.229590778083679 
2399	 0.229089656944782 
2400	 0.228646131054505 
2401	 0.228292384100477 
2402	 0.227969143032291 
2403	 0.227696042150862 
2404	 0.227420871876594 
2405	 0.226964894405432 
2406	 0.226522216920312 
2407	 0.226084854498045 
2408	 0.225510238833576 
2409	 0.225063243900658 
2410	 0.224681341173464 
2411	 0.224200900416491 
2412	 0.223750391202686 
2413	 0.223306357545853 
2414	 0.222832433234933 
2415	 0.222364200147043 
2416	 0.221942716674217 
2417	 0.221601688049065 
2418	 0.221290838340927 
2419	 0.221036243172461 
2420	 0.220676268660538 
2421	 0.220331400117777 
2422	 0.2199230484109 
2423	 0.219403277605606 
2424	 0.218931390227274 
2425	 0.218502924473826 
2426	 0.218005320732577 
2427	 0.217380448474599 
2428	 0.216889320923495 
2429	 0.216453582343883 
2430	 0.216031858521462 
2431	 0.215706965671704 
2432	 0.215334375624923 
2433	 0.21492967456702 
2434	 0.214573796576461 
2435	 0.214219334451289 
2436	 0.213917232882835 
2437	 0.213713611370463 
2438	 0.213311668004319 
2439	 0.212862254659807 
2440	 0.212396875539766 
2441	 0.211768265483717 
2442	 0.211326105764147 
2443	 0.211007796902013 
2444	 0.210552437898481 
2445	 0.210093199642952 
2446	 0.209649243145205 
2447	 0.209108539880639 
2448	 0.208650929669285 
2449	 0.208256353508126 
2450	 0.207861945695412 
2451	 0.207478222997426 
2452	 0.207161151479066 
2453	 0.206932984757915 
2454	 0.206621626211039 
2455	 0.206357701498913 
2456	 0.205977671312816 
2457	 0.205434725214863 
2458	 0.205084997545145 
2459	 0.204788905913193 
2460	 0.204385925889845 
2461	 0.204089134118257 
2462	 0.203658005474968 
2463	 0.202991480539167 
2464	 0.202516409424477 
2465	 0.202082440473005 
2466	 0.201685368603173 
2467	 0.20141298120248 
2468	 0.201080705213963 
2469	 0.200788847238125 
2470	 0.20034751703313 
2471	 0.199877742073385 
2472	 0.199462087957796 
2473	 0.199193443522326 
2474	 0.198713937596457 
2475	 0.198174595012273 
2476	 0.197769190552705 
2477	 0.19720464626982 
2478	 0.196941355297317 
2479	 0.196740513272966 
2480	 0.196220339945726 
2481	 0.195859737968861 
2482	 0.195545746145009 
2483	 0.195155189804384 
2484	 0.194965487831822 
2485	 0.194726527451493 
2486	 0.194345930214182 
2487	 0.194120519286843 
2488	 0.193852123737911 
2489	 0.19357359141444 
2490	 0.193355405504786 
2491	 0.192960997733964 
2492	 0.192592911075921 
2493	 0.192182357766986 
2494	 0.191680145441691 
2495	 0.191320770346164 
2496	 0.191158999200151 
2497	 0.191072837029305 
2498	 0.190857699577736 
2499	 0.190811102895564 
2500	 0.190733408159812 
