Wavelength	mm1200003.asd
350	 2.54526324997929E-02 
351	 3.01769205347654E-02 
352	 0.02765031920277 
353	 1.82806285400837E-02 
354	 2.90519057107176E-02 
355	 3.02528793409503E-02 
356	 0.027852083390097 
357	 3.21227244207546E-02 
358	 3.28623801622154E-02 
359	 2.70723592546463E-02 
360	 0.022157847183995 
361	 0.029346696870939 
362	 2.74311638559684E-02 
363	 2.53496639352583E-02 
364	 2.76568189854765E-02 
365	 2.62722986092683E-02 
366	 2.54719922121696E-02 
367	 2.62585999857704E-02 
368	 2.81585365210201E-02 
369	 2.88396983938993E-02 
370	 2.89997860780256E-02 
371	 2.93328122304908E-02 
372	 3.02726003366608E-02 
373	 3.00434360389199E-02 
374	 2.99145595899759E-02 
375	 3.10952475664089E-02 
376	 3.43931201360809E-02 
377	 3.27541387549848E-02 
378	 3.11206383365348E-02 
379	 3.47863800576521E-02 
380	 3.41793945847307E-02 
381	 3.24580048423303E-02 
382	 3.28359773613001E-02 
383	 0.037359797689791 
384	 3.79035411384173E-02 
385	 3.65933912624933E-02 
386	 3.66247373664929E-02 
387	 4.05500041046687E-02 
388	 4.14371527825247E-02 
389	 4.03660280966747E-02 
390	 0.04090298238202 
391	 4.51665066582845E-02 
392	 4.61476266804249E-02 
393	 4.44484454566898E-02 
394	 4.69049355429704E-02 
395	 4.93817279723687E-02 
396	 0.050411987746325 
397	 5.01738522872724E-02 
398	 5.13204202213877E-02 
399	 5.28416048037937E-02 
400	 0.054776457246536 
401	 5.69682554396349E-02 
402	 5.62698367621692E-02 
403	 5.59076613934223E-02 
404	 5.70233061011905E-02 
405	 0.058276440306022 
406	 5.94889898912997E-02 
407	 6.06084538717131E-02 
408	 6.15647634627137E-02 
409	 6.20951501061522E-02 
410	 6.19497324559466E-02 
411	 6.19847630192893E-02 
412	 6.32438733429453E-02 
413	 6.43766427729757E-02 
414	 6.45976247389151E-02 
415	 6.41689458437614E-02 
416	 6.45412399508036E-02 
417	 0.064849909802712 
418	 6.53854354214512E-02 
419	 6.62904359726378E-02 
420	 6.63444483975522E-02 
421	 6.61491937321529E-02 
422	 6.62131948685392E-02 
423	 6.67943514429143E-02 
424	 6.63586086200661E-02 
425	 6.57862023170874E-02 
426	 6.55623080920787E-02 
427	 6.48451531151715E-02 
428	 6.45062881751277E-02 
429	 6.44266155139578E-02 
430	 6.42903338456935E-02 
431	 6.45957787678163E-02 
432	 6.44281148906348E-02 
433	 6.39696991830373E-02 
434	 6.44262856065768E-02 
435	 0.064518882545188 
436	 6.45692327099187E-02 
437	 6.48467329659293E-02 
438	 6.45236303562609E-02 
439	 6.50960522387106E-02 
440	 6.61814311373575E-02 
441	 6.65893159162263E-02 
442	 6.70038780292243E-02 
443	 0.067404923318957 
444	 6.77992365838239E-02 
445	 6.83404319402002E-02 
446	 6.87898680296682E-02 
447	 6.90102685198662E-02 
448	 6.90518509854707E-02 
449	 6.95439048541134E-02 
450	 7.02372207167596E-02 
451	 7.09165239874019E-02 
452	 7.14218686768002E-02 
453	 7.14738079214587E-02 
454	 7.15702736626255E-02 
455	 7.20285889748709E-02 
456	 0.072440527239948 
457	 7.25534049732445E-02 
458	 7.25418446911673E-02 
459	 7.27336515842984E-02 
460	 0.072835641123459 
461	 7.30268018603537E-02 
462	 7.32777428325828E-02 
463	 7.32034920224831E-02 
464	 7.35704613737992E-02 
465	 7.40137221581584E-02 
466	 7.40588789807065E-02 
467	 7.41370202207942E-02 
468	 7.41985136417362E-02 
469	 7.42801637955569E-02 
470	 0.074469347344604 
471	 7.44211346250863E-02 
472	 7.42629561345967E-02 
473	 7.41969086658555E-02 
474	 7.44374685524292E-02 
475	 7.45044967751728E-02 
476	 0.074446475508752 
477	 7.45234914809774E-02 
478	 7.46389293583055E-02 
479	 7.47488931013724E-02 
480	 7.48425415807368E-02 
481	 7.49520266822984E-02 
482	 7.49745767106042E-02 
483	 7.50292946512592E-02 
484	 7.51980454809537E-02 
485	 7.51528159508382E-02 
486	 7.51431056780713E-02 
487	 7.51895223121736E-02 
488	 7.51235595302619E-02 
489	 7.51016981065628E-02 
490	 7.51682186634851E-02 
491	 7.52807474830019E-02 
492	 7.52421105745639E-02 
493	 7.51436926667656E-02 
494	 7.50687300649468E-02 
495	 7.51029909098533E-02 
496	 7.53678626356417E-02 
497	 7.55212752806805E-02 
498	 0.07546009087506 
499	 7.54893484601561E-02 
500	 7.55412379968632E-02 
501	 7.55609767940977E-02 
502	 7.55297294851658E-02 
503	 7.56020818676351E-02 
504	 7.56557677593467E-02 
505	 7.56018807945387E-02 
506	 7.54080040131076E-02 
507	 7.54168585009364E-02 
508	 0.075519338803525 
509	 7.55772285502439E-02 
510	 7.56561565385567E-02 
511	 7.55470772514502E-02 
512	 7.53843342672377E-02 
513	 0.075449944955824 
514	 7.55499471957996E-02 
515	 7.55831937413312E-02 
516	 7.55603307369987E-02 
517	 7.56696025753985E-02 
518	 7.56579221675897E-02 
519	 7.56189100886669E-02 
520	 7.57106358241073E-02 
521	 7.58078198847935E-02 
522	 7.57993710507268E-02 
523	 7.57283704761549E-02 
524	 7.57909284875252E-02 
525	 7.58384313678628E-02 
526	 7.58289484190471E-02 
527	 7.57846563896791E-02 
528	 7.58503781303879E-02 
529	 0.075931058270337 
530	 7.59429456432214E-02 
531	 7.58379022304151E-02 
532	 7.58630187570552E-02 
533	 0.076020033851285 
534	 7.61946620948505E-02 
535	 7.60932263214162E-02 
536	 7.60494430655686E-02 
537	 7.61438136155695E-02 
538	 7.63171836773308E-02 
539	 0.07630748821185 
540	 0.076338473449237 
541	 7.64909019314458E-02 
542	 7.66058229151669E-02 
543	 7.67407574173134E-02 
544	 0.07686203415097 
545	 7.69349316574167E-02 
546	 7.69977229163797E-02 
547	 0.077124034160568 
548	 7.73134531544397E-02 
549	 7.75003551967619E-02 
550	 7.76212669301043E-02 
551	 7.77536137513775E-02 
552	 7.79574959183747E-02 
553	 7.81824083899438E-02 
554	 7.83851869622734E-02 
555	 7.85968098938295E-02 
556	 7.88764057245771E-02 
557	 7.91320724606851E-02 
558	 7.94105416513692E-02 
559	 7.97415691499862E-02 
560	 8.01009800666468E-02 
561	 8.04536307063863E-02 
562	 8.08556447479497E-02 
563	 8.13699102474049E-02 
564	 8.19096011827272E-02 
565	 8.24522213819034E-02 
566	 8.29999408163428E-02 
567	 8.35782329771709E-02 
568	 0.084265343796375 
569	 8.49554280959977E-02 
570	 8.55571817971351E-02 
571	 8.61671788163608E-02 
572	 8.68942431112964E-02 
573	 8.77282287720023E-02 
574	 8.85689790767877E-02 
575	 8.93615902545927E-02 
576	 9.01937367027976E-02 
577	 9.11132341387902E-02 
578	 9.20299296770424E-02 
579	 9.29375110638195E-02 
580	 9.39227683419933E-02 
581	 9.50775606370996E-02 
582	 0.096207535399405 
583	 9.72845165633049E-02 
584	 9.83228846083052E-02 
585	 9.93766695232974E-02 
586	 0.100472625015641 
587	 0.1015941077382 
588	 0.102729951417309 
589	 0.103977018018694 
590	 0.10520497794617 
591	 0.106368465218012 
592	 0.1075108226557 
593	 0.108600563113649 
594	 0.109706733768604 
595	 0.110855931352026 
596	 0.111911879962033 
597	 0.113001305890205 
598	 0.114102942917333 
599	 0.115134912112421 
600	 0.116217849395013 
601	 0.117242701233779 
602	 0.118160921209884 
603	 0.119079219711186 
604	 0.120011375030607 
605	 0.120914835057051 
606	 0.12174407315493 
607	 0.122583949951829 
608	 0.12335114958954 
609	 0.124057946466289 
610	 0.124833405411278 
611	 0.125502228648764 
612	 0.126107718798511 
613	 0.126706449907368 
614	 0.12721218250795 
615	 0.127714002313684 
616	 0.128223319698875 
617	 0.128694780833594 
618	 0.129149818047576 
619	 0.1295598878746 
620	 0.129922427538736 
621	 0.130304019888691 
622	 0.130656046960291 
623	 0.130984526951877 
624	 0.131316356457616 
625	 0.131668186043643 
626	 0.131956167190387 
627	 0.132185160647142 
628	 0.132484290005968 
629	 0.132785844466873 
630	 0.133064921203801 
631	 0.133312505370884 
632	 0.133535281923893 
633	 0.133752646358978 
634	 0.133977489979233 
635	 0.134217338013815 
636	 0.134494760234203 
637	 0.134759601875799 
638	 0.134979044824654 
639	 0.13518861510557 
640	 0.135413631870232 
641	 0.135681846429211 
642	 0.135998692738128 
643	 0.136223125399851 
644	 0.136445716512858 
645	 0.136711222130273 
646	 0.136965176535993 
647	 0.137197589673235 
648	 0.137446317665169 
649	 0.137745294254542 
650	 0.138048394487174 
651	 0.138331443749333 
652	 0.138609002729499 
653	 0.138925547370514 
654	 0.139233519875536 
655	 0.139529068184311 
656	 0.139828523592801 
657	 0.140178948582577 
658	 0.140524159025844 
659	 0.140856951203825 
660	 0.141193084935294 
661	 0.141533709352629 
662	 0.141857360867219 
663	 0.142180091015441 
664	 0.142575367059457 
665	 0.142956900182113 
666	 0.143319306105694 
667	 0.143689781400934 
668	 0.144122345187375 
669	 0.144579183604214 
670	 0.145030514866816 
671	 0.14545463074079 
672	 0.145807714797786 
673	 0.146206849081092 
674	 0.146709409974356 
675	 0.147171558317111 
676	 0.147625397237223 
677	 0.14808736000881 
678	 0.148568617144683 
679	 0.149056082448003 
680	 0.149575816931289 
681	 0.15010739784802 
682	 0.150566784129103 
683	 0.151077206068692 
684	 0.15162240445672 
685	 0.152156673183245 
686	 0.152669798770069 
687	 0.153218785149074 
688	 0.153794402546549 
689	 0.154340656236142 
690	 0.154862383113069 
691	 0.15540578941481 
692	 0.155984994689291 
693	 0.156538973147187 
694	 0.157098963715477 
695	 0.157676866684122 
696	 0.15827229732472 
697	 0.158855570432577 
698	 0.159408733760429 
699	 0.159959860303318 
700	 0.160577959621988 
701	 0.161145941673253 
702	 0.161723692671598 
703	 0.162355104227184 
704	 0.162937041723857 
705	 0.1634636429234 
706	 0.163981981980998 
707	 0.16455615754308 
708	 0.165124938032844 
709	 0.165706539947168 
710	 0.166299606439471 
711	 0.166866039559703 
712	 0.167393226592261 
713	 0.16789228175477 
714	 0.168395490756372 
715	 0.168985075489471 
716	 0.169525675481986 
717	 0.169990314503936 
718	 0.170441545350026 
719	 0.170951999935581 
720	 0.171428545011371 
721	 0.171824777193733 
722	 0.172231091490406 
723	 0.172657631888068 
724	 0.173080606065465 
725	 0.173468972626671 
726	 0.173839091472784 
727	 0.174178943411195 
728	 0.174505272163615 
729	 0.174857603777873 
730	 0.175178617174551 
731	 0.175446842943682 
732	 0.175672941263801 
733	 0.175923778163773 
734	 0.176178859963154 
735	 0.176385968416968 
736	 0.17650451237462 
737	 0.176653372287291 
738	 0.17680768564005 
739	 0.176945574711387 
740	 0.177060186774583 
741	 0.177119393816025 
742	 0.177153688312338 
743	 0.177194925950697 
744	 0.177249402130313 
745	 0.177210643692959 
746	 0.177140928538023 
747	 0.17714812407263 
748	 0.177027671425077 
749	 0.176893606294266 
750	 0.176815928939822 
751	 0.176774517408201 
752	 0.176629516865826 
753	 0.176436193444796 
754	 0.176265472147021 
755	 0.176083171912928 
756	 0.175910202527724 
757	 0.175709258980327 
758	 0.175436556016568 
759	 0.175228293186685 
760	 0.175008487334161 
761	 0.174736631101741 
762	 0.174442712121167 
763	 0.174151726943861 
764	 0.173846561658651 
765	 0.173512942151312 
766	 0.173172241071021 
767	 0.172855667253174 
768	 0.172554234458958 
769	 0.172234463683265 
770	 0.171861819809788 
771	 0.171495181717338 
772	 0.171144735035958 
773	 0.170754119961843 
774	 0.170384691485891 
775	 0.170018783907722 
776	 0.169630465396912 
777	 0.169216779896764 
778	 0.168823613754921 
779	 0.168461256286504 
780	 0.168107279307937 
781	 0.167662201698066 
782	 0.167235282250258 
783	 0.166851434811617 
784	 0.166433913979155 
785	 0.166053183681142 
786	 0.165675818328478 
787	 0.165275936384989 
788	 0.164892215902637 
789	 0.164524996214741 
790	 0.164130921838415 
791	 0.163680635529053 
792	 0.163304104680289 
793	 0.162936471415994 
794	 0.162557143284435 
795	 0.162188164556877 
796	 0.161760888534169 
797	 0.16134564550955 
798	 0.160992272992791 
799	 0.160678486423714 
800	 0.16029847646421 
801	 0.159903920371107 
802	 0.159561958082239 
803	 0.159184688299248 
804	 0.158834996844328 
805	 0.158511766779833 
806	 0.158171843375695 
807	 0.157798045423949 
808	 0.157437676124882 
809	 0.157119860351274 
810	 0.156837290145557 
811	 0.156527198372696 
812	 0.156181356056555 
813	 0.155827574671212 
814	 0.155548783182059 
815	 0.155283669269979 
816	 0.154994798018511 
817	 0.154674333851934 
818	 0.15440899153419 
819	 0.154153770061858 
820	 0.153880612522496 
821	 0.153590245808546 
822	 0.153360165497056 
823	 0.153106893319225 
824	 0.152808321751831 
825	 0.152580151825316 
826	 0.152379822643933 
827	 0.152159589843613 
828	 0.151903721797905 
829	 0.151706716445254 
830	 0.151487186302342 
831	 0.151254046769706 
832	 0.151059301289966 
833	 0.150927878871319 
834	 0.150753738388401 
835	 0.150533191903692 
836	 0.150364626137387 
837	 0.150243938474006 
838	 0.150122529080716 
839	 0.149967576724643 
840	 0.149788785739023 
841	 0.149576296643003 
842	 0.14940820528325 
843	 0.149331926242699 
844	 0.149229859078635 
845	 0.149143595911545 
846	 0.149059624713789 
847	 0.14894906155676 
848	 0.148835906813862 
849	 0.148766070071706 
850	 0.148711482988612 
851	 0.148591833312916 
852	 0.148479503238395 
853	 0.14842248666326 
854	 0.148406548975767 
855	 0.148337799285203 
856	 0.148361617049458 
857	 0.14839127823114 
858	 0.148338617678145 
859	 0.148245842826673 
860	 0.148209507268528 
861	 0.148229384509472 
862	 0.148257062028345 
863	 0.148229487853832 
864	 0.148219258896162 
865	 0.148251983044234 
866	 0.148312182346467 
867	 0.148354252394238 
868	 0.14837317590121 
869	 0.148388142493105 
870	 0.148433611143117 
871	 0.148470179809755 
872	 0.148534468234218 
873	 0.148634586853977 
874	 0.148715188638293 
875	 0.148813939738914 
876	 0.14886233470802 
877	 0.148857708343868 
878	 0.149032763258957 
879	 0.149235313895586 
880	 0.149379987372804 
881	 0.149443921908067 
882	 0.149549389074661 
883	 0.149669154252881 
884	 0.149806131464057 
885	 0.149972694364897 
886	 0.150128695817868 
887	 0.15032847464567 
888	 0.150523948371271 
889	 0.150606915875161 
890	 0.150807801901127 
891	 0.15103282521095 
892	 0.151226402503596 
893	 0.15143335378184 
894	 0.151613365810226 
895	 0.151791771409162 
896	 0.15198378278341 
897	 0.152162236982205 
898	 0.152435487737007 
899	 0.152749681332024 
900	 0.153028566036196 
901	 0.153258607640318 
902	 0.153503603600086 
903	 0.153790098761378 
904	 0.154093198317577 
905	 0.154254836073175 
906	 0.154517380544645 
907	 0.15487956158659 
908	 0.155224683514013 
909	 0.155554499357456 
910	 0.155843687595903 
911	 0.15611547719983 
912	 0.156417005208329 
913	 0.156712371507015 
914	 0.157098837229654 
915	 0.1575314063014 
916	 0.157859520698208 
917	 0.158260917249754 
918	 0.158629513637533 
919	 0.158923968697611 
920	 0.159223413795811 
921	 0.159662155994372 
922	 0.160110649186066 
923	 0.160494975559864 
924	 0.160893586495874 
925	 0.161223162668979 
926	 0.161617152046949 
927	 0.162108176502469 
928	 0.162469552507633 
929	 0.162863692027811 
930	 0.163338447717756 
931	 0.163863100970111 
932	 0.164304495354283 
933	 0.164767039383543 
934	 0.165250830880511 
935	 0.165731138093234 
936	 0.166215834460057 
937	 0.166539527944089 
938	 0.166921485062641 
939	 0.16754023936836 
940	 0.16797318393462 
941	 0.168455425651508 
942	 0.169031537799135 
943	 0.169633665107716 
944	 0.170080621467065 
945	 0.170605756604799 
946	 0.171198190458375 
947	 0.171735899984452 
948	 0.172182316386832 
949	 0.172664085903319 
950	 0.173171670028336 
951	 0.173646021430832 
952	 0.174193143482138 
953	 0.174614335089432 
954	 0.17507715665183 
955	 0.175839407982877 
956	 0.176464293876356 
957	 0.17701094762377 
958	 0.177538874043697 
959	 0.178095267887064 
960	 0.178732608279689 
961	 0.179346230427269 
962	 0.179912994206222 
963	 0.180467827581953 
964	 0.180991400268894 
965	 0.18159589307172 
966	 0.182241672136135 
967	 0.182804749727207 
968	 0.183345321083893 
969	 0.183901251520818 
970	 0.184453160288052 
971	 0.18497651938483 
972	 0.185662217129255 
973	 0.186417239333524 
974	 0.187075462922746 
975	 0.187538496198692 
976	 0.188271104102972 
977	 0.188815147101503 
978	 0.189239501386912 
979	 0.189906365130618 
980	 0.190502943865121 
981	 0.191178974690887 
982	 0.191816798121152 
983	 0.192227029335375 
984	 0.192800513161955 
985	 0.193471782902445 
986	 0.194103091353097 
987	 0.194597280779106 
988	 0.195179730505032 
989	 0.195760941746707 
990	 0.19633563343818 
991	 0.19693831276546 
992	 0.197540567936871 
993	 0.198095314350036 
994	 0.198685280782782 
995	 0.199345979343063 
996	 0.199684883449679 
997	 0.200212614639643 
998	 0.200856952511003 
999	 0.201376304217005 
1000	 0.201867490776594 
1001	 0.205702213167278 
1002	 0.20626966001002 
1003	 0.206773640457271 
1004	 0.207254081467856 
1005	 0.20769721728178 
1006	 0.208166822787512 
1007	 0.208637863839934 
1008	 0.209069918661788 
1009	 0.209503781403943 
1010	 0.209876988408202 
1011	 0.210309519693661 
1012	 0.210822683624172 
1013	 0.211289268969103 
1014	 0.211805272172024 
1015	 0.21228454374541 
1016	 0.212641046193191 
1017	 0.213029378535956 
1018	 0.213407968773081 
1019	 0.213814890826021 
1020	 0.21417954151198 
1021	 0.214565596950642 
1022	 0.214936401505573 
1023	 0.215260636255162 
1024	 0.21563512928891 
1025	 0.21602248897961 
1026	 0.216378212332344 
1027	 0.216721079791694 
1028	 0.2170393268415 
1029	 0.217326732076386 
1030	 0.217653428716843 
1031	 0.217965798200568 
1032	 0.218306327660179 
1033	 0.218570799308316 
1034	 0.218859695861263 
1035	 0.219117152048052 
1036	 0.219298862258322 
1037	 0.219546329977465 
1038	 0.21978529362409 
1039	 0.219999962062332 
1040	 0.220261819192879 
1041	 0.220589459366671 
1042	 0.220936791193361 
1043	 0.221222590013791 
1044	 0.221493096186209 
1045	 0.221766678086147 
1046	 0.22199913188996 
1047	 0.222176487820654 
1048	 0.222404029293107 
1049	 0.222646798904508 
1050	 0.222857177799222 
1051	 0.223091157137249 
1052	 0.223340403365838 
1053	 0.223576491153713 
1054	 0.22383228369631 
1055	 0.22410389795223 
1056	 0.224364136317373 
1057	 0.224630309656784 
1058	 0.22492827508798 
1059	 0.225176132083554 
1060	 0.22538324660025 
1061	 0.225636235726432 
1062	 0.225874075623075 
1063	 0.226116219748825 
1064	 0.226380771109754 
1065	 0.226604820047323 
1066	 0.226830145168598 
1067	 0.227055112130846 
1068	 0.227282161112699 
1069	 0.227538846853774 
1070	 0.227805975751672 
1071	 0.228094466733043 
1072	 0.228354857248479 
1073	 0.228627430253799 
1074	 0.228875803172807 
1075	 0.229094460387426 
1076	 0.22930635828035 
1077	 0.22951996643883 
1078	 0.229738505446302 
1079	 0.229938540000734 
1080	 0.230100080007629 
1081	 0.230296573362751 
1082	 0.230514355342202 
1083	 0.230722394926826 
1084	 0.230941578822957 
1085	 0.231174079889803 
1086	 0.231424741249521 
1087	 0.231620841146131 
1088	 0.231800111543493 
1089	 0.231980315312971 
1090	 0.232144923193149 
1091	 0.232330660035817 
1092	 0.232538148907856 
1093	 0.232770355940432 
1094	 0.232984862986742 
1095	 0.233118511507759 
1096	 0.233283982263408 
1097	 0.233452741836606 
1098	 0.23360076788743 
1099	 0.23373601362067 
1100	 0.233881768694516 
1101	 0.234029281116053 
1102	 0.234149558983102 
1103	 0.234240852125079 
1104	 0.234358459836607 
1105	 0.234515558491369 
1106	 0.234652188968403 
1107	 0.234798193240021 
1108	 0.234973514868436 
1109	 0.235113042507703 
1110	 0.235249466781777 
1111	 0.235371182066662 
1112	 0.235500036961826 
1113	 0.23559630777527 
1114	 0.235653916085333 
1115	 0.235734444205726 
1116	 0.235798755835619 
1117	 0.235902289296823 
1118	 0.236051740530241 
1119	 0.236140505390567 
1120	 0.236247488193479 
1121	 0.236386745016533 
1122	 0.236459362522429 
1123	 0.236528541378306 
1124	 0.236608053178894 
1125	 0.23668249408681 
1126	 0.236743354794194 
1127	 0.236800732407565 
1128	 0.236870269994151 
1129	 0.236956184200589 
1130	 0.237007059414843 
1131	 0.237043168323598 
1132	 0.237081261871051 
1133	 0.237089180517556 
1134	 0.237108019465254 
1135	 0.237145924543526 
1136	 0.237187270038627 
1137	 0.237187528375849 
1138	 0.237146731706684 
1139	 0.237128904635797 
1140	 0.237098870602098 
1141	 0.237068578831324 
1142	 0.237039274963219 
1143	 0.237023102623622 
1144	 0.237004232311779 
1145	 0.236980054617437 
1146	 0.236981615533868 
1147	 0.236955663345543 
1148	 0.236897554699848 
1149	 0.236851910799668 
1150	 0.236796863933622 
1151	 0.23675457693732 
1152	 0.236719959188046 
1153	 0.236699803239896 
1154	 0.236703016820028 
1155	 0.23673003723206 
1156	 0.236759119184406 
1157	 0.236814861996064 
1158	 0.236849119730468 
1159	 0.236875382444828 
1160	 0.236913504598904 
1161	 0.236947091833441 
1162	 0.236990982775594 
1163	 0.237058063166374 
1164	 0.237109901150301 
1165	 0.237152688158209 
1166	 0.237194286287789 
1167	 0.237268208414394 
1168	 0.237322611803174 
1169	 0.237388247675716 
1170	 0.237475950323693 
1171	 0.237543997012749 
1172	 0.237602451897673 
1173	 0.237658208119969 
1174	 0.237705827201116 
1175	 0.237761347676262 
1176	 0.237807374106093 
1177	 0.237867508981321 
1178	 0.237950960698445 
1179	 0.238015213230316 
1180	 0.238070294378238 
1181	 0.238132270114625 
1182	 0.238185677687323 
1183	 0.238245234209748 
1184	 0.238309794251313 
1185	 0.238385359165381 
1186	 0.238453140989412 
1187	 0.238527319979397 
1188	 0.238583726083198 
1189	 0.238626432507516 
1190	 0.238681849992503 
1191	 0.238733715616631 
1192	 0.238782923461965 
1193	 0.238832481266692 
1194	 0.238892239401133 
1195	 0.238951559879538 
1196	 0.239010812204042 
1197	 0.239091493343982 
1198	 0.239156003996059 
1199	 0.239212265417957 
1200	 0.239249617796776 
1201	 0.239309584059376 
1202	 0.239375714464671 
1203	 0.239433368233177 
1204	 0.239497876895014 
1205	 0.239556005283301 
1206	 0.239597138213837 
1207	 0.239655872500278 
1208	 0.239739879336917 
1209	 0.239793412815406 
1210	 0.239827270077465 
1211	 0.239877082540992 
1212	 0.23992013966951 
1213	 0.239962415423495 
1214	 0.240017816868743 
1215	 0.24007037387372 
1216	 0.24011936681258 
1217	 0.240154049130872 
1218	 0.240202703347171 
1219	 0.240261191527097 
1220	 0.240314176313844 
1221	 0.240373601462885 
1222	 0.240415936407996 
1223	 0.240451025080365 
1224	 0.240484897534937 
1225	 0.240498490835837 
1226	 0.240529911730181 
1227	 0.240577206166128 
1228	 0.240612058349597 
1229	 0.240638613111397 
1230	 0.240677594718761 
1231	 0.24071681375513 
1232	 0.240756863998878 
1233	 0.240801766592146 
1234	 0.240867665081672 
1235	 0.240904006939265 
1236	 0.240921838621874 
1237	 0.2409570518155 
1238	 0.24099359194953 
1239	 0.24102020023429 
1240	 0.241046617799369 
1241	 0.241078149144961 
1242	 0.241102080886385 
1243	 0.241127176364618 
1244	 0.241162133276065 
1245	 0.241193865932311 
1246	 0.241213292882034 
1247	 0.241241945365429 
1248	 0.241275506974235 
1249	 0.241318978547489 
1250	 0.241367849359012 
1251	 0.241398088459511 
1252	 0.241423145358871 
1253	 0.241444210965018 
1254	 0.241458436726229 
1255	 0.241455876232575 
1256	 0.24146539265306 
1257	 0.241475624892462 
1258	 0.241486702757099 
1259	 0.241499039712131 
1260	 0.241511542025211 
1261	 0.241534593055918 
1262	 0.241540592982781 
1263	 0.241540747814184 
1264	 0.241537751576674 
1265	 0.24151172865732 
1266	 0.241499347068271 
1267	 0.241502153852657 
1268	 0.24148829178314 
1269	 0.241479581959308 
1270	 0.241470628611677 
1271	 0.2414786257758 
1272	 0.241492939922155 
1273	 0.241500670420265 
1274	 0.241527967233893 
1275	 0.241529402221821 
1276	 0.241503190454504 
1277	 0.241498530896692 
1278	 0.24148694061959 
1279	 0.241494249113316 
1280	 0.24151897669504 
1281	 0.241543446447598 
1282	 0.24158514645314 
1283	 0.241616649580843 
1284	 0.241648286769851 
1285	 0.24167639014185 
1286	 0.241694213083372 
1287	 0.241700619442189 
1288	 0.241713883219878 
1289	 0.241720592326347 
1290	 0.241734614158197 
1291	 0.241750811791243 
1292	 0.241775436686713 
1293	 0.241815088616726 
1294	 0.241831301118409 
1295	 0.24184079660548 
1296	 0.241853395608115 
1297	 0.241853125304854 
1298	 0.241855804335695 
1299	 0.241869778410493 
1300	 0.241873980387361 
1301	 0.241873234992011 
1302	 0.241861014967368 
1303	 0.241835484829566 
1304	 0.241816999126935 
1305	 0.241805115280251 
1306	 0.241778521016942 
1307	 0.241747348898081 
1308	 0.241714360393055 
1309	 0.241658481624959 
1310	 0.241572475546611 
1311	 0.241497543061515 
1312	 0.241419866701207 
1313	 0.241333982342201 
1314	 0.241251391921122 
1315	 0.241144371383487 
1316	 0.241011843645761 
1317	 0.240893963963396 
1318	 0.240773028324623 
1319	 0.240644101399047 
1320	 0.240527891808162 
1321	 0.240392168495298 
1322	 0.240245595484771 
1323	 0.240077947465601 
1324	 0.2398909999152 
1325	 0.239715897524648 
1326	 0.239553332860919 
1327	 0.239377307098487 
1328	 0.23919726365408 
1329	 0.238985448517638 
1330	 0.238765888225771 
1331	 0.238504723193316 
1332	 0.238275182096446 
1333	 0.23806254471064 
1334	 0.237833239077507 
1335	 0.237599009273574 
1336	 0.237361278182043 
1337	 0.237099346074021 
1338	 0.236865822543675 
1339	 0.236655042104571 
1340	 0.23642985565493 
1341	 0.23622122122171 
1342	 0.235995427433273 
1343	 0.235747345463746 
1344	 0.235503695284495 
1345	 0.235277010779327 
1346	 0.235043058151119 
1347	 0.234822429556168 
1348	 0.234605061367155 
1349	 0.234374201669216 
1350	 0.234148731217725 
1351	 0.233928052596167 
1352	 0.233713805229274 
1353	 0.233489506672808 
1354	 0.233263777811052 
1355	 0.233039969247619 
1356	 0.232808766624864 
1357	 0.232581731222053 
1358	 0.232367079112778 
1359	 0.232137666024173 
1360	 0.231900228248057 
1361	 0.231662741574386 
1362	 0.231423948588972 
1363	 0.231173403640228 
1364	 0.230927831064256 
1365	 0.230658357413653 
1366	 0.230376536716503 
1367	 0.230079630562549 
1368	 0.229760916464085 
1369	 0.229433967744579 
1370	 0.229056538583877 
1371	 0.228663926828391 
1372	 0.228253562237973 
1373	 0.227782770531143 
1374	 0.227272378098833 
1375	 0.22673526596252 
1376	 0.226136533575471 
1377	 0.225492994321711 
1378	 0.224774576258982 
1379	 0.224004920731832 
1380	 0.223165878023381 
1381	 0.222259361323418 
1382	 0.221279341270185 
1383	 0.220241049378912 
1384	 0.219134297321814 
1385	 0.217958974358814 
1386	 0.216721943640353 
1387	 0.215428624198288 
1388	 0.214071255536733 
1389	 0.212657941474101 
1390	 0.211153134876357 
1391	 0.209596162536713 
1392	 0.207978237402243 
1393	 0.206297222867867 
1394	 0.204586947765072 
1395	 0.202812865607793 
1396	 0.201031327057257 
1397	 0.19926230544245 
1398	 0.197466714081942 
1399	 0.195692606627123 
1400	 0.193919951033687 
1401	 0.192183719554908 
1402	 0.190435583112318 
1403	 0.188766082215015 
1404	 0.187142421189826 
1405	 0.185571022151045 
1406	 0.184045453988088 
1407	 0.182566332254562 
1408	 0.181120805975178 
1409	 0.179752877927012 
1410	 0.178428850776813 
1411	 0.17718630559729 
1412	 0.176013870435718 
1413	 0.174922377747677 
1414	 0.173896187785649 
1415	 0.172917115105752 
1416	 0.17199971818673 
1417	 0.171124585089621 
1418	 0.170299174417231 
1419	 0.169550641965131 
1420	 0.1688505645701 
1421	 0.168191931790724 
1422	 0.167567133377158 
1423	 0.166956561191962 
1424	 0.166373375647138 
1425	 0.165806352683413 
1426	 0.165289138543013 
1427	 0.164802962923012 
1428	 0.164352260782356 
1429	 0.163949188140724 
1430	 0.163561286880733 
1431	 0.163200653937417 
1432	 0.162863093871514 
1433	 0.162554694114627 
1434	 0.1622605671313 
1435	 0.16198136566581 
1436	 0.161730258631158 
1437	 0.161500012016044 
1438	 0.161295514164557 
1439	 0.16112171099797 
1440	 0.160967800073726 
1441	 0.160816050676631 
1442	 0.160663990154374 
1443	 0.160530868064244 
1444	 0.160417963251386 
1445	 0.160335109368932 
1446	 0.160280315135323 
1447	 0.160222463298206 
1448	 0.160169976550087 
1449	 0.160122123754515 
1450	 0.160073976936024 
1451	 0.160038181731984 
1452	 0.160001339433895 
1453	 0.159998418992266 
1454	 0.160019702189452 
1455	 0.16003865308361 
1456	 0.160070833762816 
1457	 0.160123590066679 
1458	 0.160174600473066 
1459	 0.160255523746368 
1460	 0.160360033736934 
1461	 0.160494634750491 
1462	 0.160654302452314 
1463	 0.160830015624339 
1464	 0.16104083019198 
1465	 0.161258492737974 
1466	 0.161471241569689 
1467	 0.161728362165417 
1468	 0.162014700478932 
1469	 0.162327972482394 
1470	 0.162685961201352 
1471	 0.163045135270231 
1472	 0.163414057232226 
1473	 0.163801062385825 
1474	 0.16420534003928 
1475	 0.164638792875429 
1476	 0.165079693175039 
1477	 0.165534832845907 
1478	 0.16598861297604 
1479	 0.166421936649966 
1480	 0.166881707543246 
1481	 0.167357913909519 
1482	 0.167837385236778 
1483	 0.168334824217914 
1484	 0.168825987744799 
1485	 0.169316907068936 
1486	 0.169811725885852 
1487	 0.170304592747308 
1488	 0.170807634969792 
1489	 0.171324429933343 
1490	 0.171836064474724 
1491	 0.172358853719238 
1492	 0.172866977776865 
1493	 0.17335775802504 
1494	 0.173858926740596 
1495	 0.174361264137485 
1496	 0.174858602957679 
1497	 0.175365462945707 
1498	 0.175864946112555 
1499	 0.176359969998106 
1500	 0.176845787062763 
1501	 0.177321939206247 
1502	 0.177798664320623 
1503	 0.17827266064529 
1504	 0.178733313333037 
1505	 0.179195056805211 
1506	 0.179659586802926 
1507	 0.180109728683899 
1508	 0.180560372948885 
1509	 0.181010414416818 
1510	 0.181458023321434 
1511	 0.181904286672859 
1512	 0.182332270079034 
1513	 0.182761290896508 
1514	 0.183201573242633 
1515	 0.183632463185294 
1516	 0.184071999652127 
1517	 0.184507508122124 
1518	 0.184940168741618 
1519	 0.185369788923016 
1520	 0.185813196169229 
1521	 0.186218308039742 
1522	 0.186596767830499 
1523	 0.186994682954156 
1524	 0.187377387044859 
1525	 0.187766782787371 
1526	 0.188178211183427 
1527	 0.188563218450254 
1528	 0.188934165781011 
1529	 0.189291167019768 
1530	 0.189630197866843 
1531	 0.189980226856342 
1532	 0.190318626132158 
1533	 0.190663487329883 
1534	 0.191029694666532 
1535	 0.191370538789794 
1536	 0.191693157734393 
1537	 0.192014151229245 
1538	 0.192317969012802 
1539	 0.192629409199831 
1540	 0.192943428737303 
1541	 0.193259861786472 
1542	 0.193584855542711 
1543	 0.193895456006486 
1544	 0.194210852180973 
1545	 0.194503505357628 
1546	 0.194775870310742 
1547	 0.195043512648384 
1548	 0.195295055766803 
1549	 0.195540408654149 
1550	 0.195799369854725 
1551	 0.196073718765568 
1552	 0.196355900808079 
1553	 0.196635964002111 
1554	 0.19690892864421 
1555	 0.197163997939643 
1556	 0.19740386081111 
1557	 0.19764165825331 
1558	 0.197871117507169 
1559	 0.19808640629381 
1560	 0.198296105163775 
1561	 0.198491532511304 
1562	 0.198701152076604 
1563	 0.198908845006201 
1564	 0.199118687759049 
1565	 0.199343282100522 
1566	 0.199549682810621 
1567	 0.199744730313973 
1568	 0.199936994484543 
1569	 0.200120543112269 
1570	 0.200308402021466 
1571	 0.200499599399856 
1572	 0.200677376652973 
1573	 0.200850737948199 
1574	 0.201020965468883 
1575	 0.201176287575273 
1576	 0.201340617441822 
1577	 0.201515815377019 
1578	 0.20167256067526 
1579	 0.201816727714597 
1580	 0.201966353308324 
1581	 0.20210941195352 
1582	 0.202255196430565 
1583	 0.202411092932904 
1584	 0.202554744736464 
1585	 0.20269306562479 
1586	 0.20282081368222 
1587	 0.202943123989871 
1588	 0.203055207238906 
1589	 0.203142251727535 
1590	 0.203249990251468 
1591	 0.20336637529628 
1592	 0.203474173293486 
1593	 0.203581654710144 
1594	 0.203697666605231 
1595	 0.203815887068324 
1596	 0.2039266969277 
1597	 0.204053909704055 
1598	 0.204163244457634 
1599	 0.204247092199988 
1600	 0.204335268641056 
1601	 0.204421851360863 
1602	 0.204504807057518 
1603	 0.204579002196909 
1604	 0.204663807906954 
1605	 0.204759753866007 
1606	 0.204841204343913 
1607	 0.20491663031987 
1608	 0.205000738797789 
1609	 0.205067223543701 
1610	 0.205118083848414 
1611	 0.205190648372845 
1612	 0.205261270395981 
1613	 0.205315524523889 
1614	 0.20537610327236 
1615	 0.205433667728758 
1616	 0.205485673942693 
1617	 0.205557802118497 
1618	 0.205619780403143 
1619	 0.205656356657413 
1620	 0.20568863257735 
1621	 0.205724025036887 
1622	 0.205747654800886 
1623	 0.205781800522184 
1624	 0.205822155061481 
1625	 0.20586404402926 
1626	 0.205908645661551 
1627	 0.205947065780595 
1628	 0.20598532823324 
1629	 0.206030867887822 
1630	 0.206076910424317 
1631	 0.206112880650859 
1632	 0.206150771724151 
1633	 0.206195720294722 
1634	 0.206238268612357 
1635	 0.206264189082282 
1636	 0.20630104617988 
1637	 0.206312548134662 
1638	 0.206283494163953 
1639	 0.206290751905041 
1640	 0.206306806290009 
1641	 0.206325082372676 
1642	 0.206358841001293 
1643	 0.206377371354553 
1644	 0.206384932455168 
1645	 0.206410871402387 
1646	 0.206445257736925 
1647	 0.206466803230886 
1648	 0.206498574547922 
1649	 0.206515575118969 
1650	 0.2065114883979 
1651	 0.206518039016778 
1652	 0.206539453350522 
1653	 0.206529080102083 
1654	 0.206495871984949 
1655	 0.206477424960193 
1656	 0.206445283680621 
1657	 0.206422750019301 
1658	 0.20641860004563 
1659	 0.206398622012825 
1660	 0.206370498466665 
1661	 0.206337881028649 
1662	 0.206300018544651 
1663	 0.206261847252777 
1664	 0.206209941038048 
1665	 0.206175723522433 
1666	 0.206146094634768 
1667	 0.206126357642463 
1668	 0.206124245024453 
1669	 0.206110390660835 
1670	 0.206113518313862 
1671	 0.206079071661273 
1672	 0.206019708082147 
1673	 0.205964861552334 
1674	 0.205875909331945 
1675	 0.205824112541257 
1676	 0.205794117182761 
1677	 0.205757602260145 
1678	 0.205742211474347 
1679	 0.205702201418857 
1680	 0.205644483394736 
1681	 0.205596556317819 
1682	 0.205536242055645 
1683	 0.205494103706921 
1684	 0.205472110369724 
1685	 0.205433409670016 
1686	 0.205412524145258 
1687	 0.205346643258584 
1688	 0.205242286881448 
1689	 0.205156701546995 
1690	 0.20503500866507 
1691	 0.204961858729946 
1692	 0.2049387162161 
1693	 0.20487472411601 
1694	 0.204807688013349 
1695	 0.204742276787424 
1696	 0.204662657350386 
1697	 0.204577574960849 
1698	 0.204498462264341 
1699	 0.204416266277996 
1700	 0.20431898137012 
1701	 0.204221473401588 
1702	 0.204124452865377 
1703	 0.204036455491416 
1704	 0.203950325529919 
1705	 0.203849624796775 
1706	 0.203758392376936 
1707	 0.203653072137216 
1708	 0.203520153296475 
1709	 0.2034008048005 
1710	 0.203291500642929 
1711	 0.203173049910309 
1712	 0.203046038292029 
1713	 0.202921915308937 
1714	 0.202798525580572 
1715	 0.202672023022868 
1716	 0.202538633195974 
1717	 0.202416570811326 
1718	 0.202303224933134 
1719	 0.202176486805048 
1720	 0.202059500157208 
1721	 0.201923274747797 
1722	 0.201759332271522 
1723	 0.20161447005718 
1724	 0.201468136638384 
1725	 0.20132703298612 
1726	 0.201206677667134 
1727	 0.201056868284095 
1728	 0.200893170187032 
1729	 0.200728929840194 
1730	 0.200552033508104 
1731	 0.200371684291191 
1732	 0.200197506110976 
1733	 0.200002958946408 
1734	 0.199784716313442 
1735	 0.199580016529446 
1736	 0.199370397922988 
1737	 0.199163070013102 
1738	 0.198962840156245 
1739	 0.198749818222255 
1740	 0.19853299715604 
1741	 0.198311240232367 
1742	 0.198073320036315 
1743	 0.197864199016754 
1744	 0.197665736227255 
1745	 0.19745698396977 
1746	 0.197263574863656 
1747	 0.197030219107285 
1748	 0.196810112941217 
1749	 0.196585528645935 
1750	 0.196375165141452 
1751	 0.196176195316695 
1752	 0.195937211676436 
1753	 0.195688860830319 
1754	 0.195445513079352 
1755	 0.195191798366141 
1756	 0.194950600511523 
1757	 0.194705845778701 
1758	 0.194460936668593 
1759	 0.194229628805129 
1760	 0.194018440272508 
1761	 0.193840797155927 
1762	 0.193651273984865 
1763	 0.193420228280805 
1764	 0.193184930413146 
1765	 0.192957003255613 
1766	 0.192718147995812 
1767	 0.192494117085636 
1768	 0.192288986031136 
1769	 0.192076100788054 
1770	 0.191860007192108 
1771	 0.191671669211473 
1772	 0.191475939576822 
1773	 0.191258625417303 
1774	 0.191091295434258 
1775	 0.190910408117918 
1776	 0.190711696048163 
1777	 0.190548539630472 
1778	 0.190359358468838 
1779	 0.190204508054856 
1780	 0.1900881978901 
1781	 0.189928038458811 
1782	 0.189787358161855 
1783	 0.189692517136307 
1784	 0.18958068503191 
1785	 0.189503462698162 
1786	 0.189409891006054 
1787	 0.189282095910085 
1788	 0.189178963662913 
1789	 0.189100790277795 
1790	 0.18901464755936 
1791	 0.188919643040349 
1792	 0.188831625908667 
1793	 0.188734922451193 
1794	 0.188675154252565 
1795	 0.188651791785717 
1796	 0.188606457246313 
1797	 0.188575267808857 
1798	 0.188526800804406 
1799	 0.188449286830757 
1800	 0.188407591191176 
1801	 0.187316652452802 
1802	 0.187386505646722 
1803	 0.187476956985908 
1804	 0.187536279077976 
1805	 0.18757786581457 
1806	 0.187602222504527 
1807	 0.187612406434815 
1808	 0.187631017003639 
1809	 0.187672989664815 
1810	 0.18768900246885 
1811	 0.187701171181873 
1812	 0.187681245691566 
1813	 0.18766381042539 
1814	 0.187622866429611 
1815	 0.187562112804159 
1816	 0.187515817959496 
1817	 0.187466111040142 
1818	 0.187396846555495 
1819	 0.187356773944625 
1820	 0.187334233849219 
1821	 0.187309950808652 
1822	 0.187280123446485 
1823	 0.187248751415646 
1824	 0.187172233713687 
1825	 0.187076586879148 
1826	 0.187013252617853 
1827	 0.186938474090451 
1828	 0.186849693030578 
1829	 0.186773492834615 
1830	 0.186673045779701 
1831	 0.186556124459042 
1832	 0.186407739373255 
1833	 0.186246344174137 
1834	 0.186100318267759 
1835	 0.185927708670414 
1836	 0.185749666642843 
1837	 0.185581064707948 
1838	 0.185418438868822 
1839	 0.185230217460144 
1840	 0.185033960115293 
1841	 0.184801273650208 
1842	 0.184585256623331 
1843	 0.184328192529702 
1844	 0.184033930924725 
1845	 0.18375123712959 
1846	 0.183421827906246 
1847	 0.183060461033233 
1848	 0.182689873542623 
1849	 0.182312774614706 
1850	 0.18191026309077 
1851	 0.181494772822036 
1852	 0.181052628559837 
1853	 0.180584566911604 
1854	 0.180049987503791 
1855	 0.179466179056199 
1856	 0.178827284349486 
1857	 0.178121650421061 
1858	 0.177375939742073 
1859	 0.176588881361159 
1860	 0.175735501423155 
1861	 0.174831638461521 
1862	 0.173854715643252 
1863	 0.172808024344826 
1864	 0.171690405419763 
1865	 0.170498337460954 
1866	 0.169221875235961 
1867	 0.167868204492928 
1868	 0.166405034119305 
1869	 0.164826190162695 
1870	 0.163179589181794 
1871	 0.161423020572525 
1872	 0.159560828644908 
1873	 0.157636224959318 
1874	 0.155636720024354 
1875	 0.15347549780024 
1876	 0.151273194355075 
1877	 0.148963375690937 
1878	 0.146476420604055 
1879	 0.143940065776581 
1880	 0.141325415272241 
1881	 0.138551015943307 
1882	 0.135787365193149 
1883	 0.133003869920071 
1884	 0.13009986016383 
1885	 0.127142267753664 
1886	 0.124166583644503 
1887	 0.121101550981168 
1888	 0.118042098514529 
1889	 0.114980900196394 
1890	 0.111935333605769 
1891	 0.10898567286651 
1892	 0.106040923298036 
1893	 0.103226543141679 
1894	 0.100498843511304 
1895	 0.097880015377906 
1896	 9.53218475448991E-02 
1897	 9.29133444835525E-02 
1898	 9.05840343839902E-02 
1899	 0.088350228262755 
1900	 8.62872962292114E-02 
1901	 0.084348792737068 
1902	 8.25489040223448E-02 
1903	 8.09412870967167E-02 
1904	 7.94123338007379E-02 
1905	 7.79999217734427E-02 
1906	 7.66917248995148E-02 
1907	 7.54867216763899E-02 
1908	 7.43605512434672E-02 
1909	 7.33361136687925E-02 
1910	 7.23861617461553E-02 
1911	 7.15222695536112E-02 
1912	 7.07506120423967E-02 
1913	 7.00224921392534E-02 
1914	 6.93652269912848E-02 
1915	 6.87464630369401E-02 
1916	 6.81858348189273E-02 
1917	 6.76582932953545E-02 
1918	 6.71855197679934E-02 
1919	 6.67608958839529E-02 
1920	 6.63961074344425E-02 
1921	 6.60768212273961E-02 
1922	 6.57873539892542E-02 
1923	 6.55310094640112E-02 
1924	 6.53037788282751E-02 
1925	 6.51076830625591E-02 
1926	 6.49395595159806E-02 
1927	 6.47937778086311E-02 
1928	 6.46980354550786E-02 
1929	 6.46228695360876E-02 
1930	 6.45795312397956E-02 
1931	 6.45676421723323E-02 
1932	 6.45594574121914E-02 
1933	 0.06460377672439 
1934	 6.46615752280874E-02 
1935	 6.47320168266474E-02 
1936	 6.48261251717003E-02 
1937	 6.49415569385503E-02 
1938	 6.50621375990511E-02 
1939	 6.52172296353408E-02 
1940	 6.54075305079592E-02 
1941	 6.56113640892837E-02 
1942	 6.58381907501747E-02 
1943	 6.60665414294461E-02 
1944	 6.62864772901963E-02 
1945	 6.65317569399579E-02 
1946	 6.68096069264244E-02 
1947	 6.71100401957227E-02 
1948	 6.74164094155961E-02 
1949	 6.77719411667375E-02 
1950	 6.81067055652462E-02 
1951	 6.84304699034789E-02 
1952	 6.87609977399253E-02 
1953	 6.91073769036583E-02 
1954	 6.94708875725912E-02 
1955	 6.98433693419795E-02 
1956	 7.02426559119802E-02 
1957	 7.06473837058475E-02 
1958	 7.10637152337398E-02 
1959	 7.14877455308825E-02 
1960	 7.19282703951441E-02 
1961	 7.23692550424897E-02 
1962	 7.28249091682105E-02 
1963	 7.32800032784516E-02 
1964	 0.073739461514528 
1965	 7.41912200883988E-02 
1966	 0.074663420211589 
1967	 7.51277648478397E-02 
1968	 7.56101706288455E-02 
1969	 7.61110965942835E-02 
1970	 7.66052248737115E-02 
1971	 7.71040241929332E-02 
1972	 7.76107310875977E-02 
1973	 7.81176136358466E-02 
1974	 0.07863322694632 
1975	 7.91691505584408E-02 
1976	 7.96860499305184E-02 
1977	 8.02093363826844E-02 
1978	 8.07301420025422E-02 
1979	 8.12492310719531E-02 
1980	 8.17928917848102E-02 
1981	 8.23320967762343E-02 
1982	 8.28763432054975E-02 
1983	 8.34241743547154E-02 
1984	 8.39823486320541E-02 
1985	 8.45319799065316E-02 
1986	 8.50805046246322E-02 
1987	 8.56324337209054E-02 
1988	 8.61862214975254E-02 
1989	 8.67288590730082E-02 
1990	 8.72820208928262E-02 
1991	 0.087853450571748 
1992	 8.84067394701041E-02 
1993	 8.89530300545407E-02 
1994	 8.95075683414022E-02 
1995	 9.00533844669057E-02 
1996	 9.06103493773409E-02 
1997	 9.11886934914862E-02 
1998	 9.17492238007948E-02 
1999	 9.22968165891162E-02 
2000	 9.28572822315403E-02 
2001	 9.34244577956413E-02 
2002	 9.39778115593163E-02 
2003	 9.45460652347599E-02 
2004	 9.51146038377347E-02 
2005	 9.56589874231128E-02 
2006	 9.61780716745701E-02 
2007	 9.67169703945885E-02 
2008	 9.72400075017545E-02 
2009	 9.77844491171053E-02 
2010	 9.83513985414513E-02 
2011	 0.098911687088491 
2012	 9.94919571157568E-02 
2013	 0.100045302828032 
2014	 0.100584742165219 
2015	 0.10112527290412 
2016	 0.101640682303845 
2017	 0.102156650529306 
2018	 0.102680635398109 
2019	 0.10320749048181 
2020	 0.103735424142528 
2021	 0.104279772785678 
2022	 0.104800637030845 
2023	 0.105308899501861 
2024	 0.105821095276501 
2025	 0.106312641839833 
2026	 0.106819048969651 
2027	 0.10733405350634 
2028	 0.107856693671629 
2029	 0.108377519582054 
2030	 0.108905887842151 
2031	 0.109421304238529 
2032	 0.109945304359416 
2033	 0.110442004073698 
2034	 0.110919341461141 
2035	 0.111396429719574 
2036	 0.11184924982044 
2037	 0.112317439452093 
2038	 0.112793480909846 
2039	 0.113261058484325 
2040	 0.113730051258188 
2041	 0.114198171349304 
2042	 0.114643965882988 
2043	 0.115083441675277 
2044	 0.115533212921265 
2045	 0.115973903590087 
2046	 0.116431521422796 
2047	 0.116910152648831 
2048	 0.117373072439186 
2049	 0.117844499971215 
2050	 0.118299026645361 
2051	 0.118737868306967 
2052	 0.11917702108774 
2053	 0.119608967790736 
2054	 0.120036415865911 
2055	 0.120455505609622 
2056	 0.120880542191629 
2057	 0.121299831127365 
2058	 0.121712450446263 
2059	 0.122131024550179 
2060	 0.12254700626393 
2061	 0.122973151484031 
2062	 0.123418274356204 
2063	 0.12383717437413 
2064	 0.124245973360741 
2065	 0.124658542450638 
2066	 0.125056457830283 
2067	 0.125457772955221 
2068	 0.125867392878854 
2069	 0.126273661696993 
2070	 0.126674763232265 
2071	 0.127063968537507 
2072	 0.127461864409722 
2073	 0.12786664885787 
2074	 0.12826415975779 
2075	 0.128661282005934 
2076	 0.129055313198908 
2077	 0.129434865232196 
2078	 0.129831262869204 
2079	 0.130242242575982 
2080	 0.130639361762327 
2081	 0.131057961918487 
2082	 0.131443987897479 
2083	 0.131787179286587 
2084	 0.132150249022408 
2085	 0.13251635378959 
2086	 0.132864221458334 
2087	 0.133242497715827 
2088	 0.133653563577527 
2089	 0.134039014138316 
2090	 0.134442261752291 
2091	 0.134803822947679 
2092	 0.135132223058454 
2093	 0.135470866683406 
2094	 0.135778429045135 
2095	 0.136107863692558 
2096	 0.136446558305546 
2097	 0.136794252392017 
2098	 0.137155525755046 
2099	 0.137513538660631 
2100	 0.137871753533861 
2101	 0.138247649321435 
2102	 0.138592784958618 
2103	 0.138920883939287 
2104	 0.139252597234721 
2105	 0.139564927588332 
2106	 0.139893138404846 
2107	 0.140234281068838 
2108	 0.140562436526029 
2109	 0.140879154453423 
2110	 0.141213797260005 
2111	 0.141554067233347 
2112	 0.141889927939067 
2113	 0.142243894812535 
2114	 0.142590536103463 
2115	 0.142911951535935 
2116	 0.143208532695306 
2117	 0.143520122741751 
2118	 0.143825462222752 
2119	 0.144125784421815 
2120	 0.144427914776076 
2121	 0.144727125066318 
2122	 0.145020791388204 
2123	 0.145305230465166 
2124	 0.145596770086907 
2125	 0.145868623697178 
2126	 0.146113176528346 
2127	 0.146366171997342 
2128	 0.146617108456567 
2129	 0.146860102962433 
2130	 0.147106083009013 
2131	 0.147342420632683 
2132	 0.147560426425433 
2133	 0.147772902183258 
2134	 0.147954414376663 
2135	 0.148102883976096 
2136	 0.148263939981248 
2137	 0.148407443649246 
2138	 0.14855173622422 
2139	 0.14869363606309 
2140	 0.148842702653478 
2141	 0.14899638267214 
2142	 0.149133398317334 
2143	 0.149272193163082 
2144	 0.149404023398883 
2145	 0.149525102221485 
2146	 0.149630355778006 
2147	 0.149726143192033 
2148	 0.149827874714715 
2149	 0.149899338249239 
2150	 0.149939628668608 
2151	 0.149988954385115 
2152	 0.150017782975025 
2153	 0.150073055130169 
2154	 0.150142149162656 
2155	 0.150195658350907 
2156	 0.150270218015167 
2157	 0.150310891570804 
2158	 0.150326235721105 
2159	 0.150335610995115 
2160	 0.150329980615571 
2161	 0.150316680943809 
2162	 0.150276846244209 
2163	 0.150254376327799 
2164	 0.150222218162312 
2165	 0.150214949261182 
2166	 0.150198040819075 
2167	 0.150195290263466 
2168	 0.150173257139214 
2169	 0.15013802926557 
2170	 0.150111837883282 
2171	 0.150089449323911 
2172	 0.150053525741292 
2173	 0.15002601351028 
2174	 0.14997104736161 
2175	 0.149877714420829 
2176	 0.149812557024911 
2177	 0.149747804029248 
2178	 0.149681628965034 
2179	 0.14963415757842 
2180	 0.149572756713507 
2181	 0.14949271730892 
2182	 0.14942045116386 
2183	 0.149335951857992 
2184	 0.149278522320613 
2185	 0.149216238608413 
2186	 0.149159746247814 
2187	 0.149101974286119 
2188	 0.149055357230946 
2189	 0.148991276338833 
2190	 0.148901118563828 
2191	 0.148851342866168 
2192	 0.148817084055307 
2193	 0.148776977023304 
2194	 0.148776902236337 
2195	 0.14873791832321 
2196	 0.148659504785 
2197	 0.148602970273937 
2198	 0.148530145005919 
2199	 0.148483986773296 
2200	 0.148470672962192 
2201	 0.148443422269374 
2202	 0.148408990177508 
2203	 0.148405426013461 
2204	 0.14837997308809 
2205	 0.148336499118375 
2206	 0.148317047248546 
2207	 0.148306247624648 
2208	 0.148295117564926 
2209	 0.148291455976541 
2210	 0.148293544489848 
2211	 0.148303184974029 
2212	 0.148304558955241 
2213	 0.148306702875394 
2214	 0.14831579988832 
2215	 0.148344661957582 
2216	 0.148331686997146 
2217	 0.148279895906101 
2218	 0.148267428664521 
2219	 0.148238046713201 
2220	 0.148227498076346 
2221	 0.148266153523501 
2222	 0.148308324138606 
2223	 0.148280703268879 
2224	 0.148226651006531 
2225	 0.14819196058754 
2226	 0.148127552990835 
2227	 0.14809797350247 
2228	 0.14811295557476 
2229	 0.148065483855792 
2230	 0.14798932539686 
2231	 0.147932334199868 
2232	 0.147850283695976 
2233	 0.147787348726657 
2234	 0.147753573429777 
2235	 0.147696743703322 
2236	 0.147623374523779 
2237	 0.147555746671445 
2238	 0.147500751247888 
2239	 0.147416780263573 
2240	 0.147313145706201 
2241	 0.147218313819742 
2242	 0.147098853475018 
2243	 0.146996233690062 
2244	 0.146910606260842 
2245	 0.146817321882979 
2246	 0.146742274145455 
2247	 0.146669603675832 
2248	 0.146586809482123 
2249	 0.146515020814806 
2250	 0.146417880471234 
2251	 0.146304046436291 
2252	 0.146185891249773 
2253	 0.14604705518144 
2254	 0.145925878088798 
2255	 0.145801427800211 
2256	 0.145685260171603 
2257	 0.14557527297262 
2258	 0.145483570042165 
2259	 0.145399868963609 
2260	 0.145316673542156 
2261	 0.145261833772436 
2262	 0.145183664801172 
2263	 0.145099548947298 
2264	 0.145003303404601 
2265	 0.144897279804879 
2266	 0.144784110726389 
2267	 0.144648952330472 
2268	 0.144523524832665 
2269	 0.144407738451316 
2270	 0.144270524053376 
2271	 0.144118490231407 
2272	 0.143995667556176 
2273	 0.143891752640643 
2274	 0.143780758472098 
2275	 0.143647801569172 
2276	 0.143521847524442 
2277	 0.143383962067696 
2278	 0.143205467542038 
2279	 0.143053914119856 
2280	 0.142924905698581 
2281	 0.14278031865566 
2282	 0.14261613289988 
2283	 0.142483127290609 
2284	 0.142382665364797 
2285	 0.14223964716544 
2286	 0.142093118148205 
2287	 0.141938740344597 
2288	 0.141743727608505 
2289	 0.141574640836946 
2290	 0.141438834093094 
2291	 0.141266544549226 
2292	 0.141055749449444 
2293	 0.140881090020453 
2294	 0.140711015679518 
2295	 0.140538678106188 
2296	 0.140394127006933 
2297	 0.140241815228038 
2298	 0.140071291043678 
2299	 0.139870623182875 
2300	 0.139658141808105 
2301	 0.139463047431794 
2302	 0.139255516865533 
2303	 0.139061941843692 
2304	 0.138895788399238 
2305	 0.138704034108825 
2306	 0.138482728708616 
2307	 0.138237569203368 
2308	 0.138000235050377 
2309	 0.1377269291352 
2310	 0.137491783869489 
2311	 0.137285676370239 
2312	 0.137056055490375 
2313	 0.13683180438856 
2314	 0.136585021584758 
2315	 0.136314298404233 
2316	 0.136059281573633 
2317	 0.135795466638258 
2318	 0.13553584089713 
2319	 0.135270233557801 
2320	 0.135040113579372 
2321	 0.134849180169218 
2322	 0.134610360772127 
2323	 0.134388548464927 
2324	 0.134143197885696 
2325	 0.1338273494086 
2326	 0.13355266662452 
2327	 0.133307963758319 
2328	 0.133036019796601 
2329	 0.13278393531847 
2330	 0.132536903115079 
2331	 0.132274027078321 
2332	 0.132016019272177 
2333	 0.131726271645662 
2334	 0.131438161835649 
2335	 0.131167400193869 
2336	 0.130898862717 
2337	 0.130672940997502 
2338	 0.130455304902843 
2339	 0.130216075608104 
2340	 0.129957317423231 
2341	 0.129659257812598 
2342	 0.129380237182483 
2343	 0.129132843209181 
2344	 0.128878533371521 
2345	 0.128598779438231 
2346	 0.128319140765767 
2347	 0.127983995655275 
2348	 0.127587705988626 
2349	 0.127249556163356 
2350	 0.126920543127734 
2351	 0.12657247493587 
2352	 0.126234800779018 
2353	 0.12588769927911 
2354	 0.125476804081013 
2355	 0.125164361208266 
2356	 0.124931170561533 
2357	 0.124639345957453 
2358	 0.124380664623926 
2359	 0.124077146372943 
2360	 0.123738710757013 
2361	 0.123400965069012 
2362	 0.123043559910785 
2363	 0.122684937898472 
2364	 0.122291008484529 
2365	 0.121928708213721 
2366	 0.121573592515225 
2367	 0.121238302441834 
2368	 0.120946736348556 
2369	 0.120608421822509 
2370	 0.120249242141156 
2371	 0.119927163251559 
2372	 0.119553171602421 
2373	 0.119170573995174 
2374	 0.118823451735416 
2375	 0.11840760348263 
2376	 0.11794783428907 
2377	 0.117529744289901 
2378	 0.11714589195008 
2379	 0.116823094330486 
2380	 0.116560463248398 
2381	 0.116277892974535 
2382	 0.115959214110014 
2383	 0.11561875102143 
2384	 0.115239817035061 
2385	 0.114845175379145 
2386	 0.114398521922453 
2387	 0.11389174976077 
2388	 0.113478122023754 
2389	 0.113172138949159 
2390	 0.112887050072147 
2391	 0.112573888986671 
2392	 0.112207056401535 
2393	 0.11179898888566 
2394	 0.111294429216676 
2395	 0.110880267464736 
2396	 0.110515988455313 
2397	 0.110063572321665 
2398	 0.109676977087585 
2399	 0.109290417602107 
2400	 0.10895141435138 
2401	 0.108608559899918 
2402	 0.108234812681498 
2403	 0.107894406758646 
2404	 0.107470482048112 
2405	 0.107099633845864 
2406	 0.106765472385278 
2407	 0.106387579890693 
2408	 0.106001830059205 
2409	 0.105516284475612 
2410	 0.105025270486109 
2411	 0.104578852331946 
2412	 0.10416107179215 
2413	 0.103792298045833 
2414	 0.103391071508887 
2415	 0.103022016282239 
2416	 0.102669447311763 
2417	 0.102319343900844 
2418	 0.101975533740929 
2419	 0.101683392543574 
2420	 0.101315554641754 
2421	 0.100930190384292 
2422	 0.100504534448271 
2423	 9.99907293803954E-02 
2424	 9.95721841165368E-02 
2425	 9.91516796270807E-02 
2426	 9.87701859431906E-02 
2427	 9.85292191680313E-02 
2428	 9.81543748515887E-02 
2429	 9.77006965663959E-02 
2430	 9.72475356926688E-02 
2431	 9.66976432691834E-02 
2432	 0.096250539882348 
2433	 9.58782922885687E-02 
2434	 9.55119295749439E-02 
2435	 9.51453877591841E-02 
2436	 9.47990850687098E-02 
2437	 9.45010065645628E-02 
2438	 9.41419134126374E-02 
2439	 9.38559461607657E-02 
2440	 9.34344290910787E-02 
2441	 9.28341351272964E-02 
2442	 0.092402915506776 
2443	 9.19975661599043E-02 
2444	 9.16056391599031E-02 
2445	 9.12752727634618E-02 
2446	 9.09468416574054E-02 
2447	 9.06390323430275E-02 
2448	 9.02108933538916E-02 
2449	 8.98124205482109E-02 
2450	 8.93998622442516E-02 
2451	 8.88080716722257E-02 
2452	 8.83344963595249E-02 
2453	 8.79720725522318E-02 
2454	 8.75580327545234E-02 
2455	 8.70676890975966E-02 
2456	 8.67778788129699E-02 
2457	 8.66837001583161E-02 
2458	 8.63721114889717E-02 
2459	 8.60919318234646E-02 
2460	 8.56950499945595E-02 
2461	 8.50243204189712E-02 
2462	 8.45641974584099E-02 
2463	 8.41632594056912E-02 
2464	 8.38372876039439E-02 
2465	 8.36583303679808E-02 
2466	 8.33266467955423E-02 
2467	 8.30435216265891E-02 
2468	 8.26442943183013E-02 
2469	 8.20162390015811E-02 
2470	 8.16464327857769E-02 
2471	 8.13523030201022E-02 
2472	 8.10158887775418E-02 
2473	 8.07183156990471E-02 
2474	 8.04692063957482E-02 
2475	 8.00612147631884E-02 
2476	 7.97657029462707E-02 
2477	 7.94996189939129E-02 
2478	 7.90940301435756E-02 
2479	 7.86700629665126E-02 
2480	 7.82208780522538E-02 
2481	 0.077880662043983 
2482	 7.75713969758942E-02 
2483	 7.73892002171163E-02 
2484	 7.72923258474642E-02 
2485	 7.70750215766231E-02 
2486	 7.68504112848111E-02 
2487	 7.65894921715133E-02 
2488	 7.62224077122091E-02 
2489	 7.59536343352378E-02 
2490	 7.57492222842742E-02 
2491	 7.54032095199839E-02 
2492	 7.51832795186866E-02 
2493	 0.074998939523579 
2494	 7.46445529917916E-02 
2495	 7.43465041324657E-02 
2496	 7.40952126744428E-02 
2497	 0.073783213919865 
2498	 7.35560289296289E-02 
2499	 7.33827203020351E-02 
2500	 7.31685785448616E-02 
