Wavelength	mm1300008.asd
350	 6.63241501018854E-02 
351	 0.07546746385393 
352	 7.29074448126668E-02 
353	 6.10944911104534E-02 
354	 6.39037285932083E-02 
355	 6.75808147232622E-02 
356	 6.86865986003304E-02 
357	 6.78305802795931E-02 
358	 7.00981210440682E-02 
359	 6.67586810611832E-02 
360	 6.22004540664321E-02 
361	 6.75131344856762E-02 
362	 6.90903987141892E-02 
363	 6.52923272731019E-02 
364	 5.93089882935866E-02 
365	 0.058783481872747 
366	 6.10046639579445E-02 
367	 6.45887971041475E-02 
368	 6.77673939848855E-02 
369	 6.63067439032212E-02 
370	 6.51756917873084E-02 
371	 6.53630529750305E-02 
372	 6.51436323211245E-02 
373	 6.72855777830801E-02 
374	 0.069084997617589 
375	 6.89186487434988E-02 
376	 6.80789761419235E-02 
377	 0.06664319925234 
378	 6.89407001736606E-02 
379	 7.64490991947429E-02 
380	 7.45670332675263E-02 
381	 7.01963846687104E-02 
382	 6.79680821836655E-02 
383	 6.95591889277434E-02 
384	 7.10425168842815E-02 
385	 7.06932692306567E-02 
386	 6.96548481285925E-02 
387	 0.074105645488938 
388	 7.52262732842482E-02 
389	 7.34384868478378E-02 
390	 7.23318259542215E-02 
391	 7.50899514278337E-02 
392	 7.65917873840451E-02 
393	 7.57503212932159E-02 
394	 7.52161361789895E-02 
395	 7.60609540483363E-02 
396	 7.67968052878073E-02 
397	 7.68777585465029E-02 
398	 7.90731393700882E-02 
399	 7.91922211074074E-02 
400	 7.85821721645463E-02 
401	 7.98528846518075E-02 
402	 8.03407849216312E-02 
403	 8.01556935308368E-02 
404	 7.97670227039877E-02 
405	 7.97920516594717E-02 
406	 8.07216247670408E-02 
407	 8.14528746830134E-02 
408	 0.0812634853246 
409	 8.11753228759697E-02 
410	 8.07000272209068E-02 
411	 8.03286835446034E-02 
412	 0.080830452774191 
413	 8.17175574355054E-02 
414	 8.19642802177318E-02 
415	 8.16258447815025E-02 
416	 8.21399801093951E-02 
417	 8.22992760292304E-02 
418	 8.23468721439325E-02 
419	 8.26756231570584E-02 
420	 8.30979263610113E-02 
421	 8.24704710014322E-02 
422	 8.17374249885535E-02 
423	 0.082803879253388 
424	 8.23968934214176E-02 
425	 8.18081217385524E-02 
426	 0.082051862713892 
427	 8.27256489359274E-02 
428	 8.21308155872244E-02 
429	 8.16117334672783E-02 
430	 8.27047813218331E-02 
431	 8.25098451815808E-02 
432	 8.26043990133101E-02 
433	 8.32009860303882E-02 
434	 0.083067827362995 
435	 8.34055224495062E-02 
436	 8.35522693874904E-02 
437	 8.30594452033326E-02 
438	 0.082939330357326 
439	 8.28372889931011E-02 
440	 8.28755926193667E-02 
441	 8.32998359340719E-02 
442	 8.34197233960676E-02 
443	 8.36040454626841E-02 
444	 8.38677140794708E-02 
445	 0.083511278060544 
446	 8.35357656251019E-02 
447	 8.37443985979721E-02 
448	 8.37391560865585E-02 
449	 0.083818684585308 
450	 8.42133353467793E-02 
451	 8.46895923897687E-02 
452	 8.46665541213413E-02 
453	 8.45180045368791E-02 
454	 8.42602753087638E-02 
455	 8.40595796154065E-02 
456	 8.46831456727623E-02 
457	 8.49452602322779E-02 
458	 0.084750924105851 
459	 8.45517618539503E-02 
460	 8.46933077948951E-02 
461	 0.084889241967279 
462	 8.49551702205295E-02 
463	 8.49391370294487E-02 
464	 8.48592217551344E-02 
465	 8.48849539866867E-02 
466	 8.51324486830752E-02 
467	 8.53975369094885E-02 
468	 8.54425076110635E-02 
469	 8.53338283471165E-02 
470	 8.53690919756754E-02 
471	 8.53884636912335E-02 
472	 8.54902199700961E-02 
473	 8.56704834856813E-02 
474	 8.55770199372321E-02 
475	 8.55651986926025E-02 
476	 8.56144717557655E-02 
477	 8.55827692800212E-02 
478	 8.57276748831173E-02 
479	 0.085896222081044 
480	 8.59512741421404E-02 
481	 0.085820339202799 
482	 8.58873254669448E-02 
483	 8.61091675472449E-02 
484	 0.086292771430914 
485	 8.61881093536479E-02 
486	 8.61570778952051E-02 
487	 8.62706970621466E-02 
488	 8.63438488304272E-02 
489	 8.63351492033667E-02 
490	 8.63805842867877E-02 
491	 8.65476577703828E-02 
492	 8.66855148712325E-02 
493	 8.65984401353345E-02 
494	 8.64505247031488E-02 
495	 8.65462283288639E-02 
496	 8.67764160897136E-02 
497	 8.69244726593713E-02 
498	 8.69390934790192E-02 
499	 8.70261030130851E-02 
500	 8.70341639790695E-02 
501	 8.70089396588782E-02 
502	 8.70359076760643E-02 
503	 8.71355598773887E-02 
504	 8.70871088748984E-02 
505	 8.69559429838734E-02 
506	 8.70568439329614E-02 
507	 8.72262958130306E-02 
508	 8.73065969369497E-02 
509	 8.72420462872983E-02 
510	 8.72162967717755E-02 
511	 8.73512067054127E-02 
512	 8.74963531654554E-02 
513	 8.74100343045186E-02 
514	 0.08750175599139 
515	 0.087604572028453 
516	 8.76219066015459E-02 
517	 8.76881614012113E-02 
518	 8.77615416527341E-02 
519	 8.77849248531326E-02 
520	 8.77367533069828E-02 
521	 8.78019178536074E-02 
522	 8.79286183337819E-02 
523	 0.08804008916074 
524	 8.80523240743422E-02 
525	 8.80207302713738E-02 
526	 0.087981918381949 
527	 0.087978138574909 
528	 8.80858341562438E-02 
529	 8.82193356992459E-02 
530	 8.83363477754307E-02 
531	 8.84207437122261E-02 
532	 8.83717948982158E-02 
533	 8.83923881620763E-02 
534	 8.85581389671628E-02 
535	 8.85967827731612E-02 
536	 8.86282159648554E-02 
537	 8.87094379994434E-02 
538	 8.88454839527191E-02 
539	 8.88354661769583E-02 
540	 8.88197158228477E-02 
541	 8.88905686785646E-02 
542	 8.90427370779274E-02 
543	 8.91513379350895E-02 
544	 8.92404946450978E-02 
545	 8.93421200476302E-02 
546	 8.93192055093007E-02 
547	 8.93636920633239E-02 
548	 8.95002417262831E-02 
549	 8.96066755528015E-02 
550	 0.089711101238544 
551	 8.97781248287793E-02 
552	 8.98234796782891E-02 
553	 0.090040195103741 
554	 9.01111854496632E-02 
555	 9.01507669684497E-02 
556	 9.04492742012958E-02 
557	 9.06579941611791E-02 
558	 9.08065982076025E-02 
559	 9.09680122284754E-02 
560	 9.12208942074927E-02 
561	 9.13816595143039E-02 
562	 9.15407006921238E-02 
563	 9.18235703860404E-02 
564	 9.19911680538495E-02 
565	 9.21186393114139E-02 
566	 9.22612145011035E-02 
567	 9.24300277493736E-02 
568	 0.092628229038996 
569	 9.28864390155663E-02 
570	 9.32331752919382E-02 
571	 9.36892558601664E-02 
572	 9.41190711571094E-02 
573	 9.44767815424388E-02 
574	 9.47885299441655E-02 
575	 9.50702434455191E-02 
576	 9.54685781441182E-02 
577	 9.59936604801343E-02 
578	 9.63112297747453E-02 
579	 9.66599310813678E-02 
580	 0.097021916290734 
581	 9.73031688369787E-02 
582	 9.76545839314156E-02 
583	 9.80154175789697E-02 
584	 9.83843372075446E-02 
585	 0.098870152097521 
586	 9.94985917262802E-02 
587	 0.100123913604328 
588	 0.100627760560553 
589	 0.101255795953911 
590	 0.101886118235457 
591	 0.102467724838093 
592	 0.103028138237116 
593	 0.103572164409961 
594	 0.104087026531324 
595	 0.104534391816764 
596	 0.104801829659601 
597	 0.105093591859902 
598	 0.105448406912853 
599	 0.105819565612986 
600	 0.106271829321356 
601	 0.106766778511757 
602	 0.10726353650087 
603	 0.107742240427193 
604	 0.108183518880934 
605	 0.108646857197292 
606	 0.109186917489704 
607	 0.109666278992146 
608	 0.110115865989738 
609	 0.11056716788333 
610	 0.11103956395248 
611	 0.111415871387439 
612	 0.111735193591931 
613	 0.112052320068783 
614	 0.112329237996506 
615	 0.112633926092038 
616	 0.112938970512974 
617	 0.113159928382711 
618	 0.113410405541931 
619	 0.113680258753028 
620	 0.113938780339973 
621	 0.114150748930898 
622	 0.114338048096372 
623	 0.114523422799881 
624	 0.114726393313278 
625	 0.114932944968192 
626	 0.115123823876665 
627	 0.115298266559029 
628	 0.115479194249735 
629	 0.115675517702313 
630	 0.115864805025063 
631	 0.116023064741651 
632	 0.116151166701047 
633	 0.116300042831052 
634	 0.116482449620662 
635	 0.11667630969492 
636	 0.11685489666944 
637	 0.116999416455988 
638	 0.117113745719166 
639	 0.11724540095385 
640	 0.117403071176052 
641	 0.117575202312847 
642	 0.117741243244447 
643	 0.117912116035449 
644	 0.118093549450631 
645	 0.118274785611642 
646	 0.118422144288385 
647	 0.118533597275952 
648	 0.118679013861126 
649	 0.118904144637254 
650	 0.119064188943567 
651	 0.119221301960191 
652	 0.119407832355029 
653	 0.119620233723491 
654	 0.119772559430497 
655	 0.119914032483849 
656	 0.120096965518353 
657	 0.120316733712878 
658	 0.120553525638545 
659	 0.120764146140084 
660	 0.120911843051474 
661	 0.121085167641458 
662	 0.121306999040856 
663	 0.12155406007787 
664	 0.121746361959452 
665	 0.121992616440755 
666	 0.122241818212079 
667	 0.122429209921174 
668	 0.122628189475896 
669	 0.122850574372857 
670	 0.123102759749841 
671	 0.123381473129094 
672	 0.12359643381828 
673	 0.123837067268823 
674	 0.124151036834289 
675	 0.124414317436301 
676	 0.124656952764371 
677	 0.124916085320526 
678	 0.125217743627381 
679	 0.125458618904382 
680	 0.125729144327665 
681	 0.126055343825988 
682	 0.126359014147084 
683	 0.126658264122494 
684	 0.126928846633062 
685	 0.127173352021003 
686	 0.127526353306458 
687	 0.127850456768382 
688	 0.128146453825901 
689	 0.128507250778513 
690	 0.128848794985254 
691	 0.129180215299703 
692	 0.129513511072716 
693	 0.129840849481329 
694	 0.130145438924381 
695	 0.13046114558634 
696	 0.130819711221627 
697	 0.131128201144893 
698	 0.131448381954017 
699	 0.131807457917449 
700	 0.132185356643705 
701	 0.132561259471287 
702	 0.132928216221673 
703	 0.13327812216783 
704	 0.133581862063716 
705	 0.133904551175969 
706	 0.134253476929342 
707	 0.134603766134342 
708	 0.134951737666485 
709	 0.135316331015639 
710	 0.135696166793647 
711	 0.136059333829128 
712	 0.136390869063724 
713	 0.136673518901857 
714	 0.136932329651841 
715	 0.137343804996517 
716	 0.137746087952853 
717	 0.138076477964676 
718	 0.13836076685746 
719	 0.138683586663768 
720	 0.13900715570306 
721	 0.139297006217577 
722	 0.139562323351061 
723	 0.139832839809628 
724	 0.140100562720434 
725	 0.140354592528235 
726	 0.140649270557528 
727	 0.140899979477301 
728	 0.141098911990551 
729	 0.141315483087463 
730	 0.1415814808471 
731	 0.141815513854624 
732	 0.141974378366848 
733	 0.142153023769341 
734	 0.142348354767886 
735	 0.142520626635855 
736	 0.142633056368062 
737	 0.142784983164433 
738	 0.142929235938675 
739	 0.143040784895838 
740	 0.143131493805879 
741	 0.143224829256106 
742	 0.143299401551545 
743	 0.14334598928 
744	 0.14342005972232 
745	 0.143452461219556 
746	 0.143473531183152 
747	 0.143539436030275 
748	 0.143528900677845 
749	 0.1434870845093 
750	 0.14346536601227 
751	 0.14350068082178 
752	 0.143437264024367 
753	 0.143317356963861 
754	 0.143220930011387 
755	 0.143191738730936 
756	 0.143157877699124 
757	 0.143069410740461 
758	 0.142914831017905 
759	 0.142852600971032 
760	 0.142778632705623 
761	 0.142643819885524 
762	 0.142500026635342 
763	 0.142348963511162 
764	 0.142201778557099 
765	 0.142055767630961 
766	 0.141858781842997 
767	 0.141702157472976 
768	 0.141594782170251 
769	 0.141491344176205 
770	 0.141311072011581 
771	 0.14111574734803 
772	 0.140930280563664 
773	 0.140719680356563 
774	 0.140525778375248 
775	 0.140357910008826 
776	 0.140199775611107 
777	 0.139985589424538 
778	 0.139780406789614 
779	 0.139613675495456 
780	 0.139477297436112 
781	 0.139247417612281 
782	 0.139044958561959 
783	 0.138890679042135 
784	 0.13868333773808 
785	 0.1384622059732 
786	 0.13825438105458 
787	 0.138071677180215 
788	 0.137895459360461 
789	 0.137724605712883 
790	 0.13751658611794 
791	 0.137251682249208 
792	 0.137097756031533 
793	 0.136936887914615 
794	 0.136746318564624 
795	 0.136589652587953 
796	 0.136348449519658 
797	 0.136139419620113 
798	 0.13601954273457 
799	 0.135873373214198 
800	 0.135702237448974 
801	 0.135519920492153 
802	 0.135340264154686 
803	 0.135140594970924 
804	 0.134981570889886 
805	 0.134845088216255 
806	 0.134672100947616 
807	 0.13452339375407 
808	 0.134383767582389 
809	 0.134233099881474 
810	 0.134056628817148 
811	 0.13387616388799 
812	 0.133715850160063 
813	 0.133595236849709 
814	 0.133531790623593 
815	 0.13342292542466 
816	 0.133285448388933 
817	 0.13316943270524 
818	 0.132987866585782 
819	 0.132867804004078 
820	 0.132796766306649 
821	 0.132648923938459 
822	 0.132558782267134 
823	 0.132486712914695 
824	 0.132389441256325 
825	 0.132260521946107 
826	 0.132162111804355 
827	 0.132068843949603 
828	 0.131954258148315 
829	 0.131877720750127 
830	 0.131746100007809 
831	 0.13160297495614 
832	 0.131546610978514 
833	 0.131564335912514 
834	 0.131533822743862 
835	 0.131439630725461 
836	 0.131373698087772 
837	 0.131340875707464 
838	 0.131283247126514 
839	 0.131188738625529 
840	 0.131142070693238 
841	 0.13106325095139 
842	 0.130993119172869 
843	 0.13097711255553 
844	 0.130972014975911 
845	 0.130969178768999 
846	 0.130917492695163 
847	 0.130796694247175 
848	 0.130853945860558 
849	 0.130881439108181 
850	 0.130816691734447 
851	 0.13074878033477 
852	 0.130690455012157 
853	 0.130712231519751 
854	 0.130794977740936 
855	 0.130789068083724 
856	 0.130808416524018 
857	 0.130854484923776 
858	 0.130890111490241 
859	 0.130842688617345 
860	 0.130825289604931 
861	 0.130852524232645 
862	 0.130890650747487 
863	 0.130872112378668 
864	 0.130899857766647 
865	 0.130976092750437 
866	 0.131034039280127 
867	 0.131032290971066 
868	 0.131043931863871 
869	 0.131079493409777 
870	 0.131083293805367 
871	 0.131164124542428 
872	 0.13124860801775 
873	 0.131300581809072 
874	 0.131391539986084 
875	 0.131482323084754 
876	 0.131535316223545 
877	 0.131550277270145 
878	 0.131614917890628 
879	 0.131748504412621 
880	 0.131852415116841 
881	 0.131861227219489 
882	 0.132032549383899 
883	 0.132159017526027 
884	 0.132220223573353 
885	 0.132308073600603 
886	 0.132456829981198 
887	 0.132589133592338 
888	 0.132682273263792 
889	 0.132770463770886 
890	 0.132874977741647 
891	 0.132950444022239 
892	 0.133028632921227 
893	 0.133235208987983 
894	 0.133457320576455 
895	 0.133595123436595 
896	 0.133650093870744 
897	 0.133791108965486 
898	 0.133962688888201 
899	 0.134128528276228 
900	 0.134269628176421 
901	 0.134404210551876 
902	 0.134547944126643 
903	 0.134728417229797 
904	 0.134949609164712 
905	 0.135130458450125 
906	 0.135261586667208 
907	 0.135440752518777 
908	 0.135748502150318 
909	 0.13592526139952 
910	 0.136058737473488 
911	 0.136221011475623 
912	 0.136442402689255 
913	 0.136631304581031 
914	 0.136878780398833 
915	 0.137153624049368 
916	 0.137325234297833 
917	 0.137504339660553 
918	 0.137731117918866 
919	 0.137996704107691 
920	 0.138247962287837 
921	 0.138487057057757 
922	 0.138745260990952 
923	 0.139006288912487 
924	 0.139184290327428 
925	 0.13931288353028 
926	 0.139590163948178 
927	 0.140024702058672 
928	 0.140234100123398 
929	 0.140500863744486 
930	 0.140801433241391 
931	 0.141080031065263 
932	 0.141389620649811 
933	 0.141654265696265 
934	 0.141949712855618 
935	 0.142323460653875 
936	 0.142619256206402 
937	 0.142855306488706 
938	 0.143099154418305 
939	 0.143419856246372 
940	 0.143825225535851 
941	 0.144177050487683 
942	 0.144544600510109 
943	 0.145000727578817 
944	 0.145279634481436 
945	 0.145569186313638 
946	 0.145919699954222 
947	 0.146290257303709 
948	 0.146574968387598 
949	 0.146898935549081 
950	 0.147286666741704 
951	 0.147690613052029 
952	 0.148028733929961 
953	 0.148377240880765 
954	 0.148742248722779 
955	 0.149104179816582 
956	 0.14956156126562 
957	 0.150002734878379 
958	 0.150363669843775 
959	 0.150657510916697 
960	 0.151058610190356 
961	 0.151544496673035 
962	 0.1520118112053 
963	 0.152357919914497 
964	 0.152735125968463 
965	 0.153186081042035 
966	 0.153657083257741 
967	 0.15405728351962 
968	 0.154450219144189 
969	 0.154910976527018 
970	 0.155384522202506 
971	 0.155765644472024 
972	 0.156221930684564 
973	 0.156682310685655 
974	 0.157070641447698 
975	 0.157394020005774 
976	 0.158062461505226 
977	 0.158689666285747 
978	 0.159114172326951 
979	 0.159412174102536 
980	 0.159779557302871 
981	 0.160301237664176 
982	 0.160853763291953 
983	 0.161245496821166 
984	 0.161609280203458 
985	 0.162090911688807 
986	 0.162589891621048 
987	 0.16294400984621 
988	 0.163436871131929 
989	 0.163936440816175 
990	 0.164392865241117 
991	 0.164833746134475 
992	 0.165366046239688 
993	 0.165831982451346 
994	 0.166279293215845 
995	 0.16680494878658 
996	 0.167296138715123 
997	 0.167628704567408 
998	 0.168001851297016 
999	 0.168602436001486 
1000	 0.169124214855596 
1001	 0.169116667452216 
1002	 0.169645745889345 
1003	 0.170100552176281 
1004	 0.170509360167921 
1005	 0.170845727238431 
1006	 0.171242135332786 
1007	 0.171620769409434 
1008	 0.172014967060636 
1009	 0.172392765774796 
1010	 0.172811568282 
1011	 0.173224281008541 
1012	 0.173554463155101 
1013	 0.173920859216514 
1014	 0.174356564851965 
1015	 0.174757461500467 
1016	 0.175137595931164 
1017	 0.175518898383115 
1018	 0.175935595523688 
1019	 0.176271602614365 
1020	 0.176589019819214 
1021	 0.176967445460692 
1022	 0.177309171711773 
1023	 0.177633165195294 
1024	 0.17791079533116 
1025	 0.178176689076882 
1026	 0.178523668666171 
1027	 0.178809317504264 
1028	 0.17911615782461 
1029	 0.179465590962585 
1030	 0.179750311467841 
1031	 0.180066176794318 
1032	 0.180425115808944 
1033	 0.18076779554291 
1034	 0.181057853419908 
1035	 0.181384432522057 
1036	 0.181663413546879 
1037	 0.181937177978371 
1038	 0.182261295783775 
1039	 0.182524930445463 
1040	 0.182794328637187 
1041	 0.183128828183857 
1042	 0.183451884347304 
1043	 0.183750446043137 
1044	 0.184033574560831 
1045	 0.184306002955696 
1046	 0.184585261103806 
1047	 0.184866313223281 
1048	 0.185132998187881 
1049	 0.185429189907199 
1050	 0.185707797426013 
1051	 0.185973128718161 
1052	 0.18628614492354 
1053	 0.186598207262608 
1054	 0.186935407882516 
1055	 0.18724727555362 
1056	 0.187514182266855 
1057	 0.187812622300437 
1058	 0.188136261048797 
1059	 0.188423531254744 
1060	 0.188696322841015 
1061	 0.18898013027092 
1062	 0.189268411412372 
1063	 0.189563076554636 
1064	 0.189847725008452 
1065	 0.190180344858386 
1066	 0.190476382501302 
1067	 0.190728375031877 
1068	 0.190996143604256 
1069	 0.191260708267159 
1070	 0.191533177731632 
1071	 0.19179937382112 
1072	 0.192080175967754 
1073	 0.192402235710631 
1074	 0.192668797070639 
1075	 0.192899860410046 
1076	 0.19315521951113 
1077	 0.193417898384121 
1078	 0.193638104198143 
1079	 0.193866777126603 
1080	 0.194067800972116 
1081	 0.194271895064772 
1082	 0.194560651589616 
1083	 0.194798939877617 
1084	 0.195057416124938 
1085	 0.195298162259329 
1086	 0.19550236409905 
1087	 0.195693401232416 
1088	 0.195864551915839 
1089	 0.196091696795773 
1090	 0.196294519356311 
1091	 0.19647230565244 
1092	 0.196681764655178 
1093	 0.196895561997673 
1094	 0.197088162674755 
1095	 0.197272384321503 
1096	 0.197463903830589 
1097	 0.197655533376227 
1098	 0.197868418303997 
1099	 0.198110109778263 
1100	 0.198330456344069 
1101	 0.19857064497531 
1102	 0.198778761474163 
1103	 0.19897444936096 
1104	 0.199138229153411 
1105	 0.199275403778776 
1106	 0.199405524003058 
1107	 0.199569053611628 
1108	 0.199748792957689 
1109	 0.199964146008477 
1110	 0.200196093307969 
1111	 0.200394466394834 
1112	 0.200579146673314 
1113	 0.200758293981673 
1114	 0.200917241407197 
1115	 0.201080985941411 
1116	 0.201229298093071 
1117	 0.201395773606281 
1118	 0.20155653149628 
1119	 0.201753711970492 
1120	 0.201945744922431 
1121	 0.202137725639748 
1122	 0.202340846129552 
1123	 0.202538086591751 
1124	 0.202721707062698 
1125	 0.202904881519699 
1126	 0.203082253635535 
1127	 0.203236290423052 
1128	 0.203405702335511 
1129	 0.203587205994429 
1130	 0.20376174857369 
1131	 0.203943454258296 
1132	 0.204106170428355 
1133	 0.204254039639848 
1134	 0.204410164589869 
1135	 0.204562421310882 
1136	 0.204701130495158 
1137	 0.204861662762906 
1138	 0.205018068086802 
1139	 0.205179788555332 
1140	 0.205353624717484 
1141	 0.205504056018805 
1142	 0.205648870596799 
1143	 0.205791639907986 
1144	 0.205911177674255 
1145	 0.206047674884178 
1146	 0.206196583406527 
1147	 0.206334420697415 
1148	 0.20646946163704 
1149	 0.206607403075918 
1150	 0.206734467847259 
1151	 0.20688732781475 
1152	 0.207028454286424 
1153	 0.207148294799222 
1154	 0.207275130037996 
1155	 0.207385747089446 
1156	 0.207516376694725 
1157	 0.207661100313887 
1158	 0.207798913785697 
1159	 0.207939212761615 
1160	 0.208082850190796 
1161	 0.208238200576139 
1162	 0.20837066525798 
1163	 0.208495757026596 
1164	 0.208618603317789 
1165	 0.208730712130767 
1166	 0.208826668179108 
1167	 0.208924347262911 
1168	 0.209073959456194 
1169	 0.209208237951273 
1170	 0.209355623531617 
1171	 0.209482282510862 
1172	 0.20961546755102 
1173	 0.209725514038477 
1174	 0.209806778042043 
1175	 0.209906702063137 
1176	 0.209995257988102 
1177	 0.210103745055332 
1178	 0.210237162310578 
1179	 0.210353920638895 
1180	 0.210464234940951 
1181	 0.210584891762741 
1182	 0.210707177443264 
1183	 0.210831201900123 
1184	 0.210935356520576 
1185	 0.211040768564523 
1186	 0.211143349123027 
1187	 0.211216128408779 
1188	 0.211319520512659 
1189	 0.21144960930505 
1190	 0.211562612225046 
1191	 0.211675403864456 
1192	 0.211784582367989 
1193	 0.211888474435221 
1194	 0.211993329809879 
1195	 0.212100032928284 
1196	 0.212201119727735 
1197	 0.212301587123504 
1198	 0.212396964070722 
1199	 0.212487877695407 
1200	 0.212569231930399 
1201	 0.212661895385182 
1202	 0.21275112093851 
1203	 0.212853192076688 
1204	 0.212973157175885 
1205	 0.213073280658104 
1206	 0.213173602668393 
1207	 0.213266828237723 
1208	 0.213343505527634 
1209	 0.213429386242443 
1210	 0.213526459141829 
1211	 0.21360750999274 
1212	 0.213670824453331 
1213	 0.213749939724006 
1214	 0.213827490444266 
1215	 0.213907274182124 
1216	 0.213992570375292 
1217	 0.214094258802778 
1218	 0.214183298815004 
1219	 0.214264751886313 
1220	 0.214353294147228 
1221	 0.214448898489929 
1222	 0.214534518621352 
1223	 0.214623432887249 
1224	 0.214698607461458 
1225	 0.214763144968126 
1226	 0.214825646375844 
1227	 0.214868722491447 
1228	 0.214929909714781 
1229	 0.214997258334471 
1230	 0.215065008168928 
1231	 0.215154394345461 
1232	 0.215225406679553 
1233	 0.215288338524964 
1234	 0.215337231283741 
1235	 0.215402197997389 
1236	 0.215466177134591 
1237	 0.215526993462623 
1238	 0.215594572639858 
1239	 0.2156606643936 
1240	 0.215714812389896 
1241	 0.215780010762153 
1242	 0.215872695443313 
1243	 0.21593104819161 
1244	 0.215963077568947 
1245	 0.216014036509392 
1246	 0.216041324883135 
1247	 0.216096568917343 
1248	 0.21618594380588 
1249	 0.216271008244754 
1250	 0.216334014811494 
1251	 0.216413044122323 
1252	 0.216476650184733 
1253	 0.216523444732649 
1254	 0.216575353581935 
1255	 0.216630729219135 
1256	 0.216679605117217 
1257	 0.216725897601309 
1258	 0.216762650111678 
1259	 0.216787582268496 
1260	 0.216822996992951 
1261	 0.216850888297419 
1262	 0.216884563128056 
1263	 0.216937209630108 
1264	 0.216975394670506 
1265	 0.216998656958293 
1266	 0.217033157795206 
1267	 0.217072311412669 
1268	 0.217104132947938 
1269	 0.217141382696067 
1270	 0.217180468053264 
1271	 0.217230760525241 
1272	 0.217282804586269 
1273	 0.217339885197103 
1274	 0.21740351095487 
1275	 0.217481694636715 
1276	 0.217568422285654 
1277	 0.217657649883354 
1278	 0.217769584015071 
1279	 0.217864218222023 
1280	 0.217938603238536 
1281	 0.218035404073355 
1282	 0.218146032229032 
1283	 0.218251677470656 
1284	 0.218370646200784 
1285	 0.218481523464438 
1286	 0.21858436108729 
1287	 0.21867770680895 
1288	 0.218771415332689 
1289	 0.218861463357115 
1290	 0.218955750264796 
1291	 0.219047271517578 
1292	 0.219138238595831 
1293	 0.219238884336624 
1294	 0.219321248755782 
1295	 0.219397199435325 
1296	 0.219462727778342 
1297	 0.219513116058413 
1298	 0.219565616280759 
1299	 0.219614197588302 
1300	 0.219655779655492 
1301	 0.219695809186582 
1302	 0.219724446761512 
1303	 0.21973177531512 
1304	 0.219751946232283 
1305	 0.2197868909364 
1306	 0.219808145270401 
1307	 0.219809511590417 
1308	 0.219805653179678 
1309	 0.21979172685773 
1310	 0.219742695583795 
1311	 0.219720010367023 
1312	 0.219716391229689 
1313	 0.21969015152431 
1314	 0.219648603915956 
1315	 0.219622112567661 
1316	 0.219595187727688 
1317	 0.219567607656497 
1318	 0.21955385315479 
1319	 0.219525887921014 
1320	 0.219483928915177 
1321	 0.21944760876608 
1322	 0.219403111363242 
1323	 0.219372926166346 
1324	 0.219347206790982 
1325	 0.219318437308831 
1326	 0.219302288847547 
1327	 0.219262597213477 
1328	 0.21920208654982 
1329	 0.219170736610845 
1330	 0.219118974366587 
1331	 0.219055716554516 
1332	 0.218987756907903 
1333	 0.218913511372969 
1334	 0.21883935608861 
1335	 0.218748534053437 
1336	 0.218684625230861 
1337	 0.218633681635126 
1338	 0.218582297167086 
1339	 0.218547976060401 
1340	 0.218501540213333 
1341	 0.218448528235103 
1342	 0.218401261009819 
1343	 0.218350426105449 
1344	 0.21830620973134 
1345	 0.218267818703673 
1346	 0.218218561849926 
1347	 0.218166768163414 
1348	 0.218116055265421 
1349	 0.21805273445527 
1350	 0.217983767403832 
1351	 0.217926175594655 
1352	 0.217872605261748 
1353	 0.217805785268984 
1354	 0.217743490525601 
1355	 0.217676867701666 
1356	 0.217587164885224 
1357	 0.217521592103492 
1358	 0.217466118805045 
1359	 0.21741555852923 
1360	 0.217378921572828 
1361	 0.217336453099134 
1362	 0.217304858815155 
1363	 0.2172617048412 
1364	 0.217200638255377 
1365	 0.217154028535234 
1366	 0.217113364054201 
1367	 0.217063736907673 
1368	 0.217042337412716 
1369	 0.217018635285081 
1370	 0.216950840313602 
1371	 0.216886246467612 
1372	 0.216804952496507 
1373	 0.216704915490055 
1374	 0.216600522433964 
1375	 0.216505793696641 
1376	 0.216366821510308 
1377	 0.21620237360638 
1378	 0.21602390313851 
1379	 0.215818127453157 
1380	 0.215611478810588 
1381	 0.215394016978247 
1382	 0.215155059047679 
1383	 0.214906230222552 
1384	 0.214641715175524 
1385	 0.214360476877877 
1386	 0.214067018336848 
1387	 0.213766950025792 
1388	 0.21343897882506 
1389	 0.213095921849347 
1390	 0.212723498056187 
1391	 0.212330693719791 
1392	 0.211925732198745 
1393	 0.211481062413497 
1394	 0.211009472001149 
1395	 0.210498816475196 
1396	 0.20998726159051 
1397	 0.209485196397682 
1398	 0.208971461804683 
1399	 0.208476137375345 
1400	 0.208001089695513 
1401	 0.207503040434791 
1402	 0.206987321161426 
1403	 0.206508423976152 
1404	 0.206022929129143 
1405	 0.205575157096388 
1406	 0.205171988607417 
1407	 0.204760021965295 
1408	 0.20434421096821 
1409	 0.203962237662414 
1410	 0.203574686220009 
1411	 0.203246941056298 
1412	 0.20296030051937 
1413	 0.202708980219013 
1414	 0.202503198281568 
1415	 0.202322502217193 
1416	 0.202141597605378 
1417	 0.201990313562784 
1418	 0.201846192014039 
1419	 0.201708217514257 
1420	 0.201610340673136 
1421	 0.201521060734121 
1422	 0.201421556690316 
1423	 0.201340736055796 
1424	 0.201253530132376 
1425	 0.201152462296178 
1426	 0.201073748693539 
1427	 0.201006269579639 
1428	 0.200945080082008 
1429	 0.200895957146027 
1430	 0.200849825082882 
1431	 0.200809674075117 
1432	 0.200775353143699 
1433	 0.200747334819587 
1434	 0.200724424119363 
1435	 0.200704194856902 
1436	 0.200694327147265 
1437	 0.200694975618191 
1438	 0.200695189137577 
1439	 0.200701290596309 
1440	 0.200715491244222 
1441	 0.200717431656549 
1442	 0.200716505593944 
1443	 0.200729884591546 
1444	 0.20075179816105 
1445	 0.200788597333907 
1446	 0.200838778842755 
1447	 0.200883810899496 
1448	 0.200914095251059 
1449	 0.20093675346898 
1450	 0.20096506954716 
1451	 0.200998334771236 
1452	 0.201027828928415 
1453	 0.201072795971187 
1454	 0.201128535093928 
1455	 0.201188331742857 
1456	 0.2012651378022 
1457	 0.201325211341575 
1458	 0.201378248697913 
1459	 0.201440268901897 
1460	 0.201485855929204 
1461	 0.201560219084588 
1462	 0.201661665994718 
1463	 0.20175734320457 
1464	 0.201858047091021 
1465	 0.201967921279416 
1466	 0.20208151140603 
1467	 0.202199992675332 
1468	 0.20232480841382 
1469	 0.202462817338992 
1470	 0.202608053285987 
1471	 0.202760456773181 
1472	 0.202931831016507 
1473	 0.203104284749751 
1474	 0.203266186111771 
1475	 0.203427960995228 
1476	 0.203578230510741 
1477	 0.203730755076891 
1478	 0.203900344053066 
1479	 0.204068918159622 
1480	 0.204243329744113 
1481	 0.204422802400091 
1482	 0.204591744820867 
1483	 0.204748228513444 
1484	 0.204920427302324 
1485	 0.205095565399432 
1486	 0.205272884779105 
1487	 0.205458340048474 
1488	 0.205646670741765 
1489	 0.205838763728638 
1490	 0.20601998807077 
1491	 0.206207826071406 
1492	 0.206382214795423 
1493	 0.206541445244263 
1494	 0.206704383571478 
1495	 0.206868328418511 
1496	 0.207025608659312 
1497	 0.207175231870968 
1498	 0.207323913882786 
1499	 0.207471079743099 
1500	 0.207610620017721 
1501	 0.207732924715141 
1502	 0.207876250176953 
1503	 0.208027577646223 
1504	 0.208175580997395 
1505	 0.208341880276929 
1506	 0.208510822981582 
1507	 0.208656138058767 
1508	 0.208803279756906 
1509	 0.208943970896764 
1510	 0.20906828659536 
1511	 0.209204110605404 
1512	 0.209327925833619 
1513	 0.209443149529848 
1514	 0.209580990166331 
1515	 0.20970692560153 
1516	 0.209829974713955 
1517	 0.209966495756747 
1518	 0.210114583180179 
1519	 0.21024523291788 
1520	 0.210381495862066 
1521	 0.210502755229116 
1522	 0.210602945034523 
1523	 0.210718583190655 
1524	 0.210837294688121 
1525	 0.210952412396457 
1526	 0.211072887010291 
1527	 0.211182568087343 
1528	 0.211279339295151 
1529	 0.211387233501948 
1530	 0.21149582012297 
1531	 0.211604120029749 
1532	 0.211725056993731 
1533	 0.211829813458005 
1534	 0.211929107315151 
1535	 0.212019828722609 
1536	 0.212087642936393 
1537	 0.212175808378677 
1538	 0.21227211904254 
1539	 0.212359334002279 
1540	 0.212459972186562 
1541	 0.212542329162965 
1542	 0.212602411053502 
1543	 0.212676144468194 
1544	 0.21274097713616 
1545	 0.212821586682389 
1546	 0.212934558268627 
1547	 0.213006454598706 
1548	 0.213080137839105 
1549	 0.213166497010292 
1550	 0.213220245287259 
1551	 0.213275564215403 
1552	 0.213353308042755 
1553	 0.213426499632391 
1554	 0.213487490400265 
1555	 0.213560457260835 
1556	 0.21362540654614 
1557	 0.213668338942857 
1558	 0.213726518093956 
1559	 0.213796583609934 
1560	 0.213855374387605 
1561	 0.213910329549818 
1562	 0.213965277210611 
1563	 0.214007528023582 
1564	 0.214076790328957 
1565	 0.214161730491477 
1566	 0.214234505021636 
1567	 0.21432442683922 
1568	 0.214392330466626 
1569	 0.214442462721727 
1570	 0.214496740539946 
1571	 0.214548161021767 
1572	 0.214595035592374 
1573	 0.214632900160772 
1574	 0.214676102990872 
1575	 0.214723622784849 
1576	 0.214762032679259 
1577	 0.214798708532881 
1578	 0.214831230338289 
1579	 0.214841126074969 
1580	 0.214881481073599 
1581	 0.214940546137657 
1582	 0.214991379730041 
1583	 0.215059692957584 
1584	 0.215113240161932 
1585	 0.215156971954626 
1586	 0.215197245548988 
1587	 0.2152391495824 
1588	 0.21526822079673 
1589	 0.215277463120019 
1590	 0.21529875049401 
1591	 0.215315906697452 
1592	 0.215336506363719 
1593	 0.215356944114207 
1594	 0.215391264893812 
1595	 0.215434581522355 
1596	 0.215477695147682 
1597	 0.215535541704347 
1598	 0.215588512880839 
1599	 0.215650863842896 
1600	 0.215689444007021 
1601	 0.215708080498131 
1602	 0.215737957329689 
1603	 0.215745649206143 
1604	 0.215770653470645 
1605	 0.215824986250326 
1606	 0.215867164116864 
1607	 0.215914570260048 
1608	 0.21594624265466 
1609	 0.215963538343544 
1610	 0.215979672504344 
1611	 0.216009527227986 
1612	 0.216038763176097 
1613	 0.216052168133731 
1614	 0.216064251225522 
1615	 0.216065145526614 
1616	 0.216064032916337 
1617	 0.216099265931996 
1618	 0.216133869569569 
1619	 0.216139991851107 
1620	 0.216152199903855 
1621	 0.216179643757783 
1622	 0.21621138688531 
1623	 0.216231199200287 
1624	 0.216265128933584 
1625	 0.216281186153963 
1626	 0.216266135982186 
1627	 0.216288541911473 
1628	 0.216335932120441 
1629	 0.216354766871328 
1630	 0.216370050694629 
1631	 0.216389893542189 
1632	 0.216395011931747 
1633	 0.216415979108571 
1634	 0.216459713824912 
1635	 0.21647610793782 
1636	 0.216477008860855 
1637	 0.216488226310862 
1638	 0.216493698965851 
1639	 0.216505100131085 
1640	 0.216526358990742 
1641	 0.216539183354456 
1642	 0.216538725154573 
1643	 0.21656132759143 
1644	 0.216592890113536 
1645	 0.216625176301028 
1646	 0.216678507931376 
1647	 0.216709660627413 
1648	 0.216731903527583 
1649	 0.216751681704085 
1650	 0.216760866390845 
1651	 0.216774927094682 
1652	 0.216793884876447 
1653	 0.216796752238926 
1654	 0.216782040772178 
1655	 0.216792848535625 
1656	 0.216812259641508 
1657	 0.21681522417108 
1658	 0.216839567072883 
1659	 0.216828493988416 
1660	 0.216770026161043 
1661	 0.216749038252047 
1662	 0.216733403420873 
1663	 0.216720826874963 
1664	 0.216716857640468 
1665	 0.216723373823112 
1666	 0.216735032310138 
1667	 0.21674925929968 
1668	 0.216786769831201 
1669	 0.21680116017302 
1670	 0.216801298856384 
1671	 0.216806795231678 
1672	 0.21681195987033 
1673	 0.216806399076376 
1674	 0.216796974263309 
1675	 0.216784731073695 
1676	 0.216754200959345 
1677	 0.216742656142518 
1678	 0.216733011954051 
1679	 0.216739839001105 
1680	 0.216765883059707 
1681	 0.216783050919579 
1682	 0.216814260437649 
1683	 0.216829280985378 
1684	 0.216833730422064 
1685	 0.216837465057422 
1686	 0.21683087899701 
1687	 0.216834945883453 
1688	 0.216839006475663 
1689	 0.216846674942839 
1690	 0.216862614603741 
1691	 0.216874812615155 
1692	 0.216889868183545 
1693	 0.216898600039229 
1694	 0.216905492369011 
1695	 0.216911441824141 
1696	 0.21690753562281 
1697	 0.216912725321983 
1698	 0.21691711791491 
1699	 0.21693327435733 
1700	 0.216976253613967 
1701	 0.21698059792007 
1702	 0.216971264668386 
1703	 0.216964308760735 
1704	 0.216944507773317 
1705	 0.216904214618152 
1706	 0.216853020035122 
1707	 0.216815066350006 
1708	 0.216739714326469 
1709	 0.21671416152587 
1710	 0.216748959695036 
1711	 0.216733477986291 
1712	 0.216708963008234 
1713	 0.216680606514059 
1714	 0.216624365909468 
1715	 0.216587487109923 
1716	 0.216558757886986 
1717	 0.216537937027615 
1718	 0.2165190182147 
1719	 0.216511789112197 
1720	 0.216528086235334 
1721	 0.216520453159424 
1722	 0.216504042065826 
1723	 0.216494955538412 
1724	 0.216483613292229 
1725	 0.216467273134562 
1726	 0.216463673753004 
1727	 0.216425636334965 
1728	 0.216355844121382 
1729	 0.216305468197745 
1730	 0.216247919795224 
1731	 0.216201579039835 
1732	 0.216175210758776 
1733	 0.216119980532968 
1734	 0.216038705368456 
1735	 0.21599581343324 
1736	 0.215960238417642 
1737	 0.21591641952592 
1738	 0.21589075239017 
1739	 0.215857623022327 
1740	 0.215807659867932 
1741	 0.215781291585109 
1742	 0.215790290866797 
1743	 0.215748389194875 
1744	 0.215687723168877 
1745	 0.215609045495498 
1746	 0.215483834313112 
1747	 0.21541733097393 
1748	 0.215382087122213 
1749	 0.215359425332085 
1750	 0.215330326283587 
1751	 0.215268032582673 
1752	 0.215179273922849 
1753	 0.215092120694276 
1754	 0.215019345972802 
1755	 0.214961723065999 
1756	 0.214904463966463 
1757	 0.214872973402056 
1758	 0.214828851520881 
1759	 0.214759519655788 
1760	 0.214709549890635 
1761	 0.214633611627459 
1762	 0.214551663432976 
1763	 0.21449866837509 
1764	 0.214453907864513 
1765	 0.214420187366212 
1766	 0.214376021204149 
1767	 0.214326567065857 
1768	 0.21426931110391 
1769	 0.214200299454302 
1770	 0.214147387625342 
1771	 0.214095900066963 
1772	 0.214070469234936 
1773	 0.214051643978638 
1774	 0.21401447130832 
1775	 0.213978394406845 
1776	 0.213898100686002 
1777	 0.213823162342988 
1778	 0.213786684844088 
1779	 0.213751004419699 
1780	 0.213732148788965 
1781	 0.21369393597389 
1782	 0.213656488634425 
1783	 0.213636026957043 
1784	 0.213618177329833 
1785	 0.213635959338258 
1786	 0.213632057233523 
1787	 0.213617044662475 
1788	 0.213602566300152 
1789	 0.213575117094157 
1790	 0.213549302269059 
1791	 0.213528761840896 
1792	 0.213502883293439 
1793	 0.213460745530482 
1794	 0.213443976812909 
1795	 0.213428112102815 
1796	 0.213426518498242 
1797	 0.21346605047736 
1798	 0.213471967986908 
1799	 0.213468518125877 
1800	 0.213463802584911 
1801	 0.213675746286227 
1802	 0.213787652665256 
1803	 0.213921759128329 
1804	 0.214038389735212 
1805	 0.214171219237675 
1806	 0.21429749272763 
1807	 0.214380292582526 
1808	 0.21446265709322 
1809	 0.214544531715317 
1810	 0.214601633875312 
1811	 0.214633080915215 
1812	 0.214669797437449 
1813	 0.214710139829415 
1814	 0.214705650480136 
1815	 0.214684753645368 
1816	 0.214677977279696 
1817	 0.21466328669217 
1818	 0.214613435428142 
1819	 0.214608407733263 
1820	 0.214628880255272 
1821	 0.214638207061907 
1822	 0.214665629586699 
1823	 0.214690376397084 
1824	 0.21469790947877 
1825	 0.214693771706937 
1826	 0.214704561753761 
1827	 0.214716919884351 
1828	 0.214696093865038 
1829	 0.214653222454188 
1830	 0.214618488854624 
1831	 0.214564306885574 
1832	 0.214508879629641 
1833	 0.214450680359784 
1834	 0.214431750266689 
1835	 0.21441383851719 
1836	 0.21436642833177 
1837	 0.214371765645705 
1838	 0.214379391112462 
1839	 0.214366716691021 
1840	 0.214350161827933 
1841	 0.214331781972589 
1842	 0.214282712436265 
1843	 0.214238204980504 
1844	 0.214180902651064 
1845	 0.214114039761363 
1846	 0.214038772280983 
1847	 0.21394096736826 
1848	 0.213845054075117 
1849	 0.213765961546462 
1850	 0.213685094636678 
1851	 0.213617790696798 
1852	 0.213525953018765 
1853	 0.213437760340686 
1854	 0.213333801337314 
1855	 0.213191618303329 
1856	 0.213051203964001 
1857	 0.212885175324233 
1858	 0.212688984985822 
1859	 0.212455635228189 
1860	 0.212205916564624 
1861	 0.211929854255115 
1862	 0.211651687555294 
1863	 0.211340349057556 
1864	 0.211006367840539 
1865	 0.210648884355463 
1866	 0.210223569832681 
1867	 0.209759733785776 
1868	 0.209272677324623 
1869	 0.208736679662965 
1870	 0.208179431886053 
1871	 0.207579072539004 
1872	 0.206939886103954 
1873	 0.206266349075853 
1874	 0.205575976994134 
1875	 0.204824101958155 
1876	 0.204044176880262 
1877	 0.20323040436562 
1878	 0.202327764852371 
1879	 0.201358972265292 
1880	 0.200312263118621 
1881	 0.199170315716118 
1882	 0.197984550710552 
1883	 0.196740760736847 
1884	 0.195409542077584 
1885	 0.194042421288076 
1886	 0.192585817126253 
1887	 0.191035817232111 
1888	 0.189465108907516 
1889	 0.18782631849209 
1890	 0.186169902765887 
1891	 0.184521858434596 
1892	 0.182830228572989 
1893	 0.181177382777004 
1894	 0.179539966350677 
1895	 0.177900929988789 
1896	 0.176265239016972 
1897	 0.174711534474862 
1898	 0.17315383776307 
1899	 0.171655533310578 
1900	 0.170252182367461 
1901	 0.168877602800769 
1902	 0.167605862616108 
1903	 0.166444845814222 
1904	 0.165325532807578 
1905	 0.164265724047133 
1906	 0.163302002686225 
1907	 0.162388368446099 
1908	 0.161530477054868 
1909	 0.16074847063116 
1910	 0.16001345908543 
1911	 0.159341413130755 
1912	 0.158718788756468 
1913	 0.158124463833634 
1914	 0.157567621079797 
1915	 0.157058389058123 
1916	 0.156586402681556 
1917	 0.156152884239537 
1918	 0.155763972686875 
1919	 0.155430465561183 
1920	 0.155142040808186 
1921	 0.154880047418343 
1922	 0.154663104317476 
1923	 0.154492732506548 
1924	 0.154340955284857 
1925	 0.154207690194714 
1926	 0.15411933847384 
1927	 0.154072875349028 
1928	 0.154042342023312 
1929	 0.154040207081007 
1930	 0.15407505926706 
1931	 0.154123740332533 
1932	 0.154209430029067 
1933	 0.154330319734654 
1934	 0.154438881706534 
1935	 0.154559112348672 
1936	 0.15468160359922 
1937	 0.154820621877695 
1938	 0.154961961358463 
1939	 0.155140000149843 
1940	 0.155337138646103 
1941	 0.155557802970266 
1942	 0.155818397615282 
1943	 0.156070786732757 
1944	 0.156335798051639 
1945	 0.156623501046685 
1946	 0.156919078117804 
1947	 0.157213710803564 
1948	 0.157537121291023 
1949	 0.157908830637375 
1950	 0.158245010347529 
1951	 0.158571734576043 
1952	 0.15891826134724 
1953	 0.159245573098143 
1954	 0.159584218736625 
1955	 0.159969777546719 
1956	 0.160359602089982 
1957	 0.160745559376952 
1958	 0.161142415863827 
1959	 0.161533438208182 
1960	 0.161912876265954 
1961	 0.16230909453196 
1962	 0.16271268853075 
1963	 0.163124290548114 
1964	 0.163542907072766 
1965	 0.163972189941242 
1966	 0.164412833296059 
1967	 0.164852421693453 
1968	 0.165295776910756 
1969	 0.165750095549688 
1970	 0.166194378180142 
1971	 0.166633443505626 
1972	 0.167079691985829 
1973	 0.167528285589148 
1974	 0.16797404188229 
1975	 0.168425176567818 
1976	 0.168875025036031 
1977	 0.169308456459222 
1978	 0.169732341930175 
1979	 0.170160448249206 
1980	 0.170596719875425 
1981	 0.17103098466765 
1982	 0.171470269292154 
1983	 0.171906872909328 
1984	 0.172337756770519 
1985	 0.172777030855758 
1986	 0.173219367675349 
1987	 0.173664638843337 
1988	 0.17411632553765 
1989	 0.174578615863847 
1990	 0.175009647440324 
1991	 0.175441386462243 
1992	 0.1758678264761 
1993	 0.176279350824376 
1994	 0.176688179438786 
1995	 0.177102330535362 
1996	 0.17750709963316 
1997	 0.177891278252917 
1998	 0.178287244027974 
1999	 0.178679013385973 
2000	 0.179077008706752 
2001	 0.179471261999935 
2002	 0.179894496592881 
2003	 0.18030435529729 
2004	 0.180721135943717 
2005	 0.181122672671296 
2006	 0.181516928111476 
2007	 0.181905055453229 
2008	 0.182280861347389 
2009	 0.182661524447448 
2010	 0.183038833743756 
2011	 0.183418513577143 
2012	 0.183805810090358 
2013	 0.184179971077213 
2014	 0.184545771904194 
2015	 0.184912227110436 
2016	 0.185273115859341 
2017	 0.185638656469922 
2018	 0.185999764977159 
2019	 0.186364321330331 
2020	 0.18672299647275 
2021	 0.187083482872331 
2022	 0.187427709654502 
2023	 0.187752963776535 
2024	 0.188097147497534 
2025	 0.188436939207749 
2026	 0.188777225812032 
2027	 0.189125450317565 
2028	 0.189486514246595 
2029	 0.189837507365705 
2030	 0.190182435137969 
2031	 0.190526738819489 
2032	 0.19087984031444 
2033	 0.191213788398195 
2034	 0.191540895733804 
2035	 0.191852285539618 
2036	 0.192153289239893 
2037	 0.192441346750503 
2038	 0.192704545102305 
2039	 0.192973168965442 
2040	 0.193236265492786 
2041	 0.19349132242539 
2042	 0.193746327703698 
2043	 0.194013368281981 
2044	 0.19429484737369 
2045	 0.194598666591499 
2046	 0.194876898868296 
2047	 0.195165416575272 
2048	 0.195435865909932 
2049	 0.195676614235408 
2050	 0.195930113566366 
2051	 0.196209874403202 
2052	 0.196445635357365 
2053	 0.196645021704507 
2054	 0.196859229868524 
2055	 0.197045813370509 
2056	 0.197238272448204 
2057	 0.197463070201703 
2058	 0.19772213579848 
2059	 0.197959332166519 
2060	 0.19820329258287 
2061	 0.198447485533631 
2062	 0.198695384676169 
2063	 0.198930108127939 
2064	 0.199177363034723 
2065	 0.199399229197412 
2066	 0.199590424684055 
2067	 0.199788008209517 
2068	 0.199974518315265 
2069	 0.200162139478713 
2070	 0.200353500564593 
2071	 0.200546712422802 
2072	 0.200733568924069 
2073	 0.200917096451295 
2074	 0.201106526756276 
2075	 0.201288764595222 
2076	 0.201487934783652 
2077	 0.201702711515392 
2078	 0.201911564014122 
2079	 0.202129124524545 
2080	 0.202337886240065 
2081	 0.202546243544371 
2082	 0.202747003771314 
2083	 0.202931875653578 
2084	 0.20313506456003 
2085	 0.203324251492701 
2086	 0.20349931809968 
2087	 0.203694781536332 
2088	 0.203905906580942 
2089	 0.204094627601621 
2090	 0.204287737076324 
2091	 0.204465800012813 
2092	 0.20461488807248 
2093	 0.204779130479196 
2094	 0.204930841303198 
2095	 0.205112359078558 
2096	 0.205325704933206 
2097	 0.20551737072268 
2098	 0.205716956646531 
2099	 0.205911475907199 
2100	 0.206109849028562 
2101	 0.206293834463581 
2102	 0.206485401722105 
2103	 0.20669017781703 
2104	 0.206888258748154 
2105	 0.207079369056701 
2106	 0.207267186916998 
2107	 0.207458293306024 
2108	 0.207647935034499 
2109	 0.207818832547379 
2110	 0.208007191374366 
2111	 0.208224258086411 
2112	 0.208415703262214 
2113	 0.208593272680624 
2114	 0.208782264414059 
2115	 0.208955315764763 
2116	 0.209104593329925 
2117	 0.209276008358028 
2118	 0.209447960205308 
2119	 0.209633784918602 
2120	 0.209844817612762 
2121	 0.210024660981999 
2122	 0.210202454269834 
2123	 0.210372375638722 
2124	 0.210530686990608 
2125	 0.210671488908813 
2126	 0.210799344582795 
2127	 0.210929798957099 
2128	 0.211045249797384 
2129	 0.211153119765975 
2130	 0.211272206814034 
2131	 0.211373636739247 
2132	 0.211454283468547 
2133	 0.211498873170163 
2134	 0.211574547741816 
2135	 0.211650637421825 
2136	 0.211722002731026 
2137	 0.211823630104151 
2138	 0.211873468993877 
2139	 0.21189306274535 
2140	 0.211906723435299 
2141	 0.211874137400732 
2142	 0.211871906488466 
2143	 0.211890464600361 
2144	 0.21188483058393 
2145	 0.211889105938157 
2146	 0.211872908385545 
2147	 0.211840709323483 
2148	 0.211771221057149 
2149	 0.211721065453195 
2150	 0.211666538163899 
2151	 0.211610163851063 
2152	 0.211551844189868 
2153	 0.21149352220574 
2154	 0.211430355176118 
2155	 0.211368902165466 
2156	 0.211332848871403 
2157	 0.21124849474355 
2158	 0.211149406154748 
2159	 0.211027443465673 
2160	 0.210852655475167 
2161	 0.210693801941968 
2162	 0.210520709927558 
2163	 0.210360178101152 
2164	 0.210202730187657 
2165	 0.210051696652863 
2166	 0.209903070875136 
2167	 0.20976753289693 
2168	 0.209613178183147 
2169	 0.209448972790306 
2170	 0.209295937780757 
2171	 0.209141181782738 
2172	 0.208983247412404 
2173	 0.208828549913284 
2174	 0.2086779538858 
2175	 0.20852576744519 
2176	 0.208370946267225 
2177	 0.208244468404473 
2178	 0.208073765011402 
2179	 0.207861633810899 
2180	 0.207665589613773 
2181	 0.207442909660871 
2182	 0.207239973851473 
2183	 0.207055219056629 
2184	 0.206868665521707 
2185	 0.20669917356234 
2186	 0.206544619830935 
2187	 0.206378239025621 
2188	 0.206212749212735 
2189	 0.206063458993133 
2190	 0.205914210229836 
2191	 0.205768872147649 
2192	 0.205653354526306 
2193	 0.205511570556042 
2194	 0.20533678479731 
2195	 0.205197282034749 
2196	 0.205065062271926 
2197	 0.204941623879922 
2198	 0.204834429321385 
2199	 0.204738619240496 
2200	 0.204659798740726 
2201	 0.204573540567644 
2202	 0.204478678209154 
2203	 0.204417863720647 
2204	 0.204364532405231 
2205	 0.204314264536657 
2206	 0.20427048708473 
2207	 0.204245768505201 
2208	 0.204230166302855 
2209	 0.204208017151307 
2210	 0.204209890178291 
2211	 0.204258616576887 
2212	 0.204273312919618 
2213	 0.204263867331194 
2214	 0.204288013705032 
2215	 0.204326920934345 
2216	 0.204352560159213 
2217	 0.204384877807463 
2218	 0.204427172311407 
2219	 0.204465095574575 
2220	 0.204505919426336 
2221	 0.204558738933059 
2222	 0.20462633569183 
2223	 0.204678748454158 
2224	 0.204706189344791 
2225	 0.204738126317642 
2226	 0.204773130844164 
2227	 0.204786502720956 
2228	 0.204769092061206 
2229	 0.204796669682083 
2230	 0.204849927808466 
2231	 0.204859347856794 
2232	 0.20488801659696 
2233	 0.204873744709845 
2234	 0.204780962546669 
2235	 0.20474570945211 
2236	 0.204721448924143 
2237	 0.204703879050462 
2238	 0.204707066497386 
2239	 0.204709386381723 
2240	 0.204714911369999 
2241	 0.20472750802959 
2242	 0.204756513824959 
2243	 0.204775156180187 
2244	 0.204809929719666 
2245	 0.204817063591819 
2246	 0.204797814598041 
2247	 0.204754274101667 
2248	 0.204707975127805 
2249	 0.20462219447363 
2250	 0.204582945963915 
2251	 0.204553450658267 
2252	 0.20453959929867 
2253	 0.204555221454002 
2254	 0.20454728906411 
2255	 0.204552199909559 
2256	 0.204526844364446 
2257	 0.204460482907852 
2258	 0.204441047228208 
2259	 0.20442459002514 
2260	 0.204420906215961 
2261	 0.204471441761206 
2262	 0.204473615647352 
2263	 0.20445715857953 
2264	 0.204430401254962 
2265	 0.204337479145801 
2266	 0.204316535811485 
2267	 0.20435250070214 
2268	 0.204352291290267 
2269	 0.204359992437884 
2270	 0.204402998462113 
2271	 0.204377860056987 
2272	 0.204328950409491 
2273	 0.204339642538862 
2274	 0.204305742896604 
2275	 0.204268010142995 
2276	 0.204226094036602 
2277	 0.20417740794012 
2278	 0.204094750870441 
2279	 0.204053347778858 
2280	 0.204030595402032 
2281	 0.203991834873308 
2282	 0.203961146659187 
2283	 0.203944391238574 
2284	 0.203926797299009 
2285	 0.20390412772587 
2286	 0.203900687310011 
2287	 0.203874984936375 
2288	 0.203814327697708 
2289	 0.203788907499756 
2290	 0.203800240997929 
2291	 0.203772466083644 
2292	 0.203728917600528 
2293	 0.203697524836731 
2294	 0.203654650446834 
2295	 0.203598790486964 
2296	 0.203533194317076 
2297	 0.203498040062036 
2298	 0.203430060604958 
2299	 0.203370824895897 
2300	 0.203372664857334 
2301	 0.203370205251922 
2302	 0.20334919202103 
2303	 0.203334844641443 
2304	 0.203280369708341 
2305	 0.203173228146313 
2306	 0.203092445957355 
2307	 0.203007847033961 
2308	 0.202910536806022 
2309	 0.202814354309527 
2310	 0.202718647622977 
2311	 0.202590329858306 
2312	 0.20249605391492 
2313	 0.202419541166829 
2314	 0.202347767576307 
2315	 0.202316588994186 
2316	 0.202235839946705 
2317	 0.202131959565658 
2318	 0.202033488583168 
2319	 0.201898018922465 
2320	 0.201796377857264 
2321	 0.201731424139977 
2322	 0.201642166249885 
2323	 0.2015410706061 
2324	 0.201444568604954 
2325	 0.201327065993307 
2326	 0.201236641833992 
2327	 0.201163809850711 
2328	 0.201104769068014 
2329	 0.201026442533744 
2330	 0.200987240486787 
2331	 0.200960983458359 
2332	 0.200895202724054 
2333	 0.200840317455722 
2334	 0.200791091361128 
2335	 0.200754123455221 
2336	 0.200730533621789 
2337	 0.200680255170781 
2338	 0.200622602903485 
2339	 0.200504028332631 
2340	 0.200334959031909 
2341	 0.200209046835023 
2342	 0.20010957022518 
2343	 0.200063165173435 
2344	 0.200005165429431 
2345	 0.199904547416971 
2346	 0.1997962653064 
2347	 0.199661662924958 
2348	 0.199467116989858 
2349	 0.19931709272664 
2350	 0.199189775938336 
2351	 0.199042058837485 
2352	 0.198893528121857 
2353	 0.198721759448048 
2354	 0.198507050136283 
2355	 0.198323045976646 
2356	 0.198157205725541 
2357	 0.197974307020057 
2358	 0.197789025586736 
2359	 0.197622926489258 
2360	 0.19743408598341 
2361	 0.197287809397048 
2362	 0.197211512708748 
2363	 0.197088282374247 
2364	 0.196949397343048 
2365	 0.196803592771626 
2366	 0.19662206170861 
2367	 0.196473653040354 
2368	 0.196374084809766 
2369	 0.196222128797447 
2370	 0.196048914576622 
2371	 0.195878299290584 
2372	 0.195670172361512 
2373	 0.195466214273986 
2374	 0.195287411414365 
2375	 0.195061880894169 
2376	 0.194862406475972 
2377	 0.194678702684603 
2378	 0.194510004437747 
2379	 0.194388392753509 
2380	 0.194205619692783 
2381	 0.194015602604027 
2382	 0.193865475996365 
2383	 0.19367398083487 
2384	 0.193414737559738 
2385	 0.193170812935806 
2386	 0.192886322102613 
2387	 0.192567477542675 
2388	 0.192342004622017 
2389	 0.192146837447582 
2390	 0.191899949932969 
2391	 0.191635617342585 
2392	 0.191440905927701 
2393	 0.191223055199042 
2394	 0.190960469255539 
2395	 0.190748182390451 
2396	 0.190557990268138 
2397	 0.190348504020409 
2398	 0.190225715494282 
2399	 0.190160676991418 
2400	 0.189948520691249 
2401	 0.189684003838447 
2402	 0.18937338060467 
2403	 0.189045841785713 
2404	 0.188829147289398 
2405	 0.1886433643674 
2406	 0.188468686347763 
2407	 0.188248230298288 
2408	 0.187908854076199 
2409	 0.187486802293061 
2410	 0.187080075204445 
2411	 0.186698688503151 
2412	 0.186403838665961 
2413	 0.186173623174432 
2414	 0.185865581418955 
2415	 0.185583438399574 
2416	 0.185318140041477 
2417	 0.185020690803996 
2418	 0.18476819441202 
2419	 0.184564644314389 
2420	 0.184321488485161 
2421	 0.184088485562873 
2422	 0.183849292231401 
2423	 0.1836190356415 
2424	 0.1833635592401 
2425	 0.183089360828841 
2426	 0.182741848035426 
2427	 0.182358148851536 
2428	 0.182018146244124 
2429	 0.181619066974476 
2430	 0.181282952398012 
2431	 0.181009688799481 
2432	 0.180662500383808 
2433	 0.18026909241517 
2434	 0.179967474941836 
2435	 0.179699871334098 
2436	 0.179409576903905 
2437	 0.179210487022376 
2438	 0.178942967013924 
2439	 0.178590339888496 
2440	 0.178252902843425 
2441	 0.177869021792387 
2442	 0.177515363745216 
2443	 0.177195313024693 
2444	 0.176868904212593 
2445	 0.176583836670872 
2446	 0.176309314725943 
2447	 0.175954558753759 
2448	 0.175694462371511 
2449	 0.175553577927227 
2450	 0.175322801413255 
2451	 0.175143528609671 
2452	 0.174838733116275 
2453	 0.174416736326642 
2454	 0.173995198698659 
2455	 0.173475681937525 
2456	 0.173107154807892 
2457	 0.172714974671545 
2458	 0.172426987301962 
2459	 0.172383867917368 
2460	 0.172097422062704 
2461	 0.171761518338594 
2462	 0.171430441678096 
2463	 0.170953033703063 
2464	 0.170485782342592 
2465	 0.170016250483073 
2466	 0.16966690039078 
2467	 0.169311933890115 
2468	 0.169011970653203 
2469	 0.168882580115033 
2470	 0.16829753072819 
2471	 0.16791580582662 
2472	 0.16757078388891 
2473	 0.16730832431048 
2474	 0.167259404108717 
2475	 0.167054555946405 
2476	 0.166660313906797 
2477	 0.166366830224401 
2478	 0.166156071356709 
2479	 0.166020832129196 
2480	 0.165940312242377 
2481	 0.165677333767277 
2482	 0.165201677951164 
2483	 0.164804172192018 
2484	 0.164472346709487 
2485	 0.164148230011846 
2486	 0.163956417179009 
2487	 0.163761508453603 
2488	 0.163553617844849 
2489	 0.163334731073695 
2490	 0.163125964832658 
2491	 0.16292572660374 
2492	 0.162615176948682 
2493	 0.16229364682297 
2494	 0.162095016960126 
2495	 0.161840810555108 
2496	 0.161595395854826 
2497	 0.161609084473493 
2498	 0.161533029681016 
2499	 0.161272838420167 
2500	 0.161119063877532 
