Wavelength	mm1300003.asd
350	 5.96633697504034E-02 
351	 6.71265022464849E-02 
352	 6.36340247747561E-02 
353	 4.84988628300503E-02 
354	 6.23814856536537E-02 
355	 6.61518568092169E-02 
356	 6.18930595097989E-02 
357	 0.061524186220776 
358	 7.10443543678527E-02 
359	 6.87472396994244E-02 
360	 6.06640868326472E-02 
361	 6.79593913928454E-02 
362	 6.80776608522427E-02 
363	 6.22041947871253E-02 
364	 0.056474366181086 
365	 5.99579372779594E-02 
366	 6.06517562169585E-02 
367	 6.04296464181497E-02 
368	 6.33277588576662E-02 
369	 6.62777887006319E-02 
370	 6.58328342890772E-02 
371	 6.36351478326851E-02 
372	 6.44013057785977E-02 
373	 6.57770394705371E-02 
374	 6.56799379654188E-02 
375	 6.44962026053459E-02 
376	 6.69360716345097E-02 
377	 6.62906551403008E-02 
378	 6.53260193468115E-02 
379	 6.76288216811044E-02 
380	 6.76069689140787E-02 
381	 6.68775698375903E-02 
382	 6.80875319469014E-02 
383	 7.34872647713301E-02 
384	 7.33460222456348E-02 
385	 7.04967245166026E-02 
386	 6.85657615543541E-02 
387	 6.89363094761521E-02 
388	 6.94889673912019E-02 
389	 7.09074140153664E-02 
390	 7.36081078633667E-02 
391	 7.23860051058709E-02 
392	 7.19018484665516E-02 
393	 7.33581705115345E-02 
394	 7.46399535986117E-02 
395	 0.075148524292842 
396	 0.074885410902577 
397	 7.45212480268983E-02 
398	 7.58986437672804E-02 
399	 7.73115873563982E-02 
400	 0.077880497293215 
401	 7.74342448678723E-02 
402	 7.75766110273022E-02 
403	 7.82955742802586E-02 
404	 7.90705999488295E-02 
405	 7.90628957816804E-02 
406	 0.078594790113491 
407	 0.07911134593254 
408	 8.06547314356987E-02 
409	 7.89856418538246E-02 
410	 0.078828684918136 
411	 7.99859996072106E-02 
412	 8.01862338800306E-02 
413	 8.05266275983092E-02 
414	 8.06178059498141E-02 
415	 8.04568948084749E-02 
416	 0.08066037012764 
417	 8.11920778709467E-02 
418	 8.12507308857629E-02 
419	 0.080595489256574 
420	 8.16279501149824E-02 
421	 8.13152199594245E-02 
422	 8.03492996336673E-02 
423	 8.15045261469259E-02 
424	 8.20707732758627E-02 
425	 8.17107125037235E-02 
426	 8.08981153792159E-02 
427	 8.08846682631768E-02 
428	 8.15247008775333E-02 
429	 8.19854665096042E-02 
430	 8.16121314269105E-02 
431	 8.19057040904582E-02 
432	 0.082221283051077 
433	 8.21711457628892E-02 
434	 8.17544021311209E-02 
435	 8.20430756235627E-02 
436	 8.23766586865319E-02 
437	 8.21404881529628E-02 
438	 8.16429374266932E-02 
439	 8.18850582409109E-02 
440	 8.24684267144166E-02 
441	 8.24234058944963E-02 
442	 8.25224232887281E-02 
443	 8.27358455456282E-02 
444	 8.29383846555253E-02 
445	 0.082975507437818 
446	 8.31956217930174E-02 
447	 8.33641285621044E-02 
448	 0.08323565633455 
449	 8.32369050424142E-02 
450	 8.33906627938374E-02 
451	 8.36350252750867E-02 
452	 8.38473902670957E-02 
453	 8.39934171283667E-02 
454	 8.38671059542623E-02 
455	 0.083541478240354 
456	 8.38500369957139E-02 
457	 8.39966436939435E-02 
458	 8.39876197130335E-02 
459	 8.41291362563936E-02 
460	 8.40382821162787E-02 
461	 8.39935646134142E-02 
462	 8.41084160754976E-02 
463	 8.41906551704026E-02 
464	 8.41857924133682E-02 
465	 0.08423865417242 
466	 8.44438975754905E-02 
467	 8.44392671835545E-02 
468	 8.45318105077696E-02 
469	 8.47120466620443E-02 
470	 8.47216458082101E-02 
471	 8.47897418357401E-02 
472	 0.084804050562208 
473	 0.084689570163359 
474	 8.45622298809791E-02 
475	 8.45996506745202E-02 
476	 8.47590875022433E-02 
477	 8.48889416443377E-02 
478	 8.49045411274209E-02 
479	 0.084986839210838 
480	 8.51141300420502E-02 
481	 0.084944230927544 
482	 8.51595398207738E-02 
483	 8.54548390954501E-02 
484	 8.54338899884075E-02 
485	 0.085524142201777 
486	 8.56004798264187E-02 
487	 0.085624992573558 
488	 8.56450014189716E-02 
489	 0.085731529022077 
490	 8.57492856088033E-02 
491	 0.085659290962415 
492	 8.57607516555876E-02 
493	 8.57496905454437E-02 
494	 8.56601474910758E-02 
495	 8.56894918539323E-02 
496	 8.59817979642295E-02 
497	 8.61639642017372E-02 
498	 8.61105495870653E-02 
499	 8.61236844555237E-02 
500	 8.62157669161853E-02 
501	 8.62957665273129E-02 
502	 8.63021433848722E-02 
503	 8.65140132269668E-02 
504	 8.65010261406465E-02 
505	 8.63427603930877E-02 
506	 8.65630739656753E-02 
507	 8.65327198734512E-02 
508	 8.65086724673977E-02 
509	 8.66771519574572E-02 
510	 8.65455405251619E-02 
511	 8.65937596370347E-02 
512	 8.67498239220834E-02 
513	 0.086689199106788 
514	 8.66615915341155E-02 
515	 8.67393336348471E-02 
516	 8.68925962093855E-02 
517	 8.69559456282359E-02 
518	 8.70541950502522E-02 
519	 8.71350065036954E-02 
520	 8.71313474571221E-02 
521	 8.71938626415065E-02 
522	 8.72958508037297E-02 
523	 8.73914276227936E-02 
524	 0.087427666320154 
525	 8.73993219545004E-02 
526	 8.74077529854435E-02 
527	 8.75215686583561E-02 
528	 8.76558421127532E-02 
529	 8.76491261021158E-02 
530	 8.75928039044594E-02 
531	 8.77141373445163E-02 
532	 8.76979313161276E-02 
533	 8.77502679886208E-02 
534	 8.79423260495627E-02 
535	 8.79016448969368E-02 
536	 8.79103133610432E-02 
537	 8.80049984768848E-02 
538	 8.81232117811878E-02 
539	 8.82167799075931E-02 
540	 8.82906368096576E-02 
541	 8.83585366163384E-02 
542	 8.84377553505875E-02 
543	 8.85126144030999E-02 
544	 8.86089629554775E-02 
545	 8.87333155356389E-02 
546	 8.87759998523146E-02 
547	 8.87770177165712E-02 
548	 0.088827506505129 
549	 0.089037431336814 
550	 8.90793780076763E-02 
551	 8.90932580118942E-02 
552	 0.089220132579084 
553	 8.93809212287399E-02 
554	 0.089480413108679 
555	 8.95710037668007E-02 
556	 8.97683094016081E-02 
557	 8.99609312154615E-02 
558	 9.01427985643755E-02 
559	 9.03472249243651E-02 
560	 9.06704401773904E-02 
561	 9.08336879139793E-02 
562	 9.09382810205193E-02 
563	 9.11779499730601E-02 
564	 9.14605513468263E-02 
565	 9.16281640602136E-02 
566	 9.16984589164403E-02 
567	 9.18847994780202E-02 
568	 0.092152463801458 
569	 9.24448122740164E-02 
570	 9.27367005416244E-02 
571	 9.31526115595063E-02 
572	 9.35564567074134E-02 
573	 9.38906649773215E-02 
574	 9.41671500503441E-02 
575	 9.44770765884094E-02 
576	 9.49108771500544E-02 
577	 9.54395246947146E-02 
578	 9.57783225370912E-02 
579	 9.60922487431309E-02 
580	 9.64150522368909E-02 
581	 9.67361883475159E-02 
582	 9.70899735230171E-02 
583	 0.097513397386563 
584	 9.79942008233468E-02 
585	 9.84531872268376E-02 
586	 9.89953458407287E-02 
587	 0.099590722183129 
588	 0.100186218451776 
589	 0.10082274659959 
590	 0.10144893467599 
591	 0.102034113382734 
592	 0.102574700920674 
593	 0.103124714837005 
594	 0.103649177599636 
595	 0.104094391604216 
596	 0.104389909951632 
597	 0.104723131419786 
598	 0.105105776640901 
599	 0.105465051178935 
600	 0.105905073677323 
601	 0.106388742975983 
602	 0.106880228544531 
603	 0.107381934247703 
604	 0.107845369830751 
605	 0.108303643533758 
606	 0.10880549225673 
607	 0.109306754265577 
608	 0.109782738290397 
609	 0.110242901472567 
610	 0.110732947431172 
611	 0.111126518285604 
612	 0.111441268732925 
613	 0.111724751892486 
614	 0.111987442470488 
615	 0.112277026007549 
616	 0.112570545988679 
617	 0.112802094666146 
618	 0.113054101195428 
619	 0.1133175927185 
620	 0.113566658965575 
621	 0.113763477100022 
622	 0.113965710163237 
623	 0.114184065418401 
624	 0.114402731723476 
625	 0.114567146215552 
626	 0.114735567679667 
627	 0.114940854406171 
628	 0.115170600308303 
629	 0.115379719004474 
630	 0.115549002607056 
631	 0.115684189113253 
632	 0.115840801233071 
633	 0.116020963046625 
634	 0.116182779869864 
635	 0.116262289345622 
636	 0.116423290358706 
637	 0.116619425296262 
638	 0.116788505042471 
639	 0.116919388298003 
640	 0.117090041390094 
641	 0.117270816729508 
642	 0.117398528627339 
643	 0.117583492988169 
644	 0.117762097480549 
645	 0.117907786145032 
646	 0.118071898082267 
647	 0.118197523628345 
648	 0.118323349614812 
649	 0.11850046123213 
650	 0.118715587202589 
651	 0.118891412522312 
652	 0.119040548321008 
653	 0.119249276592249 
654	 0.119432333905312 
655	 0.119607968801654 
656	 0.119803157302557 
657	 0.120018846450702 
658	 0.120249939756827 
659	 0.120454166505695 
660	 0.120593741286197 
661	 0.120798407470894 
662	 0.121053555842687 
663	 0.121305387642838 
664	 0.121463608127813 
665	 0.121689916102506 
666	 0.121925948024177 
667	 0.122098606674562 
668	 0.122354931644603 
669	 0.122610586334684 
670	 0.122836440744075 
671	 0.123056425201765 
672	 0.123301489250297 
673	 0.123570733470041 
674	 0.123855455128066 
675	 0.124151646416039 
676	 0.124398392471737 
677	 0.124643478715769 
678	 0.124960812933201 
679	 0.125229226888106 
680	 0.125512688417716 
681	 0.125825226052774 
682	 0.126096026409401 
683	 0.126388622093774 
684	 0.126699220514673 
685	 0.127007762121713 
686	 0.127299352711621 
687	 0.127628292920695 
688	 0.127974621003391 
689	 0.128271277367658 
690	 0.128571023100059 
691	 0.128909606132293 
692	 0.129282879988378 
693	 0.12961262892364 
694	 0.129967482587505 
695	 0.130309008533653 
696	 0.130591121238644 
697	 0.130941113339596 
698	 0.131295155884821 
699	 0.13164077308014 
700	 0.132028321173902 
701	 0.132406192728032 
702	 0.132758980583259 
703	 0.133085412083858 
704	 0.133391007132125 
705	 0.133745292461243 
706	 0.134122574403076 
707	 0.13445607838584 
708	 0.134803449957331 
709	 0.135193162587078 
710	 0.135601872679504 
711	 0.135938471662893 
712	 0.136267997955069 
713	 0.136587248335512 
714	 0.136897426028389 
715	 0.137290508072461 
716	 0.137650746229352 
717	 0.137962905422721 
718	 0.138288715320389 
719	 0.138639510637609 
720	 0.1389291499745 
721	 0.139144826781516 
722	 0.139441368432141 
723	 0.139752874382359 
724	 0.140040624326099 
725	 0.140289373579467 
726	 0.140566988502795 
727	 0.140822746248412 
728	 0.141047291594881 
729	 0.141274834177218 
730	 0.141520837620502 
731	 0.14173357533063 
732	 0.141897364380478 
733	 0.142113305430704 
734	 0.142321386367819 
735	 0.142480216794867 
736	 0.142580685159882 
737	 0.142765184800482 
738	 0.142913852806531 
739	 0.142992819049693 
740	 0.143082504306981 
741	 0.143187651344564 
742	 0.143267323316348 
743	 0.143303153228736 
744	 0.143369597795502 
745	 0.143415910202601 
746	 0.143452059754101 
747	 0.143502695094582 
748	 0.143485336903779 
749	 0.143430800055485 
750	 0.143395400521487 
751	 0.143448604087343 
752	 0.14341768337006 
753	 0.14330437742332 
754	 0.14317110059437 
755	 0.143121416568166 
756	 0.143081578873169 
757	 0.143004733800823 
758	 0.142876707037677 
759	 0.14280901901975 
760	 0.142720249487971 
761	 0.14258245761961 
762	 0.142456906053521 
763	 0.142320188145403 
764	 0.142156215718233 
765	 0.141969905280088 
766	 0.14182264616001 
767	 0.14167039759292 
768	 0.141522603771261 
769	 0.141402397069775 
770	 0.141231677831366 
771	 0.141038821050544 
772	 0.140847766138993 
773	 0.140663914174941 
774	 0.140459310768266 
775	 0.140263668484424 
776	 0.140094089192105 
777	 0.139896537754968 
778	 0.139706196365148 
779	 0.139530858470141 
780	 0.139358373276011 
781	 0.139137499641395 
782	 0.138922850771452 
783	 0.138741472706763 
784	 0.138579642804937 
785	 0.138370963466914 
786	 0.138151709175457 
787	 0.137956759753558 
788	 0.137764844473685 
789	 0.137591725358038 
790	 0.137393224218984 
791	 0.137138411199074 
792	 0.136981103979458 
793	 0.136811543518991 
794	 0.136607417318631 
795	 0.136427752237805 
796	 0.136185057303366 
797	 0.136005715431489 
798	 0.135922358286484 
799	 0.135739569273945 
800	 0.135571212325408 
801	 0.135403421752787 
802	 0.135201251223985 
803	 0.134989615893882 
804	 0.13481651571543 
805	 0.13468336791334 
806	 0.134554583330976 
807	 0.134373733678424 
808	 0.134190466796301 
809	 0.134032235312883 
810	 0.133880160162093 
811	 0.133737067433376 
812	 0.133597455177961 
813	 0.133463144414987 
814	 0.133362695618935 
815	 0.13325029477738 
816	 0.133121667291665 
817	 0.132986070847089 
818	 0.132812105569956 
819	 0.132689743292651 
820	 0.132603688290846 
821	 0.13245591099774 
822	 0.132354320274822 
823	 0.132278384223388 
824	 0.132196785082475 
825	 0.132093497312991 
826	 0.131981421341332 
827	 0.131874737964059 
828	 0.13178381411652 
829	 0.13170894877789 
830	 0.131607724290038 
831	 0.131498713093033 
832	 0.131429526631085 
833	 0.131425945723527 
834	 0.131365006605696 
835	 0.131246675093779 
836	 0.131190919783446 
837	 0.131170657851009 
838	 0.131132204883195 
839	 0.131051174743954 
840	 0.130961414471981 
841	 0.13089644234035 
842	 0.130845634240037 
843	 0.130797907127887 
844	 0.130790722047555 
845	 0.130782140442558 
846	 0.130735893833383 
847	 0.130652927330152 
848	 0.130711799169984 
849	 0.130737316662968 
850	 0.130659194668678 
851	 0.130531802947956 
852	 0.130481764262439 
853	 0.130524118867917 
854	 0.13060664583744 
855	 0.130615262211497 
856	 0.13063626401306 
857	 0.130664456689957 
858	 0.130680235052861 
859	 0.130680307448979 
860	 0.130682083299711 
861	 0.130705098475626 
862	 0.130742933156381 
863	 0.130673827303891 
864	 0.130694503315096 
865	 0.130789606219305 
866	 0.130816428768974 
867	 0.130787921976812 
868	 0.130822447427946 
869	 0.130924808331832 
870	 0.1309800346335 
871	 0.131022863632439 
872	 0.131094319440591 
873	 0.131192215175827 
874	 0.131244167318119 
875	 0.131292260372052 
876	 0.131345052213579 
877	 0.131400558264814 
878	 0.131443777822053 
879	 0.131557963923692 
880	 0.131672363715203 
881	 0.13170990267476 
882	 0.131806976821203 
883	 0.131925625848883 
884	 0.132034939549257 
885	 0.132128212277534 
886	 0.132314988106647 
887	 0.132442866661531 
888	 0.132493375177862 
889	 0.132576071061151 
890	 0.132695619801678 
891	 0.13283107693035 
892	 0.132964035631791 
893	 0.13308863010364 
894	 0.133242203371378 
895	 0.133381107534207 
896	 0.1334809551643 
897	 0.133578167545951 
898	 0.133781897374129 
899	 0.134017893504659 
900	 0.134194364793351 
901	 0.134310786005429 
902	 0.134470273424373 
903	 0.134652670829236 
904	 0.134803776800305 
905	 0.134920249330601 
906	 0.13510666090304 
907	 0.135334675273053 
908	 0.135531159370983 
909	 0.135774920936993 
910	 0.135965639011173 
911	 0.136122707042342 
912	 0.136333400389345 
913	 0.136524380259187 
914	 0.13674694430655 
915	 0.136978748111768 
916	 0.137143133001418 
917	 0.13736124883427 
918	 0.137615565251893 
919	 0.13786573539912 
920	 0.138077999574806 
921	 0.138395461914519 
922	 0.138670072226324 
923	 0.138860661815081 
924	 0.139144725140197 
925	 0.139332424616196 
926	 0.139525436446025 
927	 0.139810735677139 
928	 0.140132579051323 
929	 0.140415616677264 
930	 0.140714605394307 
931	 0.141054775516635 
932	 0.141313028468538 
933	 0.141584606531298 
934	 0.141881068190998 
935	 0.142195025723639 
936	 0.142546686206098 
937	 0.142821976928776 
938	 0.143098494585856 
939	 0.143459894787039 
940	 0.143770000375929 
941	 0.144089500741498 
942	 0.144473334412196 
943	 0.144913431300609 
944	 0.145172050310774 
945	 0.145541393644945 
946	 0.145945252957796 
947	 0.146210084430282 
948	 0.146563792196869 
949	 0.146910846193034 
950	 0.147217844025415 
951	 0.147534212478337 
952	 0.14812034454184 
953	 0.148514771012084 
954	 0.148771803450809 
955	 0.149199196208148 
956	 0.149630436230677 
957	 0.150026295917229 
958	 0.150378589936997 
959	 0.150719891342583 
960	 0.151174962619162 
961	 0.151688036941283 
962	 0.152158934260264 
963	 0.152501738474391 
964	 0.152800735359383 
965	 0.153260037512714 
966	 0.153808372955829 
967	 0.154223328544108 
968	 0.154608199160852 
969	 0.155075564700418 
970	 0.155528854229098 
971	 0.155810291500876 
972	 0.15630096507191 
973	 0.156747848932092 
974	 0.157121388465624 
975	 0.157575369457753 
976	 0.158196064724446 
977	 0.158763373279362 
978	 0.159195425922232 
979	 0.159554629470116 
980	 0.159998583325119 
981	 0.16059796175833 
982	 0.161128649367237 
983	 0.161349531084463 
984	 0.16187147932903 
985	 0.162328676991235 
986	 0.162752469191745 
987	 0.163337986558388 
988	 0.163746944565197 
989	 0.164181067406637 
990	 0.164609428534359 
991	 0.164944468024435 
992	 0.165454020427843 
993	 0.166006737994864 
994	 0.166563873134196 
995	 0.16710809866421 
996	 0.167513915996477 
997	 0.167883174032742 
998	 0.168317546887569 
999	 0.168856278820461 
1000	 0.169358929847557 
1001	 0.169364559884266 
1002	 0.169797533316588 
1003	 0.17020853863071 
1004	 0.170622251398002 
1005	 0.17104549322055 
1006	 0.171489859853332 
1007	 0.171908857510083 
1008	 0.172407356246702 
1009	 0.172975335636833 
1010	 0.173383774550433 
1011	 0.17376125706066 
1012	 0.174057375523933 
1013	 0.174270529158225 
1014	 0.174641161221055 
1015	 0.175042009821675 
1016	 0.175433157589968 
1017	 0.17584854412966 
1018	 0.176307314785644 
1019	 0.176665501022832 
1020	 0.177020776706652 
1021	 0.177444361170217 
1022	 0.177743850574409 
1023	 0.17805819634763 
1024	 0.178433465571111 
1025	 0.178689241302485 
1026	 0.178974878961753 
1027	 0.179295124274125 
1028	 0.179571602385652 
1029	 0.179847886674365 
1030	 0.180142216342334 
1031	 0.180454205485255 
1032	 0.180778956150218 
1033	 0.181057624164795 
1034	 0.18137412357726 
1035	 0.181730337832177 
1036	 0.182016254218658 
1037	 0.182348812898007 
1038	 0.182693720268222 
1039	 0.182977658453865 
1040	 0.183252379527205 
1041	 0.183543158114724 
1042	 0.183851454754177 
1043	 0.184103487664512 
1044	 0.184376093652646 
1045	 0.184655629239894 
1046	 0.184948128056036 
1047	 0.185204059300019 
1048	 0.185522339872406 
1049	 0.185847598090842 
1050	 0.186126433430315 
1051	 0.186440769900181 
1052	 0.186777859930952 
1053	 0.187119153174973 
1054	 0.187455188794962 
1055	 0.18777688618728 
1056	 0.188078299848008 
1057	 0.188373733150752 
1058	 0.188654043598199 
1059	 0.188941977512279 
1060	 0.18922152390484 
1061	 0.18951152966549 
1062	 0.189793399170411 
1063	 0.190052877188483 
1064	 0.190325935375673 
1065	 0.190604562857001 
1066	 0.190931456253121 
1067	 0.191236833969648 
1068	 0.191516914297825 
1069	 0.191825522923156 
1070	 0.192097128225631 
1071	 0.192319458252708 
1072	 0.192583449205196 
1073	 0.192857630872233 
1074	 0.193093482004357 
1075	 0.193311527522142 
1076	 0.193544889355986 
1077	 0.193781688857272 
1078	 0.194054780286748 
1079	 0.194335611494788 
1080	 0.19458004666323 
1081	 0.194782210806479 
1082	 0.195013134694482 
1083	 0.195255402808335 
1084	 0.195524545760442 
1085	 0.195754748192457 
1086	 0.195978227744177 
1087	 0.196188584316346 
1088	 0.196352311916648 
1089	 0.19657095547136 
1090	 0.196805890188981 
1091	 0.197042910584724 
1092	 0.197282863458369 
1093	 0.197469996878748 
1094	 0.197662453635285 
1095	 0.197880391637397 
1096	 0.198088680898898 
1097	 0.198291864069664 
1098	 0.198474873628528 
1099	 0.198623052239455 
1100	 0.198798259227162 
1101	 0.198964938030774 
1102	 0.199152606179231 
1103	 0.199381946263663 
1104	 0.199567746016361 
1105	 0.199722407337874 
1106	 0.199906671599184 
1107	 0.200090078909346 
1108	 0.20026988808336 
1109	 0.2004457317305 
1110	 0.200648542185622 
1111	 0.200845776740693 
1112	 0.201027115615033 
1113	 0.201218176444309 
1114	 0.201442764286757 
1115	 0.201629192964822 
1116	 0.201765767192843 
1117	 0.201955644240733 
1118	 0.202170606723279 
1119	 0.202376293044104 
1120	 0.202567155808395 
1121	 0.202754974971223 
1122	 0.202912912562922 
1123	 0.203046605141287 
1124	 0.203210742624915 
1125	 0.203392237171436 
1126	 0.203579564280084 
1127	 0.203783229066848 
1128	 0.20396077216826 
1129	 0.204125078496293 
1130	 0.204313928822247 
1131	 0.204507678539491 
1132	 0.204683174850831 
1133	 0.204881815461137 
1134	 0.205058305076743 
1135	 0.205188657224389 
1136	 0.205347674709084 
1137	 0.205534417090775 
1138	 0.205677169611308 
1139	 0.205836895731048 
1140	 0.206005093025271 
1141	 0.206160717509079 
1142	 0.206314270547848 
1143	 0.206459039911994 
1144	 0.20659151316709 
1145	 0.206725935038829 
1146	 0.206859458285605 
1147	 0.206985539406092 
1148	 0.207104567634065 
1149	 0.207224624484544 
1150	 0.207313049038353 
1151	 0.207447701611504 
1152	 0.207617475848769 
1153	 0.207776085860369 
1154	 0.207921788384439 
1155	 0.208086545239896 
1156	 0.208222615712138 
1157	 0.2083188008554 
1158	 0.20844366055986 
1159	 0.20857357362781 
1160	 0.208710452448878 
1161	 0.208865483885629 
1162	 0.20900168154378 
1163	 0.209132379635725 
1164	 0.209266897850295 
1165	 0.2093945881942 
1166	 0.209516090111548 
1167	 0.209650343212998 
1168	 0.20978389588366 
1169	 0.209909124852181 
1170	 0.210024930659883 
1171	 0.210143700419744 
1172	 0.210262575363638 
1173	 0.210381733730146 
1174	 0.210495503087049 
1175	 0.210613507340865 
1176	 0.210733813741446 
1177	 0.210853639768852 
1178	 0.210979452598825 
1179	 0.211100612303816 
1180	 0.211222513807225 
1181	 0.211337843378709 
1182	 0.211450453173677 
1183	 0.211556971519305 
1184	 0.211657042628744 
1185	 0.211748061753393 
1186	 0.211846657296955 
1187	 0.211936981249067 
1188	 0.212041242758492 
1189	 0.212152222734208 
1190	 0.212268561057683 
1191	 0.212409536358727 
1192	 0.212517895246962 
1193	 0.212607697786737 
1194	 0.212710817539071 
1195	 0.212797850345231 
1196	 0.212893703986861 
1197	 0.213018772493503 
1198	 0.213122425476458 
1199	 0.213216595246807 
1200	 0.213293377741267 
1201	 0.213386513582105 
1202	 0.213477412954868 
1203	 0.213569001677897 
1204	 0.213666159587887 
1205	 0.213764120840647 
1206	 0.213860640864923 
1207	 0.21395535889052 
1208	 0.214066429397487 
1209	 0.214152666691731 
1210	 0.214221356183289 
1211	 0.214290567418579 
1212	 0.21432281688478 
1213	 0.214396703488052 
1214	 0.214501941268252 
1215	 0.214594041902551 
1216	 0.214691614725514 
1217	 0.214818129835907 
1218	 0.214909881863017 
1219	 0.214976657379798 
1220	 0.215058264149238 
1221	 0.215143066383892 
1222	 0.215217456215821 
1223	 0.215277873530124 
1224	 0.215358997834083 
1225	 0.215448988845545 
1226	 0.215529622069653 
1227	 0.215630947594509 
1228	 0.215709395458078 
1229	 0.215755142764442 
1230	 0.215817649107722 
1231	 0.215886540106522 
1232	 0.215949064654124 
1233	 0.216011285555814 
1234	 0.216075693201339 
1235	 0.216145404924286 
1236	 0.216212469531398 
1237	 0.216280015393112 
1238	 0.216361809413116 
1239	 0.216425518738058 
1240	 0.216471937014236 
1241	 0.216532041259931 
1242	 0.216601020370048 
1243	 0.216652943939912 
1244	 0.216693183326808 
1245	 0.216746692983333 
1246	 0.216792182737309 
1247	 0.216843786109069 
1248	 0.216910583129731 
1249	 0.216978878579917 
1250	 0.217031154284353 
1251	 0.217098063431307 
1252	 0.217155652269334 
1253	 0.217215883880149 
1254	 0.217269413202984 
1255	 0.217319625474324 
1256	 0.217363584259653 
1257	 0.217399590335699 
1258	 0.21744068152071 
1259	 0.21747722724766 
1260	 0.217514521426254 
1261	 0.217557133794009 
1262	 0.217597356447953 
1263	 0.217633533217322 
1264	 0.217671102446386 
1265	 0.217706252747378 
1266	 0.217746523524898 
1267	 0.217791247668822 
1268	 0.217831876642841 
1269	 0.217875872634027 
1270	 0.217922946360838 
1271	 0.217973962151531 
1272	 0.218024497861555 
1273	 0.218079628044367 
1274	 0.218138358724051 
1275	 0.218206385359179 
1276	 0.218282162549261 
1277	 0.218354840011769 
1278	 0.218425154516512 
1279	 0.21851265500841 
1280	 0.218599892697882 
1281	 0.218702962035797 
1282	 0.218847410425645 
1283	 0.218962731640362 
1284	 0.219071312185306 
1285	 0.219172419204316 
1286	 0.219265325532969 
1287	 0.21935750151404 
1288	 0.219461582210555 
1289	 0.219586281977543 
1290	 0.219675363716115 
1291	 0.219749262471954 
1292	 0.219833857063987 
1293	 0.219893590309977 
1294	 0.219982239083026 
1295	 0.220115257775584 
1296	 0.220201017395278 
1297	 0.220279102544621 
1298	 0.220339956392135 
1299	 0.220364229408353 
1300	 0.220394964617331 
1301	 0.220419249358333 
1302	 0.220442246352955 
1303	 0.220460367673046 
1304	 0.220477280424202 
1305	 0.220488470024221 
1306	 0.22050989404691 
1307	 0.220520472124469 
1308	 0.220510513745316 
1309	 0.220504719169556 
1310	 0.220488592068487 
1311	 0.220471937914826 
1312	 0.220461219862886 
1313	 0.220439151206305 
1314	 0.220403286951723 
1315	 0.220375120729442 
1316	 0.220349047979626 
1317	 0.220310580041721 
1318	 0.220267923326243 
1319	 0.220227055303632 
1320	 0.220169229083449 
1321	 0.220127791035784 
1322	 0.22009827126133 
1323	 0.220067291199834 
1324	 0.220044626175967 
1325	 0.220013895069203 
1326	 0.219976878021645 
1327	 0.219943483204112 
1328	 0.21989707260214 
1329	 0.219847279145163 
1330	 0.21979410816351 
1331	 0.219733520468961 
1332	 0.219674911988294 
1333	 0.219613483446511 
1334	 0.219554648253751 
1335	 0.219490674821785 
1336	 0.219437794157315 
1337	 0.21938669422397 
1338	 0.219344234824706 
1339	 0.21931928171083 
1340	 0.219282761670968 
1341	 0.219247911050317 
1342	 0.219209195814379 
1343	 0.219170203143059 
1344	 0.219116143494883 
1345	 0.219062561992498 
1346	 0.219016986411711 
1347	 0.218967994369429 
1348	 0.218917926549769 
1349	 0.218859124634521 
1350	 0.21880633154074 
1351	 0.218755334661324 
1352	 0.218704439117867 
1353	 0.218648688464585 
1354	 0.218599982289128 
1355	 0.218537668475342 
1356	 0.218449008998003 
1357	 0.218392064845778 
1358	 0.218346864474808 
1359	 0.218303783152824 
1360	 0.218280444564122 
1361	 0.218247750098073 
1362	 0.21821096608538 
1363	 0.218174078551885 
1364	 0.218139045547364 
1365	 0.218101594544461 
1366	 0.218065078830483 
1367	 0.218019166189289 
1368	 0.217975809502753 
1369	 0.217947086003364 
1370	 0.217903692252491 
1371	 0.217847402670144 
1372	 0.217773246327061 
1373	 0.217679633209296 
1374	 0.217581384326219 
1375	 0.217479307724108 
1376	 0.2173459641259 
1377	 0.217193249954946 
1378	 0.217030554917441 
1379	 0.216837921606191 
1380	 0.21665621277178 
1381	 0.216480745125122 
1382	 0.21627947988956 
1383	 0.216078435431758 
1384	 0.215844700689465 
1385	 0.215583225305374 
1386	 0.215313717960822 
1387	 0.215024854975724 
1388	 0.214719273781628 
1389	 0.214400641616612 
1390	 0.21407572080372 
1391	 0.213706002487806 
1392	 0.213314800826452 
1393	 0.21290987216263 
1394	 0.212467580603774 
1395	 0.211999257716296 
1396	 0.211547183422867 
1397	 0.211088098414815 
1398	 0.210605986515185 
1399	 0.210141569863912 
1400	 0.209690486665016 
1401	 0.209230921235098 
1402	 0.20876382719703 
1403	 0.208314988945156 
1404	 0.207866462520328 
1405	 0.207441146780525 
1406	 0.207023785824688 
1407	 0.206628227702882 
1408	 0.206245392182356 
1409	 0.205886173670792 
1410	 0.205530573872063 
1411	 0.205230510499637 
1412	 0.204964910386605 
1413	 0.204734717649193 
1414	 0.204547379091844 
1415	 0.204388179246561 
1416	 0.204235080004841 
1417	 0.204095611557638 
1418	 0.203963451769084 
1419	 0.203840346111617 
1420	 0.203750147569706 
1421	 0.203671371134793 
1422	 0.203591632782089 
1423	 0.203507014311281 
1424	 0.203416235002385 
1425	 0.203304247121427 
1426	 0.203216574778946 
1427	 0.203129676172915 
1428	 0.203068238061412 
1429	 0.203022838097343 
1430	 0.202978683949464 
1431	 0.202956780054331 
1432	 0.202929294751632 
1433	 0.202898767745232 
1434	 0.202877745184706 
1435	 0.202856276585346 
1436	 0.202851384178914 
1437	 0.202863634888629 
1438	 0.202870855864337 
1439	 0.202889329478991 
1440	 0.202904295745241 
1441	 0.202914934723063 
1442	 0.202924049662532 
1443	 0.202928268597147 
1444	 0.202951880620173 
1445	 0.202984555343729 
1446	 0.203018801892592 
1447	 0.203073094219846 
1448	 0.203124708337637 
1449	 0.203146682697608 
1450	 0.203164955280873 
1451	 0.203202145675241 
1452	 0.203237748750523 
1453	 0.203279949185885 
1454	 0.203346773274424 
1455	 0.203396391910699 
1456	 0.203433496495807 
1457	 0.203480360307292 
1458	 0.203522649470853 
1459	 0.203580653285499 
1460	 0.203641066061767 
1461	 0.203719477462044 
1462	 0.203824315438024 
1463	 0.203915622947644 
1464	 0.204008098342767 
1465	 0.204106185561138 
1466	 0.204196789131008 
1467	 0.204301006494745 
1468	 0.204416344946185 
1469	 0.204541795441851 
1470	 0.204675704932845 
1471	 0.204816511641187 
1472	 0.204965982598028 
1473	 0.20511699828814 
1474	 0.205263029899507 
1475	 0.205412188892472 
1476	 0.205573375987649 
1477	 0.205728029355138 
1478	 0.20588731339079 
1479	 0.206046490658133 
1480	 0.206196457685948 
1481	 0.206356191771152 
1482	 0.206513266825925 
1483	 0.206671418039448 
1484	 0.206830965472171 
1485	 0.206985408275633 
1486	 0.207154090751666 
1487	 0.207335706316152 
1488	 0.207503045198237 
1489	 0.207683639089101 
1490	 0.207839472280345 
1491	 0.20796902830372 
1492	 0.208113978166063 
1493	 0.208251458174466 
1494	 0.208394898686174 
1495	 0.208545934297891 
1496	 0.208696334770903 
1497	 0.208851730009466 
1498	 0.208999598738766 
1499	 0.209147220271431 
1500	 0.20929121923905 
1501	 0.209427146988057 
1502	 0.209564317257075 
1503	 0.209701132428235 
1504	 0.209838178614905 
1505	 0.209967894218494 
1506	 0.210101825455364 
1507	 0.21023980420576 
1508	 0.210370227330249 
1509	 0.210510494461585 
1510	 0.210638968079049 
1511	 0.21073328822945 
1512	 0.210832034677877 
1513	 0.210941443547738 
1514	 0.211053279538456 
1515	 0.211190358787257 
1516	 0.211339770194964 
1517	 0.21146333683997 
1518	 0.2115684443518 
1519	 0.211683629979774 
1520	 0.211792563329989 
1521	 0.211902704039017 
1522	 0.212018812285247 
1523	 0.212130251127907 
1524	 0.212234548146567 
1525	 0.212342937299344 
1526	 0.21245209125294 
1527	 0.212565898902888 
1528	 0.212688144650475 
1529	 0.212792018707326 
1530	 0.212899658835339 
1531	 0.21298701004443 
1532	 0.213042488745608 
1533	 0.213121086668032 
1534	 0.213201192942768 
1535	 0.213278434542862 
1536	 0.213364427396937 
1537	 0.213444850638175 
1538	 0.213517919631763 
1539	 0.213597183888047 
1540	 0.213679978309182 
1541	 0.213759106591552 
1542	 0.213839022321301 
1543	 0.213913009325271 
1544	 0.213986445876564 
1545	 0.214058745924277 
1546	 0.214131646020755 
1547	 0.214188678221651 
1548	 0.21426057212976 
1549	 0.214322010942435 
1550	 0.214380884764425 
1551	 0.214467150050441 
1552	 0.214538823871774 
1553	 0.214606183306182 
1554	 0.214680830962068 
1555	 0.214730319309416 
1556	 0.214771186764123 
1557	 0.214822445846991 
1558	 0.214882158062084 
1559	 0.214944794859965 
1560	 0.21500879727257 
1561	 0.215091705935576 
1562	 0.215148003080053 
1563	 0.215191723210534 
1564	 0.215235011120066 
1565	 0.215263082810314 
1566	 0.215308978878039 
1567	 0.215355905482236 
1568	 0.215409068262881 
1569	 0.215480785041255 
1570	 0.215536856564584 
1571	 0.215586151311421 
1572	 0.215636619246078 
1573	 0.215682368513646 
1574	 0.215727268550087 
1575	 0.21578223663562 
1576	 0.215815846919219 
1577	 0.215828755546272 
1578	 0.21585829482383 
1579	 0.215874031009629 
1580	 0.215911169187649 
1581	 0.215971205888444 
1582	 0.216023893722387 
1583	 0.216084162994296 
1584	 0.216138914850613 
1585	 0.216202792738325 
1586	 0.216244917753848 
1587	 0.216274122781905 
1588	 0.216298502449592 
1589	 0.216301050542827 
1590	 0.216315820507924 
1591	 0.216335290882903 
1592	 0.216352917706198 
1593	 0.216366467651587 
1594	 0.216387496886438 
1595	 0.216405436048126 
1596	 0.216433595336332 
1597	 0.216475209411229 
1598	 0.216517299367118 
1599	 0.216580602687435 
1600	 0.216619332594573 
1601	 0.216638061791372 
1602	 0.216668229069911 
1603	 0.216680756368922 
1604	 0.216708701179005 
1605	 0.216761508086987 
1606	 0.216802880566889 
1607	 0.216844547828316 
1608	 0.216885046642609 
1609	 0.216906204207619 
1610	 0.216935259711764 
1611	 0.216950762309631 
1612	 0.216951378767781 
1613	 0.216955499157125 
1614	 0.216967066566442 
1615	 0.216989978351638 
1616	 0.217005142944807 
1617	 0.217025810160838 
1618	 0.217049104819319 
1619	 0.21706749456707 
1620	 0.217097659404924 
1621	 0.217121049600126 
1622	 0.217146554576824 
1623	 0.21717130585686 
1624	 0.217195250283984 
1625	 0.217212949122202 
1626	 0.217227429476381 
1627	 0.217246142938442 
1628	 0.217261635173346 
1629	 0.217277792199734 
1630	 0.217301640361323 
1631	 0.217316412182225 
1632	 0.217322378997284 
1633	 0.217330942724201 
1634	 0.217334425608638 
1635	 0.217351478174166 
1636	 0.217386453690218 
1637	 0.217383030217932 
1638	 0.217364796892087 
1639	 0.217364645408635 
1640	 0.217330804119057 
1641	 0.217347272209399 
1642	 0.217411818304837 
1643	 0.217449569103334 
1644	 0.217493914521956 
1645	 0.217529720394179 
1646	 0.217562835488114 
1647	 0.21758604543185 
1648	 0.217597740549692 
1649	 0.21762098570694 
1650	 0.217647016357353 
1651	 0.21766015763239 
1652	 0.217670380382376 
1653	 0.217687160972953 
1654	 0.217693736307344 
1655	 0.217705617197297 
1656	 0.217739398374447 
1657	 0.217745258449207 
1658	 0.217730879860368 
1659	 0.217722913723629 
1660	 0.217705613337965 
1661	 0.21769483822925 
1662	 0.217688639125968 
1663	 0.217675917175427 
1664	 0.217653683276199 
1665	 0.217649496969199 
1666	 0.217647987324725 
1667	 0.217654118718638 
1668	 0.217679359234657 
1669	 0.217695025741157 
1670	 0.217708444912093 
1671	 0.217723169139117 
1672	 0.217748750459774 
1673	 0.217750272674895 
1674	 0.217732983899197 
1675	 0.217730933500967 
1676	 0.217718698053396 
1677	 0.217716135387203 
1678	 0.217728232712387 
1679	 0.217737603116719 
1680	 0.217749501005028 
1681	 0.217750886532739 
1682	 0.217749816681054 
1683	 0.217752796836717 
1684	 0.217741968514135 
1685	 0.217749024119894 
1686	 0.217777822039602 
1687	 0.217789062795007 
1688	 0.217804558624404 
1689	 0.217801859443097 
1690	 0.217778984014789 
1691	 0.217768514317638 
1692	 0.217750375683136 
1693	 0.217739368938546 
1694	 0.217730611214521 
1695	 0.217735575270386 
1696	 0.217739879462239 
1697	 0.217765621206755 
1698	 0.217833740354443 
1699	 0.21785569283979 
1700	 0.217870000825943 
1701	 0.217873410127733 
1702	 0.217840754301093 
1703	 0.217829439569807 
1704	 0.2178332020308 
1705	 0.217818040859006 
1706	 0.21778894941699 
1707	 0.217775281122729 
1708	 0.217765231451427 
1709	 0.217744615900689 
1710	 0.217732898253382 
1711	 0.217701115047323 
1712	 0.217642062528371 
1713	 0.217602396593051 
1714	 0.217557392250992 
1715	 0.217539783703089 
1716	 0.217543586273559 
1717	 0.21753604934615 
1718	 0.217534525276176 
1719	 0.217542450336561 
1720	 0.217561686923113 
1721	 0.217554211298835 
1722	 0.217556574928267 
1723	 0.217535715139886 
1724	 0.217468984126989 
1725	 0.217433217305497 
1726	 0.217416234097049 
1727	 0.217369580127537 
1728	 0.217310456140944 
1729	 0.217263008457901 
1730	 0.217203458815392 
1731	 0.21716166558327 
1732	 0.217132909677691 
1733	 0.217104201970647 
1734	 0.217089888936459 
1735	 0.217042655934796 
1736	 0.216986963314506 
1737	 0.216931721377417 
1738	 0.21685114649754 
1739	 0.216783000248276 
1740	 0.216722436739199 
1741	 0.21667723243232 
1742	 0.216626443658036 
1743	 0.216600719978391 
1744	 0.21661704656903 
1745	 0.216573655065689 
1746	 0.216513306395155 
1747	 0.216424308034245 
1748	 0.216358512539256 
1749	 0.216323312705608 
1750	 0.216296211425971 
1751	 0.21626944141961 
1752	 0.216205025504 
1753	 0.216119512225095 
1754	 0.216043892528725 
1755	 0.215988017126771 
1756	 0.215935711119532 
1757	 0.215878195174121 
1758	 0.215821066582779 
1759	 0.215754031655036 
1760	 0.215708488557282 
1761	 0.215673608782186 
1762	 0.215619200356615 
1763	 0.215568953436146 
1764	 0.21550866471302 
1765	 0.215440504715126 
1766	 0.215385759456856 
1767	 0.215310037523283 
1768	 0.215215034161446 
1769	 0.215160236446724 
1770	 0.215136101585243 
1771	 0.215114451527031 
1772	 0.215121693903498 
1773	 0.215114110763785 
1774	 0.215069996672616 
1775	 0.215049775608715 
1776	 0.215022042893685 
1777	 0.214956188984518 
1778	 0.214896498045291 
1779	 0.214825337923838 
1780	 0.214756176370144 
1781	 0.214726359764923 
1782	 0.214719690346541 
1783	 0.214744104620347 
1784	 0.214745638744976 
1785	 0.214756455256709 
1786	 0.214749010342415 
1787	 0.214720877657013 
1788	 0.214697177755095 
1789	 0.21466718775531 
1790	 0.214630223043303 
1791	 0.21457914267122 
1792	 0.214546522131392 
1793	 0.214505737406337 
1794	 0.214496407079113 
1795	 0.214516065493928 
1796	 0.214531508303841 
1797	 0.214576824131944 
1798	 0.214583984792324 
1799	 0.21457748702921 
1800	 0.214563446254211 
1801	 0.214994123857814 
1802	 0.215108194566788 
1803	 0.215238605148491 
1804	 0.215376704413248 
1805	 0.215512566850103 
1806	 0.215628822021621 
1807	 0.215709826613297 
1808	 0.215785741774109 
1809	 0.215842000931546 
1810	 0.215887315232821 
1811	 0.215914112016904 
1812	 0.215964022016786 
1813	 0.215957714572933 
1814	 0.21593271732387 
1815	 0.21592870823544 
1816	 0.215903348508671 
1817	 0.21588513909634 
1818	 0.215877764814737 
1819	 0.215874271085917 
1820	 0.215872511543413 
1821	 0.21584959326606 
1822	 0.215843397522105 
1823	 0.215851261733412 
1824	 0.215872038392031 
1825	 0.215903272196448 
1826	 0.215937919841381 
1827	 0.215971364237029 
1828	 0.21597857878813 
1829	 0.215959690134502 
1830	 0.215936773807184 
1831	 0.21590483546608 
1832	 0.215853563654742 
1833	 0.21579759812447 
1834	 0.21575251307875 
1835	 0.215712506529619 
1836	 0.215693310874542 
1837	 0.21569817162606 
1838	 0.215696370197692 
1839	 0.215673690100045 
1840	 0.215649876467471 
1841	 0.215603002934873 
1842	 0.215543707676583 
1843	 0.215491506846761 
1844	 0.215441778215383 
1845	 0.215381167443356 
1846	 0.215323404733129 
1847	 0.215286227255836 
1848	 0.215236650511983 
1849	 0.215186921175686 
1850	 0.215130499953672 
1851	 0.215082092818392 
1852	 0.214969274451578 
1853	 0.214865855848309 
1854	 0.214788894638922 
1855	 0.21465711053205 
1856	 0.214510629069371 
1857	 0.214361386843415 
1858	 0.214186637171454 
1859	 0.214001271617777 
1860	 0.21378710157707 
1861	 0.213568862557886 
1862	 0.213307421181494 
1863	 0.212989181411475 
1864	 0.212651614358304 
1865	 0.212302350704657 
1866	 0.21189614980709 
1867	 0.211489142063084 
1868	 0.211058130191553 
1869	 0.210538715590679 
1870	 0.210011406680169 
1871	 0.209462823296573 
1872	 0.208879388655597 
1873	 0.208267941804338 
1874	 0.207668165641896 
1875	 0.207022495696502 
1876	 0.206330170629537 
1877	 0.205577471873485 
1878	 0.204748224424526 
1879	 0.203859083701192 
1880	 0.202887545019307 
1881	 0.201814799965507 
1882	 0.200716767650429 
1883	 0.199567160935224 
1884	 0.198329295885512 
1885	 0.197067136702578 
1886	 0.195738721708255 
1887	 0.194289911418899 
1888	 0.192804917874447 
1889	 0.191265516405581 
1890	 0.18966599816562 
1891	 0.188085395193417 
1892	 0.186462870170072 
1893	 0.184875805929483 
1894	 0.183289870481351 
1895	 0.181736137014665 
1896	 0.180159886495233 
1897	 0.178632908103183 
1898	 0.177111755363177 
1899	 0.175660516969608 
1900	 0.174321977500225 
1901	 0.173024806206729 
1902	 0.171802386426226 
1903	 0.17067629541695 
1904	 0.169581922619958 
1905	 0.168524178621038 
1906	 0.167564180298017 
1907	 0.166653898754146 
1908	 0.165811922786513 
1909	 0.165052381376356 
1910	 0.164335316555063 
1911	 0.163670470955623 
1912	 0.163063393016647 
1913	 0.1624827286389 
1914	 0.16193050124171 
1915	 0.161424213394437 
1916	 0.160960745989841 
1917	 0.160528832446897 
1918	 0.160149601266171 
1919	 0.159818488637238 
1920	 0.159537022924139 
1921	 0.159279081448367 
1922	 0.159044363644404 
1923	 0.158867352108608 
1924	 0.158708762252924 
1925	 0.158574954886237 
1926	 0.158482886446192 
1927	 0.158437689562779 
1928	 0.1583944311093 
1929	 0.1583739198907 
1930	 0.158403060027231 
1931	 0.158432602989026 
1932	 0.1584702605238 
1933	 0.158559375278595 
1934	 0.158657787173702 
1935	 0.158763996956373 
1936	 0.158891309635019 
1937	 0.159029763739084 
1938	 0.159160536464392 
1939	 0.159324067863479 
1940	 0.159509506057761 
1941	 0.159713063070677 
1942	 0.159945364298079 
1943	 0.160205003881793 
1944	 0.160493699413546 
1945	 0.160799997993048 
1946	 0.161092334107498 
1947	 0.161388704621555 
1948	 0.161692424431005 
1949	 0.161982537563015 
1950	 0.162291515673455 
1951	 0.162610211738389 
1952	 0.162949358106875 
1953	 0.163289607393164 
1954	 0.163663584239368 
1955	 0.164049691446534 
1956	 0.164427525397886 
1957	 0.164808724367112 
1958	 0.165194131504464 
1959	 0.165573729640751 
1960	 0.165952071099316 
1961	 0.166332936531286 
1962	 0.166708023381966 
1963	 0.167095591787703 
1964	 0.167484052305262 
1965	 0.167887334892766 
1966	 0.168297678122106 
1967	 0.168704777814225 
1968	 0.169123280633879 
1969	 0.169551060263489 
1970	 0.169973300935155 
1971	 0.170400273102705 
1972	 0.170832622369205 
1973	 0.171275860014032 
1974	 0.171705475167745 
1975	 0.172138202518746 
1976	 0.172554820927224 
1977	 0.172989285184349 
1978	 0.173397391026036 
1979	 0.173799095393894 
1980	 0.174233122609944 
1981	 0.174644669454557 
1982	 0.175025250032104 
1983	 0.175440076149356 
1984	 0.175868290369548 
1985	 0.17629464026738 
1986	 0.176751152541966 
1987	 0.177178913663691 
1988	 0.17758867709798 
1989	 0.178007714607595 
1990	 0.178416321389191 
1991	 0.178813849959331 
1992	 0.179219756318316 
1993	 0.17963476048157 
1994	 0.180040681162798 
1995	 0.180438421817115 
1996	 0.18084088223027 
1997	 0.181243008824687 
1998	 0.181647482963159 
1999	 0.182058418338808 
2000	 0.182463456171138 
2001	 0.182876808556453 
2002	 0.18326989712663 
2003	 0.183654912472258 
2004	 0.184045367761064 
2005	 0.18442169594042 
2006	 0.184788282335409 
2007	 0.185151269603092 
2008	 0.185494898365645 
2009	 0.185858690103136 
2010	 0.186227649119251 
2011	 0.186595355587595 
2012	 0.186991195874492 
2013	 0.187353910159857 
2014	 0.187685788142699 
2015	 0.188033060402925 
2016	 0.188375915836181 
2017	 0.188710761602609 
2018	 0.189062811048327 
2019	 0.189434550614605 
2020	 0.189795308054424 
2021	 0.190172245326512 
2022	 0.190518314755663 
2023	 0.19084419937778 
2024	 0.191178443900803 
2025	 0.19148930036005 
2026	 0.191812402424732 
2027	 0.192143344815819 
2028	 0.192488490468825 
2029	 0.192820005853562 
2030	 0.193150583154118 
2031	 0.193475749268163 
2032	 0.193803751138164 
2033	 0.194112635285929 
2034	 0.194402314112189 
2035	 0.194702359829782 
2036	 0.195009651595973 
2037	 0.195289275810438 
2038	 0.195573772802694 
2039	 0.195830722385258 
2040	 0.196046473470249 
2041	 0.196258018605834 
2042	 0.196481945943822 
2043	 0.196703280969902 
2044	 0.196956338986015 
2045	 0.197234511274341 
2046	 0.197509907772902 
2047	 0.197813606071371 
2048	 0.198094121725265 
2049	 0.198387814718748 
2050	 0.198642005854346 
2051	 0.198886086538402 
2052	 0.199098285589543 
2053	 0.199233536682738 
2054	 0.199420144949671 
2055	 0.199628627327006 
2056	 0.199803930043772 
2057	 0.200008381417835 
2058	 0.200257634526152 
2059	 0.200467690963216 
2060	 0.20064500755476 
2061	 0.200860463656127 
2062	 0.201089846808363 
2063	 0.201311457764168 
2064	 0.201562780961304 
2065	 0.20178229068651 
2066	 0.201979526353239 
2067	 0.202176445112092 
2068	 0.202354622593215 
2069	 0.202542354895916 
2070	 0.202726309211586 
2071	 0.20290691205322 
2072	 0.20309193536565 
2073	 0.203273374464667 
2074	 0.203466060426865 
2075	 0.203671936987255 
2076	 0.203864365978205 
2077	 0.204056514751301 
2078	 0.204249264585054 
2079	 0.204427629812153 
2080	 0.204619586606186 
2081	 0.2048437254128 
2082	 0.205032453007327 
2083	 0.205192789455902 
2084	 0.205370007623826 
2085	 0.205551270745878 
2086	 0.205712053605562 
2087	 0.205899850378758 
2088	 0.206125655545456 
2089	 0.206316729415678 
2090	 0.206505183637847 
2091	 0.206673725871756 
2092	 0.206811739975998 
2093	 0.206973047604494 
2094	 0.207123491041124 
2095	 0.207288970625348 
2096	 0.207480338196162 
2097	 0.207661864062159 
2098	 0.207844473638693 
2099	 0.208020771329462 
2100	 0.208203074704279 
2101	 0.208387599428054 
2102	 0.208568390060751 
2103	 0.208760526376153 
2104	 0.20892609312682 
2105	 0.209057999440006 
2106	 0.209230595615203 
2107	 0.209405150888983 
2108	 0.209587223947266 
2109	 0.209809100212043 
2110	 0.210007266865932 
2111	 0.210181441026754 
2112	 0.210372530108449 
2113	 0.210572952580173 
2114	 0.210772851035775 
2115	 0.210963290743325 
2116	 0.211161904534425 
2117	 0.211338722098324 
2118	 0.211497374109222 
2119	 0.211658190794665 
2120	 0.211806176663699 
2121	 0.211965619651021 
2122	 0.21213272288504 
2123	 0.212285607269368 
2124	 0.212434404090268 
2125	 0.212582472544344 
2126	 0.212738551424522 
2127	 0.212863997482311 
2128	 0.212976440951781 
2129	 0.213082911017731 
2130	 0.213168809334359 
2131	 0.21322769745718 
2132	 0.213311067743908 
2133	 0.213409823662328 
2134	 0.213484249906488 
2135	 0.213559101952527 
2136	 0.213611804891663 
2137	 0.213648150652706 
2138	 0.213673219106278 
2139	 0.213665443468392 
2140	 0.213685146980283 
2141	 0.213717343583558 
2142	 0.213726406291004 
2143	 0.213758194823767 
2144	 0.213750859976587 
2145	 0.213683107999077 
2146	 0.21364290566929 
2147	 0.21359293090294 
2148	 0.213554528491324 
2149	 0.213521294083315 
2150	 0.213515523342409 
2151	 0.213473643947411 
2152	 0.213418957003178 
2153	 0.213361214222233 
2154	 0.213287706091124 
2155	 0.213215254459678 
2156	 0.213163910213415 
2157	 0.21306315322728 
2158	 0.212933865760244 
2159	 0.212796419682307 
2160	 0.212610169692599 
2161	 0.212447269406071 
2162	 0.212286449037741 
2163	 0.212129409935525 
2164	 0.211980352520357 
2165	 0.211836271928903 
2166	 0.21167005749103 
2167	 0.211490478637809 
2168	 0.211326519503428 
2169	 0.211145133960624 
2170	 0.210992338617506 
2171	 0.210873480265377 
2172	 0.2107283590949 
2173	 0.210584753588957 
2174	 0.210433433374621 
2175	 0.210271528805924 
2176	 0.210107465029285 
2177	 0.209944755653456 
2178	 0.209767510312668 
2179	 0.209577463459699 
2180	 0.209386628384433 
2181	 0.209170575833177 
2182	 0.208978822037516 
2183	 0.208800813633792 
2184	 0.208624060652356 
2185	 0.20844249858476 
2186	 0.208268437570208 
2187	 0.20809504259673 
2188	 0.207904810840883 
2189	 0.207744611230232 
2190	 0.207614165414993 
2191	 0.207463169217136 
2192	 0.207307593861484 
2193	 0.207166855408408 
2194	 0.207032575655783 
2195	 0.206890149381191 
2196	 0.206752570821802 
2197	 0.206619929259305 
2198	 0.206455063040732 
2199	 0.206333903236345 
2200	 0.206257262490039 
2201	 0.206172130281042 
2202	 0.206090731975794 
2203	 0.206040155132386 
2204	 0.205980460972255 
2205	 0.205907955980811 
2206	 0.205872812790923 
2207	 0.205862106053642 
2208	 0.205850520623323 
2209	 0.205862482183981 
2210	 0.205863620052882 
2211	 0.205854589368662 
2212	 0.205870907858998 
2213	 0.205894186906635 
2214	 0.205930631808827 
2215	 0.205996614733198 
2216	 0.206047660045121 
2217	 0.206107751557016 
2218	 0.20615792625809 
2219	 0.206199193090928 
2220	 0.206240386948761 
2221	 0.206290240770713 
2222	 0.206310052738703 
2223	 0.206328745483583 
2224	 0.206359190388433 
2225	 0.206386051181687 
2226	 0.206407694510313 
2227	 0.206435658056553 
2228	 0.206473017930324 
2229	 0.20649615113658 
2230	 0.206516767713178 
2231	 0.206529582097923 
2232	 0.20653734699421 
2233	 0.206535294207795 
2234	 0.206526800631647 
2235	 0.206506620685094 
2236	 0.206455760542818 
2237	 0.206439172035544 
2238	 0.206427688013072 
2239	 0.206423080309952 
2240	 0.20646107228507 
2241	 0.20646320303111 
2242	 0.206436787865732 
2243	 0.206426075029646 
2244	 0.206419388062292 
2245	 0.206395629196968 
2246	 0.206365033360814 
2247	 0.206337196178811 
2248	 0.206320896504218 
2249	 0.206295759347251 
2250	 0.206275504596586 
2251	 0.206272819120314 
2252	 0.206269862236489 
2253	 0.206261875947687 
2254	 0.206248697110174 
2255	 0.206238069938771 
2256	 0.206243522390283 
2257	 0.206248681271264 
2258	 0.206249752070044 
2259	 0.206287679943933 
2260	 0.206278085220924 
2261	 0.206209353134788 
2262	 0.206186419143513 
2263	 0.206171122351665 
2264	 0.206155749289808 
2265	 0.206167975222839 
2266	 0.206168094690067 
2267	 0.206158718934858 
2268	 0.206146170316174 
2269	 0.20613817880162 
2270	 0.206113209978434 
2271	 0.206095351625659 
2272	 0.206086696517703 
2273	 0.206070115270441 
2274	 0.206069185417315 
2275	 0.206065307080123 
2276	 0.206064294366109 
2277	 0.206039909890043 
2278	 0.206011997354233 
2279	 0.205983867497669 
2280	 0.205937153998166 
2281	 0.205887866620494 
2282	 0.205841284873608 
2283	 0.205799360086015 
2284	 0.205729297626959 
2285	 0.205700750801253 
2286	 0.205702802641844 
2287	 0.205699519682124 
2288	 0.205721049959531 
2289	 0.205723601267024 
2290	 0.205741513480689 
2291	 0.205726092373629 
2292	 0.205671261609418 
2293	 0.205632738761505 
2294	 0.20557969450693 
2295	 0.205531880911904 
2296	 0.205491483138466 
2297	 0.205454393947985 
2298	 0.20543059536228 
2299	 0.20538677203031 
2300	 0.205352416633061 
2301	 0.205359117134924 
2302	 0.205334918793307 
2303	 0.205290614631019 
2304	 0.205225512717821 
2305	 0.20512546540371 
2306	 0.205042986168916 
2307	 0.204947164131604 
2308	 0.20485824644055 
2309	 0.204785824112537 
2310	 0.204689542394448 
2311	 0.204557390843795 
2312	 0.204482152416017 
2313	 0.204422044016545 
2314	 0.204363733564191 
2315	 0.204358905335454 
2316	 0.20430359866982 
2317	 0.204223347747476 
2318	 0.204134628645275 
2319	 0.20403119850917 
2320	 0.203920551224367 
2321	 0.20377785671692 
2322	 0.203673691574293 
2323	 0.203583039998933 
2324	 0.203484236295207 
2325	 0.203378479829144 
2326	 0.203308450782397 
2327	 0.20326243763791 
2328	 0.203201601811062 
2329	 0.203176308658067 
2330	 0.20315788574327 
2331	 0.203113541050434 
2332	 0.203075177812507 
2333	 0.202990642815995 
2334	 0.202903153962309 
2335	 0.202808045005072 
2336	 0.202711308317187 
2337	 0.202690479835695 
2338	 0.20267788911053 
2339	 0.202638113646377 
2340	 0.202587322911386 
2341	 0.202464851241638 
2342	 0.202336404960515 
2343	 0.202275362694478 
2344	 0.202186796413436 
2345	 0.202089643018413 
2346	 0.2020320637042 
2347	 0.201913546651541 
2348	 0.201724143993576 
2349	 0.201591077339268 
2350	 0.201462712942086 
2351	 0.201343654997372 
2352	 0.201241655534124 
2353	 0.201116848547451 
2354	 0.201013279022163 
2355	 0.20086201204756 
2356	 0.20066717085368 
2357	 0.200500483860241 
2358	 0.200297704192269 
2359	 0.200134066886695 
2360	 0.200015235851679 
2361	 0.199884140178372 
2362	 0.199755260731857 
2363	 0.199644593478985 
2364	 0.199555506540146 
2365	 0.199414473203454 
2366	 0.19925898773094 
2367	 0.199104957628604 
2368	 0.198926573374289 
2369	 0.198763444809481 
2370	 0.198612708378135 
2371	 0.198478967980212 
2372	 0.198286301882367 
2373	 0.198020956405522 
2374	 0.197848606093187 
2375	 0.197652654644549 
2376	 0.197407200592369 
2377	 0.197225555120636 
2378	 0.197029973464456 
2379	 0.196801926989498 
2380	 0.19661538249853 
2381	 0.196432667020822 
2382	 0.19621437719757 
2383	 0.195900069416904 
2384	 0.195646676482498 
2385	 0.195501788502128 
2386	 0.195235686517894 
2387	 0.195018055118704 
2388	 0.194865380923225 
2389	 0.19458895172334 
2390	 0.194331956158671 
2391	 0.194104929632579 
2392	 0.193812891284332 
2393	 0.193515496069403 
2394	 0.19329189297797 
2395	 0.193092906659015 
2396	 0.192862796910742 
2397	 0.192684127703184 
2398	 0.192500952168361 
2399	 0.192332192763868 
2400	 0.19224778614313 
2401	 0.192057921224362 
2402	 0.191813334012838 
2403	 0.191598676100609 
2404	 0.191327012392295 
2405	 0.191062177044283 
2406	 0.190842191686648 
2407	 0.190610141968735 
2408	 0.190297724652885 
2409	 0.18988543611521 
2410	 0.189512427268624 
2411	 0.189269234992827 
2412	 0.189054010335145 
2413	 0.188903714268886 
2414	 0.188795133625847 
2415	 0.188510691948361 
2416	 0.18826699843993 
2417	 0.188038566066365 
2418	 0.187801458929865 
2419	 0.187535839845493 
2420	 0.187284277399798 
2421	 0.187028670445997 
2422	 0.18677356330883 
2423	 0.18654020458069 
2424	 0.186244200956633 
2425	 0.185908821297987 
2426	 0.185600813962661 
2427	 0.185227871309485 
2428	 0.184944176953067 
2429	 0.184775223626766 
2430	 0.184431143887533 
2431	 0.184028360303482 
2432	 0.18366700601035 
2433	 0.183214636560947 
2434	 0.182875982143013 
2435	 0.182604727672625 
2436	 0.18233583427585 
2437	 0.182114810535807 
2438	 0.181894675191216 
2439	 0.181733038547587 
2440	 0.181453243556856 
2441	 0.181148136037688 
2442	 0.180817139015795 
2443	 0.180347144180914 
2444	 0.180015385892326 
2445	 0.179741355227541 
2446	 0.179435240081007 
2447	 0.17920735373142 
2448	 0.178911988612588 
2449	 0.178507388850264 
2450	 0.178271864430705 
2451	 0.178068593860881 
2452	 0.17785281224971 
2453	 0.177858143472086 
2454	 0.177632393366908 
2455	 0.177256629703754 
2456	 0.176924927757057 
2457	 0.176483450288487 
2458	 0.176114666440054 
2459	 0.175744995837443 
2460	 0.175405845974701 
2461	 0.175164513426464 
2462	 0.174803132629599 
2463	 0.174383390412059 
2464	 0.173999961443726 
2465	 0.173542809755157 
2466	 0.173190368613386 
2467	 0.172903657521086 
2468	 0.17262492930125 
2469	 0.17240414310992 
2470	 0.172225834614218 
2471	 0.172015659859598 
2472	 0.171807846256988 
2473	 0.171552240687412 
2474	 0.17121078512816 
2475	 0.170919789666365 
2476	 0.170731022189932 
2477	 0.170516690346902 
2478	 0.170191580636816 
2479	 0.169935695113878 
2480	 0.169720095013433 
2481	 0.169331808057941 
2482	 0.169011767025291 
2483	 0.168863882422618 
2484	 0.16862610248575 
2485	 0.16827694323377 
2486	 0.168041603626808 
2487	 0.167816571381337 
2488	 0.167305258008405 
2489	 0.166877109899772 
2490	 0.166638634617857 
2491	 0.166299060137708 
2492	 0.166062429265357 
2493	 0.166091381874416 
2494	 0.166020515787935 
2495	 0.165759045137433 
2496	 0.16557403246432 
2497	 0.165129712456668 
2498	 0.164682123822639 
2499	 0.164487147326516 
2500	 0.164352236163884 
