Wavelength	mm1400008.asd
350	 4.67452523716699E-02 
351	 5.34308448524591E-02 
352	 5.89183696818456E-02 
353	 5.25382626295834E-02 
354	 5.64055890082518E-02 
355	 5.63197154670749E-02 
356	 5.57765269976303E-02 
357	 5.98111605200953E-02 
358	 6.28907994336678E-02 
359	 5.90431953164732E-02 
360	 0.052664338495078 
361	 5.32920936102636E-02 
362	 4.91019371190906E-02 
363	 4.87143198420792E-02 
364	 5.46509831389811E-02 
365	 5.67823922783936E-02 
366	 5.58655964182828E-02 
367	 5.52693465459262E-02 
368	 5.69647257915401E-02 
369	 5.35425980403537E-02 
370	 5.22703804222617E-02 
371	 5.43030303402592E-02 
372	 5.62646198878539E-02 
373	 5.76447856486236E-02 
374	 5.74886781492236E-02 
375	 5.64964082669462E-02 
376	 5.82177258624063E-02 
377	 5.89910374999774E-02 
378	 5.80175016984399E-02 
379	 5.65520989885002E-02 
380	 6.11503364297638E-02 
381	 5.93114242100688E-02 
382	 5.47815185654277E-02 
383	 6.19271843392837E-02 
384	 6.29281958293208E-02 
385	 6.04071176776541E-02 
386	 5.89200784548881E-02 
387	 6.09684312055547E-02 
388	 6.17165499149129E-02 
389	 6.20150039245908E-02 
390	 6.32913295425938E-02 
391	 5.99372810110253E-02 
392	 0.059997999158987 
393	 6.39863580820802E-02 
394	 6.57824339879549E-02 
395	 6.60459238144992E-02 
396	 0.065861503026485 
397	 0.066177672438449 
398	 6.74177880797021E-02 
399	 6.86368494572577E-02 
400	 6.95020259127584E-02 
401	 6.98290073897073E-02 
402	 6.86094558205642E-02 
403	 6.80243058899683E-02 
404	 6.85529076071817E-02 
405	 6.88165707439245E-02 
406	 6.89379050580152E-02 
407	 7.00231332866171E-02 
408	 7.18266215265294E-02 
409	 6.99468209707202E-02 
410	 6.90711420878925E-02 
411	 6.96040968732323E-02 
412	 7.00412697865237E-02 
413	 7.13969464072895E-02 
414	 7.13213481274182E-02 
415	 6.99820908183055E-02 
416	 0.071006033216082 
417	 7.13339031139451E-02 
418	 7.10785345281276E-02 
419	 7.10310243009278E-02 
420	 7.16529723983266E-02 
421	 7.12963419765804E-02 
422	 7.07006069516271E-02 
423	 7.18008244182301E-02 
424	 7.15326876409837E-02 
425	 7.10232812965594E-02 
426	 7.10564648989285E-02 
427	 7.07894448939925E-02 
428	 7.07984048913053E-02 
429	 7.08321889663413E-02 
430	 7.05712855385895E-02 
431	 7.07199100964037E-02 
432	 7.07249536526953E-02 
433	 7.06260214689359E-02 
434	 7.10427820205514E-02 
435	 0.071295011085379 
436	 0.071195509730888 
437	 7.08057903976603E-02 
438	 7.04528402505695E-02 
439	 7.06633917275966E-02 
440	 7.11574803708784E-02 
441	 7.13458814519943E-02 
442	 7.19695655281216E-02 
443	 7.19179184023218E-02 
444	 7.11322866678719E-02 
445	 7.13470579494017E-02 
446	 7.17085322436772E-02 
447	 7.18545921649373E-02 
448	 7.17123832208309E-02 
449	 7.18522669616068E-02 
450	 0.0721624793294 
451	 7.24460674216433E-02 
452	 7.24752835990407E-02 
453	 7.24307545583839E-02 
454	 7.22732590465125E-02 
455	 7.21405662294513E-02 
456	 7.28046936991356E-02 
457	 7.28118706064901E-02 
458	 7.24368926756604E-02 
459	 7.26273729234561E-02 
460	 7.28143822338822E-02 
461	 7.29399074687888E-02 
462	 7.29961264216591E-02 
463	 7.29797939851735E-02 
464	 7.30617380865211E-02 
465	 7.31223476465171E-02 
466	 7.30359990773164E-02 
467	 7.29913636122423E-02 
468	 7.30053057585495E-02 
469	 7.30537093897072E-02 
470	 0.073089268671609 
471	 7.32353721386446E-02 
472	 7.33178976348166E-02 
473	 7.31999459081599E-02 
474	 7.28824994248373E-02 
475	 7.29180742884733E-02 
476	 7.31682973042117E-02 
477	 7.32165326467628E-02 
478	 0.073174504514044 
479	 7.32026001084254E-02 
480	 7.32953098973701E-02 
481	 7.32029842835315E-02 
482	 7.34985885322873E-02 
483	 7.38251947639614E-02 
484	 0.073750060557175 
485	 7.36186117051567E-02 
486	 7.36393875608071E-02 
487	 7.37426122737082E-02 
488	 7.36542754436985E-02 
489	 7.37224285225438E-02 
490	 7.37741641339829E-02 
491	 7.37034134168047E-02 
492	 7.37858005142827E-02 
493	 7.39308646905817E-02 
494	 0.074060856014215 
495	 7.41140216827553E-02 
496	 0.074158567304734 
497	 7.41584807851368E-02 
498	 7.41090804840626E-02 
499	 7.40590112771802E-02 
500	 7.41450145628218E-02 
501	 7.41921660069235E-02 
502	 7.40614057742704E-02 
503	 7.42207299978431E-02 
504	 7.42436843750137E-02 
505	 7.41686202659601E-02 
506	 7.44489540311822E-02 
507	 7.45649034334152E-02 
508	 7.45003437205782E-02 
509	 7.43802850479852E-02 
510	 7.44181917695179E-02 
511	 7.45121969509251E-02 
512	 7.45482565020404E-02 
513	 7.44504692031835E-02 
514	 7.45715687582381E-02 
515	 7.46674686944583E-02 
516	 0.074645290590627 
517	 7.47937506996309E-02 
518	 7.48461348369525E-02 
519	 7.47624697993389E-02 
520	 7.46293237443554E-02 
521	 7.47646899974449E-02 
522	 7.48268952699656E-02 
523	 7.47909898776785E-02 
524	 7.49910928641731E-02 
525	 7.50080487714425E-02 
526	 0.075016592723092 
527	 7.51931455608163E-02 
528	 7.53069153062984E-02 
529	 7.52783369661182E-02 
530	 7.52586735795178E-02 
531	 7.55004184411756E-02 
532	 7.55062815823383E-02 
533	 7.55140956328951E-02 
534	 7.56615629036816E-02 
535	 7.56499643242151E-02 
536	 7.56683990500882E-02 
537	 7.57538911834895E-02 
538	 7.58705224858546E-02 
539	 7.59046064967722E-02 
540	 7.59350698899841E-02 
541	 7.60044829776966E-02 
542	 7.60870185097307E-02 
543	 0.076142893448885 
544	 7.61883427825248E-02 
545	 0.076264460827469 
546	 7.64488824636167E-02 
547	 0.076586814390705 
548	 7.66597969105818E-02 
549	 7.67679597277929E-02 
550	 7.68815847372771E-02 
551	 7.69895091472362E-02 
552	 7.71034554381865E-02 
553	 7.73058188313072E-02 
554	 0.077404075681774 
555	 7.74414033802656E-02 
556	 7.75781810080251E-02 
557	 7.77877215836933E-02 
558	 0.078006232045417 
559	 7.82238314555617E-02 
560	 0.078545560235794 
561	 7.87520371456804E-02 
562	 7.88872004360842E-02 
563	 7.90870184123357E-02 
564	 7.94300785255113E-02 
565	 7.97290709967427E-02 
566	 7.99386752229046E-02 
567	 8.01887830881134E-02 
568	 8.04668053565439E-02 
569	 8.07829138038071E-02 
570	 8.11464816018406E-02 
571	 0.081562105224294 
572	 8.20075120578883E-02 
573	 8.24577316555568E-02 
574	 8.28881669976357E-02 
575	 8.32885823337361E-02 
576	 8.37612784853346E-02 
577	 8.43195214735558E-02 
578	 8.47276674178241E-02 
579	 8.52616926912553E-02 
580	 8.58245672987348E-02 
581	 8.62112166616185E-02 
582	 8.66542913502232E-02 
583	 8.71789753767847E-02 
584	 8.77734008400441E-02 
585	 8.84029035765417E-02 
586	 8.91538885242799E-02 
587	 8.99420258872718E-02 
588	 9.06662627844198E-02 
589	 9.13860365054471E-02 
590	 9.21497888455787E-02 
591	 9.29376363960444E-02 
592	 9.36715303530973E-02 
593	 9.43399389199198E-02 
594	 9.49757779753141E-02 
595	 0.095582366041952 
596	 9.60383129543169E-02 
597	 9.65621168938361E-02 
598	 0.097152909934667 
599	 9.77034632491582E-02 
600	 9.83124269592105E-02 
601	 0.098944275387123 
602	 9.95666732471841E-02 
603	 0.100183897805004 
604	 0.100787404359258 
605	 0.101401635409632 
606	 0.102048249521573 
607	 0.102670422786219 
608	 0.103247911749494 
609	 0.103809760527601 
610	 0.104435457981923 
611	 0.104930106869821 
612	 0.10531379204124 
613	 0.10565547827553 
614	 0.105989457517837 
615	 0.106308824190098 
616	 0.106642383094149 
617	 0.107030827065435 
618	 0.107376767248847 
619	 0.107665625782617 
620	 0.107913423659207 
621	 0.108163271491204 
622	 0.108450911561277 
623	 0.108712108758593 
624	 0.108878506860945 
625	 0.109161157682455 
626	 0.109440874171611 
627	 0.109658726818433 
628	 0.109869353127973 
629	 0.110085179606989 
630	 0.110275148242688 
631	 0.110429186982012 
632	 0.110672742926259 
633	 0.110892701023612 
634	 0.111062398519178 
635	 0.111231179368184 
636	 0.111403506213564 
637	 0.111597002261159 
638	 0.111807742940662 
639	 0.111975705286494 
640	 0.112157905672018 
641	 0.112368239411122 
642	 0.112590078492097 
643	 0.112739236109083 
644	 0.112925860255631 
645	 0.113176085533819 
646	 0.113366719029187 
647	 0.113605705908109 
648	 0.11384912261018 
649	 0.11404013582391 
650	 0.114257783834699 
651	 0.114479192306263 
652	 0.114693615329812 
653	 0.114904868716248 
654	 0.115137826070599 
655	 0.11535587667728 
656	 0.115560306970498 
657	 0.115884788946688 
658	 0.11616462968258 
659	 0.116387979786035 
660	 0.116620399708721 
661	 0.116901266632237 
662	 0.117198764723589 
663	 0.117490805498908 
664	 0.117779277876125 
665	 0.118125243523924 
666	 0.118461919156709 
667	 0.118730896834356 
668	 0.119072912593652 
669	 0.119388394137869 
670	 0.119697346785268 
671	 0.120108747826773 
672	 0.120428763219032 
673	 0.120737078327535 
674	 0.121108780312135 
675	 0.121500399409398 
676	 0.121844386270231 
677	 0.122182311769525 
678	 0.122588906403951 
679	 0.122981176343888 
680	 0.123369386331163 
681	 0.123777337092422 
682	 0.124235781998925 
683	 0.124679341386037 
684	 0.125104957387386 
685	 0.125530856203377 
686	 0.125986075947687 
687	 0.126444968184758 
688	 0.126900061408561 
689	 0.127357169090892 
690	 0.127809986078966 
691	 0.128297396963101 
692	 0.128828910286311 
693	 0.12935137908106 
694	 0.129815414999091 
695	 0.130287137143677 
696	 0.130838760457674 
697	 0.131303709093427 
698	 0.131792480838291 
699	 0.132346066928362 
700	 0.132914427881105 
701	 0.133489631953149 
702	 0.134037873912175 
703	 0.134543233122373 
704	 0.135044186722993 
705	 0.135549831767203 
706	 0.13610414005454 
707	 0.136736396035625 
708	 0.137226034336977 
709	 0.13774422963141 
710	 0.13834372509221 
711	 0.138847850271122 
712	 0.139372373559051 
713	 0.139895811293057 
714	 0.140392025013581 
715	 0.140963406761241 
716	 0.141504771958094 
717	 0.141980899906121 
718	 0.142422763026107 
719	 0.142949892872441 
720	 0.14348747904892 
721	 0.143972866208679 
722	 0.14442551669143 
723	 0.144886613220432 
724	 0.14532117719171 
725	 0.145691699449698 
726	 0.146089065713378 
727	 0.146480353539342 
728	 0.146861155412147 
729	 0.147256829629398 
730	 0.147647792578433 
731	 0.147981166354847 
732	 0.148249369959097 
733	 0.148560531729101 
734	 0.148895927798511 
735	 0.149178146986961 
736	 0.149339154389066 
737	 0.149536575044396 
738	 0.149760055236079 
739	 0.149965200531202 
740	 0.150089010242736 
741	 0.150217426830832 
742	 0.150342301703805 
743	 0.150433756305847 
744	 0.150458566316225 
745	 0.150458399970396 
746	 0.15047987447812 
747	 0.150549309441965 
748	 0.150552821014317 
749	 0.1505048681572 
750	 0.150430287120992 
751	 0.150350331655819 
752	 0.150242990173793 
753	 0.15010182388257 
754	 0.149943083634295 
755	 0.149840782694935 
756	 0.149721590340834 
757	 0.149544767137242 
758	 0.14930482579087 
759	 0.149099846804793 
760	 0.14891476471984 
761	 0.148713987523255 
762	 0.148453533951084 
763	 0.148203971739035 
764	 0.147953617583586 
765	 0.14767853552873 
766	 0.147374046103434 
767	 0.14708733623414 
768	 0.146822348251248 
769	 0.146552620756016 
770	 0.146220680430642 
771	 0.145901337203169 
772	 0.145600965715847 
773	 0.145232999472103 
774	 0.144880609506368 
775	 0.144554185175509 
776	 0.144241076795362 
777	 0.143912943514861 
778	 0.143598612340009 
779	 0.143280606213651 
780	 0.14292618928507 
781	 0.142546589181429 
782	 0.142195863938906 
783	 0.141870994261321 
784	 0.141510556462996 
785	 0.141189329332142 
786	 0.140858629293805 
787	 0.140494234948259 
788	 0.140186775036578 
789	 0.139901287890045 
790	 0.139574020229911 
791	 0.13917179341826 
792	 0.138877402657806 
793	 0.138577075756609 
794	 0.1382563575254 
795	 0.137988117370262 
796	 0.137627902363598 
797	 0.137285987087925 
798	 0.137025326267867 
799	 0.136751851054872 
800	 0.136458293920941 
801	 0.136162521297475 
802	 0.135879219626827 
803	 0.135564432029476 
804	 0.135274229551605 
805	 0.135001884931922 
806	 0.134710328879235 
807	 0.13448238876043 
808	 0.134221007411394 
809	 0.133917612450806 
810	 0.133698137956269 
811	 0.133448337330425 
812	 0.133185676273401 
813	 0.132950552238264 
814	 0.132763798262783 
815	 0.132598217614592 
816	 0.132394197054703 
817	 0.132110027388677 
818	 0.131852997878234 
819	 0.131668836248703 
820	 0.131524634293155 
821	 0.131331149188713 
822	 0.131136442672889 
823	 0.130936555247935 
824	 0.13073928728652 
825	 0.13058112842583 
826	 0.130430362802469 
827	 0.130287954602851 
828	 0.130152962894711 
829	 0.129990844399908 
830	 0.129809139749703 
831	 0.129633770310489 
832	 0.129500343427504 
833	 0.129454129402377 
834	 0.12933433458426 
835	 0.129144245719868 
836	 0.129044772172949 
837	 0.128961065550263 
838	 0.128869917664461 
839	 0.128762937512738 
840	 0.128644226283356 
841	 0.12855822492971 
842	 0.128485627993036 
843	 0.128401522982758 
844	 0.128321256616068 
845	 0.128305499429187 
846	 0.128262827302163 
847	 0.128095761855604 
848	 0.128100252025997 
849	 0.128083998558229 
850	 0.128000278815401 
851	 0.127948668948229 
852	 0.127904304933566 
853	 0.127881949908661 
854	 0.127888235016275 
855	 0.127912103872434 
856	 0.127913355184709 
857	 0.127914885966108 
858	 0.127939468396553 
859	 0.127973760434287 
860	 0.127949212880895 
861	 0.127919622954087 
862	 0.127952608223871 
863	 0.127961094357677 
864	 0.127982980306125 
865	 0.12801864650946 
866	 0.12804972449067 
867	 0.128117270043239 
868	 0.128158527860139 
869	 0.128176736024776 
870	 0.128245808709653 
871	 0.128325565657341 
872	 0.128456263855834 
873	 0.128611132002153 
874	 0.128643457769311 
875	 0.128707207569747 
876	 0.128796188658341 
877	 0.128870280286722 
878	 0.128896975883775 
879	 0.129057010635932 
880	 0.129256424526952 
881	 0.129359436783842 
882	 0.129503936456944 
883	 0.129668595014808 
884	 0.129819482644632 
885	 0.129935032069209 
886	 0.130105761692669 
887	 0.130278740408201 
888	 0.130420655515014 
889	 0.130533934988678 
890	 0.130690486554694 
891	 0.130869395261606 
892	 0.131048082540897 
893	 0.131220702470348 
894	 0.131411379326739 
895	 0.13162816810222 
896	 0.131842016998253 
897	 0.131966190703028 
898	 0.132215800541625 
899	 0.132506239869846 
900	 0.132728615502502 
901	 0.132931743387949 
902	 0.133166017442759 
903	 0.133419886857941 
904	 0.133668973635141 
905	 0.133942435478142 
906	 0.134205347986777 
907	 0.134474403226778 
908	 0.134784191696447 
909	 0.135128859547116 
910	 0.135423613090274 
911	 0.135671906807445 
912	 0.135939652189687 
913	 0.136249677757675 
914	 0.13660604739654 
915	 0.136963620397038 
916	 0.137259282331471 
917	 0.137643295784103 
918	 0.138031355090535 
919	 0.138352969745566 
920	 0.138608532949324 
921	 0.139066822130474 
922	 0.139463718343297 
923	 0.13971923852576 
924	 0.140143490362267 
925	 0.140532932957259 
926	 0.140941987715452 
927	 0.141390203865147 
928	 0.141740554321699 
929	 0.142214169358141 
930	 0.142704527475048 
931	 0.143123907869605 
932	 0.143633006102875 
933	 0.144062430339729 
934	 0.144496037004766 
935	 0.145028758044285 
936	 0.145576396602706 
937	 0.146024482532839 
938	 0.146425913751959 
939	 0.146877645754494 
940	 0.147384705677401 
941	 0.14797084178136 
942	 0.14859292658382 
943	 0.149181122752253 
944	 0.14968343925247 
945	 0.15012344615894 
946	 0.150637332894368 
947	 0.151320029974826 
948	 0.151887174600175 
949	 0.152460578888599 
950	 0.153053524817081 
951	 0.153647897294435 
952	 0.154401391722721 
953	 0.154994780057788 
954	 0.155522612239151 
955	 0.156245285581821 
956	 0.156883430410458 
957	 0.157528170682079 
958	 0.158184948188853 
959	 0.158807086459771 
960	 0.159415158282513 
961	 0.160153794965286 
962	 0.160972198820586 
963	 0.161705630279622 
964	 0.16237239877465 
965	 0.163111989520266 
966	 0.163880377733107 
967	 0.164553680553325 
968	 0.165368720469938 
969	 0.166057835591032 
970	 0.16671839060618 
971	 0.167616453479053 
972	 0.168333511201422 
973	 0.169111766391991 
974	 0.169926754962474 
975	 0.170614862765856 
976	 0.17149923108309 
977	 0.172357727554258 
978	 0.173148714151178 
979	 0.173967352149392 
980	 0.174803058267485 
981	 0.17565792112724 
982	 0.176495991218119 
983	 0.177278835573713 
984	 0.178056140679566 
985	 0.178970308054078 
986	 0.179911649957991 
987	 0.180694444568429 
988	 0.181538975685232 
989	 0.182353582286865 
990	 0.183096156637145 
991	 0.183835555276489 
992	 0.184947444269246 
993	 0.185958044324762 
994	 0.18678733069043 
995	 0.18756388541763 
996	 0.18832887206673 
997	 0.189260341715137 
998	 0.190169390005892 
999	 0.190896705859659 
1000	 0.191931051563981 
1001	 0.189841503392072 
1002	 0.19063063884686 
1003	 0.191389658102929 
1004	 0.192188523836917 
1005	 0.193074520663097 
1006	 0.193882599023693 
1007	 0.19464284865761 
1008	 0.195473459753732 
1009	 0.196237021837331 
1010	 0.197026392247893 
1011	 0.197841571101635 
1012	 0.198542360703397 
1013	 0.199245886197532 
1014	 0.199949086370459 
1015	 0.200688727599593 
1016	 0.201496191889128 
1017	 0.202255716086104 
1018	 0.203012454704827 
1019	 0.203783195524346 
1020	 0.204548675135306 
1021	 0.20522922209725 
1022	 0.205917791934191 
1023	 0.206656583135906 
1024	 0.207341345787789 
1025	 0.208034862205936 
1026	 0.208782299609951 
1027	 0.209490190739016 
1028	 0.210150611073116 
1029	 0.210807631367315 
1030	 0.211440903956415 
1031	 0.212070440051515 
1032	 0.212675142375056 
1033	 0.213325402417583 
1034	 0.214004408989767 
1035	 0.214718848170118 
1036	 0.215442165480156 
1037	 0.2161239598471 
1038	 0.216763738221895 
1039	 0.217324059635142 
1040	 0.217873779787114 
1041	 0.218475247428614 
1042	 0.219092497925603 
1043	 0.219732573304308 
1044	 0.220357211051651 
1045	 0.220997330792227 
1046	 0.221604776645867 
1047	 0.222181940661541 
1048	 0.222791063775088 
1049	 0.223432966118131 
1050	 0.224071957927115 
1051	 0.224741129181823 
1052	 0.225336358852094 
1053	 0.225882026028931 
1054	 0.226471546080058 
1055	 0.227061074525066 
1056	 0.227692784263539 
1057	 0.228326126933992 
1058	 0.22900254170645 
1059	 0.229637064729362 
1060	 0.230268102385695 
1061	 0.230852272378497 
1062	 0.231455366012095 
1063	 0.232067440085735 
1064	 0.232611023791201 
1065	 0.233178913964851 
1066	 0.233778558233208 
1067	 0.234337813948016 
1068	 0.234922577318597 
1069	 0.235544976491174 
1070	 0.236163393602077 
1071	 0.236777035946346 
1072	 0.237370404316143 
1073	 0.237981190237689 
1074	 0.238581411815417 
1075	 0.239157965223686 
1076	 0.23972470798442 
1077	 0.240285901324047 
1078	 0.240786902573218 
1079	 0.241280934068873 
1080	 0.241759697721423 
1081	 0.24226555267764 
1082	 0.242860279936272 
1083	 0.243428357988662 
1084	 0.24400029542496 
1085	 0.244578139874299 
1086	 0.245177097060691 
1087	 0.245738277095927 
1088	 0.246267978641409 
1089	 0.246843696095662 
1090	 0.24741473419816 
1091	 0.24794187172959 
1092	 0.248495751944998 
1093	 0.249052085385039 
1094	 0.249589177169387 
1095	 0.250132401607737 
1096	 0.250685568635473 
1097	 0.251234990664611 
1098	 0.251782399566478 
1099	 0.252341966975745 
1100	 0.252885270879962 
1101	 0.253405193161889 
1102	 0.25394924873593 
1103	 0.25451318368213 
1104	 0.255031284500292 
1105	 0.255589890327323 
1106	 0.256162535621656 
1107	 0.256720232879862 
1108	 0.257307256626409 
1109	 0.257888757248489 
1110	 0.25846400740807 
1111	 0.259025703889369 
1112	 0.259581348790422 
1113	 0.260132214906488 
1114	 0.260647608175951 
1115	 0.261203763449817 
1116	 0.261778787109927 
1117	 0.262349907054884 
1118	 0.262931362635528 
1119	 0.263532601771271 
1120	 0.264111924161738 
1121	 0.264697402989581 
1122	 0.265271174586476 
1123	 0.265866849557711 
1124	 0.266449303373879 
1125	 0.267028053804978 
1126	 0.267591985047595 
1127	 0.268126947025109 
1128	 0.26870416545991 
1129	 0.269301865840799 
1130	 0.269886869800406 
1131	 0.27050704078075 
1132	 0.271094259774557 
1133	 0.271644919684208 
1134	 0.272206576753939 
1135	 0.272777489622883 
1136	 0.2733182283343 
1137	 0.273878693130736 
1138	 0.274417274172649 
1139	 0.274952245335751 
1140	 0.2754785960672 
1141	 0.276018350720164 
1142	 0.276541975969051 
1143	 0.277089896960715 
1144	 0.277672753939461 
1145	 0.278214981571357 
1146	 0.27874806786709 
1147	 0.279282174011974 
1148	 0.279792397807525 
1149	 0.280310724813086 
1150	 0.280832986635919 
1151	 0.281368132909431 
1152	 0.281878203468206 
1153	 0.282393417704048 
1154	 0.28289528442023 
1155	 0.283374948850729 
1156	 0.283881933711514 
1157	 0.284407422010137 
1158	 0.284903194687678 
1159	 0.285403172458111 
1160	 0.285895344398906 
1161	 0.286359036271677 
1162	 0.286833040012037 
1163	 0.287323333011869 
1164	 0.287800334252704 
1165	 0.288259783713507 
1166	 0.288734772010996 
1167	 0.289208911163616 
1168	 0.289644731081722 
1169	 0.290110251192928 
1170	 0.290587456498884 
1171	 0.291043191609215 
1172	 0.29150628154352 
1173	 0.29195287685798 
1174	 0.292367257136112 
1175	 0.292805251664861 
1176	 0.293261492746407 
1177	 0.2936947460725 
1178	 0.294131243741017 
1179	 0.294552890273788 
1180	 0.294951807336721 
1181	 0.295351950640058 
1182	 0.29573997001699 
1183	 0.29613804138449 
1184	 0.29653655462533 
1185	 0.296944286405524 
1186	 0.29732389483244 
1187	 0.29770006344378 
1188	 0.298063442021812 
1189	 0.298397979676367 
1190	 0.298744919962841 
1191	 0.299098681686032 
1192	 0.299442649234493 
1193	 0.299773618532168 
1194	 0.300113914219739 
1195	 0.30046713449983 
1196	 0.300798788765199 
1197	 0.301121368728447 
1198	 0.30144541361421 
1199	 0.301763300674764 
1200	 0.302058851240106 
1201	 0.30238086411847 
1202	 0.302725165748562 
1203	 0.30303863225879 
1204	 0.303356255924647 
1205	 0.303647852639804 
1206	 0.303897578814864 
1207	 0.304181914088075 
1208	 0.30448680191517 
1209	 0.304759161316097 
1210	 0.305028630144425 
1211	 0.305294778797831 
1212	 0.305515322684413 
1213	 0.305770421385556 
1214	 0.306073882080908 
1215	 0.306341683049649 
1216	 0.306599612124486 
1217	 0.306858801368667 
1218	 0.307100090586838 
1219	 0.307317294050354 
1220	 0.307533498511707 
1221	 0.307735383276941 
1222	 0.307955553751741 
1223	 0.308171263567075 
1224	 0.30839152754345 
1225	 0.308648986898649 
1226	 0.308860775278566 
1227	 0.309042304794434 
1228	 0.309229123716503 
1229	 0.309395625335757 
1230	 0.30956666106375 
1231	 0.309738025867755 
1232	 0.309911323439185 
1233	 0.310084159667293 
1234	 0.310248508804675 
1235	 0.310428404234176 
1236	 0.310626129816711 
1237	 0.310801925093028 
1238	 0.310981011995056 
1239	 0.31114361734774 
1240	 0.311284157676065 
1241	 0.311432955243065 
1242	 0.311585613918953 
1243	 0.311724507399891 
1244	 0.311852242115537 
1245	 0.31198550777444 
1246	 0.312096912659722 
1247	 0.31223232826873 
1248	 0.312391042711639 
1249	 0.312543541695765 
1250	 0.312697044209594 
1251	 0.312852602347506 
1252	 0.312999576970524 
1253	 0.313144605986246 
1254	 0.313268973117011 
1255	 0.313375642257312 
1256	 0.313500010046561 
1257	 0.313619683404127 
1258	 0.313729058465128 
1259	 0.313848388162291 
1260	 0.313958404004177 
1261	 0.314043770216683 
1262	 0.314139623158839 
1263	 0.314246481743914 
1264	 0.314348723313263 
1265	 0.314466773958056 
1266	 0.314550158662448 
1267	 0.314608535768296 
1268	 0.314663872906791 
1269	 0.314737480474371 
1270	 0.314782087023974 
1271	 0.314877977966274 
1272	 0.315019893437736 
1273	 0.315141435794696 
1274	 0.315270394015359 
1275	 0.315397463087128 
1276	 0.315527280870295 
1277	 0.315659853747188 
1278	 0.31578548030039 
1279	 0.315928043696707 
1280	 0.316085120011672 
1281	 0.316236850904158 
1282	 0.316403494559431 
1283	 0.316558374110164 
1284	 0.316704054276784 
1285	 0.316848929823301 
1286	 0.316995382101613 
1287	 0.317139427901363 
1288	 0.31728572604787 
1289	 0.317441411713288 
1290	 0.317575676151907 
1291	 0.317696165326199 
1292	 0.317826317012122 
1293	 0.317956865370854 
1294	 0.31807028113491 
1295	 0.318196281330524 
1296	 0.318286821749957 
1297	 0.31834205102951 
1298	 0.318400575154598 
1299	 0.318436197713501 
1300	 0.318482695623188 
1301	 0.318512050794355 
1302	 0.318566813486146 
1303	 0.318638517211884 
1304	 0.318726307184464 
1305	 0.318782093549546 
1306	 0.318824156272838 
1307	 0.318841591610006 
1308	 0.318818366344937 
1309	 0.318804369014629 
1310	 0.318787026524438 
1311	 0.31876463605613 
1312	 0.318721336380338 
1313	 0.318698134253452 
1314	 0.318686083090373 
1315	 0.318665732264745 
1316	 0.318655378208198 
1317	 0.318627395104638 
1318	 0.318581172212903 
1319	 0.318543835882131 
1320	 0.318500801584908 
1321	 0.318462049212757 
1322	 0.318429601557328 
1323	 0.318398085861248 
1324	 0.318353003768345 
1325	 0.318316244638417 
1326	 0.318286948661517 
1327	 0.31825287020249 
1328	 0.318202966931654 
1329	 0.3181499676777 
1330	 0.318090651760594 
1331	 0.318008514617325 
1332	 0.3179409335395 
1333	 0.317881751319311 
1334	 0.317815351224321 
1335	 0.317725168555674 
1336	 0.317684481768416 
1337	 0.317679419189364 
1338	 0.317650751026748 
1339	 0.317654960348199 
1340	 0.317619299027031 
1341	 0.31753511683875 
1342	 0.317475000626254 
1343	 0.317404316486767 
1344	 0.31736189131907 
1345	 0.31732375252262 
1346	 0.317269152075566 
1347	 0.317227664552713 
1348	 0.317181647660917 
1349	 0.317112413372547 
1350	 0.317050115261908 
1351	 0.316993848759687 
1352	 0.316927272130192 
1353	 0.316873510468042 
1354	 0.316845520701726 
1355	 0.31679164706425 
1356	 0.316719454740084 
1357	 0.316663951122199 
1358	 0.316608819662836 
1359	 0.316554633476869 
1360	 0.316501642399961 
1361	 0.316459024440417 
1362	 0.316421121742046 
1363	 0.316381197073171 
1364	 0.316359625709612 
1365	 0.316326101183928 
1366	 0.316291710842699 
1367	 0.316236770240105 
1368	 0.316183244834739 
1369	 0.316115668156239 
1370	 0.316018563743334 
1371	 0.315924826821361 
1372	 0.31583281190358 
1373	 0.315725811429212 
1374	 0.315610986636598 
1375	 0.315512630827873 
1376	 0.31535609978367 
1377	 0.315175056041081 
1378	 0.314961090359418 
1379	 0.314690999934278 
1380	 0.314435240981925 
1381	 0.314173996244294 
1382	 0.313879993710527 
1383	 0.313592493525801 
1384	 0.313254127237328 
1385	 0.312881397150394 
1386	 0.312472019095272 
1387	 0.312024256508103 
1388	 0.311549690259668 
1389	 0.311048763852215 
1390	 0.310503698995895 
1391	 0.309930199244448 
1392	 0.309317474497305 
1393	 0.308637294807184 
1394	 0.307929632104563 
1395	 0.307185426342146 
1396	 0.306418833289861 
1397	 0.305656834417556 
1398	 0.304885707223822 
1399	 0.304100414500923 
1400	 0.303304322878786 
1401	 0.302509567360065 
1402	 0.301693684275031 
1403	 0.300900006895244 
1404	 0.300095152131065 
1405	 0.299339091041788 
1406	 0.298601632166556 
1407	 0.297888525737494 
1408	 0.297201566831359 
1409	 0.296550276644851 
1410	 0.29589776531969 
1411	 0.295325941673328 
1412	 0.294806723365682 
1413	 0.294336704000536 
1414	 0.29394633012514 
1415	 0.293590616759001 
1416	 0.29327471897264 
1417	 0.293004207074034 
1418	 0.292756845577585 
1419	 0.292527773260247 
1420	 0.29232206112158 
1421	 0.292143054418862 
1422	 0.291970051838799 
1423	 0.291794445391839 
1424	 0.291609082901919 
1425	 0.291415063937146 
1426	 0.291236754209737 
1427	 0.291041525498043 
1428	 0.290886636553977 
1429	 0.29075704899928 
1430	 0.290642092844307 
1431	 0.290559972962338 
1432	 0.29046532467323 
1433	 0.290376070066613 
1434	 0.290293570858282 
1435	 0.290199897165625 
1436	 0.290131542109302 
1437	 0.290085805985939 
1438	 0.290044268875405 
1439	 0.29001380201247 
1440	 0.289991083240709 
1441	 0.28998048375137 
1442	 0.289972939303228 
1443	 0.28997108178254 
1444	 0.289986764657693 
1445	 0.290017581533098 
1446	 0.290041504155998 
1447	 0.290059621797283 
1448	 0.290075239717224 
1449	 0.290054904501317 
1450	 0.290044316026094 
1451	 0.290057709753707 
1452	 0.290077203890045 
1453	 0.29011213894037 
1454	 0.290177212090061 
1455	 0.290228029767199 
1456	 0.290282314634413 
1457	 0.290335848396833 
1458	 0.290394963386936 
1459	 0.290441970451813 
1460	 0.290466967164421 
1461	 0.290524945525434 
1462	 0.290591349468703 
1463	 0.290663702787755 
1464	 0.290767780312142 
1465	 0.29085760855097 
1466	 0.290917099935164 
1467	 0.291018425039785 
1468	 0.291126508820368 
1469	 0.291267824144439 
1470	 0.291446074219445 
1471	 0.291643647668868 
1472	 0.291849280630829 
1473	 0.292063269709243 
1474	 0.292257598479359 
1475	 0.29245779325134 
1476	 0.292663845605803 
1477	 0.292861890825919 
1478	 0.293061585991636 
1479	 0.293269141257763 
1480	 0.2934848179868 
1481	 0.293687826691801 
1482	 0.293901125169624 
1483	 0.294128609183672 
1484	 0.294347683520455 
1485	 0.294556569447149 
1486	 0.294787052496534 
1487	 0.295026221864978 
1488	 0.295265325338372 
1489	 0.295526026209438 
1490	 0.295764035399779 
1491	 0.295993688317638 
1492	 0.296219018365677 
1493	 0.296434684859804 
1494	 0.29664452020273 
1495	 0.296843649466375 
1496	 0.297051065497207 
1497	 0.297253877378378 
1498	 0.297461688288564 
1499	 0.297692146669093 
1500	 0.297894270185699 
1501	 0.298082474619034 
1502	 0.298266561142443 
1503	 0.298433809790642 
1504	 0.298589977211314 
1505	 0.298778365392886 
1506	 0.298969628077871 
1507	 0.299159370069763 
1508	 0.29935502900531 
1509	 0.299522895488807 
1510	 0.299682240346273 
1511	 0.299855648892141 
1512	 0.300031888081509 
1513	 0.300219214385373 
1514	 0.300416631489822 
1515	 0.300590485909396 
1516	 0.300748158011225 
1517	 0.300907332243263 
1518	 0.301054190724816 
1519	 0.301199192482602 
1520	 0.30134290827668 
1521	 0.301489991977243 
1522	 0.301622762286848 
1523	 0.301774536929816 
1524	 0.301943759782131 
1525	 0.302098216857874 
1526	 0.30225703675711 
1527	 0.302410448214448 
1528	 0.302561782398073 
1529	 0.302699899043776 
1530	 0.302829163653445 
1531	 0.302957830094717 
1532	 0.303070883694224 
1533	 0.303187822014492 
1534	 0.303322113385315 
1535	 0.303428492278577 
1536	 0.303504596810879 
1537	 0.303606065146555 
1538	 0.303697295012093 
1539	 0.303802622296869 
1540	 0.303936506752174 
1541	 0.304060226547558 
1542	 0.304185144873415 
1543	 0.304304515179646 
1544	 0.304432209435763 
1545	 0.304537864226845 
1546	 0.304626460906047 
1547	 0.304710087672389 
1548	 0.304796486919036 
1549	 0.304867398197353 
1550	 0.304960063948941 
1551	 0.305058403471137 
1552	 0.305123678225203 
1553	 0.305208981653501 
1554	 0.305294866180313 
1555	 0.305369184464148 
1556	 0.30545557707955 
1557	 0.305543148621343 
1558	 0.305626101273399 
1559	 0.305708137041463 
1560	 0.305798402043552 
1561	 0.305899511509568 
1562	 0.305988967067943 
1563	 0.306081010751057 
1564	 0.306163014940755 
1565	 0.306238291833941 
1566	 0.306309329285414 
1567	 0.306375835722311 
1568	 0.306433860457157 
1569	 0.306480349996953 
1570	 0.306538269671411 
1571	 0.306592734542623 
1572	 0.306649027432244 
1573	 0.306706028971112 
1574	 0.306773491360509 
1575	 0.306851581612692 
1576	 0.306914808175111 
1577	 0.306985010936824 
1578	 0.3070465914777 
1579	 0.307083268446295 
1580	 0.307141945089255 
1581	 0.307209226589129 
1582	 0.307277732854229 
1583	 0.307360224931533 
1584	 0.307431466536695 
1585	 0.307510748400678 
1586	 0.307568718772335 
1587	 0.30760974144889 
1588	 0.307647841955237 
1589	 0.30766979822005 
1590	 0.307698554934355 
1591	 0.307733703595127 
1592	 0.307755383645433 
1593	 0.307748930947064 
1594	 0.30777423632518 
1595	 0.30781334934981 
1596	 0.307848867389494 
1597	 0.307918429794204 
1598	 0.30796176343004 
1599	 0.307984544647875 
1600	 0.308003790095729 
1601	 0.308006098779784 
1602	 0.308019121763192 
1603	 0.308015196145115 
1604	 0.308037885033994 
1605	 0.308084588795086 
1606	 0.3081306626244 
1607	 0.30819298023824 
1608	 0.308261824051615 
1609	 0.308316833322324 
1610	 0.308352014136833 
1611	 0.308383109197674 
1612	 0.308402738558388 
1613	 0.308395449087095 
1614	 0.308406449885996 
1615	 0.308416724268599 
1616	 0.308414793671276 
1617	 0.308440867845406 
1618	 0.308462063049767 
1619	 0.308486737111324 
1620	 0.308521655492033 
1621	 0.308539059264593 
1622	 0.30855726102279 
1623	 0.308558474725719 
1624	 0.308538406276949 
1625	 0.308535286532243 
1626	 0.308525862205707 
1627	 0.308534814302731 
1628	 0.30855337931302 
1629	 0.308583672285018 
1630	 0.308626169026287 
1631	 0.30867007423364 
1632	 0.308734723562429 
1633	 0.308766425229883 
1634	 0.308790531976609 
1635	 0.308806503785335 
1636	 0.308803588111223 
1637	 0.308801810848855 
1638	 0.308790426796507 
1639	 0.30879445731531 
1640	 0.3087853425277 
1641	 0.308812900681901 
1642	 0.3088848285022 
1643	 0.308908903221493 
1644	 0.308928791266548 
1645	 0.308946874848958 
1646	 0.308928313054054 
1647	 0.308947745848937 
1648	 0.30900606773344 
1649	 0.309023111625801 
1650	 0.309033512754149 
1651	 0.309032874177975 
1652	 0.309004802973121 
1653	 0.308990896168412 
1654	 0.308978727297808 
1655	 0.308966317167055 
1656	 0.308955228231744 
1657	 0.308940032046653 
1658	 0.308929000463297 
1659	 0.308903550460025 
1660	 0.308868187238803 
1661	 0.308831984158672 
1662	 0.308782327661527 
1663	 0.308744106196321 
1664	 0.308696453493122 
1665	 0.30868061393404 
1666	 0.308675733467943 
1667	 0.308692039133197 
1668	 0.308763684592826 
1669	 0.308775794473429 
1670	 0.308780556793563 
1671	 0.308765376772704 
1672	 0.308691221807119 
1673	 0.308668523325048 
1674	 0.308669000645044 
1675	 0.308655453113297 
1676	 0.308658336515191 
1677	 0.30864556092357 
1678	 0.308601510116716 
1679	 0.308596465324713 
1680	 0.308625105929619 
1681	 0.308615376603952 
1682	 0.308603621363995 
1683	 0.308590999206557 
1684	 0.308545253964258 
1685	 0.308527179932345 
1686	 0.308543979036478 
1687	 0.308527714537002 
1688	 0.308493163568688 
1689	 0.308469833856662 
1690	 0.308437448788039 
1691	 0.308411421967283 
1692	 0.308395860427583 
1693	 0.308376929183836 
1694	 0.308352105533978 
1695	 0.308334825302432 
1696	 0.308330393809864 
1697	 0.308308579725518 
1698	 0.308279666449108 
1699	 0.308254614606294 
1700	 0.308220407781856 
1701	 0.308190569421169 
1702	 0.30816290862855 
1703	 0.308141679872035 
1704	 0.308120342250445 
1705	 0.308105640085392 
1706	 0.308117962384254 
1707	 0.308086408708524 
1708	 0.308029313772879 
1709	 0.307989111604191 
1710	 0.307935446811617 
1711	 0.307879258735838 
1712	 0.307839892351927 
1713	 0.307774275993951 
1714	 0.30767384678907 
1715	 0.307602006063739 
1716	 0.307538474565379 
1717	 0.307470775966941 
1718	 0.307393261453721 
1719	 0.307352796860612 
1720	 0.307343786385994 
1721	 0.307300098086517 
1722	 0.307274670398294 
1723	 0.3072257128087 
1724	 0.307131215267089 
1725	 0.30706487389517 
1726	 0.307016168131817 
1727	 0.306947017087789 
1728	 0.3068650449527 
1729	 0.306796014689818 
1730	 0.306725823187121 
1731	 0.306666767440368 
1732	 0.3066260284248 
1733	 0.306560015870753 
1734	 0.306492548543611 
1735	 0.306399214331644 
1736	 0.306278058841044 
1737	 0.306177240917517 
1738	 0.306068443108922 
1739	 0.305972419758 
1740	 0.305881928306421 
1741	 0.305804161749655 
1742	 0.305739668897286 
1743	 0.30566112882037 
1744	 0.305601723749818 
1745	 0.305504421450295 
1746	 0.305378748611748 
1747	 0.305227500935186 
1748	 0.305100115774642 
1749	 0.305022359268846 
1750	 0.304933197795069 
1751	 0.30485348756126 
1752	 0.304782319049934 
1753	 0.304677811003164 
1754	 0.304556937585911 
1755	 0.30444798043915 
1756	 0.304338083735353 
1757	 0.304191006955984 
1758	 0.304049518832816 
1759	 0.303928292248384 
1760	 0.303819463199518 
1761	 0.303723093436787 
1762	 0.303635213183297 
1763	 0.30356664046673 
1764	 0.303479137292338 
1765	 0.303395308465832 
1766	 0.303321816384727 
1767	 0.303200110617359 
1768	 0.30307566258733 
1769	 0.30298381748278 
1770	 0.302905449287691 
1771	 0.30285103068442 
1772	 0.302787371058146 
1773	 0.302703545332616 
1774	 0.302637110496654 
1775	 0.302581777313595 
1776	 0.302525415711811 
1777	 0.302466723843794 
1778	 0.302384392893519 
1779	 0.302290804598259 
1780	 0.302197918514119 
1781	 0.302097118224575 
1782	 0.302028726346179 
1783	 0.302009699374963 
1784	 0.301986738754048 
1785	 0.30203105663279 
1786	 0.30201589370145 
1787	 0.301957611291946 
1788	 0.301911114862659 
1789	 0.301841293274861 
1790	 0.301772923054198 
1791	 0.301707271725572 
1792	 0.301634890408358 
1793	 0.301545366350781 
1794	 0.301495785856297 
1795	 0.301447271305346 
1796	 0.301431084547965 
1797	 0.30146801565022 
1798	 0.301463406074374 
1799	 0.301451434669935 
1800	 0.301462051980803 
1801	 0.300704708445648 
1802	 0.300882603210777 
1803	 0.301067979885615 
1804	 0.301261902572277 
1805	 0.301461615591196 
1806	 0.301637411055366 
1807	 0.301799520877519 
1808	 0.301948071103536 
1809	 0.302082817355698 
1810	 0.302191097518583 
1811	 0.302279070143234 
1812	 0.30238098542516 
1813	 0.302423309475306 
1814	 0.302421129385187 
1815	 0.302420822746845 
1816	 0.30238842550669 
1817	 0.302385776475552 
1818	 0.302392743723038 
1819	 0.302403729987472 
1820	 0.302417131593342 
1821	 0.302453252813312 
1822	 0.302485465067563 
1823	 0.302501411810567 
1824	 0.302540208803452 
1825	 0.302552017310379 
1826	 0.302545672101632 
1827	 0.302540498628328 
1828	 0.302514520766115 
1829	 0.302464345370222 
1830	 0.302421100853149 
1831	 0.302364239479269 
1832	 0.302307839636908 
1833	 0.302282534066625 
1834	 0.302241731682806 
1835	 0.302204997538296 
1836	 0.302157139754427 
1837	 0.302102105385099 
1838	 0.30206862192575 
1839	 0.302041805306694 
1840	 0.30204024367659 
1841	 0.302030613777821 
1842	 0.301971531603157 
1843	 0.301899226123026 
1844	 0.301789034861672 
1845	 0.301674626457906 
1846	 0.30159518258493 
1847	 0.301499427773667 
1848	 0.301413634758178 
1849	 0.30131727658054 
1850	 0.301193367525009 
1851	 0.301043232686892 
1852	 0.300900484869439 
1853	 0.30075142144853 
1854	 0.30056957523999 
1855	 0.30040758688716 
1856	 0.300228301815952 
1857	 0.299993544795725 
1858	 0.299764288458838 
1859	 0.299511654708803 
1860	 0.299215616894448 
1861	 0.298881199427472 
1862	 0.298531701425951 
1863	 0.298148063031137 
1864	 0.297703278580943 
1865	 0.297234303837928 
1866	 0.296719046722493 
1867	 0.296146269717031 
1868	 0.295558446256575 
1869	 0.294913327892117 
1870	 0.294230379946668 
1871	 0.293516448751854 
1872	 0.292772839121091 
1873	 0.291988919889071 
1874	 0.291175789170437 
1875	 0.29026940364747 
1876	 0.289292383342354 
1877	 0.288264762552789 
1878	 0.287117463265225 
1879	 0.285899505330647 
1880	 0.284592563671933 
1881	 0.283192168931228 
1882	 0.281698871786298 
1883	 0.280124113725943 
1884	 0.278435763616026 
1885	 0.27667678611472 
1886	 0.274802920991895 
1887	 0.272807800317843 
1888	 0.270776111926853 
1889	 0.268645015412322 
1890	 0.266448466644076 
1891	 0.264255006223755 
1892	 0.262005950956882 
1893	 0.259753427172879 
1894	 0.257476754074753 
1895	 0.255215418560862 
1896	 0.252907771315124 
1897	 0.250649708857225 
1898	 0.248412923772972 
1899	 0.246201250683179 
1900	 0.244074311140967 
1901	 0.241990471516974 
1902	 0.2400152613564 
1903	 0.238144724365795 
1904	 0.236347242549963 
1905	 0.23462746891883 
1906	 0.233008081083844 
1907	 0.231469560281623 
1908	 0.230004350949146 
1909	 0.228634517356441 
1910	 0.227345687051868 
1911	 0.226157367152704 
1912	 0.225035872295046 
1913	 0.223993430092556 
1914	 0.223054749127423 
1915	 0.222159058335444 
1916	 0.221324310534604 
1917	 0.220552915210445 
1918	 0.219854836714015 
1919	 0.219186706331841 
1920	 0.218594534256394 
1921	 0.218053950492382 
1922	 0.21756419769248 
1923	 0.217148977718694 
1924	 0.216785159034032 
1925	 0.216499618415983 
1926	 0.216241409999717 
1927	 0.216022938959813 
1928	 0.215862357221232 
1929	 0.21575089044826 
1930	 0.215659107143326 
1931	 0.21563247526395 
1932	 0.215633586663771 
1933	 0.215644626370724 
1934	 0.215693446854363 
1935	 0.215767937408062 
1936	 0.215869927961882 
1937	 0.215988762242988 
1938	 0.216136968653579 
1939	 0.216310527543664 
1940	 0.21650208758428 
1941	 0.216712128764276 
1942	 0.216972640604914 
1943	 0.217247593652678 
1944	 0.217561437912128 
1945	 0.217894930828019 
1946	 0.218237352999796 
1947	 0.218608024534193 
1948	 0.218973876713006 
1949	 0.219334753759697 
1950	 0.21972826294026 
1951	 0.22014767897302 
1952	 0.220554126613743 
1953	 0.220992068792752 
1954	 0.221429622713536 
1955	 0.221858558091898 
1956	 0.222318582562965 
1957	 0.222783380006838 
1958	 0.223260185038135 
1959	 0.22374696831325 
1960	 0.224255777642742 
1961	 0.224751619706868 
1962	 0.225242756723325 
1963	 0.225751261805703 
1964	 0.226254383025779 
1965	 0.226778498595483 
1966	 0.227322706168332 
1967	 0.227889263235619 
1968	 0.228467719670986 
1969	 0.229077962762467 
1970	 0.229660565349102 
1971	 0.230261064304623 
1972	 0.23083520940426 
1973	 0.231373729190237 
1974	 0.231932934536657 
1975	 0.232495559753463 
1976	 0.233046511417722 
1977	 0.233624478685722 
1978	 0.234206758352325 
1979	 0.234765070795741 
1980	 0.235322429540591 
1981	 0.235876050964226 
1982	 0.23639334558154 
1983	 0.236964778314768 
1984	 0.237564330529046 
1985	 0.238162897643782 
1986	 0.23880720460097 
1987	 0.239412452533123 
1988	 0.240006010020491 
1989	 0.240589503926617 
1990	 0.241142726136786 
1991	 0.241705813835848 
1992	 0.242271306758528 
1993	 0.242822702300398 
1994	 0.243398173322231 
1995	 0.244005084380482 
1996	 0.244577738374785 
1997	 0.245152512980935 
1998	 0.245714943264485 
1999	 0.246247341455525 
2000	 0.246788272157541 
2001	 0.247331221726814 
2002	 0.247874210348793 
2003	 0.248402432420379 
2004	 0.248932075618658 
2005	 0.249459032788354 
2006	 0.249979898402641 
2007	 0.250499563194167 
2008	 0.251012074641021 
2009	 0.251539832553009 
2010	 0.252080875817708 
2011	 0.252605948162021 
2012	 0.253146007880808 
2013	 0.253660495370639 
2014	 0.254150668068571 
2015	 0.254632458049884 
2016	 0.255120582237573 
2017	 0.255599856439252 
2018	 0.256077443209495 
2019	 0.256552396993569 
2020	 0.257028491734098 
2021	 0.257499638114683 
2022	 0.25797116730136 
2023	 0.258446747881232 
2024	 0.258917374230474 
2025	 0.259385523376361 
2026	 0.259849498375851 
2027	 0.260311289401093 
2028	 0.260766903431231 
2029	 0.261226386638959 
2030	 0.26168423959791 
2031	 0.262138269720252 
2032	 0.26260165778324 
2033	 0.263044233628388 
2034	 0.26348584559488 
2035	 0.263899109773438 
2036	 0.264288876704976 
2037	 0.264671648481158 
2038	 0.265021222422091 
2039	 0.26538443840177 
2040	 0.26574087966804 
2041	 0.266109587249632 
2042	 0.266474059826688 
2043	 0.266841503529473 
2044	 0.267205426413876 
2045	 0.267556936532365 
2046	 0.267934288306898 
2047	 0.268339378425562 
2048	 0.268710854800578 
2049	 0.269093506113146 
2050	 0.269449572337073 
2051	 0.269758663218105 
2052	 0.270088058773294 
2053	 0.270425796406823 
2054	 0.27074995602544 
2055	 0.271064504220276 
2056	 0.271393493210256 
2057	 0.27169804545449 
2058	 0.271983256718007 
2059	 0.272283365838873 
2060	 0.272589317854261 
2061	 0.272869901991589 
2062	 0.273133900573947 
2063	 0.273409895613533 
2064	 0.273672216884733 
2065	 0.273941180993169 
2066	 0.274228860728198 
2067	 0.274507703057496 
2068	 0.274778057037952 
2069	 0.275037959704765 
2070	 0.275319733650391 
2071	 0.275608241112343 
2072	 0.275908061969513 
2073	 0.276235523782329 
2074	 0.276526591910423 
2075	 0.27681823315254 
2076	 0.277090790565457 
2077	 0.277326051119487 
2078	 0.277582440368936 
2079	 0.277844421735559 
2080	 0.278099626673259 
2081	 0.278357671134247 
2082	 0.278609471532464 
2083	 0.278857399102247 
2084	 0.279095574540303 
2085	 0.279336447868397 
2086	 0.279567135498728 
2087	 0.279821574361227 
2088	 0.280080003128763 
2089	 0.280350576614664 
2090	 0.280658084482263 
2091	 0.28092365182668 
2092	 0.281180068059128 
2093	 0.281427432422517 
2094	 0.281645887384023 
2095	 0.281874799292957 
2096	 0.282104314127664 
2097	 0.282332652165462 
2098	 0.282554454575349 
2099	 0.282781624582187 
2100	 0.283014522681309 
2101	 0.283249708704535 
2102	 0.283489753835749 
2103	 0.283731068524298 
2104	 0.283988508295556 
2105	 0.284264700283063 
2106	 0.28452448478744 
2107	 0.284792889594889 
2108	 0.285050893131062 
2109	 0.285278984383631 
2110	 0.285536304337585 
2111	 0.285814575329932 
2112	 0.286084530784577 
2113	 0.286366681536343 
2114	 0.286643527728937 
2115	 0.28691318292187 
2116	 0.287172663246195 
2117	 0.287432710302558 
2118	 0.287691356964028 
2119	 0.287948317279415 
2120	 0.288204058139303 
2121	 0.288452496968189 
2122	 0.288700571793769 
2123	 0.28893742088568 
2124	 0.289170978632697 
2125	 0.289388056830339 
2126	 0.289611500851269 
2127	 0.289795888001486 
2128	 0.289920173676598 
2129	 0.290076601639077 
2130	 0.290226305790669 
2131	 0.290387186986718 
2132	 0.290513110287874 
2133	 0.290660375565329 
2134	 0.290755428548258 
2135	 0.290790749969026 
2136	 0.290843429763594 
2137	 0.290890053024729 
2138	 0.290925722344668 
2139	 0.290950083513446 
2140	 0.29096454968558 
2141	 0.290960848318806 
2142	 0.29096548827472 
2143	 0.290963799811799 
2144	 0.290961070404384 
2145	 0.290982015737195 
2146	 0.290968209180647 
2147	 0.290935251598637 
2148	 0.290892374366651 
2149	 0.290823999576764 
2150	 0.290724747474678 
2151	 0.290625189845194 
2152	 0.290507636275064 
2153	 0.290391901017707 
2154	 0.290268420660311 
2155	 0.290139373689551 
2156	 0.290020731542275 
2157	 0.289864505407848 
2158	 0.289693935612804 
2159	 0.289500424099619 
2160	 0.289257451143615 
2161	 0.28903303697039 
2162	 0.288799490535572 
2163	 0.288567762709733 
2164	 0.288336480648211 
2165	 0.288111581377939 
2166	 0.287891242322986 
2167	 0.287674081052937 
2168	 0.287452720332744 
2169	 0.287231789725127 
2170	 0.287022251876899 
2171	 0.286813145376696 
2172	 0.286604615767421 
2173	 0.286408667507053 
2174	 0.286209797160256 
2175	 0.286028383411732 
2176	 0.285804300358727 
2177	 0.285576697864374 
2178	 0.285319113989984 
2179	 0.284996459603453 
2180	 0.284700716434952 
2181	 0.284416052529148 
2182	 0.284113012376076 
2183	 0.283789731856446 
2184	 0.28348049527018 
2185	 0.283192100319618 
2186	 0.282890870933507 
2187	 0.282628380766504 
2188	 0.282420337823737 
2189	 0.282175298377312 
2190	 0.281931539251256 
2191	 0.281678153223407 
2192	 0.281394021518626 
2193	 0.281151814515732 
2194	 0.280912882960149 
2195	 0.280699396013995 
2196	 0.280512630638795 
2197	 0.280346995434089 
2198	 0.280200405827193 
2199	 0.280072656124759 
2200	 0.27999515201631 
2201	 0.279897128518311 
2202	 0.27980212738776 
2203	 0.279693623755512 
2204	 0.279622465648438 
2205	 0.279539991799865 
2206	 0.279516872429199 
2207	 0.279547595806785 
2208	 0.279572137939943 
2209	 0.279613734680017 
2210	 0.279681021750444 
2211	 0.279773522827052 
2212	 0.279866100803162 
2213	 0.279985954030869 
2214	 0.280103099101977 
2215	 0.280230049130061 
2216	 0.280341930303432 
2217	 0.280464494584926 
2218	 0.280567830126552 
2219	 0.280630578610172 
2220	 0.280725541352506 
2221	 0.28084726832407 
2222	 0.280947368168814 
2223	 0.281036774204916 
2224	 0.28110640119134 
2225	 0.281152404660177 
2226	 0.281148881447378 
2227	 0.281170838052101 
2228	 0.281188358155123 
2229	 0.281216296318314 
2230	 0.281261413864466 
2231	 0.281261351668081 
2232	 0.281247048619994 
2233	 0.281231883748935 
2234	 0.281166342239282 
2235	 0.281146619072676 
2236	 0.281173752166775 
2237	 0.28115994970429 
2238	 0.281135374190173 
2239	 0.281111221802736 
2240	 0.281052486683935 
2241	 0.28102356742837 
2242	 0.281017853768672 
2243	 0.281006557212829 
2244	 0.280995434029817 
2245	 0.281015455677517 
2246	 0.280985476125258 
2247	 0.280942330463824 
2248	 0.280914020052807 
2249	 0.280877375840342 
2250	 0.280826310272118 
2251	 0.280792924423623 
2252	 0.280723413958577 
2253	 0.280599029473573 
2254	 0.280526397068723 
2255	 0.280448560898433 
2256	 0.280410826803639 
2257	 0.280429284315198 
2258	 0.280412321006574 
2259	 0.28039789418306 
2260	 0.28038241233583 
2261	 0.280346996199514 
2262	 0.280325811742659 
2263	 0.280355987861391 
2264	 0.280325881827318 
2265	 0.280219729676176 
2266	 0.280182360324996 
2267	 0.280156869965642 
2268	 0.280118431432882 
2269	 0.280093280486037 
2270	 0.280128351416591 
2271	 0.280107855072769 
2272	 0.280089593990624 
2273	 0.280125992764467 
2274	 0.280127055505385 
2275	 0.280093251072181 
2276	 0.28002853691085 
2277	 0.279962410876619 
2278	 0.279842514825628 
2279	 0.279783271809835 
2280	 0.279731382335765 
2281	 0.279714692969579 
2282	 0.279755430620376 
2283	 0.279758706611269 
2284	 0.279780121987453 
2285	 0.279775522608307 
2286	 0.279748603312511 
2287	 0.279706393795074 
2288	 0.279641277776988 
2289	 0.27958818401339 
2290	 0.27952631651969 
2291	 0.279463725940146 
2292	 0.279417194754812 
2293	 0.279349118936957 
2294	 0.279246941955271 
2295	 0.279163846226148 
2296	 0.279074351394386 
2297	 0.279003899824327 
2298	 0.278970793091604 
2299	 0.278915480726213 
2300	 0.278860107252376 
2301	 0.278799761188181 
2302	 0.278676536665396 
2303	 0.278572827608702 
2304	 0.278536335627415 
2305	 0.278467194869885 
2306	 0.278346509401178 
2307	 0.278206834119658 
2308	 0.278070659857379 
2309	 0.277861563948754 
2310	 0.277719517644415 
2311	 0.277649785027662 
2312	 0.277519900996252 
2313	 0.277362384130132 
2314	 0.277214042757377 
2315	 0.277041548962198 
2316	 0.276892867572565 
2317	 0.276791439566863 
2318	 0.276621940203942 
2319	 0.276410108479452 
2320	 0.276228813920822 
2321	 0.275994075545843 
2322	 0.275804059698502 
2323	 0.275663312402033 
2324	 0.275534545800349 
2325	 0.275441775202482 
2326	 0.275325697511527 
2327	 0.275242768957718 
2328	 0.27509185471471 
2329	 0.274907844774225 
2330	 0.274781456661855 
2331	 0.274710650819503 
2332	 0.27463729898298 
2333	 0.27452094453835 
2334	 0.274380604384084 
2335	 0.274245279189349 
2336	 0.274065467341701 
2337	 0.273882468809645 
2338	 0.273734177189406 
2339	 0.273569949239533 
2340	 0.273365198045709 
2341	 0.273191361356117 
2342	 0.27304904434199 
2343	 0.272865042232685 
2344	 0.272706631743049 
2345	 0.272548052784965 
2346	 0.272434433620102 
2347	 0.272243734065925 
2348	 0.272009455608556 
2349	 0.271780304207002 
2350	 0.271519941582844 
2351	 0.271261154831368 
2352	 0.270992117317598 
2353	 0.270751285047319 
2354	 0.270487463849137 
2355	 0.270255362459621 
2356	 0.270103680164123 
2357	 0.269869613419139 
2358	 0.269590622772169 
2359	 0.269354569517451 
2360	 0.269088288981828 
2361	 0.268838584975527 
2362	 0.268623706028766 
2363	 0.268405714438189 
2364	 0.268176619859442 
2365	 0.267970774037075 
2366	 0.267841892327616 
2367	 0.26761986757165 
2368	 0.267341029291239 
2369	 0.267068698795869 
2370	 0.266752811436592 
2371	 0.266417636330514 
2372	 0.266125362118377 
2373	 0.265813600032725 
2374	 0.265519589174661 
2375	 0.265214975410574 
2376	 0.264905958997886 
2377	 0.264659929594291 
2378	 0.264408478850525 
2379	 0.264134803209228 
2380	 0.263811346306618 
2381	 0.263500379992982 
2382	 0.263174703325273 
2383	 0.262807370941191 
2384	 0.262532603697044 
2385	 0.26221588718224 
2386	 0.261806048856271 
2387	 0.261466152912221 
2388	 0.261162518507108 
2389	 0.26086526799362 
2390	 0.260623567016812 
2391	 0.260314097905573 
2392	 0.259944235657651 
2393	 0.259594421447773 
2394	 0.259211220962554 
2395	 0.258860223924066 
2396	 0.258518514975855 
2397	 0.258153742551804 
2398	 0.257780239474577 
2399	 0.257402249428623 
2400	 0.257034704440954 
2401	 0.256553233639731 
2402	 0.256051676003419 
2403	 0.255679400476693 
2404	 0.255281777085961 
2405	 0.254912274669802 
2406	 0.254605777817276 
2407	 0.254218241219407 
2408	 0.253894325962417 
2409	 0.253578765424405 
2410	 0.253216699040477 
2411	 0.252865045360475 
2412	 0.252403887899577 
2413	 0.25196880729146 
2414	 0.251572846179369 
2415	 0.251170371333169 
2416	 0.250742138953552 
2417	 0.25028530891652 
2418	 0.249858218169148 
2419	 0.249401078697813 
2420	 0.248981797156168 
2421	 0.24866056442949 
2422	 0.248258522444517 
2423	 0.247800529350063 
2424	 0.247341348450322 
2425	 0.246873779245774 
2426	 0.246395938358321 
2427	 0.245902126177174 
2428	 0.245457654517486 
2429	 0.24500881127797 
2430	 0.244545845109824 
2431	 0.244102562591107 
2432	 0.243655215302264 
2433	 0.243199120238616 
2434	 0.242720548319878 
2435	 0.242205293763696 
2436	 0.241822340053646 
2437	 0.241526402243442 
2438	 0.241155453553406 
2439	 0.240862330871766 
2440	 0.24037408846876 
2441	 0.239690165105208 
2442	 0.239169768403809 
2443	 0.238645070022541 
2444	 0.238176749269184 
2445	 0.237812675469585 
2446	 0.237380199632939 
2447	 0.236899991046564 
2448	 0.236542805500088 
2449	 0.236308548356789 
2450	 0.235930777290172 
2451	 0.235514223223264 
2452	 0.235084987687737 
2453	 0.234557934550807 
2454	 0.23405711612486 
2455	 0.233591399747423 
2456	 0.233104490863899 
2457	 0.232533223468078 
2458	 0.23209604623095 
2459	 0.231768389869197 
2460	 0.231404458381161 
2461	 0.231214616793398 
2462	 0.23077034730609 
2463	 0.230063031006122 
2464	 0.22956417193132 
2465	 0.228961067520181 
2466	 0.228467266581005 
2467	 0.228208839024183 
2468	 0.227903884089974 
2469	 0.227626498617141 
2470	 0.22731229879335 
2471	 0.226934356138179 
2472	 0.226506672148037 
2473	 0.226068387613531 
2474	 0.225663587138386 
2475	 0.225319073014391 
2476	 0.225085366862298 
2477	 0.224741551904275 
2478	 0.224346009038988 
2479	 0.223949344507011 
2480	 0.223359837862505 
2481	 0.223037236449838 
2482	 0.22282205447482 
2483	 0.222463959206032 
2484	 0.22211729193709 
2485	 0.221580280791762 
2486	 0.221156005617945 
2487	 0.220929107461947 
2488	 0.220704905968387 
2489	 0.220596657239608 
2490	 0.220457804386571 
2491	 0.220024554294241 
2492	 0.21950331338113 
2493	 0.219036801167206 
2494	 0.2185428529904 
2495	 0.218184958830303 
2496	 0.218014460502787 
2497	 0.218011190993876 
2498	 0.217837978140994 
2499	 0.217436677780652 
2500	 0.217164360066184 
