Wavelength	mm1700004.asd
350	 7.64805299684863E-02 
351	 8.17246408932952E-02 
352	 8.10603703951608E-02 
353	 7.10386673215234E-02 
354	 8.61243375298318E-02 
355	 8.96179891374199E-02 
356	 8.36511275945011E-02 
357	 8.08550101671166E-02 
358	 9.25062342421143E-02 
359	 9.25468867984847E-02 
360	 8.38431415733898E-02 
361	 8.65549814970937E-02 
362	 8.83298583000322E-02 
363	 8.76052329233996E-02 
364	 8.56846096534309E-02 
365	 8.61518375863751E-02 
366	 8.58368521904883E-02 
367	 8.64115742914745E-02 
368	 8.97321764840679E-02 
369	 0.093772480375464 
370	 9.51126916300944E-02 
371	 9.49495308403329E-02 
372	 9.72021829937515E-02 
373	 0.098497003094096 
374	 9.87374516041279E-02 
375	 0.099020304617394 
376	 0.101940877512453 
377	 0.101914806731928 
378	 0.101834763011422 
379	 0.105313599919607 
380	 0.108013947207558 
381	 0.107930819527079 
382	 0.107092105502179 
383	 0.109946221482845 
384	 0.112705302973355 
385	 0.113176540513474 
386	 0.112394534141259 
387	 0.117322323499743 
388	 0.119328541508111 
389	 0.11878243888364 
390	 0.118920470299642 
391	 0.121575249978016 
392	 0.124476964590054 
393	 0.126797012444713 
394	 0.129063548285464 
395	 0.130597374743926 
396	 0.134061258445804 
397	 0.139491963488672 
398	 0.140112237491275 
399	 0.142061348003656 
400	 0.145287784269232 
401	 0.147607791444841 
402	 0.148507016270989 
403	 0.150184615996599 
404	 0.152479807370583 
405	 0.15291458447221 
406	 0.155894066845172 
407	 0.159157014124596 
408	 0.160556512581693 
409	 0.161529590457509 
410	 0.16237990085561 
411	 0.163434376167396 
412	 0.164896257396626 
413	 0.166300193093547 
414	 0.168323533199597 
415	 0.170269287667091 
416	 0.169598558900647 
417	 0.16924001621203 
418	 0.17008471053449 
419	 0.171798130049985 
420	 0.172071375243468 
421	 0.171543508471681 
422	 0.171254744063763 
423	 0.172191445059517 
424	 0.172215518431635 
425	 0.171962625084229 
426	 0.171922426551402 
427	 0.171620027047009 
428	 0.171535049544721 
429	 0.171410143282074 
430	 0.170917215878799 
431	 0.170599797675483 
432	 0.170238355386976 
433	 0.169986600064738 
434	 0.170349438182317 
435	 0.170639087030967 
436	 0.171045656721771 
437	 0.171668481387127 
438	 0.17178352176619 
439	 0.172737872278763 
440	 0.174368209839438 
441	 0.17575878704978 
442	 0.176705110484522 
443	 0.17797229948225 
444	 0.179642394446439 
445	 0.18063471580443 
446	 0.181668766947317 
447	 0.182904339403877 
448	 0.184330843918735 
449	 0.185974690887588 
450	 0.187317388335391 
451	 0.188496415881642 
452	 0.190147027375984 
453	 0.191182499657686 
454	 0.191791800985234 
455	 0.192536934850366 
456	 0.194440088367646 
457	 0.195596391787216 
458	 0.196204627554755 
459	 0.197278702350749 
460	 0.197978881752715 
461	 0.198531136239069 
462	 0.199257051263086 
463	 0.200492807711482 
464	 0.201298170093443 
465	 0.201878867603835 
466	 0.202625130232077 
467	 0.203242679043816 
468	 0.203829862083941 
469	 0.20436858397538 
470	 0.20476180570747 
471	 0.205288846654725 
472	 0.205916032493654 
473	 0.206525453698781 
474	 0.206925668330332 
475	 0.207310349562497 
476	 0.207868235444636 
477	 0.208686231324952 
478	 0.20919736522676 
479	 0.209519430935358 
480	 0.209818404831169 
481	 0.210223064137664 
482	 0.211000891979954 
483	 0.211721019251996 
484	 0.212018706687452 
485	 0.212644872409842 
486	 0.213189204082135 
487	 0.213555157148171 
488	 0.213934205991062 
489	 0.214416611508465 
490	 0.214916625725252 
491	 0.215360704316099 
492	 0.215790764207174 
493	 0.216204632159748 
494	 0.216638150014115 
495	 0.217130312222249 
496	 0.217622807356565 
497	 0.218000271401558 
498	 0.218297707771172 
499	 0.218772007060291 
500	 0.219357837664727 
501	 0.219882884956105 
502	 0.22021761375773 
503	 0.22056935676888 
504	 0.220949372715274 
505	 0.22136567588126 
506	 0.221825710319953 
507	 0.222254022383015 
508	 0.222677104014055 
509	 0.223095711756227 
510	 0.223364134140554 
511	 0.223729670119239 
512	 0.224147549055558 
513	 0.224450102340572 
514	 0.224907835001128 
515	 0.225327479081345 
516	 0.22563945975013 
517	 0.22607643722321 
518	 0.226446462294331 
519	 0.226742857471468 
520	 0.227041208657422 
521	 0.227515876198733 
522	 0.227908353675854 
523	 0.228182880284208 
524	 0.228556441904816 
525	 0.228917398783136 
526	 0.229225895901395 
527	 0.229500911623756 
528	 0.229906794473294 
529	 0.230250998391791 
530	 0.230575701148838 
531	 0.23104842118602 
532	 0.231339523960801 
533	 0.231677678232036 
534	 0.232168341186173 
535	 0.232500126436925 
536	 0.232780241332375 
537	 0.233094997031429 
538	 0.233501885518011 
539	 0.233874452375787 
540	 0.234196408926983 
541	 0.234505784168461 
542	 0.234896694509734 
543	 0.235301352105126 
544	 0.235687716960705 
545	 0.236049512801586 
546	 0.236444777286167 
547	 0.236846294747735 
548	 0.237225437611246 
549	 0.237562460606375 
550	 0.23800874290061 
551	 0.238422040615796 
552	 0.238726421471575 
553	 0.239169983592972 
554	 0.239532225478321 
555	 0.239902548843685 
556	 0.240495193601485 
557	 0.241086481457198 
558	 0.241630759468141 
559	 0.242155061218847 
560	 0.242785724587332 
561	 0.243274910865578 
562	 0.243720775558633 
563	 0.244299259525415 
564	 0.244902210578759 
565	 0.245415717733522 
566	 0.245825850590441 
567	 0.246230196419617 
568	 0.246685899630816 
569	 0.247279968145307 
570	 0.248050827368061 
571	 0.248902522114927 
572	 0.249710029076225 
573	 0.250435714595999 
574	 0.251108959403871 
575	 0.251697012899649 
576	 0.25237827327366 
577	 0.25323810278048 
578	 0.254120743249164 
579	 0.254869672922421 
580	 0.255510443667537 
581	 0.2561554630408 
582	 0.256821229750474 
583	 0.257412657225885 
584	 0.258004087670283 
585	 0.258929669505885 
586	 0.25988141408706 
587	 0.260804000440439 
588	 0.26170913635374 
589	 0.262559516522483 
590	 0.263461881574492 
591	 0.264424999155121 
592	 0.26536252312008 
593	 0.26614952251507 
594	 0.266795749358733 
595	 0.267350010866818 
596	 0.267861033069055 
597	 0.268393453740421 
598	 0.268970692386031 
599	 0.269592305762035 
600	 0.270269439720128 
601	 0.271015396743767 
602	 0.271791915688315 
603	 0.272470450590011 
604	 0.273137787296793 
605	 0.273841293245269 
606	 0.274604714862232 
607	 0.275399423874882 
608	 0.276148917954487 
609	 0.276845025956971 
610	 0.277559459292188 
611	 0.278198256072996 
612	 0.278735237696831 
613	 0.279180344780619 
614	 0.27960102936674 
615	 0.279983659781675 
616	 0.280373523230934 
617	 0.280844568024578 
618	 0.281339728780862 
619	 0.281755452817816 
620	 0.282074033245614 
621	 0.282468503949874 
622	 0.282874752726403 
623	 0.283238473963932 
624	 0.283531596876439 
625	 0.283900000281659 
626	 0.284265844233612 
627	 0.284592228643164 
628	 0.284919353876668 
629	 0.285243861775734 
630	 0.285568897217363 
631	 0.285899205313563 
632	 0.28624324692167 
633	 0.286573866275 
634	 0.286855153643032 
635	 0.287060164627989 
636	 0.28739109936536 
637	 0.287786066888647 
638	 0.288131514278347 
639	 0.288290035287075 
640	 0.288550141975009 
641	 0.288893364863822 
642	 0.289173590356181 
643	 0.289496057152927 
644	 0.289801458981642 
645	 0.290069199796893 
646	 0.290355685066566 
647	 0.290586081077219 
648	 0.290853310359792 
649	 0.29123042243764 
650	 0.291503514701965 
651	 0.291735607612725 
652	 0.291998664020091 
653	 0.292354297450749 
654	 0.292648652918519 
655	 0.292933047191287 
656	 0.293257852126068 
657	 0.293569938777209 
658	 0.293899981730069 
659	 0.294208016723914 
660	 0.294447236813499 
661	 0.29478167330937 
662	 0.295144446071144 
663	 0.295465945047383 
664	 0.295701829111624 
665	 0.296062406366141 
666	 0.296442340848589 
667	 0.296711814344499 
668	 0.297045522109817 
669	 0.297432489496148 
670	 0.297806240069152 
671	 0.29807287679157 
672	 0.298419054088549 
673	 0.298805491988902 
674	 0.299182679895002 
675	 0.299580883587754 
676	 0.299943756080367 
677	 0.300277933725143 
678	 0.3006249033802 
679	 0.301041204855354 
680	 0.30146981150316 
681	 0.301868153734006 
682	 0.30222650238554 
683	 0.302594391432502 
684	 0.302993566972563 
685	 0.303420258811014 
686	 0.303817860396303 
687	 0.304212371586936 
688	 0.304606921425181 
689	 0.30499108665042 
690	 0.305414606738833 
691	 0.305813461795324 
692	 0.306177958405494 
693	 0.306650269678776 
694	 0.307035424143416 
695	 0.307419278232505 
696	 0.307923130445714 
697	 0.308256548035058 
698	 0.308614541811906 
699	 0.309045526863494 
700	 0.309418750805863 
701	 0.309854609239778 
702	 0.31034678576261 
703	 0.310831702099156 
704	 0.311159729798432 
705	 0.311481015369003 
706	 0.311863641621459 
707	 0.312311275322708 
708	 0.312702244532393 
709	 0.313101182560777 
710	 0.313518370984758 
711	 0.313858023174436 
712	 0.314162190860791 
713	 0.314493221359588 
714	 0.314896348115922 
715	 0.31534117959281 
716	 0.315706436883725 
717	 0.316000167821895 
718	 0.316329864556379 
719	 0.316762805453644 
720	 0.317133370671151 
721	 0.317366250066177 
722	 0.31761747506133 
723	 0.31794534234856 
724	 0.318253715445656 
725	 0.318447560942629 
726	 0.318754143110201 
727	 0.31903370658114 
728	 0.319260220788673 
729	 0.319523356372325 
730	 0.319735117762155 
731	 0.319909728133901 
732	 0.32008436474448 
733	 0.320316339258459 
734	 0.320463509030594 
735	 0.320561067146451 
736	 0.320708027460872 
737	 0.320889079278793 
738	 0.32104193498486 
739	 0.321144169374799 
740	 0.321222584087849 
741	 0.321316191774604 
742	 0.321388644441277 
743	 0.321419425649353 
744	 0.321478194986602 
745	 0.321534370294012 
746	 0.321566872654317 
747	 0.321568609114233 
748	 0.321605883473769 
749	 0.32157624705655 
750	 0.321499705101348 
751	 0.321554971043417 
752	 0.321527882130037 
753	 0.321375662556858 
754	 0.3211697942068 
755	 0.321190913455737 
756	 0.321178658238733 
757	 0.321051893960447 
758	 0.320854535837856 
759	 0.320772720818442 
760	 0.320750491464242 
761	 0.320683693240387 
762	 0.320447717872837 
763	 0.320326765406004 
764	 0.320202122945047 
765	 0.319966779165347 
766	 0.319844511920851 
767	 0.319716018946194 
768	 0.319548185542777 
769	 0.319356578604098 
770	 0.319169554995447 
771	 0.318992430707253 
772	 0.318802524621422 
773	 0.318550833731998 
774	 0.31835294028961 
775	 0.318167183158761 
776	 0.317938279279857 
777	 0.317663986929678 
778	 0.317478420421368 
779	 0.317346701546696 
780	 0.317160050927509 
781	 0.316909249715152 
782	 0.316690716194959 
783	 0.316505160312417 
784	 0.316249538523644 
785	 0.316021028888088 
786	 0.315804522913716 
787	 0.31557337693509 
788	 0.315320937968031 
789	 0.315114045128972 
790	 0.314913242904988 
791	 0.314664705900505 
792	 0.314479330554687 
793	 0.314240065707627 
794	 0.313955879916047 
795	 0.313743113809711 
796	 0.313489698718407 
797	 0.313270158739879 
798	 0.313117673004641 
799	 0.312940913691384 
800	 0.312763019595623 
801	 0.312551637930444 
802	 0.312291598518564 
803	 0.312082181219699 
804	 0.311905637113609 
805	 0.311713654788458 
806	 0.311458032556665 
807	 0.311243796438732 
808	 0.311065296626992 
809	 0.310889348303927 
810	 0.310666850329578 
811	 0.310471804346526 
812	 0.310271799104981 
813	 0.310059857898141 
814	 0.309968301991598 
815	 0.309884611945359 
816	 0.309730557432492 
817	 0.309479211137292 
818	 0.309264295956206 
819	 0.309158451923953 
820	 0.309076860494539 
821	 0.30883223067098 
822	 0.308651491488982 
823	 0.308454978685231 
824	 0.308238551040751 
825	 0.308193780892833 
826	 0.308133607844452 
827	 0.3079954347707 
828	 0.307790850839705 
829	 0.307644382844937 
830	 0.307452584689912 
831	 0.307279387903898 
832	 0.307234195767258 
833	 0.307187409067708 
834	 0.307062761254395 
835	 0.306878175582716 
836	 0.306735795802675 
837	 0.306668691954323 
838	 0.30662850861598 
839	 0.306552434959709 
840	 0.306382896470754 
841	 0.306193857253494 
842	 0.306043588091232 
843	 0.30596289756102 
844	 0.305923551728632 
845	 0.30588689175622 
846	 0.305813740057861 
847	 0.305695503059415 
848	 0.305669220381982 
849	 0.305630241628751 
850	 0.305565785401451 
851	 0.305540645875504 
852	 0.305423102250802 
853	 0.305307117344585 
854	 0.305260868802574 
855	 0.305265677639936 
856	 0.305281934610052 
857	 0.305277208882681 
858	 0.305246228770538 
859	 0.305245955545255 
860	 0.30519628622129 
861	 0.305114456375467 
862	 0.305052079302197 
863	 0.305032009681287 
864	 0.305058598998354 
865	 0.305097486799467 
866	 0.305104362648 
867	 0.305149461923313 
868	 0.305126321636023 
869	 0.305052253909571 
870	 0.30506992933186 
871	 0.305034739650671 
872	 0.305098249479921 
873	 0.305279892451835 
874	 0.305321310196026 
875	 0.305365065047026 
876	 0.305399122664421 
877	 0.305394393791548 
878	 0.305363913945313 
879	 0.305383699669195 
880	 0.305447178203627 
881	 0.305525408307759 
882	 0.305649574928788 
883	 0.305751003813824 
884	 0.305814828302764 
885	 0.305869621032436 
886	 0.305983354211814 
887	 0.306096305675806 
888	 0.306172152923354 
889	 0.306214561285151 
890	 0.306303037383197 
891	 0.306438191097348 
892	 0.306581946124856 
893	 0.306672157679731 
894	 0.306822290859813 
895	 0.306971273050701 
896	 0.307065330045186 
897	 0.307124810890446 
898	 0.307328700958305 
899	 0.307522430148701 
900	 0.307587579335145 
901	 0.307747035957891 
902	 0.307921049197756 
903	 0.308075425827316 
904	 0.308198443414077 
905	 0.308306939490222 
906	 0.308462689977799 
907	 0.308721657132221 
908	 0.309079034641185 
909	 0.309294896741852 
910	 0.309483565789382 
911	 0.309635281015586 
912	 0.309684168549014 
913	 0.309821312154113 
914	 0.310090728099653 
915	 0.310404870465194 
916	 0.310603623652276 
917	 0.310855550440095 
918	 0.311093137034001 
919	 0.311283804029845 
920	 0.311472121562101 
921	 0.311736720503928 
922	 0.312008813463808 
923	 0.312256505315951 
924	 0.312538260207873 
925	 0.312723862419611 
926	 0.312966073309362 
927	 0.313313986912943 
928	 0.313522163511924 
929	 0.31388030160743 
930	 0.314263022185197 
931	 0.314537308789483 
932	 0.314806812952589 
933	 0.315040750897296 
934	 0.315310102900525 
935	 0.315677067896753 
936	 0.316115914058859 
937	 0.316436207654578 
938	 0.316641818861457 
939	 0.316836393933514 
940	 0.317168062239038 
941	 0.317566168052835 
942	 0.318020150773897 
943	 0.318505919100582 
944	 0.318874656593539 
945	 0.319137932782409 
946	 0.31938724253575 
947	 0.319706963880986 
948	 0.319977950596025 
949	 0.320307094675337 
950	 0.320725606314646 
951	 0.321206711998512 
952	 0.321708007640479 
953	 0.322041880683624 
954	 0.322352249570377 
955	 0.322883299684882 
956	 0.323340007434822 
957	 0.32369341016826 
958	 0.323966636831143 
959	 0.324227253308935 
960	 0.324592923014449 
961	 0.325051817313507 
962	 0.325549267012516 
963	 0.326016098746373 
964	 0.326440070464416 
965	 0.326909690204944 
966	 0.327377921590009 
967	 0.327744639703532 
968	 0.328200416634499 
969	 0.32856531257814 
970	 0.328913681693153 
971	 0.329458917134649 
972	 0.330065235585056 
973	 0.33065901922502 
974	 0.331165765726377 
975	 0.331547557643871 
976	 0.331934117381571 
977	 0.332328517030453 
978	 0.332806201131521 
979	 0.333436825389006 
980	 0.334011245567142 
981	 0.334483479704098 
982	 0.334814819995197 
983	 0.335033405364236 
984	 0.335448735298594 
985	 0.335915581272468 
986	 0.33648607026703 
987	 0.337240431110332 
988	 0.337808775917744 
989	 0.338121141540053 
990	 0.3383965677698 
991	 0.338900717704927 
992	 0.339425752494132 
993	 0.339898178050835 
994	 0.340336348601198 
995	 0.340784439570133 
996	 0.341187716772346 
997	 0.34161623038708 
998	 0.3420908403884 
999	 0.342614646712212 
1000	 0.343225402292002 
1001	 0.336595765376157 
1002	 0.336981651556994 
1003	 0.337397114354334 
1004	 0.337793940844547 
1005	 0.338247813239515 
1006	 0.338665347751724 
1007	 0.339060311299725 
1008	 0.339411088581214 
1009	 0.339782483193664 
1010	 0.34012756972785 
1011	 0.340515747033731 
1012	 0.340878586007286 
1013	 0.341200028124092 
1014	 0.341530395092465 
1015	 0.341802314959969 
1016	 0.342121325705815 
1017	 0.342460939656165 
1018	 0.342829392406765 
1019	 0.343184022261589 
1020	 0.343565024449871 
1021	 0.343885274808165 
1022	 0.344200318107165 
1023	 0.344516545793237 
1024	 0.344780268978023 
1025	 0.34507895326 
1026	 0.345404831374111 
1027	 0.345679130238961 
1028	 0.345981474256195 
1029	 0.346340624936564 
1030	 0.346650967533522 
1031	 0.346952863945326 
1032	 0.34725555345785 
1033	 0.347594246847707 
1034	 0.347876381215412 
1035	 0.348132123405402 
1036	 0.348437978423326 
1037	 0.348733359887743 
1038	 0.349027738979637 
1039	 0.349355145986534 
1040	 0.34969847160309 
1041	 0.349998768822999 
1042	 0.350244807882334 
1043	 0.350553206608675 
1044	 0.350870627808279 
1045	 0.35118882967767 
1046	 0.351528652981027 
1047	 0.351898152068179 
1048	 0.352178673250995 
1049	 0.352447227481941 
1050	 0.352726119174375 
1051	 0.353034524750654 
1052	 0.353395019796588 
1053	 0.353751037531337 
1054	 0.354130263255061 
1055	 0.354500109034863 
1056	 0.354816915159827 
1057	 0.355125235404174 
1058	 0.355421064842952 
1059	 0.355701695395245 
1060	 0.355933266432436 
1061	 0.356208202937371 
1062	 0.356551382285411 
1063	 0.356822329603796 
1064	 0.357096360911786 
1065	 0.357388581894208 
1066	 0.357588139406778 
1067	 0.35781301063832 
1068	 0.358080483689673 
1069	 0.35831304195047 
1070	 0.358551069255408 
1071	 0.358789460258 
1072	 0.359043289759492 
1073	 0.35930499256187 
1074	 0.359550953913736 
1075	 0.359819405572322 
1076	 0.360047908905959 
1077	 0.360224612942567 
1078	 0.360407014972245 
1079	 0.360603225685966 
1080	 0.360790537555552 
1081	 0.360974018208125 
1082	 0.361155087815804 
1083	 0.361315728495827 
1084	 0.361429162195166 
1085	 0.361588604759695 
1086	 0.361763744463505 
1087	 0.361927195014387 
1088	 0.362084908881843 
1089	 0.362293464624117 
1090	 0.362462639604473 
1091	 0.362592305147442 
1092	 0.362775338564643 
1093	 0.362953473314575 
1094	 0.363137786242877 
1095	 0.363338333060026 
1096	 0.363479931537159 
1097	 0.363611773154939 
1098	 0.363768959107358 
1099	 0.363933594917943 
1100	 0.364086010275134 
1101	 0.364256134433291 
1102	 0.364400209623656 
1103	 0.364523949062088 
1104	 0.36462008474078 
1105	 0.364741094301936 
1106	 0.36491932233451 
1107	 0.365092195486416 
1108	 0.36527986408582 
1109	 0.36547474809834 
1110	 0.365673917349052 
1111	 0.365853530167414 
1112	 0.366022477510862 
1113	 0.366185710623065 
1114	 0.366337864054801 
1115	 0.366487982701691 
1116	 0.366614786743021 
1117	 0.366777820160761 
1118	 0.36696261858212 
1119	 0.36713092891019 
1120	 0.367304287241958 
1121	 0.367508049712928 
1122	 0.367664423220353 
1123	 0.367833133658955 
1124	 0.368019446393577 
1125	 0.368229509617608 
1126	 0.368392774352636 
1127	 0.368547525180078 
1128	 0.368706467965344 
1129	 0.368833490382734 
1130	 0.368985767968087 
1131	 0.369164653596987 
1132	 0.369327987179968 
1133	 0.36947139391629 
1134	 0.369633560966771 
1135	 0.369807559198544 
1136	 0.369988576789615 
1137	 0.370144792617291 
1138	 0.37031207948139 
1139	 0.370475595468857 
1140	 0.370631405283179 
1141	 0.370782119684197 
1142	 0.370939149448069 
1143	 0.371081723344185 
1144	 0.371207721386395 
1145	 0.371333594775146 
1146	 0.371458750953033 
1147	 0.371581878544876 
1148	 0.371685865690967 
1149	 0.371809622788459 
1150	 0.371937414858634 
1151	 0.372080455868286 
1152	 0.372225587417508 
1153	 0.372357687317837 
1154	 0.37248701553561 
1155	 0.372600683788002 
1156	 0.372727732535768 
1157	 0.372862577578803 
1158	 0.372989396836802 
1159	 0.373121397570512 
1160	 0.373243783340552 
1161	 0.373356170782788 
1162	 0.373467880237367 
1163	 0.37356443507758 
1164	 0.373680917727105 
1165	 0.373798487438139 
1166	 0.373934060130416 
1167	 0.374067033062511 
1168	 0.374211923247324 
1169	 0.374342769671308 
1170	 0.374475148540137 
1171	 0.374581449927798 
1172	 0.374673259279885 
1173	 0.374765904549494 
1174	 0.37482868785791 
1175	 0.374918215147996 
1176	 0.375027660410132 
1177	 0.375124669463876 
1178	 0.375215005021897 
1179	 0.375322449359857 
1180	 0.375441773181669 
1181	 0.375547506895948 
1182	 0.375659741414927 
1183	 0.375767987072893 
1184	 0.375872256558955 
1185	 0.375961549904281 
1186	 0.376061014339594 
1187	 0.376166833943739 
1188	 0.376267707221624 
1189	 0.376373210033525 
1190	 0.376462504918184 
1191	 0.376541496807178 
1192	 0.376626469167962 
1193	 0.376688986132393 
1194	 0.376775056590052 
1195	 0.376882426593493 
1196	 0.376984775449809 
1197	 0.37710946584768 
1198	 0.377210561473537 
1199	 0.377301021848181 
1200	 0.37737849147445 
1201	 0.377463421007644 
1202	 0.377534377842681 
1203	 0.377616946915779 
1204	 0.37770459473705 
1205	 0.377800127452166 
1206	 0.377902239927058 
1207	 0.377998748963415 
1208	 0.378108966842476 
1209	 0.378203919218777 
1210	 0.378300443035162 
1211	 0.378371162038114 
1212	 0.378395683986312 
1213	 0.378464518831332 
1214	 0.378542739337051 
1215	 0.378616387275475 
1216	 0.378700371265875 
1217	 0.378826595983217 
1218	 0.378908661550513 
1219	 0.37896225428527 
1220	 0.379031435933723 
1221	 0.379097114460924 
1222	 0.379169693856896 
1223	 0.379248866026894 
1224	 0.379319662869864 
1225	 0.37939022326501 
1226	 0.37946063812508 
1227	 0.379523816153932 
1228	 0.379591518694286 
1229	 0.3796698374787 
1230	 0.379737339802453 
1231	 0.379789083000525 
1232	 0.379854116156197 
1233	 0.379922999987601 
1234	 0.379993955333701 
1235	 0.380063049090292 
1236	 0.380144898873752 
1237	 0.380212134041727 
1238	 0.380261453409798 
1239	 0.380328270335104 
1240	 0.380399553123615 
1241	 0.380473022750854 
1242	 0.380565292373983 
1243	 0.380634775890864 
1244	 0.380690005195453 
1245	 0.380752312437736 
1246	 0.380801111606381 
1247	 0.380860108647472 
1248	 0.380929279735868 
1249	 0.381001079193695 
1250	 0.381067771362279 
1251	 0.381135758306452 
1252	 0.381190245287756 
1253	 0.381235565417806 
1254	 0.381283690051226 
1255	 0.381328525595949 
1256	 0.381364884490496 
1257	 0.381398181868094 
1258	 0.381429121315058 
1259	 0.381444140561317 
1260	 0.381472183791975 
1261	 0.381502074852676 
1262	 0.381540523855733 
1263	 0.381597355024307 
1264	 0.381634717771548 
1265	 0.38165403831781 
1266	 0.381698842398013 
1267	 0.381747433878574 
1268	 0.381799748385489 
1269	 0.381850133358123 
1270	 0.381917177140265 
1271	 0.381979898057278 
1272	 0.382026782006915 
1273	 0.38209337481587 
1274	 0.382177427593679 
1275	 0.382263321870613 
1276	 0.382339253715571 
1277	 0.382447834268702 
1278	 0.38259671299144 
1279	 0.382717336420447 
1280	 0.382844676574232 
1281	 0.38296615555594 
1282	 0.38307467269215 
1283	 0.383178080117429 
1284	 0.383287325658343 
1285	 0.383385004939372 
1286	 0.383453520304934 
1287	 0.38353215987002 
1288	 0.383632504405757 
1289	 0.383749340478823 
1290	 0.383849043401335 
1291	 0.383966675140356 
1292	 0.384057650367096 
1293	 0.38413456398204 
1294	 0.384190139303974 
1295	 0.38423417330787 
1296	 0.38426122279397 
1297	 0.384251919669455 
1298	 0.384261242427571 
1299	 0.384273024795123 
1300	 0.384275784268971 
1301	 0.384276413234593 
1302	 0.38426883824757 
1303	 0.384250478797408 
1304	 0.384230869332631 
1305	 0.384207059375162 
1306	 0.384189923088474 
1307	 0.384156891188138 
1308	 0.384112809506027 
1309	 0.384067988391198 
1310	 0.384011616937763 
1311	 0.383962679131304 
1312	 0.383920994176513 
1313	 0.383868182550547 
1314	 0.383817690838512 
1315	 0.383748733527616 
1316	 0.383654806687728 
1317	 0.383579576616765 
1318	 0.383501132939801 
1319	 0.383431445055062 
1320	 0.383370775528935 
1321	 0.383312904688656 
1322	 0.383254740951746 
1323	 0.383208691010411 
1324	 0.383165052810565 
1325	 0.383114658276613 
1326	 0.383055129455923 
1327	 0.383000555579545 
1328	 0.38295355934216 
1329	 0.382913071438053 
1330	 0.382865295804368 
1331	 0.382824571923987 
1332	 0.382769148857122 
1333	 0.382705926421018 
1334	 0.382640152209627 
1335	 0.38255746674043 
1336	 0.382494093741163 
1337	 0.382430013584372 
1338	 0.382375747896039 
1339	 0.382337025878635 
1340	 0.382299379673329 
1341	 0.382272038720181 
1342	 0.382235748188169 
1343	 0.382197168503328 
1344	 0.382167098734081 
1345	 0.382114674458492 
1346	 0.382060052573266 
1347	 0.382019840085023 
1348	 0.381974438997518 
1349	 0.381929008676928 
1350	 0.381875073803973 
1351	 0.381821703368227 
1352	 0.381754020047699 
1353	 0.381703207801772 
1354	 0.381667514835659 
1355	 0.381615366067191 
1356	 0.381562111018116 
1357	 0.381503869848672 
1358	 0.381428773790569 
1359	 0.381369072814913 
1360	 0.38131331298135 
1361	 0.38125973734351 
1362	 0.381215405194729 
1363	 0.381168349884109 
1364	 0.381110697179262 
1365	 0.381073017017603 
1366	 0.381039875402406 
1367	 0.381020849819138 
1368	 0.381034092571614 
1369	 0.381026206741472 
1370	 0.3809912131541 
1371	 0.380945683887451 
1372	 0.380874874880874 
1373	 0.38080320972115 
1374	 0.380725089852503 
1375	 0.380662075618625 
1376	 0.380546800766592 
1377	 0.380405173872494 
1378	 0.380249084408334 
1379	 0.380048730403958 
1380	 0.379873624487803 
1381	 0.379701541470688 
1382	 0.379514813485518 
1383	 0.379348785104342 
1384	 0.379131833315691 
1385	 0.378907120881618 
1386	 0.378627293703573 
1387	 0.378296111509875 
1388	 0.377948368834864 
1389	 0.37757769654362 
1390	 0.377155761669 
1391	 0.376707973541528 
1392	 0.376225737474694 
1393	 0.375675466759743 
1394	 0.375097524825443 
1395	 0.374464945541825 
1396	 0.373815247097869 
1397	 0.373183281058382 
1398	 0.372527495556563 
1399	 0.371892767761822 
1400	 0.371277804480075 
1401	 0.370659591482657 
1402	 0.370011684958243 
1403	 0.369438009054786 
1404	 0.368879213124672 
1405	 0.36838054725652 
1406	 0.367938044050716 
1407	 0.367523879135147 
1408	 0.367132698232224 
1409	 0.366815301982509 
1410	 0.366499790225037 
1411	 0.366321792231524 
1412	 0.366224984751655 
1413	 0.366223314066933 
1414	 0.366376631704497 
1415	 0.366624117955713 
1416	 0.366962899932288 
1417	 0.367364040496221 
1418	 0.367763393572266 
1419	 0.368179909839231 
1420	 0.368598043888125 
1421	 0.3689725049961 
1422	 0.369320678664599 
1423	 0.369642771860823 
1424	 0.369880813200325 
1425	 0.370044452919712 
1426	 0.370196186690117 
1427	 0.370264600485999 
1428	 0.370372469871126 
1429	 0.370490861719901 
1430	 0.370569335269376 
1431	 0.370644902536133 
1432	 0.370683192699694 
1433	 0.370669044915598 
1434	 0.370673008013817 
1435	 0.3706417322859 
1436	 0.370653931603523 
1437	 0.370693880195319 
1438	 0.37071972531055 
1439	 0.370765206463866 
1440	 0.370809674612851 
1441	 0.370804358720182 
1442	 0.370786868932177 
1443	 0.370760586634427 
1444	 0.370734673741056 
1445	 0.370734771000383 
1446	 0.370739238643995 
1447	 0.370749705738004 
1448	 0.370749092587245 
1449	 0.370687671815259 
1450	 0.370621363818195 
1451	 0.370580678523208 
1452	 0.370521731212334 
1453	 0.370486708229767 
1454	 0.370497570801461 
1455	 0.370472824231699 
1456	 0.370434004190506 
1457	 0.37039474929161 
1458	 0.370344065138029 
1459	 0.370305847228243 
1460	 0.370258519440195 
1461	 0.37022937745328 
1462	 0.370230578457493 
1463	 0.370205685862264 
1464	 0.370178406849065 
1465	 0.370143557868975 
1466	 0.370071878593008 
1467	 0.370039574668021 
1468	 0.370002492707026 
1469	 0.370010351890729 
1470	 0.370058612158072 
1471	 0.370123803139675 
1472	 0.370208367268125 
1473	 0.370295644563589 
1474	 0.370353234960663 
1475	 0.37041068479938 
1476	 0.370447699193694 
1477	 0.370491638047471 
1478	 0.370558542949552 
1479	 0.370620424799344 
1480	 0.370719319568135 
1481	 0.370821733119484 
1482	 0.370908764803719 
1483	 0.370998691311955 
1484	 0.371081860515323 
1485	 0.371143074852463 
1486	 0.371228757446677 
1487	 0.37133283894503 
1488	 0.371421860027035 
1489	 0.371514570065239 
1490	 0.371595435623162 
1491	 0.371670245592083 
1492	 0.371726504638842 
1493	 0.371767832520018 
1494	 0.371815951588643 
1495	 0.371841251857014 
1496	 0.371890386585756 
1497	 0.371968175954489 
1498	 0.372021529387297 
1499	 0.372075791379481 
1500	 0.372118214067836 
1501	 0.372124806839077 
1502	 0.372157652016331 
1503	 0.37219593288574 
1504	 0.372243988100754 
1505	 0.372311863848141 
1506	 0.372389542530468 
1507	 0.372465743445712 
1508	 0.372531580747443 
1509	 0.372568975735151 
1510	 0.372598316195014 
1511	 0.372599072005167 
1512	 0.372593129377611 
1513	 0.372608140979593 
1514	 0.372632696039525 
1515	 0.372684969781903 
1516	 0.372743811739798 
1517	 0.372789410893985 
1518	 0.372837328538106 
1519	 0.372875352555893 
1520	 0.372901058547289 
1521	 0.372932658846613 
1522	 0.37296807524732 
1523	 0.37299149555119 
1524	 0.372999574079057 
1525	 0.373027722701553 
1526	 0.373057795867869 
1527	 0.373089671267607 
1528	 0.373143289181682 
1529	 0.373176188505761 
1530	 0.373190127612464 
1531	 0.373218735871015 
1532	 0.373256073109786 
1533	 0.373276726443269 
1534	 0.373290541684014 
1535	 0.373313024741745 
1536	 0.373319557794338 
1537	 0.373345173177058 
1538	 0.373401294628266 
1539	 0.373430585713138 
1540	 0.373446811889668 
1541	 0.373471936267333 
1542	 0.373494670880957 
1543	 0.373509264614665 
1544	 0.373535396257485 
1545	 0.373545876550513 
1546	 0.373535493461684 
1547	 0.373528698431959 
1548	 0.373509568650469 
1549	 0.373477837790244 
1550	 0.373473742172472 
1551	 0.373486242906255 
1552	 0.373504523511325 
1553	 0.373534620828571 
1554	 0.373567848873064 
1555	 0.373573657324807 
1556	 0.373561778997867 
1557	 0.373567996254225 
1558	 0.373577965122976 
1559	 0.37357326711224 
1560	 0.373585310707376 
1561	 0.373635480153901 
1562	 0.373634954389409 
1563	 0.373600987576304 
1564	 0.373604156595385 
1565	 0.373608253145593 
1566	 0.373611214028341 
1567	 0.37363275778831 
1568	 0.373635986908108 
1569	 0.373614210094659 
1570	 0.373618261356997 
1571	 0.373644109679727 
1572	 0.373650201328826 
1573	 0.373660739560576 
1574	 0.373656309283603 
1575	 0.373625412261067 
1576	 0.373615025018359 
1577	 0.373611060333923 
1578	 0.373600726400514 
1579	 0.373591969339435 
1580	 0.373590434162021 
1581	 0.373580997129713 
1582	 0.373585945653819 
1583	 0.373618436979024 
1584	 0.373626120288468 
1585	 0.373624601184617 
1586	 0.373626954389739 
1587	 0.373619109056053 
1588	 0.373610859063948 
1589	 0.37361565248888 
1590	 0.373603022158451 
1591	 0.373566184746594 
1592	 0.373546523807422 
1593	 0.373508872603043 
1594	 0.373506017047402 
1595	 0.373538771597576 
1596	 0.373562757676337 
1597	 0.373616655159365 
1598	 0.37364339551491 
1599	 0.373663691425882 
1600	 0.373661738706921 
1601	 0.37362139548773 
1602	 0.373604498624208 
1603	 0.373573958094222 
1604	 0.373558447209593 
1605	 0.373557737417347 
1606	 0.37357211325649 
1607	 0.373606634074714 
1608	 0.373637494565471 
1609	 0.373675212520087 
1610	 0.373675848609869 
1611	 0.373642614744247 
1612	 0.37361682549618 
1613	 0.373559313625897 
1614	 0.373516864404542 
1615	 0.37349457241857 
1616	 0.373455321720276 
1617	 0.37343771878686 
1618	 0.37343511856616 
1619	 0.373417670020137 
1620	 0.373398372108778 
1621	 0.373392231187415 
1622	 0.373408879134307 
1623	 0.373378958651084 
1624	 0.373338596065846 
1625	 0.373286437763073 
1626	 0.373188185081665 
1627	 0.373145640634503 
1628	 0.373115357459249 
1629	 0.373112298231625 
1630	 0.373141012521622 
1631	 0.373162927245874 
1632	 0.37321224393358 
1633	 0.373225917042446 
1634	 0.373232346464002 
1635	 0.373225586702217 
1636	 0.373198480132585 
1637	 0.373173732350388 
1638	 0.373137738879849 
1639	 0.373112895500402 
1640	 0.373074659417351 
1641	 0.37307212268316 
1642	 0.373097963240792 
1643	 0.373105717182795 
1644	 0.37313185469103 
1645	 0.373135620930813 
1646	 0.373115686248471 
1647	 0.373112021459149 
1648	 0.373117174667725 
1649	 0.37310623457732 
1650	 0.373087290791229 
1651	 0.373075558915607 
1652	 0.373052258996257 
1653	 0.373044074769224 
1654	 0.37306233980974 
1655	 0.373045601746114 
1656	 0.373017048439518 
1657	 0.37298494934834 
1658	 0.372925845349885 
1659	 0.372889132241668 
1660	 0.372871203238241 
1661	 0.372828646137032 
1662	 0.372776867895229 
1663	 0.372730442066218 
1664	 0.372661084035977 
1665	 0.372623393474339 
1666	 0.37260883818231 
1667	 0.372588596748922 
1668	 0.372584448106743 
1669	 0.372564972426612 
1670	 0.372543899777484 
1671	 0.372512534613 
1672	 0.372460250006269 
1673	 0.372432233446731 
1674	 0.372404410523452 
1675	 0.372389327705552 
1676	 0.372400757480739 
1677	 0.372394651895796 
1678	 0.372384187665732 
1679	 0.372375954130972 
1680	 0.372368555059752 
1681	 0.3723520505354 
1682	 0.372328107144714 
1683	 0.372313481366787 
1684	 0.372297481089556 
1685	 0.372281317504606 
1686	 0.372271469463125 
1687	 0.37225940361724 
1688	 0.372240006323085 
1689	 0.372225593597563 
1690	 0.372226847676547 
1691	 0.372209468246695 
1692	 0.372171782446852 
1693	 0.372155446136012 
1694	 0.37213866087547 
1695	 0.372126967049752 
1696	 0.372133904209511 
1697	 0.372132871752401 
1698	 0.372122477137435 
1699	 0.372124387175487 
1700	 0.372155631143656 
1701	 0.372136427301123 
1702	 0.372086578416173 
1703	 0.372056378346083 
1704	 0.372005525514306 
1705	 0.371962317989159 
1706	 0.371950953407308 
1707	 0.371904443405342 
1708	 0.371814645002201 
1709	 0.371761497922301 
1710	 0.371708178103889 
1711	 0.371679270672809 
1712	 0.371694641259824 
1713	 0.371666098060953 
1714	 0.371631010158669 
1715	 0.371584703925747 
1716	 0.371495347793294 
1717	 0.371452384730841 
1718	 0.371419892287558 
1719	 0.371412513376018 
1720	 0.3714570213667 
1721	 0.371445665089845 
1722	 0.371431239584393 
1723	 0.371402225645444 
1724	 0.371334868885337 
1725	 0.371279123090156 
1726	 0.37123161009876 
1727	 0.371160211572184 
1728	 0.371060167992833 
1729	 0.370995229751223 
1730	 0.370932076252021 
1731	 0.370882595447456 
1732	 0.370859931946557 
1733	 0.370816627203462 
1734	 0.370779961648161 
1735	 0.370714529591527 
1736	 0.37063468152272 
1737	 0.370551065930352 
1738	 0.370434424296385 
1739	 0.370352382743508 
1740	 0.370280127471189 
1741	 0.370215629857329 
1742	 0.370167613657002 
1743	 0.370122000698962 
1744	 0.370102916157864 
1745	 0.37002065955336 
1746	 0.369912215409356 
1747	 0.369772882106434 
1748	 0.369653001661494 
1749	 0.369591876880033 
1750	 0.369573468512197 
1751	 0.369537794231 
1752	 0.369462695337286 
1753	 0.369370426895092 
1754	 0.369236967889432 
1755	 0.36912549857904 
1756	 0.369041986421633 
1757	 0.368929025614558 
1758	 0.368830046952992 
1759	 0.368751055215766 
1760	 0.368695236911184 
1761	 0.368697211800026 
1762	 0.368704144627205 
1763	 0.368677867467125 
1764	 0.368614697298296 
1765	 0.368504678714917 
1766	 0.368370592179431 
1767	 0.368230746070944 
1768	 0.36812746234988 
1769	 0.368066546300781 
1770	 0.368023602258869 
1771	 0.367990688539719 
1772	 0.367946332654564 
1773	 0.367878883027824 
1774	 0.367820158146208 
1775	 0.367811255335729 
1776	 0.367776956140069 
1777	 0.367739862042339 
1778	 0.367700816135808 
1779	 0.36758587879962 
1780	 0.367509721890242 
1781	 0.367441430315929 
1782	 0.367362441835503 
1783	 0.367363011704048 
1784	 0.367346504700083 
1785	 0.367365494019214 
1786	 0.367346677559251 
1787	 0.367292984574915 
1788	 0.36725145307551 
1789	 0.367197168927296 
1790	 0.367158125638516 
1791	 0.367133370012506 
1792	 0.367096271408101 
1793	 0.367045827593162 
1794	 0.367022102902535 
1795	 0.367009888671838 
1796	 0.367005544363172 
1797	 0.367026380147843 
1798	 0.367016442104208 
1799	 0.367012963854457 
1800	 0.366975712174117 
1801	 0.366796172126386 
1802	 0.36699147242813 
1803	 0.367259293652408 
1804	 0.367546238269498 
1805	 0.367818887357532 
1806	 0.368086130459128 
1807	 0.368318774562139 
1808	 0.368507349743515 
1809	 0.368651982152049 
1810	 0.368788169542645 
1811	 0.368896363699525 
1812	 0.368997267974384 
1813	 0.369049145744043 
1814	 0.369045893736533 
1815	 0.369007837831965 
1816	 0.368938877684497 
1817	 0.368903161685642 
1818	 0.368863506188316 
1819	 0.368852616587723 
1820	 0.368867622199328 
1821	 0.368868740581028 
1822	 0.368895630823199 
1823	 0.368923088391608 
1824	 0.368924977184623 
1825	 0.368923292328208 
1826	 0.368917056353852 
1827	 0.368896813648709 
1828	 0.368849706362447 
1829	 0.368798729374351 
1830	 0.368717431154176 
1831	 0.368591389681508 
1832	 0.368468355603014 
1833	 0.368361718624573 
1834	 0.368260233143169 
1835	 0.368197081231206 
1836	 0.368135341543654 
1837	 0.368080869397198 
1838	 0.368058953526072 
1839	 0.368034193340896 
1840	 0.368026911847855 
1841	 0.368004896077907 
1842	 0.367968760352163 
1843	 0.367938713667433 
1844	 0.367895027358819 
1845	 0.367843969808053 
1846	 0.367805463539081 
1847	 0.367778638576607 
1848	 0.36776095432775 
1849	 0.367736799515139 
1850	 0.367730877768776 
1851	 0.367747040351489 
1852	 0.367751254388449 
1853	 0.36774882351361 
1854	 0.367778431271272 
1855	 0.367808476255992 
1856	 0.367820658272947 
1857	 0.367805390259637 
1858	 0.367754085450577 
1859	 0.367667606043514 
1860	 0.367575604067593 
1861	 0.367455512995696 
1862	 0.367331289543848 
1863	 0.367224233816684 
1864	 0.367114704358198 
1865	 0.366983202929448 
1866	 0.36685741927774 
1867	 0.36669788413746 
1868	 0.366509673548184 
1869	 0.366316804183782 
1870	 0.366102003298077 
1871	 0.365892347320064 
1872	 0.365686899779512 
1873	 0.365472661828298 
1874	 0.365234514458525 
1875	 0.364990781598026 
1876	 0.364707702070443 
1877	 0.364404058755172 
1878	 0.364055911834365 
1879	 0.363646378100114 
1880	 0.363172072887777 
1881	 0.362636652194273 
1882	 0.362040984184692 
1883	 0.361391393313177 
1884	 0.360660024630894 
1885	 0.359879958536742 
1886	 0.358996835652636 
1887	 0.358051738870803 
1888	 0.357087895166778 
1889	 0.356037882498695 
1890	 0.354971749750144 
1891	 0.353893486916095 
1892	 0.352760680899853 
1893	 0.351621626788158 
1894	 0.350472690191275 
1895	 0.349316675791089 
1896	 0.348128336869446 
1897	 0.346989549314322 
1898	 0.345844618010909 
1899	 0.344739393205447 
1900	 0.343673399329608 
1901	 0.342639942411476 
1902	 0.341690365539663 
1903	 0.340817764463447 
1904	 0.339994293495866 
1905	 0.339235894153182 
1906	 0.338539943681171 
1907	 0.337886183249567 
1908	 0.337273479601129 
1909	 0.336690995703929 
1910	 0.336132230367705 
1911	 0.335570105021825 
1912	 0.335031125646302 
1913	 0.334540558245627 
1914	 0.334084039125782 
1915	 0.333648384510725 
1916	 0.333263747758618 
1917	 0.332878519597675 
1918	 0.332514863822005 
1919	 0.332164004407826 
1920	 0.33182409463956 
1921	 0.331547786115841 
1922	 0.331311015209792 
1923	 0.331083911656951 
1924	 0.330882848850859 
1925	 0.330719077037651 
1926	 0.330579891731503 
1927	 0.330448395752786 
1928	 0.330362293142777 
1929	 0.33032201727163 
1930	 0.330291265135579 
1931	 0.330276040577406 
1932	 0.330247301751749 
1933	 0.330224892537568 
1934	 0.330221713246751 
1935	 0.330227026890402 
1936	 0.330234742864182 
1937	 0.330269128259243 
1938	 0.330314647320903 
1939	 0.330385961684362 
1940	 0.330481675020872 
1941	 0.330599849666197 
1942	 0.330728684210109 
1943	 0.33084445703699 
1944	 0.330962108387301 
1945	 0.331073618544395 
1946	 0.331196008911312 
1947	 0.331303374306638 
1948	 0.331463481954204 
1949	 0.331661449723711 
1950	 0.331845755509448 
1951	 0.332057105011667 
1952	 0.33226896195028 
1953	 0.332440930595834 
1954	 0.332635179043189 
1955	 0.332859058378986 
1956	 0.333078401382589 
1957	 0.333294095875006 
1958	 0.333514456396289 
1959	 0.333740117752008 
1960	 0.333958571803157 
1961	 0.334188178919236 
1962	 0.334433506315986 
1963	 0.334679039674988 
1964	 0.334923519526791 
1965	 0.335168128240309 
1966	 0.335430709569613 
1967	 0.335711985530737 
1968	 0.335989233289036 
1969	 0.33627801131595 
1970	 0.336555714526035 
1971	 0.336830491259576 
1972	 0.337105018157507 
1973	 0.337376023883628 
1974	 0.337652440368725 
1975	 0.337923470101647 
1976	 0.338212728802893 
1977	 0.338504856076345 
1978	 0.338792249426453 
1979	 0.339073834917551 
1980	 0.339343167069881 
1981	 0.339616237997409 
1982	 0.339873461026785 
1983	 0.340146751824125 
1984	 0.340427264177513 
1985	 0.340710993131256 
1986	 0.341000282231511 
1987	 0.34129173047179 
1988	 0.341585391155033 
1989	 0.341895046013761 
1990	 0.342190215769012 
1991	 0.342465201432546 
1992	 0.342747413870043 
1993	 0.343024147171721 
1994	 0.343293163299181 
1995	 0.343545430594607 
1996	 0.343826217836313 
1997	 0.344108368942272 
1998	 0.344403749419186 
1999	 0.344741687606635 
2000	 0.345053120371279 
2001	 0.345372401571389 
2002	 0.345647680792639 
2003	 0.34593763966968 
2004	 0.346208705682014 
2005	 0.346473804570324 
2006	 0.346728394385688 
2007	 0.346986341713663 
2008	 0.347231057394148 
2009	 0.347485389975694 
2010	 0.347763917159442 
2011	 0.348002403779282 
2012	 0.348208849889505 
2013	 0.348433151868012 
2014	 0.348636239270148 
2015	 0.348853129233816 
2016	 0.349082151679226 
2017	 0.34932259293232 
2018	 0.349583725934308 
2019	 0.349864313305203 
2020	 0.350129861367626 
2021	 0.350425320563822 
2022	 0.350690722228467 
2023	 0.350914147462915 
2024	 0.351169704917576 
2025	 0.351441814181531 
2026	 0.351701545100061 
2027	 0.351968871068105 
2028	 0.352238264477108 
2029	 0.35248236762039 
2030	 0.352707202579588 
2031	 0.352936958350044 
2032	 0.353152440429435 
2033	 0.353371190408826 
2034	 0.353598746437357 
2035	 0.353806053148132 
2036	 0.354011558228421 
2037	 0.354200633951041 
2038	 0.35436463517265 
2039	 0.354530231482613 
2040	 0.354691985213379 
2041	 0.354830495237926 
2042	 0.354993844595475 
2043	 0.35515442671182 
2044	 0.355309998148656 
2045	 0.355466710830459 
2046	 0.355624643189574 
2047	 0.355773067488545 
2048	 0.355933340508678 
2049	 0.356124225543609 
2050	 0.356270655604149 
2051	 0.35639988798142 
2052	 0.356520498182196 
2053	 0.356594486101336 
2054	 0.356696489766987 
2055	 0.356788676817278 
2056	 0.356926889465981 
2057	 0.357049758271597 
2058	 0.357192225999475 
2059	 0.357305567905318 
2060	 0.357405612664393 
2061	 0.357513995468197 
2062	 0.357618008717442 
2063	 0.357713786861272 
2064	 0.35781166099431 
2065	 0.357904462576963 
2066	 0.357991718639658 
2067	 0.358065045752537 
2068	 0.358118836664895 
2069	 0.358189767539788 
2070	 0.358270018530112 
2071	 0.35833621896795 
2072	 0.358432727667555 
2073	 0.358569632882539 
2074	 0.358674992282516 
2075	 0.358772924128407 
2076	 0.358875425819654 
2077	 0.358969001659082 
2078	 0.359072973657057 
2079	 0.359195451613187 
2080	 0.359297628390343 
2081	 0.359390986367825 
2082	 0.359488569578443 
2083	 0.359566594522613 
2084	 0.359655205216795 
2085	 0.359770267898283 
2086	 0.359911535764688 
2087	 0.360029087528892 
2088	 0.360165985018939 
2089	 0.360274742877043 
2090	 0.360364474660334 
2091	 0.360445077667876 
2092	 0.360507066318808 
2093	 0.360577402996078 
2094	 0.360617647064543 
2095	 0.360694744139137 
2096	 0.360804986455832 
2097	 0.36090342924169 
2098	 0.361009419619708 
2099	 0.36112745135995 
2100	 0.361226103418261 
2101	 0.361313666006174 
2102	 0.361396483939209 
2103	 0.361469573786387 
2104	 0.361549721476937 
2105	 0.361613392926398 
2106	 0.361704342361069 
2107	 0.36180975797977 
2108	 0.361920261261196 
2109	 0.362038778258961 
2110	 0.362171341843381 
2111	 0.362315411812216 
2112	 0.362465514988476 
2113	 0.362628029334985 
2114	 0.362810768172759 
2115	 0.362964372877912 
2116	 0.363114575284717 
2117	 0.363254834801001 
2118	 0.363376228256504 
2119	 0.363508019871999 
2120	 0.363648266114517 
2121	 0.363768177675607 
2122	 0.363879775211591 
2123	 0.363985659075547 
2124	 0.36408532782726 
2125	 0.364167587383336 
2126	 0.364249779342449 
2127	 0.364307558717728 
2128	 0.36431726742335 
2129	 0.364351602839109 
2130	 0.364412612359653 
2131	 0.364425787807849 
2132	 0.364438668267303 
2133	 0.364463944736152 
2134	 0.36445260433176 
2135	 0.364406945607336 
2136	 0.364356787270904 
2137	 0.364300926514182 
2138	 0.364215082201699 
2139	 0.36410208784706 
2140	 0.363979902756738 
2141	 0.363832981927016 
2142	 0.363684066552537 
2143	 0.363555542642962 
2144	 0.363362674390213 
2145	 0.363120721393262 
2146	 0.362881673637643 
2147	 0.362584379987478 
2148	 0.36229920416966 
2149	 0.362037506789415 
2150	 0.361799723242778 
2151	 0.361548966791254 
2152	 0.361316763856141 
2153	 0.36105152838412 
2154	 0.360787949239744 
2155	 0.360483319786293 
2156	 0.360166442556383 
2157	 0.359798712177632 
2158	 0.359379384038461 
2159	 0.358954127614591 
2160	 0.358478558700869 
2161	 0.358012560926366 
2162	 0.357529799110805 
2163	 0.357060128481665 
2164	 0.356583274440913 
2165	 0.356119885007878 
2166	 0.355665010040499 
2167	 0.355234780868596 
2168	 0.3547680013855 
2169	 0.354302268169979 
2170	 0.353810989417922 
2171	 0.35329345177575 
2172	 0.352773062438774 
2173	 0.352257897461374 
2174	 0.351697679498685 
2175	 0.351106415522511 
2176	 0.350505430370219 
2177	 0.349869485107286 
2178	 0.349227117376194 
2179	 0.348597596327744 
2180	 0.347918717950846 
2181	 0.347201161262553 
2182	 0.346468528291808 
2183	 0.345694141501543 
2184	 0.344904480852576 
2185	 0.344127321698929 
2186	 0.343327556682016 
2187	 0.342572205835083 
2188	 0.341821386297352 
2189	 0.3411119371333 
2190	 0.340419104022058 
2191	 0.339781695038749 
2192	 0.339163680767319 
2193	 0.338622613132424 
2194	 0.33816413003965 
2195	 0.337712208661887 
2196	 0.337303348786419 
2197	 0.336933508494739 
2198	 0.336567425561692 
2199	 0.336278868334044 
2200	 0.336084254106331 
2201	 0.335894351620588 
2202	 0.335732468916359 
2203	 0.335615297730467 
2204	 0.335560414708534 
2205	 0.335519040254275 
2206	 0.335588200373502 
2207	 0.335750872366623 
2208	 0.335961582762663 
2209	 0.336247750527497 
2210	 0.33657500208259 
2211	 0.336992550201714 
2212	 0.337395824938128 
2213	 0.337850256479196 
2214	 0.338287827290604 
2215	 0.338754065056589 
2216	 0.339176013655527 
2217	 0.339594968630137 
2218	 0.339981902737734 
2219	 0.3403311175207 
2220	 0.340667140589752 
2221	 0.340973354117574 
2222	 0.341290057306403 
2223	 0.341574011998529 
2224	 0.341803421616042 
2225	 0.342013104937108 
2226	 0.342188914288059 
2227	 0.342341530199224 
2228	 0.342463760732868 
2229	 0.342568647289424 
2230	 0.342642322547277 
2231	 0.342703497027504 
2232	 0.342740564487511 
2233	 0.342772512635444 
2234	 0.342802928210679 
2235	 0.342797687146879 
2236	 0.342750836883578 
2237	 0.342718432933928 
2238	 0.342660978423975 
2239	 0.342612597066431 
2240	 0.342597415501514 
2241	 0.342546979031415 
2242	 0.342478724109064 
2243	 0.342392531594817 
2244	 0.342281732208285 
2245	 0.342157437395247 
2246	 0.342032841074009 
2247	 0.34190718159581 
2248	 0.341756538288647 
2249	 0.341592131601469 
2250	 0.341423574207269 
2251	 0.341225715256208 
2252	 0.341050003737498 
2253	 0.340867723184381 
2254	 0.340729447558341 
2255	 0.340593834246378 
2256	 0.340505335605249 
2257	 0.340479872335786 
2258	 0.340435620795238 
2259	 0.340404008811559 
2260	 0.340390330373649 
2261	 0.340409107611507 
2262	 0.340386786330059 
2263	 0.340353042253236 
2264	 0.340333091617888 
2265	 0.340263511317175 
2266	 0.340252673390996 
2267	 0.340289449819508 
2268	 0.340337527320311 
2269	 0.340417240451983 
2270	 0.340499505669394 
2271	 0.340600995750425 
2272	 0.340719616299485 
2273	 0.340833827354327 
2274	 0.34091529205886 
2275	 0.340990682139335 
2276	 0.34103696351227 
2277	 0.341123153521273 
2278	 0.341205676551867 
2279	 0.341316105717418 
2280	 0.341461134239132 
2281	 0.34158192206738 
2282	 0.341707001613316 
2283	 0.341835866725166 
2284	 0.341959075701996 
2285	 0.342100291549075 
2286	 0.342261912995967 
2287	 0.342398450476036 
2288	 0.342548147489625 
2289	 0.342667185005651 
2290	 0.342758876175167 
2291	 0.342843519367899 
2292	 0.342919180994575 
2293	 0.342967730096011 
2294	 0.342988044727122 
2295	 0.343011696022015 
2296	 0.34301090865893 
2297	 0.343000374474575 
2298	 0.343060714189023 
2299	 0.343124530876773 
2300	 0.343199920229744 
2301	 0.343300857859261 
2302	 0.343295987284007 
2303	 0.343281504380284 
2304	 0.343278821679652 
2305	 0.343218591485729 
2306	 0.343173599246152 
2307	 0.343140711364205 
2308	 0.343083606359276 
2309	 0.342993417305658 
2310	 0.34293051002953 
2311	 0.342868629522086 
2312	 0.342810679063159 
2313	 0.342771270619117 
2314	 0.342713382794478 
2315	 0.342641987512292 
2316	 0.342586250871699 
2317	 0.342548087087721 
2318	 0.342466631397542 
2319	 0.342350641923083 
2320	 0.342285037137724 
2321	 0.342214652756158 
2322	 0.34213410181709 
2323	 0.342131496261403 
2324	 0.342048009989797 
2325	 0.341873110276856 
2326	 0.341744122333938 
2327	 0.341607181490663 
2328	 0.341463527269794 
2329	 0.341360833563319 
2330	 0.341270547893109 
2331	 0.341202859017955 
2332	 0.341141772646792 
2333	 0.341082722633748 
2334	 0.341072832738521 
2335	 0.341077337278972 
2336	 0.34106262217995 
2337	 0.340996887722675 
2338	 0.340893587733377 
2339	 0.340756165313473 
2340	 0.340601902737597 
2341	 0.340513040970995 
2342	 0.3404164821573 
2343	 0.34027963611111 
2344	 0.340157989939408 
2345	 0.340032791837563 
2346	 0.339875502575447 
2347	 0.339741864246255 
2348	 0.339636137941394 
2349	 0.339520632567555 
2350	 0.339404963748148 
2351	 0.33928573768296 
2352	 0.339151396342084 
2353	 0.339045344882654 
2354	 0.338952978825359 
2355	 0.338842354851486 
2356	 0.338765802664305 
2357	 0.338649695737426 
2358	 0.33844589104973 
2359	 0.338355839617546 
2360	 0.338348363923866 
2361	 0.3382837505293 
2362	 0.338230333569618 
2363	 0.338184978103859 
2364	 0.338101730884003 
2365	 0.338034375971693 
2366	 0.338079672593815 
2367	 0.338009937824349 
2368	 0.337847674000003 
2369	 0.337688345452353 
2370	 0.337489658069976 
2371	 0.337243880208747 
2372	 0.337040883220375 
2373	 0.336807793809118 
2374	 0.336543147102477 
2375	 0.33633862232985 
2376	 0.336193201998497 
2377	 0.336067100959452 
2378	 0.335969623154818 
2379	 0.335816412413432 
2380	 0.335541677612331 
2381	 0.335326166268092 
2382	 0.335082921171213 
2383	 0.334796920693397 
2384	 0.334574278996091 
2385	 0.334280310178413 
2386	 0.333996683115611 
2387	 0.333757259093904 
2388	 0.333495700705776 
2389	 0.333266061381851 
2390	 0.333058492135568 
2391	 0.332814029552379 
2392	 0.33257973067697 
2393	 0.332366017721571 
2394	 0.332123898151146 
2395	 0.331896806471355 
2396	 0.331723338299807 
2397	 0.331489334335279 
2398	 0.331117128019822 
2399	 0.330809641249656 
2400	 0.330511129168009 
2401	 0.330078587528848 
2402	 0.329738979596173 
2403	 0.329503403497145 
2404	 0.329247922004814 
2405	 0.329028297718515 
2406	 0.328802981196882 
2407	 0.328485935400222 
2408	 0.328021285000511 
2409	 0.327577711676223 
2410	 0.327239728879983 
2411	 0.326799677110403 
2412	 0.326425396016924 
2413	 0.326063632520121 
2414	 0.325574384241738 
2415	 0.325229219305796 
2416	 0.324874036920141 
2417	 0.324504858668835 
2418	 0.324160797335275 
2419	 0.323915181419616 
2420	 0.323570659862495 
2421	 0.323217309661979 
2422	 0.322837406943678 
2423	 0.322355823009797 
2424	 0.321924328994599 
2425	 0.321526336074073 
2426	 0.321058978327607 
2427	 0.32058061647192 
2428	 0.320082341977819 
2429	 0.319466014101414 
2430	 0.319019411768992 
2431	 0.31863571267963 
2432	 0.3183202952407 
2433	 0.318175778588763 
2434	 0.317847108233111 
2435	 0.317508914745788 
2436	 0.317123233952724 
2437	 0.316547845283674 
2438	 0.316230363481474 
2439	 0.316028316925641 
2440	 0.315759566430913 
2441	 0.315598359786568 
2442	 0.315355184490933 
2443	 0.31510517384664 
2444	 0.314822287878937 
2445	 0.314539475168869 
2446	 0.31415421130626 
2447	 0.313529263702248 
2448	 0.313131172924927 
2449	 0.312860994523252 
2450	 0.312519680501945 
2451	 0.312249454419148 
2452	 0.311981326209941 
2453	 0.311642412059525 
2454	 0.311303031296915 
2455	 0.311117726388676 
2456	 0.310793993418865 
2457	 0.310223364567128 
2458	 0.309909533295435 
2459	 0.30967595253714 
2460	 0.309484101255778 
2461	 0.30949750920065 
2462	 0.30927855620218 
2463	 0.308998395777397 
2464	 0.308703078982085 
2465	 0.308265071492036 
2466	 0.307960672373388 
2467	 0.307712593489898 
2468	 0.30742392170493 
2469	 0.307123754247228 
2470	 0.306801646288344 
2471	 0.306567732412006 
2472	 0.306305826576833 
2473	 0.306222321741993 
2474	 0.306120646671665 
2475	 0.305918197882422 
2476	 0.305798238829934 
2477	 0.305390597486409 
2478	 0.304997350860484 
2479	 0.304796716194502 
2480	 0.304443148793767 
2481	 0.304250218195656 
2482	 0.304022113623022 
2483	 0.303627417666132 
2484	 0.303433632802867 
2485	 0.303089233091929 
2486	 0.302762964393891 
2487	 0.302650759990738 
2488	 0.30234063783132 
2489	 0.302134643593853 
2490	 0.302051422538515 
2491	 0.301796837361857 
2492	 0.30151313836119 
2493	 0.301116508122363 
2494	 0.300734923186458 
2495	 0.300448203315224 
2496	 0.300127807283041 
2497	 0.299925657463679 
2498	 0.29959991234124 
2499	 0.299171035703204 
2500	 0.299040904835409 
