Wavelength	mm1800001.asd
350	 5.61174474658632E-02 
351	 6.09248964105693E-02 
352	 5.66783830660429E-02 
353	 5.11176243115871E-02 
354	 5.69743578861713E-02 
355	 5.44752131056797E-02 
356	 5.07301692255118E-02 
357	 5.45151142938307E-02 
358	 5.37236660572613E-02 
359	 5.17410806131271E-02 
360	 5.14556916703993E-02 
361	 5.44309108938759E-02 
362	 5.53063672463271E-02 
363	 0.055228853730186 
364	 5.50180045771252E-02 
365	 5.34399222315246E-02 
366	 5.41449969945169E-02 
367	 5.44995518159246E-02 
368	 5.25613232505458E-02 
369	 5.64178507857443E-02 
370	 5.81759858950877E-02 
371	 5.69333571872183E-02 
372	 5.68552284398345E-02 
373	 5.84520882853684E-02 
374	 5.96076044787438E-02 
375	 0.05994295175665 
376	 6.29911880123717E-02 
377	 6.12638686157979E-02 
378	 5.95311150898524E-02 
379	 6.31647816474949E-02 
380	 6.34767472166951E-02 
381	 6.42868042758603E-02 
382	 6.69564597357662E-02 
383	 7.03653644681198E-02 
384	 7.03688151912754E-02 
385	 6.96867556921988E-02 
386	 7.05080523926315E-02 
387	 7.22231707491869E-02 
388	 7.19749831007839E-02 
389	 7.18685097609492E-02 
390	 7.44686410355336E-02 
391	 0.076358896711078 
392	 7.79615777299487E-02 
393	 7.94932161923707E-02 
394	 8.08334286580007E-02 
395	 8.20145998639816E-02 
396	 8.31564259485122E-02 
397	 8.45029655977362E-02 
398	 8.66313631493468E-02 
399	 8.88462435565737E-02 
400	 9.04657042084712E-02 
401	 9.10901955673354E-02 
402	 9.15660529640479E-02 
403	 9.20272447920611E-02 
404	 9.29903032296105E-02 
405	 9.53075619355373E-02 
406	 9.60447844733468E-02 
407	 9.66080568407206E-02 
408	 9.81266663317492E-02 
409	 9.87347006409392E-02 
410	 9.91174724762818E-02 
411	 9.99749341357263E-02 
412	 0.101701347176714 
413	 0.102568826936228 
414	 0.103202470523393 
415	 0.103769926722268 
416	 0.103554461987042 
417	 0.103961917035609 
418	 0.104531465007027 
419	 0.104644438994127 
420	 0.104832351901655 
421	 0.10467056659006 
422	 0.104665372810969 
423	 0.105700076929062 
424	 0.105871320790424 
425	 0.105791036466557 
426	 0.105813538535782 
427	 0.105141647171056 
428	 0.104914706016591 
429	 0.104981386932156 
430	 0.104867160979245 
431	 0.104755378828094 
432	 0.104789285790827 
433	 0.105059649506511 
434	 0.105595736500009 
435	 0.106131897565321 
436	 0.106322667707437 
437	 0.106194976297495 
438	 0.10666954856332 
439	 0.107768549210071 
440	 0.108832308086718 
441	 0.10906277869625 
442	 0.109626325146705 
443	 0.11045842214041 
444	 0.111249521082454 
445	 0.111499098277108 
446	 0.112209085866642 
447	 0.113126969068898 
448	 0.113790301254617 
449	 0.114520584581264 
450	 0.115333707375858 
451	 0.116179601877548 
452	 0.116957373573959 
453	 0.117497437297512 
454	 0.117919638181856 
455	 0.118380328484574 
456	 0.118998695456931 
457	 0.119574725374823 
458	 0.120067473138075 
459	 0.120522680759659 
460	 0.121042391249037 
461	 0.121465255155523 
462	 0.12180506764716 
463	 0.122354992126612 
464	 0.122666289815841 
465	 0.12294031724725 
466	 0.123392141435583 
467	 0.123473913107056 
468	 0.123979733769581 
469	 0.124664621416348 
470	 0.124531349987104 
471	 0.124913741936703 
472	 0.125345188034494 
473	 0.125422371741499 
474	 0.125611538395372 
475	 0.125752698207069 
476	 0.125956085396826 
477	 0.126380016197711 
478	 0.126712388611909 
479	 0.12699016190809 
480	 0.127257197293308 
481	 0.127516859209612 
482	 0.127942649056734 
483	 0.128326502356798 
484	 0.128504046230305 
485	 0.128954570184653 
486	 0.129298967297726 
487	 0.129480368578202 
488	 0.12971773347396 
489	 0.129848592181309 
490	 0.130125559424105 
491	 0.130634782163966 
492	 0.130903741307965 
493	 0.131111954716908 
494	 0.13134603422185 
495	 0.131654618878574 
496	 0.132111661302781 
497	 0.132275090022213 
498	 0.132179827226916 
499	 0.132626831998556 
500	 0.133081489660527 
501	 0.133379588992274 
502	 0.133518435082343 
503	 0.13369097123216 
504	 0.134014635606963 
505	 0.134366219618381 
506	 0.134435899822936 
507	 0.134621160257071 
508	 0.134981977195637 
509	 0.13541903511806 
510	 0.135611630366249 
511	 0.135697884860924 
512	 0.135839494286519 
513	 0.136173422789848 
514	 0.136472590833186 
515	 0.136675287965095 
516	 0.136848272912885 
517	 0.137256346775188 
518	 0.137478867461016 
519	 0.137629564571937 
520	 0.137931653155215 
521	 0.138186974360715 
522	 0.138415091631368 
523	 0.138654930705173 
524	 0.138950262096666 
525	 0.139108040802246 
526	 0.139256488261805 
527	 0.139514486346144 
528	 0.139741305266491 
529	 0.139906693762835 
530	 0.140093273768666 
531	 0.140433411520013 
532	 0.140710397865457 
533	 0.140925432630887 
534	 0.141126524591186 
535	 0.141394676364714 
536	 0.141612554216159 
537	 0.14182022532318 
538	 0.142103726946199 
539	 0.142411359663424 
540	 0.14266992004334 
541	 0.142877331797956 
542	 0.143124531132134 
543	 0.143344687266321 
544	 0.143614123442484 
545	 0.143977822240204 
546	 0.14421133324988 
547	 0.144419438831333 
548	 0.144655138785374 
549	 0.144920478230008 
550	 0.145274965567604 
551	 0.145619368929491 
552	 0.145886322124059 
553	 0.146164606679158 
554	 0.146418120738367 
555	 0.146701111031057 
556	 0.147095562995218 
557	 0.147491072339353 
558	 0.147870162946997 
559	 0.148262420100329 
560	 0.148772152140009 
561	 0.149157551271334 
562	 0.149471729210603 
563	 0.149854501099149 
564	 0.150297810912974 
565	 0.150672988119134 
566	 0.150960154217552 
567	 0.151268255207918 
568	 0.151650540712075 
569	 0.152143706088783 
570	 0.152751084725723 
571	 0.153422332608123 
572	 0.154050798166781 
573	 0.154597762505259 
574	 0.155081749783265 
575	 0.155537484359535 
576	 0.156072634252029 
577	 0.156705308144866 
578	 0.157236933573636 
579	 0.157790860734876 
580	 0.158364606723644 
581	 0.158924558885548 
582	 0.159589801719071 
583	 0.16025749233655 
584	 0.160881535365455 
585	 0.161524908369853 
586	 0.162219062294469 
587	 0.162945587775204 
588	 0.16367426440411 
589	 0.164410155363867 
590	 0.165165416556715 
591	 0.165904334538332 
592	 0.166555851740158 
593	 0.167194666510192 
594	 0.167804947401525 
595	 0.168355383145159 
596	 0.168809686322352 
597	 0.169290769781532 
598	 0.169849296382163 
599	 0.17048127690965 
600	 0.171083849488101 
601	 0.171676065268554 
602	 0.172265051324158 
603	 0.172808742751941 
604	 0.173347274246881 
605	 0.173913478369737 
606	 0.174524724923646 
607	 0.175134331040028 
608	 0.175721961588429 
609	 0.176292561636753 
610	 0.176877590405398 
611	 0.177428012429751 
612	 0.177869583162321 
613	 0.178195075285044 
614	 0.178636606279093 
615	 0.179051355945959 
616	 0.179401429962576 
617	 0.17972878044481 
618	 0.18011760308608 
619	 0.180472264698163 
620	 0.180749219524547 
621	 0.181071569622684 
622	 0.181417937572308 
623	 0.181743457289731 
624	 0.182007314499818 
625	 0.182289793878659 
626	 0.182575342640407 
627	 0.182855794314026 
628	 0.183142745484493 
629	 0.18341812197992 
630	 0.18368719707499 
631	 0.183953572980066 
632	 0.184178690071272 
633	 0.184434729631798 
634	 0.184735666222995 
635	 0.185039699291299 
636	 0.185240188665231 
637	 0.185444928499595 
638	 0.18572204472279 
639	 0.185942818320979 
640	 0.186211811958408 
641	 0.186498084537673 
642	 0.18672152296915 
643	 0.186938482541399 
644	 0.187176378241013 
645	 0.187449636857113 
646	 0.187761498817711 
647	 0.187972989242636 
648	 0.18815949888914 
649	 0.188428610604661 
650	 0.188730270186489 
651	 0.189006352243498 
652	 0.189256304323199 
653	 0.189527969451997 
654	 0.189773943394724 
655	 0.190026051332787 
656	 0.190313087762316 
657	 0.190622719551833 
658	 0.190939276508277 
659	 0.191221382251921 
660	 0.191437514538883 
661	 0.191715039248743 
662	 0.192020222695178 
663	 0.192310631585861 
664	 0.192552505963467 
665	 0.192879285645383 
666	 0.193239330704942 
667	 0.193549993731153 
668	 0.193841907688705 
669	 0.194168266341156 
670	 0.194514819254512 
671	 0.194815878080811 
672	 0.19514529674301 
673	 0.195496486923903 
674	 0.195839041736989 
675	 0.196110299070713 
676	 0.196434426419573 
677	 0.196799029223125 
678	 0.197140967400418 
679	 0.197510137777275 
680	 0.197872466771725 
681	 0.198231497837611 
682	 0.198648134921814 
683	 0.199013847255808 
684	 0.199359408961025 
685	 0.199742106411088 
686	 0.20017898109591 
687	 0.200588952519179 
688	 0.200954653348379 
689	 0.201308172472839 
690	 0.201669846000018 
691	 0.202038850567348 
692	 0.20242529253308 
693	 0.202876786008225 
694	 0.203301283931696 
695	 0.2037117816271 
696	 0.204140022045446 
697	 0.204482480910054 
698	 0.204846563864195 
699	 0.205261462306139 
700	 0.205663210660488 
701	 0.206133658456184 
702	 0.206571765015069 
703	 0.20691264680619 
704	 0.207293510190152 
705	 0.207704218177678 
706	 0.208121876375974 
707	 0.208518282216435 
708	 0.20891383868803 
709	 0.209313717902198 
710	 0.209725522263474 
711	 0.210166288220414 
712	 0.210521184548873 
713	 0.210826332988933 
714	 0.211163600982843 
715	 0.211612140709124 
716	 0.21200128033394 
717	 0.21231273420357 
718	 0.212648079089935 
719	 0.213068065488807 
720	 0.213455990161957 
721	 0.213747041072234 
722	 0.214022573695437 
723	 0.214339577429374 
724	 0.214670473619232 
725	 0.214970827373264 
726	 0.215302264333882 
727	 0.215570992179569 
728	 0.215779725197427 
729	 0.216025515371429 
730	 0.216333136014568 
731	 0.216605546377056 
732	 0.216785944700625 
733	 0.216957361137293 
734	 0.217195260873934 
735	 0.217424163716085 
736	 0.217539763171647 
737	 0.217706199345312 
738	 0.217872883278148 
739	 0.218012244428791 
740	 0.218138829451271 
741	 0.218244974957421 
742	 0.218331012433222 
743	 0.218409991469412 
744	 0.218534677148755 
745	 0.218576935921338 
746	 0.218579903988077 
747	 0.218646920331585 
748	 0.218663195969893 
749	 0.218652000094953 
750	 0.218653201754118 
751	 0.218708900839861 
752	 0.218673531174794 
753	 0.218583918834957 
754	 0.21850864622613 
755	 0.218469350440935 
756	 0.218460498458303 
757	 0.218410569247399 
758	 0.218249845654644 
759	 0.218180731345838 
760	 0.218100354094247 
761	 0.217964916230355 
762	 0.217840867294425 
763	 0.217762437867954 
764	 0.217654884362942 
765	 0.217474854859064 
766	 0.217349790160955 
767	 0.217231955065715 
768	 0.217085249126907 
769	 0.216892323859564 
770	 0.21672372985669 
771	 0.216584393627582 
772	 0.216443472299634 
773	 0.216238750459003 
774	 0.216009421810698 
775	 0.215828606926554 
776	 0.215714584338419 
777	 0.215519458918765 
778	 0.215316911787008 
779	 0.215142104411711 
780	 0.214995592026343 
781	 0.214776574317347 
782	 0.214547512598807 
783	 0.214346291846215 
784	 0.214169839193424 
785	 0.214011366607386 
786	 0.213831679896978 
787	 0.213610616155197 
788	 0.213374710180342 
789	 0.213221337382776 
790	 0.213088153595396 
791	 0.212874607086982 
792	 0.212643498786387 
793	 0.212430013427085 
794	 0.212258332527465 
795	 0.212130585126182 
796	 0.211893337739045 
797	 0.211674233516961 
798	 0.211533800412852 
799	 0.211325060090378 
800	 0.21116778234054 
801	 0.211022125927048 
802	 0.210825941576109 
803	 0.210618604898425 
804	 0.210469723519797 
805	 0.210353509308417 
806	 0.210190074356121 
807	 0.210011401913416 
808	 0.209837792248504 
809	 0.20967170966594 
810	 0.209493689943899 
811	 0.209352059753638 
812	 0.209214610469402 
813	 0.209065143097409 
814	 0.208989093497103 
815	 0.208867765795712 
816	 0.208720050188661 
817	 0.208604079996646 
818	 0.208441756280177 
819	 0.208325321251261 
820	 0.208231742683499 
821	 0.208052012429715 
822	 0.207976732177934 
823	 0.207876130402756 
824	 0.207701471906552 
825	 0.20761231034279 
826	 0.20758474142437 
827	 0.207498138477127 
828	 0.207302492952587 
829	 0.207265805368369 
830	 0.207183021920652 
831	 0.20703806780656 
832	 0.20691613382529 
833	 0.20689107445802 
834	 0.206844795712712 
835	 0.206763149246792 
836	 0.206735164182648 
837	 0.20666776452781 
838	 0.206621224765352 
839	 0.206601295303855 
840	 0.206480893467893 
841	 0.206376428851307 
842	 0.206311069879186 
843	 0.206278289492085 
844	 0.206269180217959 
845	 0.206269463369081 
846	 0.206237180605347 
847	 0.206152125311109 
848	 0.206174316108647 
849	 0.206198028484137 
850	 0.20617868531164 
851	 0.206141289053807 
852	 0.206094070820776 
853	 0.20606585441311 
854	 0.206078103879413 
855	 0.206136821045061 
856	 0.206152920963125 
857	 0.206143886020137 
858	 0.206146446336272 
859	 0.206174849198466 
860	 0.206196355073332 
861	 0.206193263617275 
862	 0.206169409882046 
863	 0.206182404577449 
864	 0.206231325467824 
865	 0.206294597131797 
866	 0.206344813675011 
867	 0.206408117511976 
868	 0.20647397186709 
869	 0.206506270155352 
870	 0.206463465714686 
871	 0.206530229672777 
872	 0.206641894984704 
873	 0.206743190506445 
874	 0.206865672586534 
875	 0.20700701797222 
876	 0.207101697483684 
877	 0.207116395436106 
878	 0.207127031509299 
879	 0.207237956901241 
880	 0.207376156610688 
881	 0.207445200565392 
882	 0.207550467063141 
883	 0.20769814065218 
884	 0.207831745373454 
885	 0.20789323127466 
886	 0.208031247179893 
887	 0.208200953955828 
888	 0.208339233920947 
889	 0.208403650282277 
890	 0.208573636390595 
891	 0.208707550281756 
892	 0.208785005404052 
893	 0.208978760031276 
894	 0.209212117911821 
895	 0.209413191743988 
896	 0.209543986963374 
897	 0.209625268640169 
898	 0.209867340670809 
899	 0.2101188110645 
900	 0.210238715802085 
901	 0.210380175892359 
902	 0.210571146654314 
903	 0.210782717620043 
904	 0.210974192074998 
905	 0.211163568711847 
906	 0.211360534853092 
907	 0.211586404875394 
908	 0.211861622122746 
909	 0.212198156311487 
910	 0.212414309382432 
911	 0.212524725202453 
912	 0.212685916607405 
913	 0.212985832402753 
914	 0.213310065754953 
915	 0.213584420683702 
916	 0.213800861639274 
917	 0.213996155486107 
918	 0.214244026435817 
919	 0.214526692999569 
920	 0.214735337919812 
921	 0.215070722441072 
922	 0.215429911909702 
923	 0.215725120615375 
924	 0.215976356553546 
925	 0.216302601582334 
926	 0.216597128652662 
927	 0.216816188208553 
928	 0.21711683837385 
929	 0.217523292757534 
930	 0.217906382854555 
931	 0.218201510735928 
932	 0.218591356944426 
933	 0.218944123335729 
934	 0.219260142960822 
935	 0.219580313679512 
936	 0.21995347230918 
937	 0.220201501203554 
938	 0.220476150855413 
939	 0.22093828248318 
940	 0.221388364103226 
941	 0.221750092414742 
942	 0.22208361425449 
943	 0.222487148177274 
944	 0.222958960805715 
945	 0.223300643966646 
946	 0.223620160133078 
947	 0.224079062245034 
948	 0.224389259642629 
949	 0.224761171209944 
950	 0.225182949408623 
951	 0.22556633073851 
952	 0.226099040475735 
953	 0.226583192584075 
954	 0.226977028960986 
955	 0.22736414993102 
956	 0.227895379983186 
957	 0.228366041967537 
958	 0.228698955801008 
959	 0.228977452722154 
960	 0.229569237759627 
961	 0.230157878599031 
962	 0.230614388877421 
963	 0.230986671204484 
964	 0.231342580028849 
965	 0.231825347035849 
966	 0.232386858417303 
967	 0.232878520778845 
968	 0.233416894342368 
969	 0.23388046862166 
970	 0.234284749742468 
971	 0.234745797994528 
972	 0.235321047827294 
973	 0.235860432106102 
974	 0.236386196889143 
975	 0.236989616379 
976	 0.237380668749551 
977	 0.237757585540754 
978	 0.238227680612552 
979	 0.238797537419243 
980	 0.239453003350725 
981	 0.240036910937067 
982	 0.240531958055174 
983	 0.241015009379046 
984	 0.241490262334352 
985	 0.241979756983983 
986	 0.24253817189829 
987	 0.243165640261755 
988	 0.243536811572237 
989	 0.243990446537714 
990	 0.244508532822297 
991	 0.244958334555557 
992	 0.245671431238578 
993	 0.246335522548358 
994	 0.246837512428411 
995	 0.247231200801755 
996	 0.247738257666426 
997	 0.248213997054845 
998	 0.248631097403956 
999	 0.249068806120324 
1000	 0.249785598045284 
1001	 0.246649758653608 
1002	 0.24697266114209 
1003	 0.24735736198279 
1004	 0.247804839517237 
1005	 0.248369059023984 
1006	 0.248858768548365 
1007	 0.249372753912748 
1008	 0.249873863392006 
1009	 0.250231645062473 
1010	 0.250629202071215 
1011	 0.251021865863914 
1012	 0.251309902185354 
1013	 0.251723255920799 
1014	 0.252186619857459 
1015	 0.252592196880436 
1016	 0.253022587098997 
1017	 0.253435211601571 
1018	 0.253831464809461 
1019	 0.254178097648462 
1020	 0.254541794902432 
1021	 0.254889487484231 
1022	 0.255218906699303 
1023	 0.255580683206556 
1024	 0.255934023929783 
1025	 0.256277925765348 
1026	 0.256646647540966 
1027	 0.257000782402344 
1028	 0.257333510089975 
1029	 0.257729159163343 
1030	 0.258130405832254 
1031	 0.258476196555731 
1032	 0.258785596256598 
1033	 0.259109099965281 
1034	 0.259403912370621 
1035	 0.259668591639152 
1036	 0.260006724263845 
1037	 0.260376456254899 
1038	 0.260740469557014 
1039	 0.261099996167051 
1040	 0.261376354912091 
1041	 0.261676416057815 
1042	 0.262020249130007 
1043	 0.262329261615205 
1044	 0.262664086537636 
1045	 0.263054771162155 
1046	 0.263405348607687 
1047	 0.263675696767896 
1048	 0.263996947178457 
1049	 0.264320642367827 
1050	 0.264641429844199 
1051	 0.26501792283019 
1052	 0.265367890156277 
1053	 0.265697780755448 
1054	 0.266057383679988 
1055	 0.26640244745254 
1056	 0.266735407644823 
1057	 0.267066230878034 
1058	 0.26737911007145 
1059	 0.267707247312733 
1060	 0.268037819685019 
1061	 0.268376794914014 
1062	 0.268688880581222 
1063	 0.269017178485294 
1064	 0.269311200410738 
1065	 0.269634409321388 
1066	 0.269990489236082 
1067	 0.27030711825138 
1068	 0.270635164095587 
1069	 0.270938406118185 
1070	 0.271229014333323 
1071	 0.271501179419316 
1072	 0.271786633407361 
1073	 0.272067292359677 
1074	 0.27233709216836 
1075	 0.2726071700814 
1076	 0.272873574097602 
1077	 0.273097647654705 
1078	 0.27329372473769 
1079	 0.273547258555128 
1080	 0.273832929954386 
1081	 0.274105390749314 
1082	 0.274389000395896 
1083	 0.274629668083208 
1084	 0.274798850066588 
1085	 0.275020092108015 
1086	 0.275246444440881 
1087	 0.27548248549082 
1088	 0.275741695763246 
1089	 0.275995295572607 
1090	 0.276230978047222 
1091	 0.276412319289941 
1092	 0.276583359646511 
1093	 0.276789426806492 
1094	 0.276998278080882 
1095	 0.277251111738552 
1096	 0.27750079715583 
1097	 0.277697129237589 
1098	 0.277894832616057 
1099	 0.278064976320035 
1100	 0.278250360880169 
1101	 0.278421058281501 
1102	 0.278616592937733 
1103	 0.278841672723854 
1104	 0.279028371716398 
1105	 0.279202704141964 
1106	 0.279427379296706 
1107	 0.279628798603495 
1108	 0.279808257567695 
1109	 0.280009861933275 
1110	 0.280223304181429 
1111	 0.280443551951424 
1112	 0.280697273566017 
1113	 0.280887173571371 
1114	 0.281047609506073 
1115	 0.281227068033615 
1116	 0.28134063051353 
1117	 0.281524224004615 
1118	 0.281758318454525 
1119	 0.282016380648412 
1120	 0.282232407496949 
1121	 0.282425661781666 
1122	 0.282615401102879 
1123	 0.282795784543174 
1124	 0.282993282175534 
1125	 0.283217676925784 
1126	 0.283406799932627 
1127	 0.283571632769548 
1128	 0.283764890235183 
1129	 0.283952234116836 
1130	 0.284149597287297 
1131	 0.284396306481642 
1132	 0.284586259771182 
1133	 0.284731926406946 
1134	 0.284901254285113 
1135	 0.285050373722422 
1136	 0.28521403738231 
1137	 0.285402832297048 
1138	 0.285604059916628 
1139	 0.285805937255382 
1140	 0.286028275995796 
1141	 0.286216385693154 
1142	 0.286410562954562 
1143	 0.286573119471821 
1144	 0.286696115735091 
1145	 0.286836327523245 
1146	 0.286971403976069 
1147	 0.287093450045503 
1148	 0.287196368609094 
1149	 0.287327742135956 
1150	 0.287454473991927 
1151	 0.287603139429182 
1152	 0.287776298412411 
1153	 0.287927484461407 
1154	 0.288066069804409 
1155	 0.288182513461489 
1156	 0.288316814490818 
1157	 0.288454505353478 
1158	 0.288582148530431 
1159	 0.288697291336738 
1160	 0.288833880377511 
1161	 0.288973766764832 
1162	 0.289112118390404 
1163	 0.289279207254905 
1164	 0.289426943851185 
1165	 0.289558412667617 
1166	 0.289691819680958 
1167	 0.289814976191066 
1168	 0.28991160084133 
1169	 0.290037839568411 
1170	 0.290163484824716 
1171	 0.29029148059234 
1172	 0.290440358683643 
1173	 0.290573545938405 
1174	 0.290689421460238 
1175	 0.290819468969987 
1176	 0.290957370094979 
1177	 0.291094933729893 
1178	 0.291241157508215 
1179	 0.291375864695237 
1180	 0.29150508783317 
1181	 0.291635232833529 
1182	 0.291756489382473 
1183	 0.291884146678517 
1184	 0.292010532663755 
1185	 0.292141551307618 
1186	 0.29226624005558 
1187	 0.292381539327001 
1188	 0.292513084730577 
1189	 0.292656631041497 
1190	 0.292786758550644 
1191	 0.292919092147137 
1192	 0.293049569380428 
1193	 0.293167914291227 
1194	 0.293292248074625 
1195	 0.293428929365879 
1196	 0.293555220322615 
1197	 0.293674589955576 
1198	 0.293793612980072 
1199	 0.29391011884277 
1200	 0.294018587827183 
1201	 0.29413984991556 
1202	 0.294274952738294 
1203	 0.294381401332204 
1204	 0.294478295008207 
1205	 0.294581483461876 
1206	 0.294658267769439 
1207	 0.294764196223112 
1208	 0.294899121159871 
1209	 0.295016980744601 
1210	 0.295139643939657 
1211	 0.295252737274766 
1212	 0.295340859675039 
1213	 0.295455037113368 
1214	 0.295592168129108 
1215	 0.295710952547944 
1216	 0.29582830124057 
1217	 0.295967296455579 
1218	 0.296061910364251 
1219	 0.296115369888796 
1220	 0.296202076954412 
1221	 0.296283235849611 
1222	 0.296372988171312 
1223	 0.296479601700321 
1224	 0.296579618696374 
1225	 0.296674694510445 
1226	 0.296773947531756 
1227	 0.296883141429321 
1228	 0.296983805604213 
1229	 0.297081500403431 
1230	 0.297176717354012 
1231	 0.297265698413424 
1232	 0.297356257290505 
1233	 0.297446394656706 
1234	 0.297537096738884 
1235	 0.297622898335724 
1236	 0.297705140922589 
1237	 0.297792394338639 
1238	 0.297881326866042 
1239	 0.297964119462076 
1240	 0.29804037959345 
1241	 0.298131370650763 
1242	 0.298222403172475 
1243	 0.298317421719627 
1244	 0.298434156845257 
1245	 0.298535716876324 
1246	 0.298638170552558 
1247	 0.298724411244554 
1248	 0.29879399776785 
1249	 0.298866786840954 
1250	 0.29893516729117 
1251	 0.298997748277861 
1252	 0.29907270120704 
1253	 0.299163591771419 
1254	 0.299238209076403 
1255	 0.299309847582498 
1256	 0.299377560558401 
1257	 0.299445139657918 
1258	 0.299499321702486 
1259	 0.299531174035691 
1260	 0.299589400926318 
1261	 0.299663146833123 
1262	 0.299713890163793 
1263	 0.299754043927417 
1264	 0.299817409332417 
1265	 0.299868805781896 
1266	 0.299931634454848 
1267	 0.300031649370404 
1268	 0.30012872073451 
1269	 0.30019879075852 
1270	 0.300241034333169 
1271	 0.300319866604768 
1272	 0.300403053345055 
1273	 0.300481077878417 
1274	 0.300566696967535 
1275	 0.300662234944227 
1276	 0.300743019724356 
1277	 0.300854285970101 
1278	 0.301006342875383 
1279	 0.301141395896006 
1280	 0.301278855966832 
1281	 0.301416239017446 
1282	 0.301557433528531 
1283	 0.301690828153361 
1284	 0.301824696304438 
1285	 0.301950943668887 
1286	 0.302066797103888 
1287	 0.302185210694681 
1288	 0.302301227813794 
1289	 0.302414135522405 
1290	 0.302522632957407 
1291	 0.302621264181454 
1292	 0.302739960799088 
1293	 0.30287680169624 
1294	 0.302986875284713 
1295	 0.303113162852175 
1296	 0.303197127350614 
1297	 0.303239463950139 
1298	 0.303285337897847 
1299	 0.303299622312865 
1300	 0.303340263124877 
1301	 0.303392308319006 
1302	 0.303433229192116 
1303	 0.303483746765921 
1304	 0.303530232973216 
1305	 0.303546834044874 
1306	 0.303568907670475 
1307	 0.303575957551177 
1308	 0.303557521587872 
1309	 0.303560810550664 
1310	 0.303565291959482 
1311	 0.30355728506243 
1312	 0.30356157854807 
1313	 0.30354977325492 
1314	 0.303508041369312 
1315	 0.303483457715946 
1316	 0.303471582256732 
1317	 0.303443174207014 
1318	 0.303408159925295 
1319	 0.303378419271289 
1320	 0.303337895563266 
1321	 0.303305681472494 
1322	 0.303288453828516 
1323	 0.303252917775594 
1324	 0.303224719663884 
1325	 0.303195198447647 
1326	 0.30316470062455 
1327	 0.30314367709193 
1328	 0.303097661931494 
1329	 0.303051721839566 
1330	 0.302992713447124 
1331	 0.3029115455645 
1332	 0.302838779886493 
1333	 0.302759121388455 
1334	 0.302690020922751 
1335	 0.302619831131138 
1336	 0.302562810428244 
1337	 0.302513835486373 
1338	 0.302476316404097 
1339	 0.302460560653635 
1340	 0.302422505770655 
1341	 0.302382971341692 
1342	 0.302343351780844 
1343	 0.302281320263616 
1344	 0.302238088625215 
1345	 0.302228508194812 
1346	 0.30220798394468 
1347	 0.302175339044537 
1348	 0.302146205290197 
1349	 0.302098279834446 
1350	 0.302043148002007 
1351	 0.301997498645041 
1352	 0.301962294757488 
1353	 0.301911392843108 
1354	 0.301863624243005 
1355	 0.301792311078527 
1356	 0.301698981093321 
1357	 0.301619814740233 
1358	 0.301512331913435 
1359	 0.30144730088489 
1360	 0.301405171306728 
1361	 0.301368805559747 
1362	 0.301378024848185 
1363	 0.301350090946168 
1364	 0.301306245605186 
1365	 0.301266349475565 
1366	 0.3012084570688 
1367	 0.301157580368002 
1368	 0.301120175051941 
1369	 0.301077784650096 
1370	 0.301019583464662 
1371	 0.30093263098339 
1372	 0.300834151655111 
1373	 0.300729966762545 
1374	 0.300611941933378 
1375	 0.300492177817134 
1376	 0.300338504915472 
1377	 0.30016950827927 
1378	 0.299970518184188 
1379	 0.299734138042068 
1380	 0.299496140404901 
1381	 0.299238921244628 
1382	 0.298973471749943 
1383	 0.298716298706141 
1384	 0.29841382731705 
1385	 0.298106042002122 
1386	 0.297737944796582 
1387	 0.297330230317402 
1388	 0.296882271246344 
1389	 0.296399069607994 
1390	 0.295858248735095 
1391	 0.295276894011862 
1392	 0.294638955082126 
1393	 0.293943987280644 
1394	 0.293226094416368 
1395	 0.292446261689421 
1396	 0.291650686766611 
1397	 0.290866046487848 
1398	 0.290052401296522 
1399	 0.289258591291789 
1400	 0.288480499394487 
1401	 0.287694764132937 
1402	 0.286888996480251 
1403	 0.286126151168338 
1404	 0.285370093000857 
1405	 0.284654490940243 
1406	 0.283963540034478 
1407	 0.283304627424676 
1408	 0.28265013723119 
1409	 0.282075088780907 
1410	 0.281514073490245 
1411	 0.281067820613095 
1412	 0.280687787379843 
1413	 0.280412121469213 
1414	 0.280274763900796 
1415	 0.280200559796769 
1416	 0.280218049575456 
1417	 0.280307026357567 
1418	 0.280383669580552 
1419	 0.280504290608003 
1420	 0.280649139428808 
1421	 0.28075697729817 
1422	 0.280878622596223 
1423	 0.280967298490217 
1424	 0.281000167565379 
1425	 0.280987318888567 
1426	 0.280966616761334 
1427	 0.280879888657556 
1428	 0.280835822083076 
1429	 0.280797095034713 
1430	 0.280754542653453 
1431	 0.280727098052108 
1432	 0.280677856928454 
1433	 0.280607622106377 
1434	 0.280555960607141 
1435	 0.280486708462529 
1436	 0.280451243159394 
1437	 0.280446129801544 
1438	 0.280436875310181 
1439	 0.280446537679108 
1440	 0.280451422384245 
1441	 0.280439615097031 
1442	 0.280411655541241 
1443	 0.280373271605387 
1444	 0.280342507067814 
1445	 0.28033091846471 
1446	 0.280332558496828 
1447	 0.280350551629016 
1448	 0.280370088777069 
1449	 0.280354973386347 
1450	 0.280331073374966 
1451	 0.280318618103052 
1452	 0.280288465054644 
1453	 0.2802799288018 
1454	 0.280298898113163 
1455	 0.280297410585689 
1456	 0.280290888315321 
1457	 0.280280110693357 
1458	 0.280262121251603 
1459	 0.280248610443565 
1460	 0.28022248105949 
1461	 0.280220063289972 
1462	 0.280224410561069 
1463	 0.280242699265058 
1464	 0.280285275953995 
1465	 0.280319802335911 
1466	 0.280357982443098 
1467	 0.280402061129544 
1468	 0.280426550000656 
1469	 0.280496067414957 
1470	 0.280590198035469 
1471	 0.280698405701243 
1472	 0.280848680338378 
1473	 0.280992865794995 
1474	 0.281129900787846 
1475	 0.281275847244881 
1476	 0.281406232078786 
1477	 0.281552780510261 
1478	 0.281716005055087 
1479	 0.281873729771301 
1480	 0.282047432444395 
1481	 0.282224102299074 
1482	 0.282385150350037 
1483	 0.282538050018456 
1484	 0.282694441239536 
1485	 0.282834694241989 
1486	 0.282996611913391 
1487	 0.28316875422015 
1488	 0.283345717019484 
1489	 0.283543117583993 
1490	 0.283719352062446 
1491	 0.283896270589939 
1492	 0.284060536243655 
1493	 0.284206217872595 
1494	 0.28435535851212 
1495	 0.284503697422215 
1496	 0.284643801166217 
1497	 0.284780851739665 
1498	 0.284908510212722 
1499	 0.285025025410296 
1500	 0.28514319215284 
1501	 0.285246950455052 
1502	 0.285363581902079 
1503	 0.285488215989785 
1504	 0.285609153748177 
1505	 0.285738685063045 
1506	 0.285878930876021 
1507	 0.28601204988048 
1508	 0.286135060078612 
1509	 0.286246557352881 
1510	 0.286359089989116 
1511	 0.2864706695622 
1512	 0.286574548024086 
1513	 0.2866847410271 
1514	 0.286800619467502 
1515	 0.286907923057633 
1516	 0.287025729764182 
1517	 0.287138278408828 
1518	 0.287249231828595 
1519	 0.287354325432006 
1520	 0.287457981888869 
1521	 0.287559248265121 
1522	 0.28765543563861 
1523	 0.287751088038711 
1524	 0.287845116467974 
1525	 0.287939560461513 
1526	 0.288032309416025 
1527	 0.288122256834112 
1528	 0.288213234200397 
1529	 0.288303517046036 
1530	 0.288391825838507 
1531	 0.288474046639171 
1532	 0.28855207221636 
1533	 0.288631163976067 
1534	 0.288708857830947 
1535	 0.288780545143586 
1536	 0.288843719526993 
1537	 0.288919895014167 
1538	 0.288995194499578 
1539	 0.289073972915301 
1540	 0.289178632023797 
1541	 0.289259483167079 
1542	 0.289319779749068 
1543	 0.289387035714611 
1544	 0.289445024408551 
1545	 0.289506824520075 
1546	 0.289577404178179 
1547	 0.289646105023261 
1548	 0.289693848409577 
1549	 0.289724918455252 
1550	 0.289751578223794 
1551	 0.289788887862475 
1552	 0.289823532094481 
1553	 0.28989154469387 
1554	 0.289981476728842 
1555	 0.290042661311342 
1556	 0.290103542992428 
1557	 0.290172700716446 
1558	 0.29022886946687 
1559	 0.290292092520991 
1560	 0.290366723097408 
1561	 0.290469474624126 
1562	 0.290529894766225 
1563	 0.290578116246253 
1564	 0.290626839802921 
1565	 0.290648438970501 
1566	 0.290700848572749 
1567	 0.290772027603304 
1568	 0.290823196344709 
1569	 0.290876163213844 
1570	 0.290926149151505 
1571	 0.290969578708637 
1572	 0.29101043257219 
1573	 0.291049330249047 
1574	 0.291089858203105 
1575	 0.291122594983474 
1576	 0.291156239491316 
1577	 0.2912011496024 
1578	 0.291233377527756 
1579	 0.291242474337844 
1580	 0.291277988447549 
1581	 0.291325591935376 
1582	 0.291366370949107 
1583	 0.291426489964217 
1584	 0.291470448469712 
1585	 0.291500193105421 
1586	 0.291530932893239 
1587	 0.291555720398502 
1588	 0.291580458582468 
1589	 0.291598404343336 
1590	 0.291623962034573 
1591	 0.291659952071146 
1592	 0.291684951845069 
1593	 0.291698282639126 
1594	 0.291728440704172 
1595	 0.291756573557418 
1596	 0.291791831438981 
1597	 0.291856500597137 
1598	 0.291899686051179 
1599	 0.291941580503149 
1600	 0.29196833266136 
1601	 0.291975888118912 
1602	 0.291981540384282 
1603	 0.291953478705246 
1604	 0.291958554210021 
1605	 0.29199021043671 
1606	 0.292009357627456 
1607	 0.292035039073737 
1608	 0.292075037123553 
1609	 0.292095944853719 
1610	 0.292107376823949 
1611	 0.292118316333489 
1612	 0.292101974223692 
1613	 0.292074476109234 
1614	 0.292062121510403 
1615	 0.292055506723917 
1616	 0.292073744413988 
1617	 0.292103043013372 
1618	 0.292110110888856 
1619	 0.292151990617965 
1620	 0.292202576594173 
1621	 0.292215820829084 
1622	 0.292222490814594 
1623	 0.292223266980138 
1624	 0.292190246711692 
1625	 0.292180749438398 
1626	 0.292185780298653 
1627	 0.292180592294161 
1628	 0.292165401889197 
1629	 0.292164920700832 
1630	 0.292164721347623 
1631	 0.292187941102583 
1632	 0.292240430993232 
1633	 0.292249924999699 
1634	 0.292260043788447 
1635	 0.292254492748748 
1636	 0.292213483174809 
1637	 0.292190011569645 
1638	 0.29216837003789 
1639	 0.292159754426612 
1640	 0.292145691451929 
1641	 0.29214923302404 
1642	 0.292169109184865 
1643	 0.292202641335291 
1644	 0.292258009039432 
1645	 0.292287664619183 
1646	 0.292337045211031 
1647	 0.292343366527913 
1648	 0.292307391498224 
1649	 0.292289456250276 
1650	 0.292255159671146 
1651	 0.292241134520396 
1652	 0.2922395980417 
1653	 0.292229263037828 
1654	 0.292226587663851 
1655	 0.292213732142048 
1656	 0.29219656180224 
1657	 0.292167466647726 
1658	 0.292130791837647 
1659	 0.292091406303048 
1660	 0.292034507633041 
1661	 0.291991920941929 
1662	 0.291945873369281 
1663	 0.291920876078161 
1664	 0.291913377860801 
1665	 0.291898113949583 
1666	 0.291902705835118 
1667	 0.291883277493354 
1668	 0.291848910749223 
1669	 0.291813690945739 
1670	 0.291763004256549 
1671	 0.291727640614378 
1672	 0.291698369921196 
1673	 0.291662810934342 
1674	 0.291619370221438 
1675	 0.291602828399768 
1676	 0.291589045127217 
1677	 0.291590528443779 
1678	 0.291639460094325 
1679	 0.291641538499822 
1680	 0.291624585938112 
1681	 0.291609847610541 
1682	 0.291571595058023 
1683	 0.291550234247498 
1684	 0.291532556395976 
1685	 0.291524249567457 
1686	 0.291543765742871 
1687	 0.291517207380746 
1688	 0.291468836754901 
1689	 0.291434842356037 
1690	 0.291369609646736 
1691	 0.29132833325045 
1692	 0.29131859775843 
1693	 0.291294505902853 
1694	 0.291253174806327 
1695	 0.291236235801924 
1696	 0.291238287995335 
1697	 0.291229746119263 
1698	 0.291238068505472 
1699	 0.29122094261205 
1700	 0.291187623855036 
1701	 0.291152299430092 
1702	 0.291103261786619 
1703	 0.291055321215168 
1704	 0.291005768848099 
1705	 0.290952894859685 
1706	 0.290905187406674 
1707	 0.290830676500181 
1708	 0.290731293393732 
1709	 0.290652652496623 
1710	 0.290556377851514 
1711	 0.290487555047883 
1712	 0.290449916491064 
1713	 0.290394557369334 
1714	 0.29032855025956 
1715	 0.290289635844248 
1716	 0.290265799265842 
1717	 0.290235163611734 
1718	 0.290229324027525 
1719	 0.290193851072671 
1720	 0.290130136600176 
1721	 0.290089483244082 
1722	 0.290060949113097 
1723	 0.290007855794619 
1724	 0.28995060652522 
1725	 0.289892131333545 
1726	 0.289814525158242 
1727	 0.289737673441285 
1728	 0.289662734284986 
1729	 0.289595864283328 
1730	 0.289526163331434 
1731	 0.289450759088389 
1732	 0.289388822459719 
1733	 0.289309012834223 
1734	 0.289208578601396 
1735	 0.289114688065839 
1736	 0.289027810168942 
1737	 0.288924523642405 
1738	 0.288797010368996 
1739	 0.288700169248725 
1740	 0.288608327707341 
1741	 0.288524980355837 
1742	 0.28847114265745 
1743	 0.288385573621634 
1744	 0.288291298801253 
1745	 0.288183018327535 
1746	 0.28803992276643 
1747	 0.287956823282278 
1748	 0.287891191353456 
1749	 0.28781367383085 
1750	 0.287748646914516 
1751	 0.287678991811235 
1752	 0.28758238033938 
1753	 0.28751963671531 
1754	 0.287459112378913 
1755	 0.287352889844765 
1756	 0.287233553638775 
1757	 0.287093605642403 
1758	 0.286973573647561 
1759	 0.286874545338633 
1760	 0.286777590010205 
1761	 0.28669494704113 
1762	 0.286623394149232 
1763	 0.286536787952131 
1764	 0.286428974674281 
1765	 0.286336642250035 
1766	 0.286215200919839 
1767	 0.286082781506622 
1768	 0.285991053833964 
1769	 0.285905440832507 
1770	 0.285817485598502 
1771	 0.285776476932826 
1772	 0.285748712124732 
1773	 0.285669531044123 
1774	 0.285618530635052 
1775	 0.285558709273747 
1776	 0.285445734162731 
1777	 0.285391187171006 
1778	 0.285338828387032 
1779	 0.285245483454193 
1780	 0.285167201393379 
1781	 0.285071419837026 
1782	 0.284986766474268 
1783	 0.284938413033702 
1784	 0.284911366233576 
1785	 0.284943622390215 
1786	 0.284921224292637 
1787	 0.284889049977427 
1788	 0.28485004898843 
1789	 0.284778139310588 
1790	 0.284709672168905 
1791	 0.284635192669247 
1792	 0.284570347837863 
1793	 0.284496938605589 
1794	 0.284435777468543 
1795	 0.284386201874928 
1796	 0.284350640235376 
1797	 0.28432373722833 
1798	 0.284299768401309 
1799	 0.284291849307059 
1800	 0.284286535979068 
1801	 0.283035069982824 
1802	 0.283222576396743 
1803	 0.283416354654631 
1804	 0.283654259550122 
1805	 0.283896057120354 
1806	 0.284099135635066 
1807	 0.284311539014546 
1808	 0.284496155370225 
1809	 0.284670502179201 
1810	 0.28479806751274 
1811	 0.284888750665392 
1812	 0.284995099130844 
1813	 0.285060823306774 
1814	 0.285107247253085 
1815	 0.285147103297343 
1816	 0.285153664941728 
1817	 0.285150092195303 
1818	 0.28508171251439 
1819	 0.285083692132339 
1820	 0.285114464387185 
1821	 0.285134369056804 
1822	 0.28516402556373 
1823	 0.285183110933403 
1824	 0.285184751599632 
1825	 0.285169440656933 
1826	 0.285147511403878 
1827	 0.285153418568229 
1828	 0.285116744786186 
1829	 0.285044830395914 
1830	 0.284977461845596 
1831	 0.284888920734088 
1832	 0.284795575430044 
1833	 0.284735584379781 
1834	 0.28471516312884 
1835	 0.284728349075331 
1836	 0.284691726912855 
1837	 0.284637791058829 
1838	 0.284601278849655 
1839	 0.284562488422285 
1840	 0.284511565273192 
1841	 0.284489807998216 
1842	 0.284449814490848 
1843	 0.284384736296098 
1844	 0.284302833092958 
1845	 0.28421029032957 
1846	 0.28414761882792 
1847	 0.284093362338701 
1848	 0.284032929541708 
1849	 0.283997753673565 
1850	 0.283955713916742 
1851	 0.283925305956859 
1852	 0.283862578321918 
1853	 0.283795309029511 
1854	 0.283707563422533 
1855	 0.283614285631785 
1856	 0.283538505288707 
1857	 0.283434778722738 
1858	 0.2832955576589 
1859	 0.283119860064288 
1860	 0.282923341357467 
1861	 0.28268147080494 
1862	 0.282438824866546 
1863	 0.282199627591084 
1864	 0.281944259394225 
1865	 0.281671751315928 
1866	 0.281359784339371 
1867	 0.281025218031894 
1868	 0.280677225691136 
1869	 0.280299673653654 
1870	 0.279925276302564 
1871	 0.279497480728686 
1872	 0.279046700923607 
1873	 0.278538461631127 
1874	 0.277991326061601 
1875	 0.277374987684688 
1876	 0.27672282111293 
1877	 0.276039267386575 
1878	 0.275293404898058 
1879	 0.274485858411126 
1880	 0.273606936716986 
1881	 0.272669563042841 
1882	 0.27165629664577 
1883	 0.270575394340848 
1884	 0.269405505052944 
1885	 0.268180109216311 
1886	 0.266832905725013 
1887	 0.265382977257651 
1888	 0.263865243053759 
1889	 0.262242277798442 
1890	 0.26056818878404 
1891	 0.258878037231664 
1892	 0.257126378480388 
1893	 0.255357157993938 
1894	 0.253559543461332 
1895	 0.251746607779345 
1896	 0.249884233089466 
1897	 0.248052137351514 
1898	 0.24622648141794 
1899	 0.244412106712626 
1900	 0.242654682139269 
1901	 0.240926960424734 
1902	 0.239276318769959 
1903	 0.237705901132252 
1904	 0.236181519467385 
1905	 0.23471211727074 
1906	 0.233298756995932 
1907	 0.231950239473958 
1908	 0.230659767150483 
1909	 0.229446593817178 
1910	 0.228306231046637 
1911	 0.227231161105167 
1912	 0.226203966721781 
1913	 0.225227790140157 
1914	 0.224296355235644 
1915	 0.22343442206135 
1916	 0.22263434017691 
1917	 0.221879777727717 
1918	 0.221189168372119 
1919	 0.220538675312354 
1920	 0.219933729068087 
1921	 0.219380857538358 
1922	 0.218884421773399 
1923	 0.218461718867694 
1924	 0.218082205246894 
1925	 0.217776905605721 
1926	 0.217487409372561 
1927	 0.217237989510726 
1928	 0.217018933044068 
1929	 0.216842089851307 
1930	 0.216696466518887 
1931	 0.216587322284994 
1932	 0.21651772425649 
1933	 0.216476448603701 
1934	 0.216460249359197 
1935	 0.216470796477706 
1936	 0.216515489631365 
1937	 0.216580106386865 
1938	 0.216675301871324 
1939	 0.216781279318327 
1940	 0.216911286000627 
1941	 0.217053969525947 
1942	 0.217201675390926 
1943	 0.21737440236775 
1944	 0.217581567767853 
1945	 0.217807833831335 
1946	 0.218052487968244 
1947	 0.218333316917557 
1948	 0.218608880032807 
1949	 0.218893352124318 
1950	 0.219186982373311 
1951	 0.219486824613115 
1952	 0.219800582945799 
1953	 0.220122919343778 
1954	 0.220473295532153 
1955	 0.220823131163846 
1956	 0.221159557051863 
1957	 0.221505660662798 
1958	 0.221838156810457 
1959	 0.22219811951039 
1960	 0.22258664944615 
1961	 0.22296221880931 
1962	 0.223331305013595 
1963	 0.223726439540763 
1964	 0.224127774727557 
1965	 0.224536363619391 
1966	 0.22496422864024 
1967	 0.225418851850358 
1968	 0.225854583736403 
1969	 0.226283370888655 
1970	 0.226712041834967 
1971	 0.227136316953008 
1972	 0.227570011147428 
1973	 0.22801712429631 
1974	 0.22844973662531 
1975	 0.228874307629405 
1976	 0.229306080855897 
1977	 0.229757007043417 
1978	 0.23017665245409 
1979	 0.230604200195873 
1980	 0.231063157252233 
1981	 0.231496290430027 
1982	 0.231895880397306 
1983	 0.232329520445192 
1984	 0.232769864469645 
1985	 0.233222332558326 
1986	 0.233710015698867 
1987	 0.234174524596185 
1988	 0.234652762313647 
1989	 0.235100019408056 
1990	 0.235510022135265 
1991	 0.235935348658158 
1992	 0.236374756778807 
1993	 0.236813887297023 
1994	 0.237257652864339 
1995	 0.237726951996222 
1996	 0.238172379464912 
1997	 0.238604382688518 
1998	 0.239044685188267 
1999	 0.2394867053256 
2000	 0.23992037769726 
2001	 0.240353416617704 
2002	 0.240775078669178 
2003	 0.241203790819896 
2004	 0.241638975154464 
2005	 0.242066391342315 
2006	 0.242509091087248 
2007	 0.242921260620854 
2008	 0.243298341967559 
2009	 0.243707655577833 
2010	 0.244116406261408 
2011	 0.244529899833115 
2012	 0.244985938670296 
2013	 0.245398931712751 
2014	 0.245790688140289 
2015	 0.246165762255265 
2016	 0.246541587076807 
2017	 0.24691272036687 
2018	 0.247297433619556 
2019	 0.247708177426223 
2020	 0.248088766243548 
2021	 0.248458648042421 
2022	 0.24882577479074 
2023	 0.249174269192355 
2024	 0.249535999291263 
2025	 0.249905218874838 
2026	 0.250268368829703 
2027	 0.250631493681288 
2028	 0.250989573028119 
2029	 0.251355181754085 
2030	 0.251729283124664 
2031	 0.252074755548884 
2032	 0.252414918997954 
2033	 0.252746479920333 
2034	 0.253059180966278 
2035	 0.253365516011304 
2036	 0.253671602587977 
2037	 0.25396837445286 
2038	 0.254244957509189 
2039	 0.254518134348319 
2040	 0.254788741717416 
2041	 0.255051538246822 
2042	 0.255308797287795 
2043	 0.255565928720327 
2044	 0.255837498122962 
2045	 0.256112142040735 
2046	 0.256407931236988 
2047	 0.256733273532006 
2048	 0.257032917013542 
2049	 0.257362402542015 
2050	 0.2576406387406 
2051	 0.257875323213446 
2052	 0.258114808819733 
2053	 0.258323047893241 
2054	 0.258541177097418 
2055	 0.25875734288936 
2056	 0.258985277159086 
2057	 0.259194097914712 
2058	 0.259393990679085 
2059	 0.259602096685436 
2060	 0.259794454323795 
2061	 0.260008209038427 
2062	 0.260245422786391 
2063	 0.260465099183204 
2064	 0.260702328803987 
2065	 0.260905136254443 
2066	 0.261080866503404 
2067	 0.261259077430755 
2068	 0.261404680022171 
2069	 0.261568956533557 
2070	 0.261751438023251 
2071	 0.261948853964183 
2072	 0.26214199020571 
2073	 0.262351888027372 
2074	 0.262551209930859 
2075	 0.262747209248679 
2076	 0.262938184802593 
2077	 0.263126425976974 
2078	 0.263316036298881 
2079	 0.263498272081459 
2080	 0.263686700484057 
2081	 0.263877575386748 
2082	 0.26407256009284 
2083	 0.264272592803521 
2084	 0.264476276036772 
2085	 0.264662615237693 
2086	 0.264847101965918 
2087	 0.26502649135089 
2088	 0.265188237230309 
2089	 0.265358053980715 
2090	 0.265539502643039 
2091	 0.265701518623307 
2092	 0.265847071648721 
2093	 0.266001520643459 
2094	 0.266147070188155 
2095	 0.266299979777122 
2096	 0.266460786880267 
2097	 0.266621208017176 
2098	 0.266795385697496 
2099	 0.266947416757103 
2100	 0.267097085606233 
2101	 0.267239108611982 
2102	 0.267390858041256 
2103	 0.267523428757215 
2104	 0.267692434808577 
2105	 0.267892171596634 
2106	 0.268075790695366 
2107	 0.268275711512353 
2108	 0.268460195699146 
2109	 0.268616665055243 
2110	 0.268803952843881 
2111	 0.269004763684309 
2112	 0.269204543965447 
2113	 0.269427406250052 
2114	 0.269644202533158 
2115	 0.269840727804667 
2116	 0.270020466249851 
2117	 0.270210904038728 
2118	 0.27039300894879 
2119	 0.270579557382613 
2120	 0.270783671664186 
2121	 0.270958969144929 
2122	 0.271122597384823 
2123	 0.271274333277074 
2124	 0.271414631106001 
2125	 0.271538039043663 
2126	 0.271641498302513 
2127	 0.271745525679954 
2128	 0.271821818417379 
2129	 0.271912911520493 
2130	 0.272014808143867 
2131	 0.272115576146705 
2132	 0.272202648475092 
2133	 0.27230334238263 
2134	 0.27235992462765 
2135	 0.272381276930289 
2136	 0.272414373408843 
2137	 0.272433835419389 
2138	 0.272441879877857 
2139	 0.272456399475538 
2140	 0.272445070254364 
2141	 0.272407247334114 
2142	 0.272361364411548 
2143	 0.272319800299586 
2144	 0.272239803049688 
2145	 0.272123287425255 
2146	 0.272005126236719 
2147	 0.271870263640948 
2148	 0.271700522619584 
2149	 0.271552337025693 
2150	 0.271404558290569 
2151	 0.271254493129492 
2152	 0.27110548312649 
2153	 0.270950450178915 
2154	 0.270810357173282 
2155	 0.270629262516266 
2156	 0.270442569346312 
2157	 0.270217821448887 
2158	 0.269936546482206 
2159	 0.269673638836206 
2160	 0.269397629722082 
2161	 0.269114749686232 
2162	 0.268821696534301 
2163	 0.268539214171762 
2164	 0.268258513438629 
2165	 0.267962527192339 
2166	 0.267679968313401 
2167	 0.267412508468766 
2168	 0.26713473148263 
2169	 0.266869322490675 
2170	 0.266559642256004 
2171	 0.266234407907246 
2172	 0.265897775643167 
2173	 0.265512039901827 
2174	 0.265155835344323 
2175	 0.264832417087388 
2176	 0.264461966913745 
2177	 0.264078965483522 
2178	 0.263674670907788 
2179	 0.263231483685106 
2180	 0.262785949890099 
2181	 0.262338526958839 
2182	 0.26186816487428 
2183	 0.261378216226716 
2184	 0.260866695524889 
2185	 0.260360931059157 
2186	 0.259828324032711 
2187	 0.25933038831942 
2188	 0.258830384708141 
2189	 0.258367586253168 
2190	 0.257917375452631 
2191	 0.257508890877798 
2192	 0.257143762062875 
2193	 0.256784739706145 
2194	 0.256447674620667 
2195	 0.256133649353035 
2196	 0.255831206716905 
2197	 0.255561431734205 
2198	 0.255319989216396 
2199	 0.255112468997474 
2200	 0.254930953975419 
2201	 0.254781697275931 
2202	 0.254660634872919 
2203	 0.254578774727451 
2204	 0.254547787263672 
2205	 0.254551748684428 
2206	 0.25460782690928 
2207	 0.254704308666026 
2208	 0.254880933655086 
2209	 0.255134600179635 
2210	 0.255396622113974 
2211	 0.255753223359535 
2212	 0.256066229291213 
2213	 0.256372415185244 
2214	 0.256690543702699 
2215	 0.257042294844749 
2216	 0.257347264223999 
2217	 0.257636038690173 
2218	 0.257916661617747 
2219	 0.258177642925304 
2220	 0.258416873142953 
2221	 0.258649708930099 
2222	 0.258857819064642 
2223	 0.259054194482722 
2224	 0.259229458685504 
2225	 0.259396269301556 
2226	 0.259576026727013 
2227	 0.259687029053475 
2228	 0.259745192964709 
2229	 0.25982207146305 
2230	 0.259868723370547 
2231	 0.259915510506508 
2232	 0.25997762906091 
2233	 0.260003943181164 
2234	 0.259997798624418 
2235	 0.259987027161278 
2236	 0.259961237985606 
2237	 0.259925184583097 
2238	 0.259871424715699 
2239	 0.259814089923121 
2240	 0.259743238368106 
2241	 0.259679350199462 
2242	 0.25961292512439 
2243	 0.259540811528286 
2244	 0.259488763250678 
2245	 0.259391524367038 
2246	 0.259293657655099 
2247	 0.259207859726754 
2248	 0.25909707271229 
2249	 0.258973030703594 
2250	 0.25885528465955 
2251	 0.258719375603738 
2252	 0.258599465496824 
2253	 0.258483952286909 
2254	 0.258378211699506 
2255	 0.258286935094057 
2256	 0.258183399511512 
2257	 0.258058852298715 
2258	 0.257985899111863 
2259	 0.257923696372079 
2260	 0.257879093214095 
2261	 0.257908982546679 
2262	 0.257888810008414 
2263	 0.257823350228398 
2264	 0.257799240118587 
2265	 0.257770426040507 
2266	 0.257767641550542 
2267	 0.257807360261539 
2268	 0.257846895372336 
2269	 0.257893148720889 
2270	 0.257959975533288 
2271	 0.258020631132448 
2272	 0.258070888664316 
2273	 0.258121607843501 
2274	 0.258137765448356 
2275	 0.258159646957735 
2276	 0.258174738911238 
2277	 0.258185212561572 
2278	 0.258166813938316 
2279	 0.258202089514551 
2280	 0.258255530451417 
2281	 0.258309899768771 
2282	 0.258402708390213 
2283	 0.258476640704659 
2284	 0.258540365148515 
2285	 0.258606222422846 
2286	 0.258700503444732 
2287	 0.258748167861166 
2288	 0.258756933779496 
2289	 0.258775051689498 
2290	 0.258789762442932 
2291	 0.258778946644485 
2292	 0.258765170589359 
2293	 0.258729192917947 
2294	 0.25862952428271 
2295	 0.258564431834649 
2296	 0.258496155053493 
2297	 0.258456720730293 
2298	 0.25843438312493 
2299	 0.258405570226484 
2300	 0.258388120359325 
2301	 0.258380020184686 
2302	 0.258340256738835 
2303	 0.258312741593823 
2304	 0.258295383898119 
2305	 0.258250561533885 
2306	 0.258170089061578 
2307	 0.258089240096021 
2308	 0.257948924990229 
2309	 0.257707918846446 
2310	 0.257556077791048 
2311	 0.257414589531356 
2312	 0.257288670357643 
2313	 0.257195486192258 
2314	 0.25711280490039 
2315	 0.25705684308698 
2316	 0.256967113662922 
2317	 0.256886953091308 
2318	 0.256787575336399 
2319	 0.256657882471501 
2320	 0.256522416014953 
2321	 0.256389001338955 
2322	 0.256256550882365 
2323	 0.256091744833881 
2324	 0.255932933247218 
2325	 0.255786094862187 
2326	 0.255637685407008 
2327	 0.255481486546851 
2328	 0.255334042521062 
2329	 0.255195399636234 
2330	 0.255039416204848 
2331	 0.254903236789881 
2332	 0.254802343050035 
2333	 0.254707451032841 
2334	 0.254646852047587 
2335	 0.254564720930836 
2336	 0.254462035023347 
2337	 0.254333629486264 
2338	 0.254125577008594 
2339	 0.253937700096014 
2340	 0.253752759260448 
2341	 0.253538580755212 
2342	 0.253345664663363 
2343	 0.25314558939765 
2344	 0.252956173938242 
2345	 0.252773133859645 
2346	 0.252632002738873 
2347	 0.25245212120844 
2348	 0.252231848946979 
2349	 0.25205505029391 
2350	 0.251908943170359 
2351	 0.251729106900882 
2352	 0.251546726061944 
2353	 0.251380475474138 
2354	 0.251190535560352 
2355	 0.251017296200623 
2356	 0.250886036958705 
2357	 0.250715844155248 
2358	 0.250520117948418 
2359	 0.250344616913586 
2360	 0.250174374281244 
2361	 0.249997141151969 
2362	 0.249805698379021 
2363	 0.249640057674227 
2364	 0.249469522879624 
2365	 0.249320555887041 
2366	 0.2492533439948 
2367	 0.249089877810559 
2368	 0.248871100980929 
2369	 0.248671236600371 
2370	 0.248434046865537 
2371	 0.248191664133481 
2372	 0.247967175430435 
2373	 0.247747468096768 
2374	 0.247488781775881 
2375	 0.247179961552377 
2376	 0.246871387207752 
2377	 0.246566424269864 
2378	 0.246244642091379 
2379	 0.245898603322895 
2380	 0.245538713476478 
2381	 0.24525030944843 
2382	 0.245045779226849 
2383	 0.244844269984115 
2384	 0.244613738885882 
2385	 0.24432137383126 
2386	 0.243962478414705 
2387	 0.243571609319776 
2388	 0.243249951269387 
2389	 0.242995703572368 
2390	 0.242728589459572 
2391	 0.242428882279194 
2392	 0.242085102607855 
2393	 0.241773264581212 
2394	 0.241443716722992 
2395	 0.241099684573309 
2396	 0.240829374120525 
2397	 0.240559698518912 
2398	 0.240222832927273 
2399	 0.23981841585086 
2400	 0.239458037185179 
2401	 0.23904509340071 
2402	 0.238527670597484 
2403	 0.238220643212562 
2404	 0.237971933121219 
2405	 0.237554377437261 
2406	 0.237213076645845 
2407	 0.236844196334678 
2408	 0.236314245415121 
2409	 0.235875156774254 
2410	 0.235532756246867 
2411	 0.23509783135642 
2412	 0.23467810887975 
2413	 0.23432930610676 
2414	 0.233951982105028 
2415	 0.233638540284894 
2416	 0.233288028566814 
2417	 0.232936929949717 
2418	 0.232564227381529 
2419	 0.232200560547518 
2420	 0.23175253680734 
2421	 0.231264212798305 
2422	 0.230849220808709 
2423	 0.230334062266454 
2424	 0.229893161198852 
2425	 0.229606547271722 
2426	 0.229160573905574 
2427	 0.228676435012639 
2428	 0.22819096188719 
2429	 0.227586181127934 
2430	 0.22711816315755 
2431	 0.226672614790728 
2432	 0.226264046769304 
2433	 0.225974388017308 
2434	 0.225608689609665 
2435	 0.225245062536191 
2436	 0.224827259373885 
2437	 0.224361079268162 
2438	 0.223957651932263 
2439	 0.223513700210682 
2440	 0.223174983098009 
2441	 0.222958921884627 
2442	 0.222637699479053 
2443	 0.222340335857766 
2444	 0.221956393238927 
2445	 0.221430331733431 
2446	 0.221014628245015 
2447	 0.220645629056598 
2448	 0.22024751717144 
2449	 0.219857178232221 
2450	 0.219550675233935 
2451	 0.219253897921622 
2452	 0.218886335324874 
2453	 0.218587713242386 
2454	 0.218244101238996 
2455	 0.217800451523119 
2456	 0.217459116428784 
2457	 0.21722113499408 
2458	 0.216884375557569 
2459	 0.216453674721838 
2460	 0.216083203770243 
2461	 0.215744033646839 
2462	 0.215369097989467 
2463	 0.2150106948466 
2464	 0.21462151677584 
2465	 0.214097901812349 
2466	 0.213755954458003 
2467	 0.213599474762005 
2468	 0.213353947579732 
2469	 0.213169572146819 
2470	 0.212984710470461 
2471	 0.212555427152869 
2472	 0.212156852890491 
2473	 0.211806685263756 
2474	 0.2114298620926 
2475	 0.211223647663995 
2476	 0.211137644523449 
2477	 0.211073366083025 
2478	 0.21085913379958 
2479	 0.210430330153102 
2480	 0.209962374963349 
2481	 0.209612558713965 
2482	 0.209281562989615 
2483	 0.208980884792105 
2484	 0.208704870079718 
2485	 0.208283438022169 
2486	 0.208056103400547 
2487	 0.207945418543914 
2488	 0.207819423551217 
2489	 0.207785202714952 
2490	 0.207469776711786 
2491	 0.207019934398254 
2492	 0.206686404170778 
2493	 0.206346767895192 
2494	 0.206071390805945 
2495	 0.205907604095496 
2496	 0.205556577172133 
2497	 0.205174222194304 
2498	 0.204911110203647 
2499	 0.20446284115361 
2500	 0.204178595140558 
