Wavelength	mm1800003.asd
350	 5.43548261221706E-02 
351	 5.21918357226218E-02 
352	 5.05648855637127E-02 
353	 4.92447671861108E-02 
354	 5.78098058244227E-02 
355	 5.21386293906227E-02 
356	 4.50018866245734E-02 
357	 5.12212541917935E-02 
358	 5.68211060837474E-02 
359	 5.96833764154124E-02 
360	 6.01736337967232E-02 
361	 0.059944621659725 
362	 5.85692487959546E-02 
363	 5.54716654349365E-02 
364	 0.052400810676967 
365	 5.49245930325585E-02 
366	 5.42955330397505E-02 
367	 5.35512357658955E-02 
368	 5.67005268862358E-02 
369	 5.87264025032649E-02 
370	 5.65342589128621E-02 
371	 0.054279841183298 
372	 0.059550199727501 
373	 6.05349838223327E-02 
374	 5.89754125327344E-02 
375	 5.84621120758992E-02 
376	 6.29480511298952E-02 
377	 6.21582769218502E-02 
378	 6.10900186304994E-02 
379	 6.56895505298332E-02 
380	 0.06517901393189 
381	 6.45200406923289E-02 
382	 6.64392241511212E-02 
383	 7.09208093934888E-02 
384	 7.12134226773649E-02 
385	 7.03135942634722E-02 
386	 7.09401561554224E-02 
387	 7.24216768784131E-02 
388	 7.44126589573322E-02 
389	 7.63117090849663E-02 
390	 7.75773335122138E-02 
391	 0.078257179058133 
392	 7.85697765840194E-02 
393	 7.97590474287847E-02 
394	 8.34730840075061E-02 
395	 8.41685484648578E-02 
396	 8.33967800009391E-02 
397	 8.35242491781387E-02 
398	 8.60935624963127E-02 
399	 8.91254638788169E-02 
400	 9.16578642896697E-02 
401	 9.31685763582584E-02 
402	 9.28922634926519E-02 
403	 9.38920573530325E-02 
404	 9.61543843991638E-02 
405	 9.65682205421337E-02 
406	 9.83816293058775E-02 
407	 9.98881569622065E-02 
408	 9.98302106156454E-02 
409	 0.100478121202981 
410	 0.100899652289255 
411	 0.101598848301752 
412	 0.103374999148145 
413	 0.104416899181403 
414	 0.104761514978 
415	 0.104712808894604 
416	 0.104629015232476 
417	 0.105201444204321 
418	 0.106142853737695 
419	 0.106935328615402 
420	 0.107358913244818 
421	 0.106764538074737 
422	 0.106067470459849 
423	 0.106911379558867 
424	 0.107356847327027 
425	 0.107434655518778 
426	 0.107458220920193 
427	 0.107829890529518 
428	 0.107311497578931 
429	 0.106699978761575 
430	 0.107032376040958 
431	 0.107033782724134 
432	 0.106943633995945 
433	 0.107015026893719 
434	 0.107421446221236 
435	 0.108017420575083 
436	 0.108325398197534 
437	 0.108246208351316 
438	 0.108764886045604 
439	 0.1095730133976 
440	 0.110341389534196 
441	 0.11078957417976 
442	 0.111183065890706 
443	 0.111893519523708 
444	 0.112894262595604 
445	 0.113568498245548 
446	 0.114313271068904 
447	 0.115112117228031 
448	 0.115842235612458 
449	 0.116396669506289 
450	 0.117230044106318 
451	 0.118172983388428 
452	 0.118584340510167 
453	 0.119369786879495 
454	 0.120087331964097 
455	 0.120454746096884 
456	 0.121182354633186 
457	 0.121714575632777 
458	 0.122068637264029 
459	 0.122505529406094 
460	 0.123049037593254 
461	 0.123424857334939 
462	 0.123645461467155 
463	 0.124158928704586 
464	 0.124485926273497 
465	 0.12478046106471 
466	 0.125270169118563 
467	 0.125768122111676 
468	 0.126124731592079 
469	 0.12638290409437 
470	 0.126727572827579 
471	 0.127001193074696 
472	 0.127280480055851 
473	 0.127546402658006 
474	 0.127389574158709 
475	 0.127706261096648 
476	 0.128235851200275 
477	 0.128352114828339 
478	 0.128891004128465 
479	 0.12938334077646 
480	 0.129602962193956 
481	 0.129803855940089 
482	 0.130200373783758 
483	 0.130665711226089 
484	 0.13100367277733 
485	 0.131218670623538 
486	 0.131272636728413 
487	 0.131367984671877 
488	 0.131855677481446 
489	 0.132116718903579 
490	 0.132381370885491 
491	 0.132819706233147 
492	 0.133086277133676 
493	 0.133252037094623 
494	 0.133439046682651 
495	 0.133780260690396 
496	 0.134233061366685 
497	 0.134605799785965 
498	 0.134836252908657 
499	 0.13506690859803 
500	 0.135307724803116 
501	 0.135533737196058 
502	 0.135736085749366 
503	 0.136040833383576 
504	 0.136391621688423 
505	 0.136687031267445 
506	 0.136809088077147 
507	 0.137047723734259 
508	 0.137352250836282 
509	 0.1376048290004 
510	 0.137664144486807 
511	 0.137956273540021 
512	 0.138358628605461 
513	 0.1385100952549 
514	 0.13881034585693 
515	 0.139128878402018 
516	 0.139372739446224 
517	 0.139613402245847 
518	 0.139834870547752 
519	 0.140048318551777 
520	 0.14027241948577 
521	 0.140527461203831 
522	 0.140764595673988 
523	 0.140959707619569 
524	 0.141119797683544 
525	 0.141335388284518 
526	 0.141584623536184 
527	 0.141832834616865 
528	 0.142107308722167 
529	 0.142309530902973 
530	 0.142515469851914 
531	 0.142881910474184 
532	 0.143051157017707 
533	 0.143246550805058 
534	 0.143602059731524 
535	 0.143918088484427 
536	 0.144046471601706 
537	 0.144175036303606 
538	 0.144555440537761 
539	 0.144834884484303 
540	 0.145029033533347 
541	 0.145201791003897 
542	 0.145436892255784 
543	 0.145665270729986 
544	 0.145948468576384 
545	 0.146318713085748 
546	 0.146557263646604 
547	 0.146804609239622 
548	 0.147073842949394 
549	 0.147272182913194 
550	 0.14759389506604 
551	 0.147892486438701 
552	 0.148081826581903 
553	 0.148398564485447 
554	 0.148711274509176 
555	 0.149012331961982 
556	 0.149354444899409 
557	 0.149731804464341 
558	 0.150104009934149 
559	 0.15048229545406 
560	 0.150987060538563 
561	 0.151382653944429 
562	 0.151730727425343 
563	 0.152164174412965 
564	 0.152593117336622 
565	 0.152928489011697 
566	 0.15318808327949 
567	 0.153506140117549 
568	 0.153884453903904 
569	 0.154355710212639 
570	 0.154941232817509 
571	 0.155644171329559 
572	 0.156281971767431 
573	 0.156793930106341 
574	 0.157223936093313 
575	 0.157702455947962 
576	 0.158243995714144 
577	 0.158825496387097 
578	 0.15939400077887 
579	 0.159962019101291 
580	 0.160541274918036 
581	 0.161140630974365 
582	 0.161730238818711 
583	 0.162316166847594 
584	 0.162921346828739 
585	 0.163590099752376 
586	 0.164331259184524 
587	 0.165053600848364 
588	 0.165695941201088 
589	 0.166466997912413 
590	 0.167234169547454 
591	 0.167937349980117 
592	 0.168598770154125 
593	 0.169275250087386 
594	 0.169857152550276 
595	 0.170306369980279 
596	 0.170858099434992 
597	 0.171413938004574 
598	 0.171966263762123 
599	 0.172550540157002 
600	 0.173134543054869 
601	 0.173697767153264 
602	 0.174252580348513 
603	 0.174877953574539 
604	 0.175414637398717 
605	 0.175944577999582 
606	 0.17659260866076 
607	 0.177208945108793 
608	 0.177804245015665 
609	 0.178388314588569 
610	 0.178959851336916 
611	 0.179447242676084 
612	 0.17988778144444 
613	 0.180325555030802 
614	 0.180733893300678 
615	 0.181113960378829 
616	 0.181465788012953 
617	 0.181793340442026 
618	 0.182181421700495 
619	 0.182565497342598 
620	 0.182893402899213 
621	 0.183180585700098 
622	 0.183478745901336 
623	 0.183800919509067 
624	 0.18413233274228 
625	 0.184400846382265 
626	 0.184683684904502 
627	 0.185002654124367 
628	 0.185290884662113 
629	 0.185565366631056 
630	 0.185819487860748 
631	 0.186057653785691 
632	 0.186337472107706 
633	 0.186656959106281 
634	 0.18694660716902 
635	 0.187100124873709 
636	 0.187304192453769 
637	 0.187589414936535 
638	 0.187906881921212 
639	 0.188074779348834 
640	 0.188345774177934 
641	 0.1886759697314 
642	 0.188903597914551 
643	 0.189121345289187 
644	 0.189369901127878 
645	 0.189650446386224 
646	 0.189916102279405 
647	 0.190094835669199 
648	 0.190298015152446 
649	 0.190631047856559 
650	 0.190939089666411 
651	 0.191174450162028 
652	 0.191388984948481 
653	 0.191707518047501 
654	 0.191987404268791 
655	 0.192249778464955 
656	 0.192529014130223 
657	 0.192815318414022 
658	 0.193097835452314 
659	 0.193371394802342 
660	 0.19363857363688 
661	 0.19393209177962 
662	 0.194243039591177 
663	 0.194532500747203 
664	 0.194718809119078 
665	 0.195073784404682 
666	 0.195476146499605 
667	 0.195756512272082 
668	 0.196059132072465 
669	 0.196385061908136 
670	 0.196723545213221 
671	 0.197055364358752 
672	 0.197364739899676 
673	 0.197699967585105 
674	 0.198071325338592 
675	 0.198367277948446 
676	 0.19869652905506 
677	 0.199053406927872 
678	 0.199390725596311 
679	 0.1997418387432 
680	 0.200117520388769 
681	 0.200508399278546 
682	 0.200882421643781 
683	 0.201216601422512 
684	 0.201583712454625 
685	 0.202026888192711 
686	 0.202387373479487 
687	 0.202788995835255 
688	 0.20321147601197 
689	 0.203542799718149 
690	 0.203905931773208 
691	 0.204285824170161 
692	 0.204677272652403 
693	 0.205148232808349 
694	 0.205539754022252 
695	 0.205902264772289 
696	 0.206329411425248 
697	 0.206675633954581 
698	 0.207068847333481 
699	 0.207527747162959 
700	 0.207942687751172 
701	 0.208355380133352 
702	 0.208751338091896 
703	 0.209124562654598 
704	 0.209518551111774 
705	 0.2099295342474 
706	 0.210342485944927 
707	 0.2107421817971 
708	 0.21117984829767 
709	 0.211598043049885 
710	 0.211984073239377 
711	 0.212408274068703 
712	 0.212762371670004 
713	 0.213093448967724 
714	 0.213471240552418 
715	 0.213878770123755 
716	 0.214243899256339 
717	 0.21457786378274 
718	 0.214952824379483 
719	 0.215385313585797 
720	 0.215750965178847 
721	 0.216001928809779 
722	 0.216267819178631 
723	 0.216598681186261 
724	 0.216943274830361 
725	 0.217233714965947 
726	 0.217544876249368 
727	 0.217819184885155 
728	 0.218050495651019 
729	 0.218286987691131 
730	 0.218579985769973 
731	 0.218844051055246 
732	 0.219034892383966 
733	 0.219264952004092 
734	 0.219517453939396 
735	 0.219721892416512 
736	 0.219819289025511 
737	 0.219979232668156 
738	 0.220137327747171 
739	 0.220266403894591 
740	 0.220398320000392 
741	 0.220516732322717 
742	 0.220617262195791 
743	 0.220707524774716 
744	 0.220832355253813 
745	 0.220854828323075 
746	 0.220835965465229 
747	 0.220904011011612 
748	 0.220916370399551 
749	 0.220913525698282 
750	 0.220934102808965 
751	 0.220993005837556 
752	 0.220967788213037 
753	 0.220867623652539 
754	 0.220757892347673 
755	 0.220765714968787 
756	 0.220781525800043 
757	 0.220709367625835 
758	 0.220504278923958 
759	 0.22040401697699 
760	 0.220360510586906 
761	 0.22030077334277 
762	 0.220161138920522 
763	 0.220043444980846 
764	 0.219920055528808 
765	 0.219765479164599 
766	 0.219655643213259 
767	 0.21953304930796 
768	 0.219386693442919 
769	 0.219229368500513 
770	 0.21905407250556 
771	 0.218907440168739 
772	 0.21877595140948 
773	 0.218572574022231 
774	 0.218329069535158 
775	 0.218141473795102 
776	 0.218038333286287 
777	 0.217825741743919 
778	 0.217617726987011 
779	 0.217454829002206 
780	 0.217324339897908 
781	 0.217106073123968 
782	 0.216892299225524 
783	 0.216716913964266 
784	 0.216535887883681 
785	 0.216386481732467 
786	 0.216214867013342 
787	 0.215981976614521 
788	 0.215705533414209 
789	 0.215563747907088 
790	 0.215458820253973 
791	 0.215225492991141 
792	 0.214969149556548 
793	 0.214755685143927 
794	 0.214590615472916 
795	 0.214424500959247 
796	 0.214205806585034 
797	 0.214012910291086 
798	 0.213879190387365 
799	 0.213719691500775 
800	 0.213530466926044 
801	 0.213341409551239 
802	 0.213173676334224 
803	 0.212953955123891 
804	 0.212808609270287 
805	 0.212708138030119 
806	 0.212533128697021 
807	 0.212327619695822 
808	 0.212168050651761 
809	 0.212047826565774 
810	 0.211851958006258 
811	 0.211719719653164 
812	 0.211578467246281 
813	 0.211382300061344 
814	 0.211289039277768 
815	 0.211212657309941 
816	 0.211088495290996 
817	 0.210898795120926 
818	 0.21082388050133 
819	 0.210730788970263 
820	 0.210566320845661 
821	 0.21037415132493 
822	 0.210299055134297 
823	 0.210213322859475 
824	 0.210061344751363 
825	 0.209973869375134 
826	 0.209954495347465 
827	 0.209871051375698 
828	 0.209659069643727 
829	 0.209594631812782 
830	 0.209493845623103 
831	 0.209355133079374 
832	 0.209268026753865 
833	 0.209290724976464 
834	 0.209241909674868 
835	 0.209105135026019 
836	 0.209030766184336 
837	 0.208996916931322 
838	 0.208964440692849 
839	 0.208903973455651 
840	 0.208812269646708 
841	 0.208708881766564 
842	 0.208637628534921 
843	 0.208621563544269 
844	 0.20860465418404 
845	 0.208604700669289 
846	 0.208597034225897 
847	 0.208553589524241 
848	 0.208538366991464 
849	 0.208516215897143 
850	 0.208474058351069 
851	 0.208425426649495 
852	 0.208393936595894 
853	 0.2083861320716 
854	 0.208398975625437 
855	 0.208420873955924 
856	 0.208467146570959 
857	 0.208504069911934 
858	 0.208505289602792 
859	 0.208486051109092 
860	 0.208507615650875 
861	 0.208532406886133 
862	 0.208511985262543 
863	 0.208519266405456 
864	 0.208569346665878 
865	 0.208635545424091 
866	 0.208672381382632 
867	 0.208695929748445 
868	 0.208744232413178 
869	 0.208812824906988 
870	 0.208855186783577 
871	 0.208884843710212 
872	 0.208959275840476 
873	 0.209093981840011 
874	 0.209227384049264 
875	 0.209340850424238 
876	 0.209402494003437 
877	 0.20941874655587 
878	 0.209486785468988 
879	 0.209621210279867 
880	 0.209740450598091 
881	 0.209782666178947 
882	 0.209920619211085 
883	 0.210075533706168 
884	 0.210200468112222 
885	 0.210288390542847 
886	 0.210432385917204 
887	 0.210559397975323 
888	 0.210663191434298 
889	 0.210799793272842 
890	 0.210947189485691 
891	 0.21107278719087 
892	 0.211170117063714 
893	 0.211270790395591 
894	 0.211481415584884 
895	 0.211698633648264 
896	 0.211848475443109 
897	 0.211987819719231 
898	 0.21219809547871 
899	 0.212435827663576 
900	 0.212626797692438 
901	 0.212707047152192 
902	 0.212862602225776 
903	 0.213099590135828 
904	 0.213337198775981 
905	 0.213442287244306 
906	 0.213615747621146 
907	 0.213899583044804 
908	 0.21422388814107 
909	 0.21443182932347 
910	 0.214666651401992 
911	 0.214909627406669 
912	 0.215058259992874 
913	 0.215276122424916 
914	 0.215579749270723 
915	 0.215905008964514 
916	 0.216143343104916 
917	 0.216336468833732 
918	 0.216563360863853 
919	 0.216840664780847 
920	 0.217110823694517 
921	 0.217435729099421 
922	 0.217747298959008 
923	 0.218017915659364 
924	 0.218309628783361 
925	 0.218609633200361 
926	 0.218887993677602 
927	 0.219139585385874 
928	 0.219408777038278 
929	 0.219785121276243 
930	 0.220184539528784 
931	 0.220531538728197 
932	 0.220888049613246 
933	 0.221178306659167 
934	 0.22147547149185 
935	 0.221845513162517 
936	 0.222211476125606 
937	 0.222516476796236 
938	 0.222792838065104 
939	 0.223116136134166 
940	 0.223588571124105 
941	 0.22395161911304 
942	 0.224336554664001 
943	 0.224898960180837 
944	 0.225239112111613 
945	 0.22555646463654 
946	 0.225904165714993 
947	 0.22626090902986 
948	 0.226616210790053 
949	 0.227018535676383 
950	 0.227481305693771 
951	 0.227983407662299 
952	 0.228460113805006 
953	 0.228885833812501 
954	 0.229310673943727 
955	 0.22979184098693 
956	 0.230196775848153 
957	 0.230556612656982 
958	 0.230907374277239 
959	 0.23129058997692 
960	 0.231776891725745 
961	 0.232378211622254 
962	 0.232954300516651 
963	 0.23332777828232 
964	 0.233658508651841 
965	 0.234088909873252 
966	 0.234630081985556 
967	 0.235191255644559 
968	 0.235697845394382 
969	 0.236147011147385 
970	 0.23658857691003 
971	 0.237082830448057 
972	 0.237567971399236 
973	 0.23807789482233 
974	 0.238617254059753 
975	 0.239147732841676 
976	 0.239529378459985 
977	 0.240014261913517 
978	 0.240636057614212 
979	 0.241240882422754 
980	 0.241633123429475 
981	 0.242121221665395 
982	 0.242749187968638 
983	 0.243362734796216 
984	 0.243877559211842 
985	 0.244280017761077 
986	 0.244718459570369 
987	 0.24533591998185 
988	 0.245824710443663 
989	 0.246317000574464 
990	 0.246798028068929 
991	 0.24723058336798 
992	 0.247857113738323 
993	 0.248517575482393 
994	 0.249105658209875 
995	 0.24959702185531 
996	 0.250147279004462 
997	 0.250516285590067 
998	 0.25089245719587 
999	 0.25149633280575 
1000	 0.252021661567948 
1001	 0.248731482181757 
1002	 0.249183396923925 
1003	 0.249574840288759 
1004	 0.250001342877807 
1005	 0.250425722001556 
1006	 0.250855631319853 
1007	 0.251300681386772 
1008	 0.251768484680749 
1009	 0.252202382078769 
1010	 0.252569728183334 
1011	 0.252964641388836 
1012	 0.253402786990007 
1013	 0.253844487873125 
1014	 0.254303826234299 
1015	 0.254792383185731 
1016	 0.25523735836873 
1017	 0.255633458801846 
1018	 0.255969702803336 
1019	 0.256347228871771 
1020	 0.256728859481913 
1021	 0.257036818087134 
1022	 0.257404308323495 
1023	 0.257755812814853 
1024	 0.258011344090745 
1025	 0.25835331209427 
1026	 0.258720383344682 
1027	 0.259107430616507 
1028	 0.259538927942777 
1029	 0.259868626496326 
1030	 0.260187248955212 
1031	 0.26052080929279 
1032	 0.26081856072877 
1033	 0.261097023341126 
1034	 0.261491500073113 
1035	 0.261861791352159 
1036	 0.262143269020751 
1037	 0.262477676961705 
1038	 0.262813231040608 
1039	 0.263175230322629 
1040	 0.263592470282077 
1041	 0.263915681453306 
1042	 0.264203345527722 
1043	 0.264493903108534 
1044	 0.264823134132249 
1045	 0.265152195326166 
1046	 0.265568864255365 
1047	 0.265952079251423 
1048	 0.266301916253013 
1049	 0.266642314095942 
1050	 0.266945924767997 
1051	 0.267261898064618 
1052	 0.26758606485921 
1053	 0.267913637254374 
1054	 0.268251441613214 
1055	 0.268606862620926 
1056	 0.268989199381028 
1057	 0.269332167192962 
1058	 0.26964911669783 
1059	 0.269952825438288 
1060	 0.270230409784309 
1061	 0.270506882935195 
1062	 0.270791166502946 
1063	 0.271132218224939 
1064	 0.271512365017156 
1065	 0.27183692202633 
1066	 0.272131544436097 
1067	 0.272424215028218 
1068	 0.272686053034589 
1069	 0.273008235423403 
1070	 0.273336389873619 
1071	 0.273718801112541 
1072	 0.274031042513569 
1073	 0.274328382228124 
1074	 0.274591586320857 
1075	 0.274796820371346 
1076	 0.275050381550611 
1077	 0.275279755304033 
1078	 0.275525177360317 
1079	 0.275762539824037 
1080	 0.275982071747874 
1081	 0.27620368791677 
1082	 0.276450280253379 
1083	 0.276716124854375 
1084	 0.277021891875811 
1085	 0.277281576383276 
1086	 0.277550791549746 
1087	 0.277783817418156 
1088	 0.27797528015617 
1089	 0.278181539303491 
1090	 0.278387526344539 
1091	 0.278608904792759 
1092	 0.278840021126835 
1093	 0.279057625700519 
1094	 0.279251120741311 
1095	 0.279430610523457 
1096	 0.279623928291167 
1097	 0.279823685189141 
1098	 0.280035301241768 
1099	 0.280295705713631 
1100	 0.28049979457145 
1101	 0.280659773186815 
1102	 0.28085776055557 
1103	 0.281053329219772 
1104	 0.281243292038391 
1105	 0.2814745793764 
1106	 0.281736235961511 
1107	 0.281956212565096 
1108	 0.282163090684726 
1109	 0.282338756892918 
1110	 0.282485768654085 
1111	 0.282665689166442 
1112	 0.282836065122156 
1113	 0.283034452536561 
1114	 0.283281378019105 
1115	 0.283481506295647 
1116	 0.28366562279479 
1117	 0.283864835497466 
1118	 0.28405113688364 
1119	 0.284238609389177 
1120	 0.284469273729962 
1121	 0.284648162698569 
1122	 0.284801145670907 
1123	 0.285016346633085 
1124	 0.285220994997317 
1125	 0.28542534298321 
1126	 0.285634612663393 
1127	 0.285870630810425 
1128	 0.286067074511694 
1129	 0.286250689488283 
1130	 0.286432541322978 
1131	 0.286586768217451 
1132	 0.286760470598115 
1133	 0.286937177348313 
1134	 0.287116663387855 
1135	 0.287303514184559 
1136	 0.287495021301238 
1137	 0.28767892347022 
1138	 0.28786679250227 
1139	 0.288049607448963 
1140	 0.288234622633764 
1141	 0.288404426228332 
1142	 0.288565155726306 
1143	 0.28872967555346 
1144	 0.288895570215266 
1145	 0.289044566588916 
1146	 0.289184530542669 
1147	 0.289324736580024 
1148	 0.28945019414401 
1149	 0.289582193808441 
1150	 0.289717389265195 
1151	 0.289848507227769 
1152	 0.290011841494515 
1153	 0.290161255194881 
1154	 0.290296199564261 
1155	 0.290427029426458 
1156	 0.290573230942315 
1157	 0.290708752071398 
1158	 0.290845264357558 
1159	 0.291004237137573 
1160	 0.291151097707738 
1161	 0.291271227053404 
1162	 0.291409223628289 
1163	 0.29157544230698 
1164	 0.291717737547563 
1165	 0.291844112299275 
1166	 0.291981382075409 
1167	 0.292106048093839 
1168	 0.292208936479134 
1169	 0.292355125856624 
1170	 0.292536139344258 
1171	 0.292670815014874 
1172	 0.292797617307723 
1173	 0.292943743842169 
1174	 0.29307147418982 
1175	 0.29320382355469 
1176	 0.293373697109197 
1177	 0.293514884548113 
1178	 0.293624107673216 
1179	 0.293742835400542 
1180	 0.293861753370764 
1181	 0.293982813760311 
1182	 0.294094615037618 
1183	 0.294218406163348 
1184	 0.294344940945651 
1185	 0.294481624605523 
1186	 0.294610256497351 
1187	 0.294737713260912 
1188	 0.294867520541675 
1189	 0.294994843528503 
1190	 0.295127335034121 
1191	 0.295278089474293 
1192	 0.295403168472628 
1193	 0.295501373485271 
1194	 0.295626219124714 
1195	 0.295763610374583 
1196	 0.295881000931197 
1197	 0.296005839434467 
1198	 0.296127797891449 
1199	 0.296240988241355 
1200	 0.296320624882243 
1201	 0.296439158919541 
1202	 0.296588291152213 
1203	 0.296702546636927 
1204	 0.296804005501676 
1205	 0.29692109312032 
1206	 0.297025323571458 
1207	 0.297144638804919 
1208	 0.297306757398626 
1209	 0.297421045708873 
1210	 0.297498360507132 
1211	 0.297599648050977 
1212	 0.297685077789948 
1213	 0.297783445146728 
1214	 0.297901072589934 
1215	 0.29802190890302 
1216	 0.298146317153918 
1217	 0.298281386073644 
1218	 0.298384935995773 
1219	 0.298481730634177 
1220	 0.298581121430686 
1221	 0.298656124892819 
1222	 0.298744719754131 
1223	 0.29885023714772 
1224	 0.298945498675717 
1225	 0.299021407213595 
1226	 0.29911723112817 
1227	 0.299236647325039 
1228	 0.299335783633924 
1229	 0.299431476518894 
1230	 0.299526567694463 
1231	 0.299610119383907 
1232	 0.299694155074043 
1233	 0.299778436230568 
1234	 0.299863259131954 
1235	 0.299957739094858 
1236	 0.300054005634594 
1237	 0.300149089582213 
1238	 0.300256312699218 
1239	 0.300353115190081 
1240	 0.300447823744143 
1241	 0.300530483959102 
1242	 0.30059663475185 
1243	 0.300680913887649 
1244	 0.300769833102296 
1245	 0.300848858753373 
1246	 0.300935560803596 
1247	 0.301020209571764 
1248	 0.301086766475363 
1249	 0.301159156118941 
1250	 0.301265386533334 
1251	 0.301361500026846 
1252	 0.301449441264211 
1253	 0.301536795595276 
1254	 0.301622412082234 
1255	 0.301701297680044 
1256	 0.301775637854156 
1257	 0.301860364785823 
1258	 0.301920137189356 
1259	 0.301939906159947 
1260	 0.301997755942995 
1261	 0.30206359163858 
1262	 0.302128019353638 
1263	 0.302220494729639 
1264	 0.302296917299845 
1265	 0.302360940818776 
1266	 0.302423343155699 
1267	 0.302485692958767 
1268	 0.302539353178583 
1269	 0.302596619873323 
1270	 0.30264128493119 
1271	 0.302711539810241 
1272	 0.302795326370815 
1273	 0.302873702273223 
1274	 0.3029607350185 
1275	 0.303049582106697 
1276	 0.303124146146797 
1277	 0.303231435303469 
1278	 0.303365109148937 
1279	 0.303489775678574 
1280	 0.303634204122138 
1281	 0.303767940713576 
1282	 0.30389705796527 
1283	 0.304022210871874 
1284	 0.30414166388566 
1285	 0.304260757425669 
1286	 0.304394674892257 
1287	 0.304520313598237 
1288	 0.304657319740343 
1289	 0.304817855615466 
1290	 0.304949446570767 
1291	 0.305074559205521 
1292	 0.30518974057076 
1293	 0.305293739778753 
1294	 0.305387264263974 
1295	 0.305467018384425 
1296	 0.305547233694216 
1297	 0.305619547755726 
1298	 0.305685978853891 
1299	 0.305755597493378 
1300	 0.305807717228398 
1301	 0.305840098412576 
1302	 0.30587776684793 
1303	 0.305905503741371 
1304	 0.305935906247862 
1305	 0.305975946780971 
1306	 0.305994236079871 
1307	 0.306010994217062 
1308	 0.306018814926407 
1309	 0.306011399257133 
1310	 0.30598428873267 
1311	 0.305967046639537 
1312	 0.305946779477435 
1313	 0.305913680901007 
1314	 0.305876955992412 
1315	 0.305843938703268 
1316	 0.305790579325432 
1317	 0.305756096652289 
1318	 0.305743494241932 
1319	 0.305713578572109 
1320	 0.305680889057363 
1321	 0.305647987301034 
1322	 0.305613171573221 
1323	 0.305568766287677 
1324	 0.305529146556183 
1325	 0.305485003579732 
1326	 0.305443688092042 
1327	 0.305402127855809 
1328	 0.305351874770418 
1329	 0.305318997798995 
1330	 0.30527795041569 
1331	 0.305243277381331 
1332	 0.305183462366651 
1333	 0.305113149049601 
1334	 0.305038657560009 
1335	 0.304929112748832 
1336	 0.304863339057594 
1337	 0.304813710179664 
1338	 0.30477024893927 
1339	 0.304750068391597 
1340	 0.304720317279556 
1341	 0.304705476252107 
1342	 0.304670813826059 
1343	 0.304616135503767 
1344	 0.304582873432745 
1345	 0.304542280010121 
1346	 0.304489797261121 
1347	 0.304459310186037 
1348	 0.304415371137513 
1349	 0.30434639846592 
1350	 0.304285884094048 
1351	 0.30423018624454 
1352	 0.304163510939276 
1353	 0.304123379091359 
1354	 0.30411520106899 
1355	 0.304069376245739 
1356	 0.304019528286696 
1357	 0.303969243619233 
1358	 0.303887681987382 
1359	 0.3038346172904 
1360	 0.303799614055094 
1361	 0.303761910237012 
1362	 0.30374512227677 
1363	 0.303705797878499 
1364	 0.303653219698884 
1365	 0.303604287176886 
1366	 0.303545217529721 
1367	 0.303481854717983 
1368	 0.303434317370336 
1369	 0.303410169472509 
1370	 0.303365621244526 
1371	 0.303284162577867 
1372	 0.303176284056117 
1373	 0.303055620976426 
1374	 0.302930614925753 
1375	 0.30279835714745 
1376	 0.302644427654788 
1377	 0.302489770107884 
1378	 0.302291685900758 
1379	 0.302055584650616 
1380	 0.301817888345157 
1381	 0.301562346422262 
1382	 0.301285881978207 
1383	 0.30100892223599 
1384	 0.300690382456092 
1385	 0.300359394975393 
1386	 0.29997086714388 
1387	 0.299536672697502 
1388	 0.299076903067937 
1389	 0.298588922923104 
1390	 0.298040235627479 
1391	 0.297474487398748 
1392	 0.296859076234011 
1393	 0.2961321090167 
1394	 0.295388250358125 
1395	 0.294589155366494 
1396	 0.293762819849751 
1397	 0.29298109624557 
1398	 0.292216321171496 
1399	 0.291432570568151 
1400	 0.2906643086693 
1401	 0.289873573367637 
1402	 0.289038783315998 
1403	 0.288262238935587 
1404	 0.287488322591922 
1405	 0.286764661923374 
1406	 0.286082307222121 
1407	 0.285417192529422 
1408	 0.284750621960918 
1409	 0.284165820996429 
1410	 0.283585242940167 
1411	 0.28312604208818 
1412	 0.282739374959851 
1413	 0.28246356714109 
1414	 0.282294135834311 
1415	 0.282193921398288 
1416	 0.282190074130587 
1417	 0.282251140662658 
1418	 0.282338380207134 
1419	 0.282454206777406 
1420	 0.282595750514815 
1421	 0.282725260624329 
1422	 0.282830422756899 
1423	 0.282927694602168 
1424	 0.282959986893584 
1425	 0.282926191360831 
1426	 0.282903419184854 
1427	 0.282831528071039 
1428	 0.282792839592364 
1429	 0.282760456756884 
1430	 0.282729663677282 
1431	 0.282720799282297 
1432	 0.282679147851344 
1433	 0.282620296168206 
1434	 0.282566884322375 
1435	 0.282466973514492 
1436	 0.282426901544692 
1437	 0.282427430067453 
1438	 0.282421548995473 
1439	 0.282446589661008 
1440	 0.282467104852323 
1441	 0.282462150656581 
1442	 0.282439227561505 
1443	 0.282392444851777 
1444	 0.282363761588222 
1445	 0.282345982436352 
1446	 0.282324969738798 
1447	 0.282339207078683 
1448	 0.282355729259292 
1449	 0.282339492548588 
1450	 0.282326793173585 
1451	 0.282321291848954 
1452	 0.282304783881877 
1453	 0.282299527373954 
1454	 0.28231557310167 
1455	 0.282312219065654 
1456	 0.282298792915316 
1457	 0.282287191404753 
1458	 0.28227231992739 
1459	 0.282259603334117 
1460	 0.282225093170599 
1461	 0.282234476255731 
1462	 0.282267575717514 
1463	 0.282299217587894 
1464	 0.282366602740096 
1465	 0.282417844816534 
1466	 0.282446870264943 
1467	 0.282499444576399 
1468	 0.282546695547091 
1469	 0.282626273301993 
1470	 0.282728756767089 
1471	 0.282852590918972 
1472	 0.282980785644752 
1473	 0.283133722170993 
1474	 0.28328149711032 
1475	 0.283431998941759 
1476	 0.283592225684547 
1477	 0.283751063819923 
1478	 0.283905593474717 
1479	 0.284054015290038 
1480	 0.284229547202694 
1481	 0.284412056353902 
1482	 0.284589530281975 
1483	 0.284788223948519 
1484	 0.284956535580925 
1485	 0.285099129685697 
1486	 0.285258624858517 
1487	 0.28540628068465 
1488	 0.285575178699639 
1489	 0.285772873598436 
1490	 0.285943217679542 
1491	 0.286108899655421 
1492	 0.286271731483824 
1493	 0.286416905413088 
1494	 0.286569754714112 
1495	 0.286733283113742 
1496	 0.286884236507461 
1497	 0.287026603860182 
1498	 0.287170264464817 
1499	 0.287318591723889 
1500	 0.287449671164634 
1501	 0.28756605550525 
1502	 0.287686959624413 
1503	 0.287792569817852 
1504	 0.287907441548463 
1505	 0.288041262055046 
1506	 0.288175425947249 
1507	 0.288306025568336 
1508	 0.288423289241809 
1509	 0.288541045254569 
1510	 0.288654188052491 
1511	 0.288754495497687 
1512	 0.288868097115909 
1513	 0.288980571168483 
1514	 0.289095746669072 
1515	 0.289226727423981 
1516	 0.289351785134604 
1517	 0.289469830835383 
1518	 0.289587071165062 
1519	 0.289692552268665 
1520	 0.289783045105565 
1521	 0.289887015698391 
1522	 0.28998196712099 
1523	 0.290092390256387 
1524	 0.290226290711755 
1525	 0.290335164732625 
1526	 0.290445579230102 
1527	 0.290541540787271 
1528	 0.290609673866694 
1529	 0.290696484157991 
1530	 0.29078967142692 
1531	 0.290870138531142 
1532	 0.290949321798305 
1533	 0.291030949291547 
1534	 0.29110823467979 
1535	 0.291183608155375 
1536	 0.291259250136443 
1537	 0.291335879367347 
1538	 0.29140378196507 
1539	 0.291477618911594 
1540	 0.291567433320249 
1541	 0.291643841298505 
1542	 0.291710571089738 
1543	 0.291777667139958 
1544	 0.291837757066302 
1545	 0.291899573801599 
1546	 0.291960187926862 
1547	 0.292027733777997 
1548	 0.292094744081551 
1549	 0.292144175780224 
1550	 0.292180831095746 
1551	 0.292233087958324 
1552	 0.292286849681829 
1553	 0.292359304711643 
1554	 0.292448687309806 
1555	 0.292504919084238 
1556	 0.292539081895902 
1557	 0.29257769346048 
1558	 0.292631791062118 
1559	 0.292697957722562 
1560	 0.292764928834031 
1561	 0.292860881862079 
1562	 0.292921025065704 
1563	 0.292956003087622 
1564	 0.293013442670837 
1565	 0.293070922017683 
1566	 0.293128702710104 
1567	 0.293202078341802 
1568	 0.293253782186996 
1569	 0.2932889504408 
1570	 0.293333805638053 
1571	 0.293379211447652 
1572	 0.293415356159331 
1573	 0.293447970367377 
1574	 0.29348438342599 
1575	 0.293512762511329 
1576	 0.293543977376129 
1577	 0.293583076915565 
1578	 0.293618086680729 
1579	 0.293632727171855 
1580	 0.293681782547841 
1581	 0.293756250472871 
1582	 0.293819191811711 
1583	 0.293908522023309 
1584	 0.29396388366382 
1585	 0.293999337330024 
1586	 0.294031739237997 
1587	 0.294051121888361 
1588	 0.294064736955815 
1589	 0.294056846055214 
1590	 0.294066772899813 
1591	 0.294071577604114 
1592	 0.294091593938281 
1593	 0.294127528653076 
1594	 0.294170869849279 
1595	 0.294228914650539 
1596	 0.294279735765106 
1597	 0.294355450019378 
1598	 0.294399670758738 
1599	 0.294434924914563 
1600	 0.294442772665809 
1601	 0.294395369152667 
1602	 0.294382062340327 
1603	 0.294345610129493 
1604	 0.294349460545142 
1605	 0.294424412273079 
1606	 0.294456108595542 
1607	 0.294485146919612 
1608	 0.294505504201688 
1609	 0.294517338304497 
1610	 0.294510137657166 
1611	 0.294492298388561 
1612	 0.294495916984664 
1613	 0.29447977442954 
1614	 0.294462838449826 
1615	 0.294482553343904 
1616	 0.294510865394324 
1617	 0.294544829469488 
1618	 0.29458278246002 
1619	 0.294640114972022 
1620	 0.294692215139467 
1621	 0.294719180865972 
1622	 0.294741196977684 
1623	 0.294748345089497 
1624	 0.294724317515374 
1625	 0.294721810065392 
1626	 0.29472395721849 
1627	 0.294725145210829 
1628	 0.294724214595579 
1629	 0.294729016738027 
1630	 0.2947334187712 
1631	 0.294752429171405 
1632	 0.294791836681245 
1633	 0.29479723914952 
1634	 0.294807227316485 
1635	 0.294784146338144 
1636	 0.29471028766146 
1637	 0.294687634943427 
1638	 0.294669697069399 
1639	 0.294663830919729 
1640	 0.294681546119053 
1641	 0.294699183915093 
1642	 0.294725513709567 
1643	 0.29473869734048 
1644	 0.29475538301752 
1645	 0.294776807123848 
1646	 0.294794889622627 
1647	 0.294801013811149 
1648	 0.294816587368303 
1649	 0.294814124255544 
1650	 0.29478506516902 
1651	 0.294766207800467 
1652	 0.294747153024153 
1653	 0.294732344246312 
1654	 0.294715590337006 
1655	 0.294698230546139 
1656	 0.294694527401087 
1657	 0.294667722179865 
1658	 0.294632219467563 
1659	 0.294581294504412 
1660	 0.294498485090241 
1661	 0.294449995058313 
1662	 0.294398533631057 
1663	 0.294365750352786 
1664	 0.294373222417836 
1665	 0.294346119115321 
1666	 0.294304481838943 
1667	 0.29427279046458 
1668	 0.294231437893293 
1669	 0.294199563283284 
1670	 0.294183983522386 
1671	 0.29415344910931 
1672	 0.294105966614087 
1673	 0.29408293300808 
1674	 0.294061350832544 
1675	 0.294055237301519 
1676	 0.294079305667664 
1677	 0.294082543288687 
1678	 0.294093719144017 
1679	 0.294080246096346 
1680	 0.29404055021405 
1681	 0.294019625264941 
1682	 0.293985908039682 
1683	 0.293971457674121 
1684	 0.293973230574795 
1685	 0.293978985407965 
1686	 0.294009306576371 
1687	 0.294003847224303 
1688	 0.293996289454888 
1689	 0.293968293964154 
1690	 0.293901937087349 
1691	 0.29385148502953 
1692	 0.293786295412514 
1693	 0.293755127800967 
1694	 0.293736384439342 
1695	 0.293725061934356 
1696	 0.293743668940496 
1697	 0.293748091428738 
1698	 0.293761115612665 
1699	 0.293750553771245 
1700	 0.293739845080052 
1701	 0.293701169709239 
1702	 0.293618296296727 
1703	 0.293566689833519 
1704	 0.29352762383 
1705	 0.293459797711301 
1706	 0.293387465439079 
1707	 0.293314332216773 
1708	 0.293200191459207 
1709	 0.293134372897072 
1710	 0.293111758969407 
1711	 0.293060022375768 
1712	 0.293018085744725 
1713	 0.292954138327125 
1714	 0.292854917999045 
1715	 0.292789305859683 
1716	 0.292718470622822 
1717	 0.292681652684174 
1718	 0.292691872491769 
1719	 0.2926668129341 
1720	 0.292646429088316 
1721	 0.292615323702756 
1722	 0.292563244874069 
1723	 0.292512156754052 
1724	 0.292469959720538 
1725	 0.292410356163643 
1726	 0.292333590465647 
1727	 0.292252506842157 
1728	 0.292161159179879 
1729	 0.292071967954822 
1730	 0.291969581972436 
1731	 0.291890802438903 
1732	 0.291827549228264 
1733	 0.291747563779745 
1734	 0.291672255620995 
1735	 0.291591666513056 
1736	 0.291499395892661 
1737	 0.291411759197571 
1738	 0.29132604649503 
1739	 0.291236699520766 
1740	 0.291140670074608 
1741	 0.291059439557869 
1742	 0.290991712286694 
1743	 0.290910692073266 
1744	 0.290828989215917 
1745	 0.290733937647653 
1746	 0.290624272048951 
1747	 0.290523952522977 
1748	 0.290434963723888 
1749	 0.290348073577763 
1750	 0.290262046192888 
1751	 0.290179958328504 
1752	 0.290092134294055 
1753	 0.29000117398843 
1754	 0.289895979062723 
1755	 0.289772220496693 
1756	 0.289651113139097 
1757	 0.289528489894157 
1758	 0.289390962235911 
1759	 0.289276288883116 
1760	 0.289203319419493 
1761	 0.289125086742304 
1762	 0.289059163394245 
1763	 0.28898445558829 
1764	 0.288871950485449 
1765	 0.288790892755935 
1766	 0.288692652444818 
1767	 0.288558762527338 
1768	 0.288443098080116 
1769	 0.288348554346504 
1770	 0.28827310452864 
1771	 0.288224914017469 
1772	 0.288188304400918 
1773	 0.288104802270776 
1774	 0.28801942420161 
1775	 0.287955425279359 
1776	 0.287867536455727 
1777	 0.287809046350062 
1778	 0.287759176583917 
1779	 0.287683825439665 
1780	 0.287640449695703 
1781	 0.287578812189745 
1782	 0.287488329336801 
1783	 0.287431233747681 
1784	 0.287392877109802 
1785	 0.287402700610644 
1786	 0.287372388168683 
1787	 0.287330068636606 
1788	 0.287288549454468 
1789	 0.287207005473338 
1790	 0.287151391492896 
1791	 0.287131982157588 
1792	 0.28708661716655 
1793	 0.287010195640895 
1794	 0.286990788581968 
1795	 0.286994080666946 
1796	 0.286982648551495 
1797	 0.287024131153932 
1798	 0.287000637422859 
1799	 0.286913088308896 
1800	 0.286875433053057 
1801	 0.285677036211708 
1802	 0.285863722295311 
1803	 0.286079112219464 
1804	 0.286278155861107 
1805	 0.286527019967221 
1806	 0.286779788412641 
1807	 0.286993889561252 
1808	 0.28717387998793 
1809	 0.287346996065534 
1810	 0.287481447804278 
1811	 0.287564461156729 
1812	 0.287644204687782 
1813	 0.287731171922543 
1814	 0.28776530184464 
1815	 0.287778800598317 
1816	 0.287779507091836 
1817	 0.287784591049759 
1818	 0.287775809268013 
1819	 0.287775779088502 
1820	 0.28778105738822 
1821	 0.287779469460386 
1822	 0.287778661091574 
1823	 0.287760223962984 
1824	 0.287765976063873 
1825	 0.287790355485302 
1826	 0.287816577357127 
1827	 0.287841116811249 
1828	 0.287818336024807 
1829	 0.287749875805253 
1830	 0.287693979331346 
1831	 0.287606636539645 
1832	 0.287534548144203 
1833	 0.287488385081505 
1834	 0.287437927253982 
1835	 0.287396883348697 
1836	 0.287345514358259 
1837	 0.287278105761194 
1838	 0.287228057744762 
1839	 0.28717395121808 
1840	 0.287121103923417 
1841	 0.28705599713331 
1842	 0.286996665270686 
1843	 0.286946165390346 
1844	 0.286886866533935 
1845	 0.286800897879174 
1846	 0.286730890699992 
1847	 0.286679266621735 
1848	 0.286613657111797 
1849	 0.286572978690978 
1850	 0.286530902437196 
1851	 0.28650101388187 
1852	 0.28643480548978 
1853	 0.286383975667851 
1854	 0.286301828570432 
1855	 0.286190229699067 
1856	 0.286081855971202 
1857	 0.285939473288445 
1858	 0.285800598082064 
1859	 0.285658167695925 
1860	 0.285475545159991 
1861	 0.285264153742423 
1862	 0.28501999247409 
1863	 0.28477655192092 
1864	 0.284514866002258 
1865	 0.284216171195052 
1866	 0.283903611980439 
1867	 0.283528815328837 
1868	 0.283115077390095 
1869	 0.282684576261796 
1870	 0.282239834862007 
1871	 0.281774477215584 
1872	 0.281307880330215 
1873	 0.280795960511593 
1874	 0.280249458857543 
1875	 0.279644126847232 
1876	 0.278974061189883 
1877	 0.278271892033127 
1878	 0.277485957146753 
1879	 0.276637096363202 
1880	 0.275727675390505 
1881	 0.274767164679126 
1882	 0.273709365639705 
1883	 0.272586820020888 
1884	 0.271365204033589 
1885	 0.270053936696866 
1886	 0.268644765308798 
1887	 0.267145584458962 
1888	 0.265578681730146 
1889	 0.263942058397578 
1890	 0.262247375136518 
1891	 0.26052731576155 
1892	 0.258754001970045 
1893	 0.256947648589014 
1894	 0.255098049262758 
1895	 0.253224251523396 
1896	 0.251309486930461 
1897	 0.249424746719892 
1898	 0.247530768287758 
1899	 0.245661126501681 
1900	 0.24386443395112 
1901	 0.242101830152856 
1902	 0.240416921855927 
1903	 0.238831758286806 
1904	 0.237280492303506 
1905	 0.235769951447829 
1906	 0.234331829230864 
1907	 0.232971505701099 
1908	 0.231658192299498 
1909	 0.230414691879086 
1910	 0.229229791012176 
1911	 0.228129955655 
1912	 0.227110717169412 
1913	 0.22614866461043 
1914	 0.225292817415983 
1915	 0.224450903437176 
1916	 0.223647135305435 
1917	 0.222878760828884 
1918	 0.222195567540926 
1919	 0.22155591674164 
1920	 0.220985137821633 
1921	 0.220488826897641 
1922	 0.220025554554821 
1923	 0.219601159711456 
1924	 0.219228663416985 
1925	 0.218921116330956 
1926	 0.218633395737163 
1927	 0.218382390201486 
1928	 0.218167150700512 
1929	 0.217989863206415 
1930	 0.217848424642368 
1931	 0.217763084800878 
1932	 0.217715704338493 
1933	 0.217677474983548 
1934	 0.217662346827005 
1935	 0.217674594051232 
1936	 0.217697434381828 
1937	 0.217763858604983 
1938	 0.21788190936076 
1939	 0.218000706723354 
1940	 0.21814774854001 
1941	 0.218290475889049 
1942	 0.218460172676196 
1943	 0.218654749406498 
1944	 0.218867114470326 
1945	 0.219126159827712 
1946	 0.219386586096417 
1947	 0.219664884209231 
1948	 0.219949231688684 
1949	 0.220254121222729 
1950	 0.220553993518146 
1951	 0.220855720411567 
1952	 0.221171208836434 
1953	 0.221474073715393 
1954	 0.221804527878125 
1955	 0.222160993878779 
1956	 0.222530014239252 
1957	 0.222903214209925 
1958	 0.223311192488012 
1959	 0.223686964038491 
1960	 0.224031461210233 
1961	 0.224413098955894 
1962	 0.224805015920118 
1963	 0.225205743204711 
1964	 0.225618083085373 
1965	 0.226052787042482 
1966	 0.226507144376053 
1967	 0.226957742493881 
1968	 0.227413790059341 
1969	 0.227902698519877 
1970	 0.22835722204188 
1971	 0.228783008414966 
1972	 0.229233399414803 
1973	 0.22969194917494 
1974	 0.230142139313143 
1975	 0.23060504524201 
1976	 0.231054258502825 
1977	 0.231482116558388 
1978	 0.231908332187488 
1979	 0.232338535842582 
1980	 0.232790765827977 
1981	 0.233229596214965 
1982	 0.233670694451675 
1983	 0.23411152264749 
1984	 0.234525437886804 
1985	 0.234980432441503 
1986	 0.235472554462292 
1987	 0.235943947905213 
1988	 0.236420943320462 
1989	 0.236919421493456 
1990	 0.237376877613475 
1991	 0.237829239942397 
1992	 0.238295885499789 
1993	 0.238774230680799 
1994	 0.239234995665591 
1995	 0.239692749148138 
1996	 0.240149749464491 
1997	 0.240599147150092 
1998	 0.241047273279549 
1999	 0.241494706764064 
2000	 0.241945424638926 
2001	 0.242405812951428 
2002	 0.242838186756791 
2003	 0.243270417792024 
2004	 0.243722010705631 
2005	 0.244158030624896 
2006	 0.244584558528501 
2007	 0.245007980229546 
2008	 0.245429204175319 
2009	 0.245845936003379 
2010	 0.246250069866312 
2011	 0.246662641321022 
2012	 0.247093005100061 
2013	 0.247496704033335 
2014	 0.24789194172378 
2015	 0.248278063166764 
2016	 0.248627360028597 
2017	 0.248978183207207 
2018	 0.249358498053189 
2019	 0.249747826238375 
2020	 0.250141664135582 
2021	 0.250574758148866 
2022	 0.250969573824307 
2023	 0.251345973504881 
2024	 0.251725339095257 
2025	 0.252091468624278 
2026	 0.252463140655385 
2027	 0.252842968002298 
2028	 0.253200351966763 
2029	 0.253578953934669 
2030	 0.253971621445007 
2031	 0.254338422092131 
2032	 0.254710530529908 
2033	 0.255060504298344 
2034	 0.25538882038291 
2035	 0.255707063704814 
2036	 0.256017468510753 
2037	 0.256316498701677 
2038	 0.256597567897188 
2039	 0.256869612680192 
2040	 0.257138982182961 
2041	 0.257377720868216 
2042	 0.257616522521913 
2043	 0.257869561109507 
2044	 0.258141864980587 
2045	 0.258436355288373 
2046	 0.258722317713601 
2047	 0.259029865029443 
2048	 0.259314928343008 
2049	 0.25959158156556 
2050	 0.259862996224634 
2051	 0.260134984707979 
2052	 0.260384901403369 
2053	 0.260605750582923 
2054	 0.260841620760734 
2055	 0.261064778367256 
2056	 0.261297539499948 
2057	 0.261534242435698 
2058	 0.261796189470491 
2059	 0.262023219937546 
2060	 0.262229013108049 
2061	 0.262450796976232 
2062	 0.262666391837468 
2063	 0.262884048979162 
2064	 0.263129416788791 
2065	 0.263334904060664 
2066	 0.263514003379296 
2067	 0.263693832996707 
2068	 0.263848547917199 
2069	 0.26400731663071 
2070	 0.26417687797214 
2071	 0.264344367846057 
2072	 0.264531340225791 
2073	 0.264735323461106 
2074	 0.264932769822787 
2075	 0.265152139251665 
2076	 0.265345918965822 
2077	 0.265513932636414 
2078	 0.265703577191796 
2079	 0.265891967312348 
2080	 0.266085741837504 
2081	 0.266297705588546 
2082	 0.266502511948211 
2083	 0.266707287185115 
2084	 0.266906532745188 
2085	 0.267102704770395 
2086	 0.267303112583696 
2087	 0.267486780890702 
2088	 0.267653762560997 
2089	 0.267832057401144 
2090	 0.268013472659062 
2091	 0.268177914965112 
2092	 0.268336057192997 
2093	 0.26849620254296 
2094	 0.268646533297185 
2095	 0.268792048624517 
2096	 0.268924066795439 
2097	 0.269080027506599 
2098	 0.269242792351291 
2099	 0.269403709764107 
2100	 0.269565619574304 
2101	 0.269754627434667 
2102	 0.269915896044095 
2103	 0.27004466609674 
2104	 0.270208583545877 
2105	 0.270382478167707 
2106	 0.270559344348807 
2107	 0.270753704730192 
2108	 0.270941614990546 
2109	 0.27112856040352 
2110	 0.271320529082772 
2111	 0.271512182504186 
2112	 0.271710059719766 
2113	 0.271919702653422 
2114	 0.272126035991301 
2115	 0.272315795630016 
2116	 0.272498640341205 
2117	 0.272686216044094 
2118	 0.272864007347439 
2119	 0.273041007699593 
2120	 0.273224683970594 
2121	 0.273404839770871 
2122	 0.27358343539571 
2123	 0.273743215698799 
2124	 0.273903936713295 
2125	 0.274049239347919 
2126	 0.274169080712503 
2127	 0.274287358231835 
2128	 0.274401650744981 
2129	 0.274508224864282 
2130	 0.274594383876035 
2131	 0.274695512810411 
2132	 0.274776051920281 
2133	 0.274850602442713 
2134	 0.274916989049376 
2135	 0.274970234924736 
2136	 0.275020286177176 
2137	 0.275086665035343 
2138	 0.275098813505879 
2139	 0.275069211969018 
2140	 0.275054535856967 
2141	 0.275015342853033 
2142	 0.27497220919713 
2143	 0.274971084021129 
2144	 0.27489998213239 
2145	 0.274768216208822 
2146	 0.274638599409361 
2147	 0.274464236496527 
2148	 0.274298491930044 
2149	 0.274122658590769 
2150	 0.273935624203794 
2151	 0.273767264827095 
2152	 0.273590134990092 
2153	 0.273432484251373 
2154	 0.27332810815457 
2155	 0.273152885444661 
2156	 0.272972453319197 
2157	 0.272743085087826 
2158	 0.272444108284552 
2159	 0.272160504403852 
2160	 0.271851482525021 
2161	 0.271544851736688 
2162	 0.271216264003023 
2163	 0.270915031700986 
2164	 0.270619485105534 
2165	 0.270333830737069 
2166	 0.270057628681333 
2167	 0.269821096607025 
2168	 0.269530142239762 
2169	 0.269220980619038 
2170	 0.268908487239825 
2171	 0.268572092104805 
2172	 0.268240061064066 
2173	 0.267922064785654 
2174	 0.26756709273878 
2175	 0.267177073861154 
2176	 0.266801826434249 
2177	 0.266414565455541 
2178	 0.266024798980974 
2179	 0.265667729005038 
2180	 0.265258775021479 
2181	 0.264821429843914 
2182	 0.264360912960361 
2183	 0.263850077335341 
2184	 0.263336945454542 
2185	 0.262833140428828 
2186	 0.262309835180005 
2187	 0.261815497356574 
2188	 0.261330052511182 
2189	 0.260865060769884 
2190	 0.260401116188963 
2191	 0.259981114962256 
2192	 0.259589820899669 
2193	 0.259222299037193 
2194	 0.25887659272716 
2195	 0.258573219899481 
2196	 0.258313293681474 
2197	 0.258060293963745 
2198	 0.257835490330729 
2199	 0.257641093204115 
2200	 0.257455929016066 
2201	 0.257307303110888 
2202	 0.257205444933559 
2203	 0.257115143658848 
2204	 0.257074704991407 
2205	 0.257050307683087 
2206	 0.257108485769985 
2207	 0.257230185648576 
2208	 0.25738673638468 
2209	 0.257604197331437 
2210	 0.2578545617452 
2211	 0.258165074366674 
2212	 0.258467249460082 
2213	 0.2588173308121 
2214	 0.259151298968837 
2215	 0.259509929330367 
2216	 0.259819828397308 
2217	 0.260125664397691 
2218	 0.260399035554831 
2219	 0.260601983343944 
2220	 0.260835555452907 
2221	 0.26109022115748 
2222	 0.261308510059926 
2223	 0.261521091072916 
2224	 0.26172475305151 
2225	 0.261878129820247 
2226	 0.261988629084716 
2227	 0.262086206414599 
2228	 0.26213810356462 
2229	 0.262215728686013 
2230	 0.262290706179437 
2231	 0.262343090230511 
2232	 0.262415470358633 
2233	 0.262428647130903 
2234	 0.262378071814117 
2235	 0.262353759559523 
2236	 0.262303664120555 
2237	 0.262269107211724 
2238	 0.262251838310639 
2239	 0.262220656287168 
2240	 0.262189184876263 
2241	 0.262145612805722 
2242	 0.262098084599484 
2243	 0.262036413696325 
2244	 0.261969132113212 
2245	 0.26187902777854 
2246	 0.261769332647463 
2247	 0.261659707387717 
2248	 0.261537080360205 
2249	 0.26138325892092 
2250	 0.261278044804497 
2251	 0.261181342604907 
2252	 0.261100805779552 
2253	 0.261062136663969 
2254	 0.260989921264162 
2255	 0.26091194393558 
2256	 0.260827275349134 
2257	 0.260722413477323 
2258	 0.260643168093371 
2259	 0.260551961262685 
2260	 0.26049994957797 
2261	 0.260501638258354 
2262	 0.260463932195913 
2263	 0.260417366681604 
2264	 0.26039234571944 
2265	 0.260345914435483 
2266	 0.260328682903576 
2267	 0.260343218410363 
2268	 0.260369115955443 
2269	 0.260402534593831 
2270	 0.260463553091086 
2271	 0.260532374118156 
2272	 0.260595270245118 
2273	 0.260631539443665 
2274	 0.260622213339794 
2275	 0.260647889115822 
2276	 0.260667720651921 
2277	 0.260691983236693 
2278	 0.26073425611298 
2279	 0.26076720936608 
2280	 0.260769429012811 
2281	 0.260820413550296 
2282	 0.260917992290724 
2283	 0.26097714968007 
2284	 0.261028433332349 
2285	 0.261097442504082 
2286	 0.261184673828039 
2287	 0.261222090821741 
2288	 0.261268239166168 
2289	 0.261275476398255 
2290	 0.261218977403866 
2291	 0.261161798623413 
2292	 0.261093203288671 
2293	 0.261024495609479 
2294	 0.26090024690895 
2295	 0.26081952700929 
2296	 0.260765264056461 
2297	 0.26071330901973 
2298	 0.260676507878059 
2299	 0.260672802525089 
2300	 0.260695696400029 
2301	 0.260700473991716 
2302	 0.260659126155363 
2303	 0.26067173554687 
2304	 0.260677306881673 
2305	 0.260627099069293 
2306	 0.260543561367438 
2307	 0.260453332188682 
2308	 0.260321152957101 
2309	 0.260094485846867 
2310	 0.259939117466095 
2311	 0.259793474262528 
2312	 0.259667499546479 
2313	 0.259569301594103 
2314	 0.259463156486255 
2315	 0.259370609269653 
2316	 0.259271682083146 
2317	 0.259167412229585 
2318	 0.259061986377714 
2319	 0.258961467430165 
2320	 0.258853249242271 
2321	 0.258753484300295 
2322	 0.258636155778073 
2323	 0.25850445543809 
2324	 0.258373196264521 
2325	 0.258212340924398 
2326	 0.258070771081073 
2327	 0.257949335977296 
2328	 0.257807830647767 
2329	 0.257650645571205 
2330	 0.257522501979776 
2331	 0.257397745417753 
2332	 0.257265795906904 
2333	 0.257132036736195 
2334	 0.257011512740294 
2335	 0.256868515555498 
2336	 0.256751010683483 
2337	 0.256663647368505 
2338	 0.256510882416021 
2339	 0.256301412064995 
2340	 0.256085893998497 
2341	 0.25591727860944 
2342	 0.255739411926953 
2343	 0.255566974039394 
2344	 0.255473121151418 
2345	 0.255336492682616 
2346	 0.255196730532787 
2347	 0.255014846887904 
2348	 0.254802305575589 
2349	 0.254596938048988 
2350	 0.254366628472475 
2351	 0.254125477462409 
2352	 0.253894268255443 
2353	 0.253649542710464 
2354	 0.253311640956866 
2355	 0.253126455504728 
2356	 0.253053177064081 
2357	 0.252903293411828 
2358	 0.252814058302759 
2359	 0.252656579477181 
2360	 0.252428266251589 
2361	 0.252240006236864 
2362	 0.252042358148975 
2363	 0.251868625253719 
2364	 0.25168525933105 
2365	 0.251492795609243 
2366	 0.251379389282677 
2367	 0.251177170120918 
2368	 0.250890163873072 
2369	 0.250677176285213 
2370	 0.250458517359463 
2371	 0.250212322796592 
2372	 0.250071884362974 
2373	 0.24983774337166 
2374	 0.249539840040601 
2375	 0.24921833623594 
2376	 0.248858066284009 
2377	 0.248511873110871 
2378	 0.248186127874884 
2379	 0.247901584732337 
2380	 0.247630540158528 
2381	 0.247373463900247 
2382	 0.247161004910089 
2383	 0.246872941820886 
2384	 0.246507344158294 
2385	 0.246192067205141 
2386	 0.245876230069577 
2387	 0.245556762984836 
2388	 0.245276903983337 
2389	 0.244987981737348 
2390	 0.244659401916722 
2391	 0.24435369906045 
2392	 0.244040590192243 
2393	 0.243739816724358 
2394	 0.243489918573736 
2395	 0.24320900697638 
2396	 0.242940741356847 
2397	 0.242701058498663 
2398	 0.242438120604754 
2399	 0.24213205067376 
2400	 0.241832214104962 
2401	 0.241463352366264 
2402	 0.241042188488395 
2403	 0.240652136143625 
2404	 0.24021684181144 
2405	 0.239826391990342 
2406	 0.239481655319805 
2407	 0.239062020883796 
2408	 0.238636520105413 
2409	 0.23817475458068 
2410	 0.237622789042145 
2411	 0.237152889671922 
2412	 0.236775715066446 
2413	 0.236491164954135 
2414	 0.236217914930057 
2415	 0.235842392517884 
2416	 0.235470733368427 
2417	 0.235022509832659 
2418	 0.23458003409419 
2419	 0.234157849346277 
2420	 0.233726806750517 
2421	 0.233262535183894 
2422	 0.232789206143775 
2423	 0.232297008878814 
2424	 0.231828622765022 
2425	 0.231356301757177 
2426	 0.230920455732491 
2427	 0.230533824533753 
2428	 0.230144801043859 
2429	 0.229766581737914 
2430	 0.229309098050494 
2431	 0.228803236029962 
2432	 0.228370707697594 
2433	 0.227947448014681 
2434	 0.227523629226803 
2435	 0.22713961292362 
2436	 0.226746502420167 
2437	 0.226317893784256 
2438	 0.225895656086204 
2439	 0.22548956876105 
2440	 0.225123695591719 
2441	 0.224753240154169 
2442	 0.224446794380594 
2443	 0.224262942827476 
2444	 0.223961619880776 
2445	 0.223611703384233 
2446	 0.223234541878367 
2447	 0.222808972915475 
2448	 0.222385150554319 
2449	 0.221916978619918 
2450	 0.221561384987734 
2451	 0.221243345217875 
2452	 0.220888485173743 
2453	 0.220628537165426 
2454	 0.220229271899165 
2455	 0.219732307193271 
2456	 0.219252832294834 
2457	 0.218665662942036 
2458	 0.21828256239258 
2459	 0.217975091465032 
2460	 0.217668962867758 
2461	 0.217571444370643 
2462	 0.217300396069216 
2463	 0.216830916520328 
2464	 0.216489424459115 
2465	 0.216235908206337 
2466	 0.215844510620654 
2467	 0.215434610908257 
2468	 0.21514688437158 
2469	 0.21479579507224 
2470	 0.214466503559282 
2471	 0.214097489941443 
2472	 0.213553983157141 
2473	 0.213183257716441 
2474	 0.212998922188199 
2475	 0.212924520500849 
2476	 0.212765642366256 
2477	 0.212449563908806 
2478	 0.212169925962336 
2479	 0.211885348872167 
2480	 0.211557132315282 
2481	 0.211291411557543 
2482	 0.210976590167292 
2483	 0.210533882512224 
2484	 0.210316024301423 
2485	 0.210233161596251 
2486	 0.210041570765523 
2487	 0.209905481011586 
2488	 0.209662880164216 
2489	 0.209291091965166 
2490	 0.208890278283255 
2491	 0.208475590106269 
2492	 0.208165170856278 
2493	 0.207892165259418 
2494	 0.207647921077448 
2495	 0.207248568921192 
2496	 0.206836307988502 
2497	 0.206555673078423 
2498	 0.206244457881099 
2499	 0.206115849939835 
2500	 0.20592316200836 
