Wavelength	mm1900004.asd
350	 3.77874535156958E-02 
351	 5.70400550711089E-02 
352	 5.55359073512791E-02 
353	 2.71681698626094E-02 
354	 3.36748769635044E-02 
355	 4.76660911937261E-02 
356	 5.02750506574719E-02 
357	 3.68994016385746E-02 
358	 4.43969814305675E-02 
359	 4.56725025865751E-02 
360	 0.039771138561569 
361	 4.21737490818493E-02 
362	 4.11244543349861E-02 
363	 4.15383414913009E-02 
364	 4.33602459782758E-02 
365	 3.51414451295577E-02 
366	 0.034689058158983 
367	 3.81669282233823E-02 
368	 3.81635029130988E-02 
369	 3.93716935814507E-02 
370	 3.79940399408604E-02 
371	 3.63257357102514E-02 
372	 3.99167892187882E-02 
373	 4.01747208550193E-02 
374	 0.040524855849471 
375	 4.27941362861138E-02 
376	 4.35376624651439E-02 
377	 4.10869466631857E-02 
378	 3.92524731827128E-02 
379	 4.15542383251879E-02 
380	 4.29292308846469E-02 
381	 4.13725419705033E-02 
382	 4.00735047998823E-02 
383	 4.48231103907422E-02 
384	 4.43774088368326E-02 
385	 4.22700781931743E-02 
386	 4.22313541272473E-02 
387	 4.44018703356997E-02 
388	 4.40193835272231E-02 
389	 4.28966359429708E-02 
390	 4.39335037848047E-02 
391	 4.41639543960726E-02 
392	 4.34559310803991E-02 
393	 4.30650691836822E-02 
394	 4.50087344288491E-02 
395	 0.046344070663272 
396	 4.64104430062512E-02 
397	 4.59200277075056E-02 
398	 4.77857539764227E-02 
399	 4.84563735524201E-02 
400	 4.81060301396803E-02 
401	 0.048101792785798 
402	 4.81335475604722E-02 
403	 0.047090523728259 
404	 4.54652011564883E-02 
405	 4.52871103577567E-02 
406	 4.68192295806597E-02 
407	 4.87334685307451E-02 
408	 4.96133447603759E-02 
409	 4.83996223103942E-02 
410	 4.80463142368133E-02 
411	 4.87284259651257E-02 
412	 4.92650906196259E-02 
413	 0.049397877145818 
414	 4.94154615454194E-02 
415	 4.94836832919343E-02 
416	 4.95390623500209E-02 
417	 4.91859379079589E-02 
418	 4.92454138598369E-02 
419	 5.01673185138266E-02 
420	 5.02805703779436E-02 
421	 4.97499330865758E-02 
422	 4.95230327517954E-02 
423	 5.06663843789874E-02 
424	 0.049898740561762 
425	 4.90576227458524E-02 
426	 4.92407794462175E-02 
427	 4.90391944262594E-02 
428	 4.88748723637444E-02 
429	 4.90112295707787E-02 
430	 4.94830846965136E-02 
431	 4.94408433842534E-02 
432	 4.89247529801882E-02 
433	 0.048475617436046 
434	 4.89777242837192E-02 
435	 0.049099607451429 
436	 0.048948821257823 
437	 4.88141320474565E-02 
438	 4.86394996403645E-02 
439	 4.85840813312546E-02 
440	 4.86944722824151E-02 
441	 4.89187902808915E-02 
442	 4.89425078006978E-02 
443	 4.90894384002674E-02 
444	 4.94060560754936E-02 
445	 4.94374149409492E-02 
446	 4.93554426628369E-02 
447	 4.92207226481546E-02 
448	 4.90751818174476E-02 
449	 4.89362474210525E-02 
450	 4.90940527358643E-02 
451	 4.94896222502302E-02 
452	 4.97621739949721E-02 
453	 0.049721909422629 
454	 4.94757517061507E-02 
455	 4.92571569222897E-02 
456	 4.94700105967464E-02 
457	 4.96595521056757E-02 
458	 4.97314179533901E-02 
459	 4.97411653152892E-02 
460	 4.95413509647342E-02 
461	 4.92966967930679E-02 
462	 4.92161888283352E-02 
463	 4.95358740091403E-02 
464	 4.98732530221179E-02 
465	 4.98560527837134E-02 
466	 4.93878856534943E-02 
467	 4.93030057936144E-02 
468	 4.96698307728825E-02 
469	 5.00408698367642E-02 
470	 4.96680084655906E-02 
471	 4.96895479479537E-02 
472	 0.049665307756522 
473	 4.93160030917802E-02 
474	 0.049391711756221 
475	 4.94126201794189E-02 
476	 4.94241764519468E-02 
477	 4.96004100861344E-02 
478	 4.93177087704283E-02 
479	 4.92295278736482E-02 
480	 4.95140127513292E-02 
481	 4.95521011572033E-02 
482	 4.96284151647842E-02 
483	 4.96555051849098E-02 
484	 0.049538569860335 
485	 4.95331274117959E-02 
486	 4.94674343172243E-02 
487	 4.93734172250923E-02 
488	 4.94376291893562E-02 
489	 0.049323277815928 
490	 4.93717872997901E-02 
491	 4.96980685558648E-02 
492	 4.95720856508894E-02 
493	 4.94443688628462E-02 
494	 4.94688943251504E-02 
495	 4.96241305821232E-02 
496	 4.96661970267457E-02 
497	 4.94943345507579E-02 
498	 4.92691567005792E-02 
499	 4.95155189081825E-02 
500	 4.95970958622115E-02 
501	 4.95259017143631E-02 
502	 4.94724309504386E-02 
503	 4.93612757923595E-02 
504	 4.94447717415235E-02 
505	 4.96240527701803E-02 
506	 0.049502693270244 
507	 4.95057392590367E-02 
508	 4.95331357894006E-02 
509	 4.94808351741225E-02 
510	 4.95096951179426E-02 
511	 4.95559354840277E-02 
512	 4.96213505257999E-02 
513	 4.97146851533577E-02 
514	 4.95769598396415E-02 
515	 4.95318823692794E-02 
516	 4.96818446999368E-02 
517	 4.96439680191856E-02 
518	 4.96688225489034E-02 
519	 4.97136169136207E-02 
520	 4.96850719634909E-02 
521	 4.97264065496268E-02 
522	 4.97811625910681E-02 
523	 4.98054009810655E-02 
524	 4.97809550363311E-02 
525	 4.96621904223642E-02 
526	 4.96528633573572E-02 
527	 4.98465046445163E-02 
528	 4.98154144290869E-02 
529	 4.98729678979204E-02 
530	 4.99911281360721E-02 
531	 4.99362906093121E-02 
532	 4.98747736967311E-02 
533	 4.98848209025637E-02 
534	 4.99817126887288E-02 
535	 5.00931743491817E-02 
536	 5.01631492160277E-02 
537	 5.01930124484863E-02 
538	 5.02191211940997E-02 
539	 5.03037341965789E-02 
540	 5.03867926212074E-02 
541	 5.04410353637405E-02 
542	 5.04951281194428E-02 
543	 5.05550962288069E-02 
544	 5.06237039150429E-02 
545	 5.07086943980687E-02 
546	 5.08526348020219E-02 
547	 5.09687702262958E-02 
548	 5.10677047481659E-02 
549	 0.051234910119042 
550	 5.12804456412858E-02 
551	 5.12951989344304E-02 
552	 5.13999922572662E-02 
553	 5.16797765465319E-02 
554	 5.18459092951574E-02 
555	 5.19363679246682E-02 
556	 5.21506865266365E-02 
557	 5.24260349117186E-02 
558	 5.26525501590369E-02 
559	 5.28305510110436E-02 
560	 5.31718434311268E-02 
561	 5.34105940710513E-02 
562	 5.36021946204296E-02 
563	 5.38887797359218E-02 
564	 0.054231060181426 
565	 5.45427448721163E-02 
566	 5.48352966162914E-02 
567	 5.52296007701395E-02 
568	 5.56198477642179E-02 
569	 5.60240998726413E-02 
570	 5.64792687980199E-02 
571	 5.69912336067784E-02 
572	 5.74979552971262E-02 
573	 5.80063332844409E-02 
574	 5.85685106648443E-02 
575	 0.059140885176189 
576	 0.059705521412404 
577	 6.02595914122508E-02 
578	 6.08138026861491E-02 
579	 6.14490305730713E-02 
580	 6.21092259421031E-02 
581	 6.27045152605605E-02 
582	 6.33771520665933E-02 
583	 6.40404884344917E-02 
584	 6.46822516784257E-02 
585	 6.54258403948759E-02 
586	 6.62297964851769E-02 
587	 6.70154315992032E-02 
588	 6.77465131143915E-02 
589	 6.86371814350225E-02 
590	 6.94888900031704E-02 
591	 7.02515879152295E-02 
592	 0.071024652535551 
593	 7.17719208044248E-02 
594	 7.25559110369722E-02 
595	 7.33785697011749E-02 
596	 7.40324901820258E-02 
597	 0.074690565386313 
598	 0.075407075934088 
599	 7.61655545390236E-02 
600	 7.69112732505537E-02 
601	 7.76222932359005E-02 
602	 7.82850013560452E-02 
603	 0.078886339393124 
604	 7.95392642151639E-02 
605	 8.02058100335617E-02 
606	 8.08165479601808E-02 
607	 8.14675967252083E-02 
608	 8.20837744321412E-02 
609	 8.26378256457021E-02 
610	 8.31690940683379E-02 
611	 8.36919374898604E-02 
612	 8.41969922780825E-02 
613	 8.46562232371787E-02 
614	 8.50041421972894E-02 
615	 8.53552618956192E-02 
616	 8.57154562495892E-02 
617	 8.60205867787162E-02 
618	 0.086388556255055 
619	 0.086735629651873 
620	 8.70085839041877E-02 
621	 8.72799600773346E-02 
622	 8.75414940385904E-02 
623	 0.087784153323589 
624	 0.088006143847478 
625	 8.82680259576412E-02 
626	 8.85289157533274E-02 
627	 8.87581209860018E-02 
628	 8.89480770681067E-02 
629	 8.91853458078299E-02 
630	 8.94179019718622E-02 
631	 8.95871499625245E-02 
632	 0.089764593579489 
633	 8.99530484150739E-02 
634	 0.090158866446708 
635	 9.03864322543466E-02 
636	 0.090549880617186 
637	 9.07262149486857E-02 
638	 9.09488555638335E-02 
639	 9.10654490084981E-02 
640	 9.12273665640234E-02 
641	 9.14329449194154E-02 
642	 0.091616088433699 
643	 9.18061139922091E-02 
644	 9.20112995774676E-02 
645	 9.22255756300234E-02 
646	 9.24243639593558E-02 
647	 9.26200785249812E-02 
648	 9.28182124911199E-02 
649	 9.30264429722986E-02 
650	 9.32656886714945E-02 
651	 9.35359581791632E-02 
652	 9.37923795723051E-02 
653	 9.39636099500008E-02 
654	 9.41927854151417E-02 
655	 9.44469331718205E-02 
656	 9.46897533850933E-02 
657	 9.49623021807907E-02 
658	 9.52394098419542E-02 
659	 9.55090457359594E-02 
660	 9.57697305766592E-02 
661	 9.60525079053691E-02 
662	 0.096337023634129 
663	 9.66221720833367E-02 
664	 9.69417340876564E-02 
665	 9.72745499095278E-02 
666	 9.75819393065203E-02 
667	 9.78498593547756E-02 
668	 9.81797241272082E-02 
669	 9.85349651857772E-02 
670	 9.88928608892372E-02 
671	 9.92461257752455E-02 
672	 9.96017624907032E-02 
673	 9.99914195791874E-02 
674	 0.100413247839665 
675	 0.100775281484484 
676	 0.101146170951723 
677	 0.101529093873953 
678	 0.101909799286842 
679	 0.102352318243835 
680	 0.102814688694714 
681	 0.103254575707316 
682	 0.103641802690334 
683	 0.104055412405458 
684	 0.104508377117711 
685	 0.104990714404595 
686	 0.105491387056595 
687	 0.105967463353384 
688	 0.106439326720979 
689	 0.106962838750242 
690	 0.107441747843409 
691	 0.107923401132239 
692	 0.108441963710892 
693	 0.108966548732504 
694	 0.109481509310235 
695	 0.109986268400617 
696	 0.110498745278851 
697	 0.11109005068602 
698	 0.111682824032937 
699	 0.112241478161119 
700	 0.112783996704269 
701	 0.113324245236051 
702	 0.113858661585072 
703	 0.114395960748634 
704	 0.115001624875162 
705	 0.115547504654187 
706	 0.116072521813662 
707	 0.11668398743525 
708	 0.117265738315743 
709	 0.117846194784158 
710	 0.118433196218831 
711	 0.118985556506924 
712	 0.119502473450501 
713	 0.120032767995181 
714	 0.120612109826467 
715	 0.121169406817373 
716	 0.121727610834745 
717	 0.122261740380609 
718	 0.122725989820831 
719	 0.123265912198134 
720	 0.123806343299319 
721	 0.124293507552905 
722	 0.124780702283807 
723	 0.125265337405654 
724	 0.125735788871462 
725	 0.126182717919631 
726	 0.12663485107814 
727	 0.12704962376298 
728	 0.127423384849492 
729	 0.127791199295346 
730	 0.128159912481503 
731	 0.128499852281981 
732	 0.128796309941499 
733	 0.129082557817073 
734	 0.129397648978033 
735	 0.129660965190765 
736	 0.129793619800709 
737	 0.130060714146756 
738	 0.130297108743693 
739	 0.130437178760822 
740	 0.130559045070598 
741	 0.130681276390501 
742	 0.130783867545382 
743	 0.13084951196078 
744	 0.130898748901404 
745	 0.13090357808156 
746	 0.130902706444402 
747	 0.130944160823214 
748	 0.130909709733002 
749	 0.130816138849602 
750	 0.130711327600157 
751	 0.130661618947057 
752	 0.130578325169457 
753	 0.130419420685083 
754	 0.130195840268799 
755	 0.130029855708628 
756	 0.129877302925124 
757	 0.129694482642685 
758	 0.129449687388861 
759	 0.129200890449012 
760	 0.128958632462004 
761	 0.128712878866241 
762	 0.128434970055221 
763	 0.128143015537974 
764	 0.127840629074693 
765	 0.127528314439219 
766	 0.12720351345632 
767	 0.126882762662402 
768	 0.126567262563367 
769	 0.126247667652102 
770	 0.125910427923652 
771	 0.125544129802416 
772	 0.125159049007121 
773	 0.124789311050023 
774	 0.124418392067884 
775	 0.12405134706879 
776	 0.123688248311341 
777	 0.123302144678327 
778	 0.122925227950685 
779	 0.122567494703174 
780	 0.122218061624304 
781	 0.121810358977095 
782	 0.121422248118328 
783	 0.121054027269934 
784	 0.120621061142654 
785	 0.120266387322194 
786	 0.119926609653235 
787	 0.119547846753097 
788	 0.119198849522911 
789	 0.1188530088925 
790	 0.11847186057928 
791	 0.118041553530661 
792	 0.11769330340417 
793	 0.117361930747832 
794	 0.117009979891339 
795	 0.11663517646524 
796	 0.116229692126022 
797	 0.115876962612648 
798	 0.115594176820517 
799	 0.115255640046556 
800	 0.114934168677985 
801	 0.114618225776909 
802	 0.114281650409482 
803	 0.113934938950182 
804	 0.113626528436009 
805	 0.11334214788003 
806	 0.113033997369563 
807	 0.112745791084458 
808	 0.112439264049811 
809	 0.112119005232428 
810	 0.111852300576872 
811	 0.111578347469066 
812	 0.111288830107777 
813	 0.111003684461893 
814	 0.110786011052251 
815	 0.110583799761367 
816	 0.110348110577242 
817	 0.110056976120711 
818	 0.10981084961658 
819	 0.109596463226519 
820	 0.109385575786203 
821	 0.109149535857209 
822	 0.108946885239265 
823	 0.108721012978077 
824	 0.108471780609485 
825	 0.108316433024895 
826	 0.108177662618373 
827	 0.107991149793905 
828	 0.107749050659696 
829	 0.107609334532132 
830	 0.107435555653268 
831	 0.107235014908873 
832	 0.107080212532008 
833	 0.106971234398859 
834	 0.106840587306491 
835	 0.106678779285841 
836	 0.106536745053068 
837	 0.106439397150862 
838	 0.106338970693802 
839	 0.106214267325407 
840	 0.106111318575747 
841	 0.105984670798497 
842	 0.105868234954917 
843	 0.105793681498308 
844	 0.105719888126274 
845	 0.105633656994244 
846	 0.105543595977432 
847	 0.105467425477876 
848	 0.105396340140953 
849	 0.105367541159304 
850	 0.105348716039231 
851	 0.105264317312953 
852	 0.105263658120118 
853	 0.105235702520875 
854	 0.105144755415939 
855	 0.105114838263561 
856	 0.105172267440947 
857	 0.105190721820105 
858	 0.105118493627871 
859	 0.105197059735413 
860	 0.105222011075942 
861	 0.105215572037352 
862	 0.1052416798288 
863	 0.105162589795711 
864	 0.105180632000081 
865	 0.105271524897075 
866	 0.105286368455646 
867	 0.105322260576875 
868	 0.105379900944645 
869	 0.105442013257228 
870	 0.105485738401225 
871	 0.10555837312659 
872	 0.105641652362033 
873	 0.105720951801981 
874	 0.105805455496632 
875	 0.105917116382569 
876	 0.106012449497974 
877	 0.106069412100956 
878	 0.106159738317007 
879	 0.106302591725712 
880	 0.106437202682448 
881	 0.106523451227823 
882	 0.106739801846481 
883	 0.106909856469245 
884	 0.1070060766675 
885	 0.107102129559027 
886	 0.107278485861672 
887	 0.107502430486095 
888	 0.107689162785128 
889	 0.107751431605983 
890	 0.107904280010227 
891	 0.108115424595242 
892	 0.108333598487831 
893	 0.108529688491305 
894	 0.108696585625187 
895	 0.108911738290122 
896	 0.109187110798909 
897	 0.109392059400919 
898	 0.109617097571919 
899	 0.10983579109017 
900	 0.110032867153121 
901	 0.110301626659991 
902	 0.110579871515875 
903	 0.110856048889094 
904	 0.111131243852905 
905	 0.111387532094371 
906	 0.111660676910865 
907	 0.111948043348246 
908	 0.112240591606327 
909	 0.112611408436288 
910	 0.112920708986521 
911	 0.113151907031669 
912	 0.113390842081818 
913	 0.113738201876144 
914	 0.114150246276913 
915	 0.11453988911732 
916	 0.114827231949508 
917	 0.115216458397992 
918	 0.115553857920542 
919	 0.115839401777107 
920	 0.116277548488405 
921	 0.116685871939051 
922	 0.117087467092897 
923	 0.117516224717567 
924	 0.117969377171708 
925	 0.118346487284485 
926	 0.118788203700572 
927	 0.119316071696878 
928	 0.119647064557163 
929	 0.120117533031461 
930	 0.120657023993785 
931	 0.121128568990354 
932	 0.121489193333228 
933	 0.122090282570439 
934	 0.122663439644671 
935	 0.12298417064937 
936	 0.123505958462572 
937	 0.124001028181141 
938	 0.124485918403878 
939	 0.125042028423868 
940	 0.125705823618849 
941	 0.126251685425617 
942	 0.126767018546704 
943	 0.127394903817116 
944	 0.127943125456615 
945	 0.128531561566755 
946	 0.129175374446294 
947	 0.12982022286515 
948	 0.130362585619059 
949	 0.130908966671066 
950	 0.131510371664354 
951	 0.132178675345998 
952	 0.132931224414531 
953	 0.1336120588936 
954	 0.134251808344797 
955	 0.134961265574973 
956	 0.135620616068538 
957	 0.136352432485468 
958	 0.137078546259629 
959	 0.137645971357504 
960	 0.138225834104557 
961	 0.138981855699445 
962	 0.139857869899831 
963	 0.140648578201739 
964	 0.141205680013934 
965	 0.141969282729427 
966	 0.142911236592823 
967	 0.143696220687542 
968	 0.144390861416456 
969	 0.145133944341736 
970	 0.145939382307866 
971	 0.146738876131933 
972	 0.147588272456883 
973	 0.148533513565232 
974	 0.14943548082137 
975	 0.150124956892342 
976	 0.150978488806893 
977	 0.151878229674261 
978	 0.152755690500643 
979	 0.153598298409065 
980	 0.154382749026579 
981	 0.15514159806288 
982	 0.155969272538658 
983	 0.156930792321947 
984	 0.157780854413064 
985	 0.158615621387749 
986	 0.159502850098507 
987	 0.160435297474083 
988	 0.161197369552311 
989	 0.162108501486096 
990	 0.163030434169422 
991	 0.163735809915605 
992	 0.164780218167605 
993	 0.165664907121458 
994	 0.166494332619091 
995	 0.167528863377823 
996	 0.168414301207345 
997	 0.16920230942285 
998	 0.169982877581415 
999	 0.170865445442123 
1000	 0.171976755795761 
1001	 0.170729064483264 
1002	 0.171610231694754 
1003	 0.172433790746732 
1004	 0.173251248252804 
1005	 0.174045574380921 
1006	 0.174850006306841 
1007	 0.17563985965715 
1008	 0.176460420401622 
1009	 0.177235728460872 
1010	 0.178008188313794 
1011	 0.178795011143849 
1012	 0.179518684681628 
1013	 0.180250596798262 
1014	 0.180951814753213 
1015	 0.181661948394154 
1016	 0.182487897933726 
1017	 0.183242512911989 
1018	 0.184002014202226 
1019	 0.184702731017653 
1020	 0.185421955787602 
1021	 0.186067236172277 
1022	 0.186722791220517 
1023	 0.187456764682241 
1024	 0.188101292185509 
1025	 0.188721713224555 
1026	 0.189409061174379 
1027	 0.190074116186283 
1028	 0.190735524165211 
1029	 0.191440586884461 
1030	 0.192095506837169 
1031	 0.192735348579997 
1032	 0.193376723616617 
1033	 0.194032600406644 
1034	 0.194549602880536 
1035	 0.195084593854444 
1036	 0.195694501088599 
1037	 0.196292016988124 
1038	 0.196955001537476 
1039	 0.197622482657664 
1040	 0.19817762160753 
1041	 0.198722729318564 
1042	 0.199358406155807 
1043	 0.199984963591774 
1044	 0.200567717314441 
1045	 0.201142596446568 
1046	 0.20173607368204 
1047	 0.202282328548407 
1048	 0.202799054572121 
1049	 0.203374455439099 
1050	 0.2039721955668 
1051	 0.204539539289413 
1052	 0.20510113716876 
1053	 0.205684864513664 
1054	 0.206236601565639 
1055	 0.206800100522847 
1056	 0.207412985226336 
1057	 0.207987045043059 
1058	 0.208568133431542 
1059	 0.209125073264565 
1060	 0.209668863172574 
1061	 0.21013806042946 
1062	 0.210650912443536 
1063	 0.211176890849524 
1064	 0.211730237354144 
1065	 0.212303146485202 
1066	 0.212816023788717 
1067	 0.213330341416388 
1068	 0.213821604430637 
1069	 0.214315492875524 
1070	 0.214822427604988 
1071	 0.215344781247269 
1072	 0.215873657747058 
1073	 0.216419043587295 
1074	 0.216919766150261 
1075	 0.217408730277356 
1076	 0.217921738513812 
1077	 0.218364283356556 
1078	 0.218806487749187 
1079	 0.219281462859131 
1080	 0.219757845802489 
1081	 0.220238811033559 
1082	 0.220720344869272 
1083	 0.221192595394607 
1084	 0.221657678137553 
1085	 0.222120603990081 
1086	 0.22259153587769 
1087	 0.22302906883737 
1088	 0.223436783056404 
1089	 0.223874233163832 
1090	 0.22431487685505 
1091	 0.22474981137763 
1092	 0.225205363161812 
1093	 0.225637065546869 
1094	 0.226060813368748 
1095	 0.226480772920214 
1096	 0.226916890345601 
1097	 0.227385771198165 
1098	 0.22782774208503 
1099	 0.22826288295775 
1100	 0.228684308400151 
1101	 0.229058102690284 
1102	 0.22948354638784 
1103	 0.229912897100015 
1104	 0.230392521671046 
1105	 0.230842844702099 
1106	 0.231300207612207 
1107	 0.23175563018219 
1108	 0.232132762305617 
1109	 0.232510090270075 
1110	 0.232947008816348 
1111	 0.233378016514938 
1112	 0.233809516361229 
1113	 0.234238980383677 
1114	 0.234688911071342 
1115	 0.235121316646898 
1116	 0.235525907748589 
1117	 0.235953990041206 
1118	 0.236394191438513 
1119	 0.236837500168049 
1120	 0.237286488934472 
1121	 0.237740388143059 
1122	 0.238131473347146 
1123	 0.238512098906552 
1124	 0.23891852162455 
1125	 0.239302009851861 
1126	 0.239705373855436 
1127	 0.24016498942128 
1128	 0.240565054958791 
1129	 0.240911303544354 
1130	 0.241308440707688 
1131	 0.241706587599883 
1132	 0.242109221132687 
1133	 0.242559546577403 
1134	 0.242971193062011 
1135	 0.243357800051685 
1136	 0.243749432082546 
1137	 0.244109511192042 
1138	 0.244470918971239 
1139	 0.244840825760387 
1140	 0.245211423675028 
1141	 0.245571739360859 
1142	 0.245942527025688 
1143	 0.246289558405233 
1144	 0.246614222495102 
1145	 0.246941068779042 
1146	 0.247259630350981 
1147	 0.247582875419618 
1148	 0.247902898007417 
1149	 0.248223387960418 
1150	 0.248548252381375 
1151	 0.248867930761306 
1152	 0.24918283610226 
1153	 0.249483886852803 
1154	 0.249788252189804 
1155	 0.250084469864157 
1156	 0.250388325183353 
1157	 0.250696584173491 
1158	 0.251000185330013 
1159	 0.251306798945927 
1160	 0.25160550358392 
1161	 0.251900319825376 
1162	 0.252193208025252 
1163	 0.252486826893767 
1164	 0.25277036793446 
1165	 0.253050979091541 
1166	 0.253323797635334 
1167	 0.253573139625879 
1168	 0.253825395667111 
1169	 0.254097472087754 
1170	 0.254375316372535 
1171	 0.254647600809186 
1172	 0.254945794821551 
1173	 0.255211589420678 
1174	 0.25546399922969 
1175	 0.255703527175224 
1176	 0.255916220095789 
1177	 0.256147025199549 
1178	 0.256370985041226 
1179	 0.256598150940067 
1180	 0.256838300627559 
1181	 0.257076721656447 
1182	 0.257311689778619 
1183	 0.257552541179496 
1184	 0.257773833984718 
1185	 0.257994980869577 
1186	 0.258201870612018 
1187	 0.258386689900836 
1188	 0.258579815707083 
1189	 0.25876777332274 
1190	 0.258964027787093 
1191	 0.259164827447908 
1192	 0.259358768951414 
1193	 0.259552595687337 
1194	 0.25974905667929 
1195	 0.259948870025382 
1196	 0.260136628536992 
1197	 0.260318787340342 
1198	 0.260505217652363 
1199	 0.260688860984895 
1200	 0.260864553841132 
1201	 0.261034703843502 
1202	 0.261204020624528 
1203	 0.261378748555904 
1204	 0.261545986399319 
1205	 0.261714057943267 
1206	 0.261902500926955 
1207	 0.262063129003052 
1208	 0.262205681204779 
1209	 0.262345527976519 
1210	 0.262470200563619 
1211	 0.26260017309218 
1212	 0.262717717240089 
1213	 0.262848902379039 
1214	 0.262995270911112 
1215	 0.263132270160577 
1216	 0.2632685720915 
1217	 0.263414481423442 
1218	 0.263539551363361 
1219	 0.26364685557393 
1220	 0.263767206624501 
1221	 0.263879506930981 
1222	 0.264005105533847 
1223	 0.264142241810221 
1224	 0.264276087952286 
1225	 0.264426503141145 
1226	 0.264551818009197 
1227	 0.264670566559915 
1228	 0.26477903857401 
1229	 0.264865185927388 
1230	 0.264954264338945 
1231	 0.26503321057754 
1232	 0.265119692787528 
1233	 0.265207985113616 
1234	 0.265292968658281 
1235	 0.265389778770544 
1236	 0.26549987539193 
1237	 0.265596943784187 
1238	 0.265693756222295 
1239	 0.265790579195655 
1240	 0.265876989243685 
1241	 0.265976970772264 
1242	 0.266097505715418 
1243	 0.266193706478868 
1244	 0.266282068434964 
1245	 0.266371068171961 
1246	 0.266438475827889 
1247	 0.266520724600906 
1248	 0.266612580493748 
1249	 0.266708662307992 
1250	 0.266796024999849 
1251	 0.266894319484519 
1252	 0.266979653806527 
1253	 0.267062193377203 
1254	 0.267133777263995 
1255	 0.26719889658868 
1256	 0.267256018157765 
1257	 0.267300069130372 
1258	 0.267349149217557 
1259	 0.26739233543327 
1260	 0.267439848611381 
1261	 0.267484081697781 
1262	 0.267535113014165 
1263	 0.267598544573313 
1264	 0.267649035686647 
1265	 0.267695631287987 
1266	 0.267745711167783 
1267	 0.267785110318868 
1268	 0.267826115880374 
1269	 0.267887374064726 
1270	 0.267963242815176 
1271	 0.268036895019414 
1272	 0.268125882163962 
1273	 0.268201660124763 
1274	 0.268267810994668 
1275	 0.268345673348665 
1276	 0.26842006795345 
1277	 0.26850866414236 
1278	 0.26860948811488 
1279	 0.268713726586888 
1280	 0.268841742743347 
1281	 0.268943627830651 
1282	 0.269037271536606 
1283	 0.269128084008342 
1284	 0.269194687033178 
1285	 0.269273702908508 
1286	 0.269367666185981 
1287	 0.269455818764489 
1288	 0.269564957941189 
1289	 0.269699860092944 
1290	 0.26980220530389 
1291	 0.269909836463912 
1292	 0.269997252722686 
1293	 0.270059044348213 
1294	 0.270122923777258 
1295	 0.270184830530756 
1296	 0.270234821601734 
1297	 0.270264480860245 
1298	 0.270305041855134 
1299	 0.270357413077857 
1300	 0.270385715553244 
1301	 0.2704097971945 
1302	 0.270421964271211 
1303	 0.270412682106711 
1304	 0.270392641986625 
1305	 0.270387567769465 
1306	 0.270369188586175 
1307	 0.270335739135368 
1308	 0.270291317524064 
1309	 0.270250758737735 
1310	 0.270202082254229 
1311	 0.270150344349344 
1312	 0.270099777639621 
1313	 0.27004838469666 
1314	 0.269992791586065 
1315	 0.2699232375468 
1316	 0.2698516779396 
1317	 0.269779418592801 
1318	 0.269685295212067 
1319	 0.269607116104134 
1320	 0.269544892145424 
1321	 0.26947159021154 
1322	 0.269388327416712 
1323	 0.269321237651059 
1324	 0.269253344600409 
1325	 0.269175955560072 
1326	 0.269089847201727 
1327	 0.269001037651626 
1328	 0.268905597462777 
1329	 0.268802491896454 
1330	 0.268719951119583 
1331	 0.268659821688283 
1332	 0.268569744395401 
1333	 0.268482428485397 
1334	 0.268384468277127 
1335	 0.268241697344284 
1336	 0.268155970260587 
1337	 0.268097846824804 
1338	 0.268030462284211 
1339	 0.26800371439166 
1340	 0.267938271364486 
1341	 0.267839010284781 
1342	 0.267759325557497 
1343	 0.267667816663188 
1344	 0.267589653118544 
1345	 0.26754166501948 
1346	 0.267501687491115 
1347	 0.26746626380146 
1348	 0.267421881323166 
1349	 0.267361032041863 
1350	 0.267278381675842 
1351	 0.267208648765908 
1352	 0.267136091092921 
1353	 0.267068646844948 
1354	 0.267010801269976 
1355	 0.266941241447488 
1356	 0.266859121530004 
1357	 0.266786483873222 
1358	 0.266712581608322 
1359	 0.266642604082791 
1360	 0.266582379894821 
1361	 0.266516270370417 
1362	 0.266454097862658 
1363	 0.266380863062292 
1364	 0.266314176334768 
1365	 0.2662229771954 
1366	 0.266107272855048 
1367	 0.265991782613672 
1368	 0.265883578384012 
1369	 0.265773523219148 
1370	 0.265656284873721 
1371	 0.26552964711924 
1372	 0.265375967259177 
1373	 0.265217651443732 
1374	 0.265053232585963 
1375	 0.264904747831456 
1376	 0.264691867231217 
1377	 0.264453501540912 
1378	 0.264183138433924 
1379	 0.263856833578232 
1380	 0.263537973678879 
1381	 0.263214606862848 
1382	 0.262857194016353 
1383	 0.262495062887796 
1384	 0.262081564455994 
1385	 0.261639161264852 
1386	 0.261155181351448 
1387	 0.260629877468882 
1388	 0.260074996260481 
1389	 0.259490660630657 
1390	 0.258859751931444 
1391	 0.258204757179471 
1392	 0.257504857430851 
1393	 0.256746641483123 
1394	 0.255957559333272 
1395	 0.255133369257291 
1396	 0.25428465516084 
1397	 0.253448433486775 
1398	 0.252610216220498 
1399	 0.25176056150611 
1400	 0.25090885245192 
1401	 0.250043789348657 
1402	 0.249146673549875 
1403	 0.248292056643676 
1404	 0.247424378404556 
1405	 0.246612930384394 
1406	 0.245845245061302 
1407	 0.245088029985199 
1408	 0.244348067981556 
1409	 0.243648859466159 
1410	 0.242960428261466 
1411	 0.242327828104992 
1412	 0.241729274899428 
1413	 0.241193981022125 
1414	 0.240727916455272 
1415	 0.240277440649619 
1416	 0.23986826202437 
1417	 0.239495943956827 
1418	 0.239119202732319 
1419	 0.238786429722198 
1420	 0.238493219198407 
1421	 0.238209865012855 
1422	 0.237955774878404 
1423	 0.237705349265662 
1424	 0.237451474856765 
1425	 0.237202272796648 
1426	 0.236960479285619 
1427	 0.236699124710806 
1428	 0.23649191602908 
1429	 0.236317571782001 
1430	 0.236144579532799 
1431	 0.236010617670554 
1432	 0.235859696195275 
1433	 0.235689463919294 
1434	 0.235551495173556 
1435	 0.235422574423427 
1436	 0.235312714239393 
1437	 0.235225372853289 
1438	 0.235151318487777 
1439	 0.235097953918251 
1440	 0.235050159996848 
1441	 0.234994715262331 
1442	 0.234949698830713 
1443	 0.234900698126651 
1444	 0.234859501058291 
1445	 0.234829490448203 
1446	 0.234807837058369 
1447	 0.234800210343343 
1448	 0.234783627646624 
1449	 0.234768594887929 
1450	 0.234768426830165 
1451	 0.23476697212357 
1452	 0.23475579595485 
1453	 0.234765403433431 
1454	 0.234791885232826 
1455	 0.234814248005065 
1456	 0.234844512941315 
1457	 0.234875679301688 
1458	 0.234903252042012 
1459	 0.234946400210221 
1460	 0.23499146895881 
1461	 0.235053571207705 
1462	 0.23512833340078 
1463	 0.235215367603926 
1464	 0.235315695345492 
1465	 0.235427317703133 
1466	 0.235558148522297 
1467	 0.235689181618274 
1468	 0.235817086062153 
1469	 0.235971107064911 
1470	 0.236139230839348 
1471	 0.236315705205743 
1472	 0.236520458645578 
1473	 0.236745906924053 
1474	 0.236962357263203 
1475	 0.237175542895883 
1476	 0.237380765057342 
1477	 0.237589129171055 
1478	 0.23780755626681 
1479	 0.238035940338672 
1480	 0.238285580018211 
1481	 0.238525745079349 
1482	 0.238768927295627 
1483	 0.23902385940695 
1484	 0.239256993153561 
1485	 0.239470476465199 
1486	 0.239713147709657 
1487	 0.239947751527954 
1488	 0.240202287958769 
1489	 0.240496856551078 
1490	 0.24076333332611 
1491	 0.241032747528171 
1492	 0.241283699813548 
1493	 0.241515092991247 
1494	 0.241747310943219 
1495	 0.241958788364827 
1496	 0.242185631648904 
1497	 0.242424154651279 
1498	 0.242657585502997 
1499	 0.242905398758822 
1500	 0.243131404958607 
1501	 0.243332490954911 
1502	 0.243547974878101 
1503	 0.243761327469779 
1504	 0.243968583355878 
1505	 0.244192198264715 
1506	 0.244424924309704 
1507	 0.244640874243866 
1508	 0.244849287353993 
1509	 0.245052553720266 
1510	 0.245243174576483 
1511	 0.245423498776498 
1512	 0.245606006051149 
1513	 0.245799626808482 
1514	 0.245998014939366 
1515	 0.246188069247398 
1516	 0.246384025113818 
1517	 0.24657947306414 
1518	 0.246769688585294 
1519	 0.24695669263028 
1520	 0.247150158111879 
1521	 0.247335267611119 
1522	 0.247506357198901 
1523	 0.247688504519061 
1524	 0.247876798705746 
1525	 0.24805792692058 
1526	 0.248249209863732 
1527	 0.248413415886071 
1528	 0.248560279895243 
1529	 0.248710675158809 
1530	 0.248846137590646 
1531	 0.248979947763192 
1532	 0.249116406806875 
1533	 0.249245578919549 
1534	 0.249360887605095 
1535	 0.249481302762496 
1536	 0.249595969704015 
1537	 0.249723386436302 
1538	 0.249859590356079 
1539	 0.249992397561563 
1540	 0.250139984673001 
1541	 0.250269571563765 
1542	 0.250378524849246 
1543	 0.250499059860403 
1544	 0.250626951523044 
1545	 0.250746464845134 
1546	 0.250869183092355 
1547	 0.250983936261108 
1548	 0.25109114845324 
1549	 0.251165514207186 
1550	 0.251260474191063 
1551	 0.251360209909311 
1552	 0.251459106092122 
1553	 0.251575479698058 
1554	 0.251680587290429 
1555	 0.251781000930866 
1556	 0.251870637545124 
1557	 0.251966476905246 
1558	 0.252060037288794 
1559	 0.25214631287547 
1560	 0.252243926870037 
1561	 0.25234994267146 
1562	 0.252444639160698 
1563	 0.252541833427918 
1564	 0.252631571433936 
1565	 0.252712366830507 
1566	 0.252797643467387 
1567	 0.252884806240081 
1568	 0.2529660167149 
1569	 0.253039462282668 
1570	 0.253117582608242 
1571	 0.253198793961782 
1572	 0.253271036205997 
1573	 0.253351843722004 
1574	 0.253412103270414 
1575	 0.253445330337988 
1576	 0.253497387105117 
1577	 0.253542585766045 
1578	 0.25360204732925 
1579	 0.253680354746181 
1580	 0.25374831670052 
1581	 0.253813100519995 
1582	 0.253884286653194 
1583	 0.253961181452534 
1584	 0.254031975828539 
1585	 0.254108454627793 
1586	 0.254174885138635 
1587	 0.254239645833875 
1588	 0.254285323932907 
1589	 0.254316182212231 
1590	 0.254350294749349 
1591	 0.25436327356092 
1592	 0.25438971364995 
1593	 0.254425883901521 
1594	 0.254457559250092 
1595	 0.254487769560308 
1596	 0.254523014617003 
1597	 0.254555004142122 
1598	 0.254598485287959 
1599	 0.254665298433488 
1600	 0.254709608423699 
1601	 0.2547460087486 
1602	 0.25478751795894 
1603	 0.254817992403981 
1604	 0.254845449155578 
1605	 0.25486612690458 
1606	 0.254904275954694 
1607	 0.254941068980723 
1608	 0.254990961963441 
1609	 0.255064316335046 
1610	 0.25511834636267 
1611	 0.255147445854698 
1612	 0.2551480995285 
1613	 0.25512193420754 
1614	 0.255132524743294 
1615	 0.255159726207218 
1616	 0.255193620636865 
1617	 0.255253564721829 
1618	 0.25528407676364 
1619	 0.255312724001808 
1620	 0.255345320392196 
1621	 0.255362639128877 
1622	 0.255380946816696 
1623	 0.255371910091786 
1624	 0.255332710053063 
1625	 0.255323404029766 
1626	 0.255304598010099 
1627	 0.255306224626117 
1628	 0.255326927107259 
1629	 0.255354339671786 
1630	 0.255394793013019 
1631	 0.255419502422954 
1632	 0.255452807478257 
1633	 0.255478124866819 
1634	 0.255496546114949 
1635	 0.255494401779439 
1636	 0.255483818951524 
1637	 0.255479064218624 
1638	 0.255436602359875 
1639	 0.255452066030351 
1640	 0.255507868795197 
1641	 0.255547775522995 
1642	 0.255613037342428 
1643	 0.255647240846534 
1644	 0.255671066773577 
1645	 0.255684064330452 
1646	 0.25567367002408 
1647	 0.255681685939727 
1648	 0.255697117362477 
1649	 0.255691782231111 
1650	 0.255677652655314 
1651	 0.255677162207414 
1652	 0.255663149980671 
1653	 0.255661618237448 
1654	 0.255689791675361 
1655	 0.255688719525484 
1656	 0.255672174444301 
1657	 0.255654552550851 
1658	 0.255629006023821 
1659	 0.255602210638263 
1660	 0.255569231455666 
1661	 0.255536482285688 
1662	 0.255496019006317 
1663	 0.255467584569826 
1664	 0.255441784601749 
1665	 0.255420060818829 
1666	 0.255410053746343 
1667	 0.255392709768574 
1668	 0.255365507585823 
1669	 0.255358082755198 
1670	 0.255368607705528 
1671	 0.255358249825028 
1672	 0.255351866904733 
1673	 0.255337584766863 
1674	 0.255300472048785 
1675	 0.25527818278969 
1676	 0.255270353274278 
1677	 0.25524750266219 
1678	 0.255208232531115 
1679	 0.255191564689364 
1680	 0.255182460598609 
1681	 0.255169296297998 
1682	 0.255171142721298 
1683	 0.255163419327423 
1684	 0.255138871094387 
1685	 0.255131187886071 
1686	 0.255147422442511 
1687	 0.255130080284852 
1688	 0.255100821155347 
1689	 0.255070775882459 
1690	 0.255010915358298 
1691	 0.254977979580562 
1692	 0.254957343194495 
1693	 0.254943164609397 
1694	 0.254946700189515 
1695	 0.254934173271084 
1696	 0.254921361323969 
1697	 0.254907471350886 
1698	 0.254881690506179 
1699	 0.254867224368998 
1700	 0.254881427527636 
1701	 0.254843203294188 
1702	 0.254773578261978 
1703	 0.25471847990108 
1704	 0.254630429617677 
1705	 0.254573307520745 
1706	 0.254550702453623 
1707	 0.254502674116457 
1708	 0.254440042031149 
1709	 0.254392018984447 
1710	 0.254359596238018 
1711	 0.254294665160326 
1712	 0.254221645138698 
1713	 0.254145796512422 
1714	 0.254030530202116 
1715	 0.253953245909067 
1716	 0.253892250699431 
1717	 0.253844730560955 
1718	 0.253825874076243 
1719	 0.253782925662425 
1720	 0.253743250779575 
1721	 0.25369739967644 
1722	 0.25363377912247 
1723	 0.253579260109549 
1724	 0.253541533050196 
1725	 0.253478541642244 
1726	 0.253396989860821 
1727	 0.25331973691649 
1728	 0.253228592697997 
1729	 0.253153904763233 
1730	 0.253093066821642 
1731	 0.253017056063915 
1732	 0.252941582339193 
1733	 0.252861293203622 
1734	 0.252770992782054 
1735	 0.252676188694742 
1736	 0.252585921515556 
1737	 0.252477668876657 
1738	 0.252346811464764 
1739	 0.252236952484166 
1740	 0.252114009453434 
1741	 0.252028776169035 
1742	 0.25197692873393 
1743	 0.251906366505997 
1744	 0.25186401687042 
1745	 0.251768983001156 
1746	 0.251633733475769 
1747	 0.251505547792522 
1748	 0.251377306437698 
1749	 0.251238662014864 
1750	 0.251146460737917 
1751	 0.251054984635443 
1752	 0.250941051736279 
1753	 0.250817909442259 
1754	 0.250677637156457 
1755	 0.250550584215632 
1756	 0.250416944129767 
1757	 0.250288321817039 
1758	 0.250171341677417 
1759	 0.250022902504177 
1760	 0.249922444323928 
1761	 0.249865363048694 
1762	 0.249778619542372 
1763	 0.249704562906458 
1764	 0.249604233329694 
1765	 0.24947106491103 
1766	 0.249358556027513 
1767	 0.249237274169099 
1768	 0.249134157722918 
1769	 0.249065623098068 
1770	 0.24898790087385 
1771	 0.248918060618508 
1772	 0.248855006129266 
1773	 0.248757337291627 
1774	 0.248679220745564 
1775	 0.248644328781551 
1776	 0.248564519797076 
1777	 0.248481346123771 
1778	 0.248410446385351 
1779	 0.248301008189277 
1780	 0.248223597028934 
1781	 0.248147961315744 
1782	 0.248075383225289 
1783	 0.248011919062366 
1784	 0.247955761861769 
1785	 0.247918937154859 
1786	 0.247875851356238 
1787	 0.24784184058381 
1788	 0.247806673504692 
1789	 0.247772977359387 
1790	 0.247734439700969 
1791	 0.247680010461655 
1792	 0.247645012440641 
1793	 0.247616891367463 
1794	 0.247602882219234 
1795	 0.247615185717708 
1796	 0.247605578447624 
1797	 0.24758508736228 
1798	 0.247568490823286 
1799	 0.247551467170304 
1800	 0.247539209981638 
1801	 0.247020831653522 
1802	 0.247201534584697 
1803	 0.247403050537838 
1804	 0.247598772739528 
1805	 0.247794131005609 
1806	 0.248006175873822 
1807	 0.248198132807674 
1808	 0.248367112958877 
1809	 0.248534076856151 
1810	 0.248666483382321 
1811	 0.248772112655559 
1812	 0.248868167995594 
1813	 0.248913405080082 
1814	 0.248924049442774 
1815	 0.248941565777556 
1816	 0.248923574537614 
1817	 0.248907386607955 
1818	 0.248889881511258 
1819	 0.248889142798765 
1820	 0.24887520423078 
1821	 0.248866153505088 
1822	 0.248911303326732 
1823	 0.248914830333226 
1824	 0.248936339581482 
1825	 0.248961456491341 
1826	 0.248976395900331 
1827	 0.249012365929454 
1828	 0.248989624018863 
1829	 0.24891710576109 
1830	 0.24885535219243 
1831	 0.248766240471329 
1832	 0.248668662628228 
1833	 0.248586046365263 
1834	 0.248552911736596 
1835	 0.248558089244528 
1836	 0.248514951086195 
1837	 0.248474877230857 
1838	 0.248452185354892 
1839	 0.248420667407264 
1840	 0.248367197270513 
1841	 0.248349151736201 
1842	 0.248321707415281 
1843	 0.248259702072838 
1844	 0.24816464341032 
1845	 0.248030758440083 
1846	 0.247898784145442 
1847	 0.247764637216354 
1848	 0.247639504439466 
1849	 0.247524465113088 
1850	 0.247395065387777 
1851	 0.247266853783681 
1852	 0.247124847886402 
1853	 0.246961676619472 
1854	 0.24674794228545 
1855	 0.246512300309082 
1856	 0.246255914934641 
1857	 0.245939992893745 
1858	 0.245624718988557 
1859	 0.245283280112328 
1860	 0.244895913863513 
1861	 0.244462131184668 
1862	 0.244028036039912 
1863	 0.243546672969842 
1864	 0.24301137854616 
1865	 0.242464718488286 
1866	 0.24185796921892 
1867	 0.241183530371233 
1868	 0.240467668222583 
1869	 0.239700728356629 
1870	 0.238891480405205 
1871	 0.238024158571198 
1872	 0.237119116957314 
1873	 0.23617060360401 
1874	 0.23513359554581 
1875	 0.233996400966278 
1876	 0.232823906203448 
1877	 0.231560154872595 
1878	 0.230191366270323 
1879	 0.228768157699537 
1880	 0.227239246371809 
1881	 0.225597759701114 
1882	 0.223882347850451 
1883	 0.222090242263315 
1884	 0.220169153136419 
1885	 0.218202395804083 
1886	 0.216138593533344 
1887	 0.21397135363745 
1888	 0.211776410447042 
1889	 0.209474917176357 
1890	 0.207104881600391 
1891	 0.204765813331654 
1892	 0.202373642511615 
1893	 0.200019902530391 
1894	 0.197668750843651 
1895	 0.195358332870748 
1896	 0.19304099477839 
1897	 0.190782843801142 
1898	 0.188562909254783 
1899	 0.186408770452872 
1900	 0.184358546511512 
1901	 0.18237149139671 
1902	 0.180479928663671 
1903	 0.178695160768661 
1904	 0.176988202975792 
1905	 0.17535178262498 
1906	 0.173829471863604 
1907	 0.172392051473015 
1908	 0.171036009275785 
1909	 0.169782741659082 
1910	 0.168592841656818 
1911	 0.167510209821959 
1912	 0.166512740095818 
1913	 0.165572154302354 
1914	 0.164710165475807 
1915	 0.163906096129097 
1916	 0.163167248255054 
1917	 0.162481311750097 
1918	 0.161858256947047 
1919	 0.161302087160308 
1920	 0.160792145264331 
1921	 0.160315520302129 
1922	 0.159893822159721 
1923	 0.159511284652808 
1924	 0.159180335229459 
1925	 0.158908900036998 
1926	 0.15867012998576 
1927	 0.158478715559714 
1928	 0.158314861936816 
1929	 0.158185429756388 
1930	 0.158095668935963 
1931	 0.158050084274606 
1932	 0.158063835704864 
1933	 0.158102483884119 
1934	 0.158162240104473 
1935	 0.158256474537301 
1936	 0.158375991078376 
1937	 0.158521025631707 
1938	 0.158702286024452 
1939	 0.158904374176671 
1940	 0.159126194119571 
1941	 0.159387187353227 
1942	 0.159653679851204 
1943	 0.159949179212034 
1944	 0.160250458351845 
1945	 0.160546342579794 
1946	 0.160873446636912 
1947	 0.161223965894125 
1948	 0.161579788095774 
1949	 0.161950446380879 
1950	 0.162339960132013 
1951	 0.16274275042984 
1952	 0.163157860614379 
1953	 0.163578794340518 
1954	 0.164020794967572 
1955	 0.16447688005911 
1956	 0.16493776892842 
1957	 0.165419751587308 
1958	 0.165945057619414 
1959	 0.166438517423566 
1960	 0.166927762474811 
1961	 0.167417574326445 
1962	 0.167886634492661 
1963	 0.16838699136413 
1964	 0.168893034234911 
1965	 0.169421797286349 
1966	 0.169982827302169 
1967	 0.170544682522269 
1968	 0.171105332489124 
1969	 0.171679775641331 
1970	 0.172244582910489 
1971	 0.172811939803091 
1972	 0.173366058906741 
1973	 0.173912802602395 
1974	 0.174459872516108 
1975	 0.174991065048554 
1976	 0.175530362452193 
1977	 0.176095621059119 
1978	 0.176664058217801 
1979	 0.177227187200048 
1980	 0.177794024748108 
1981	 0.178352994074674 
1982	 0.178883617468746 
1983	 0.179449932349142 
1984	 0.180035608626633 
1985	 0.180617605581959 
1986	 0.181221766011371 
1987	 0.181809458430716 
1988	 0.182392757041291 
1989	 0.182971578561272 
1990	 0.183538016783404 
1991	 0.184110735657884 
1992	 0.184678651126517 
1993	 0.185240541104611 
1994	 0.185807254919923 
1995	 0.186372490976366 
1996	 0.186941807707797 
1997	 0.187521014975049 
1998	 0.188091182710866 
1999	 0.188665097402193 
2000	 0.189225984637224 
2001	 0.189779741436528 
2002	 0.190319663778149 
2003	 0.190870780390671 
2004	 0.191424058872357 
2005	 0.19194994271468 
2006	 0.192464798789332 
2007	 0.19297919856072 
2008	 0.193458252606436 
2009	 0.193966335719901 
2010	 0.194500204107203 
2011	 0.195016762494228 
2012	 0.19554091361569 
2013	 0.19604878168354 
2014	 0.196543593565951 
2015	 0.197034787048314 
2016	 0.197508906569793 
2017	 0.197973327118915 
2018	 0.19845664346699 
2019	 0.198939905707726 
2020	 0.199431118113044 
2021	 0.199950334105567 
2022	 0.200440219957772 
2023	 0.200922817139903 
2024	 0.201397036564399 
2025	 0.201862458965534 
2026	 0.20231594220238 
2027	 0.20275454847896 
2028	 0.203186807220316 
2029	 0.203633325265881 
2030	 0.20407316252406 
2031	 0.204516943081055 
2032	 0.20498810461247 
2033	 0.205418661775181 
2034	 0.205823089692357 
2035	 0.206235872560284 
2036	 0.206627517153311 
2037	 0.20703596018205 
2038	 0.207474194260388 
2039	 0.207873881423851 
2040	 0.20825701882184 
2041	 0.208639944752977 
2042	 0.208977380052062 
2043	 0.209320414289801 
2044	 0.209688556441994 
2045	 0.210073201410679 
2046	 0.21044459656304 
2047	 0.210838352845894 
2048	 0.211203067374727 
2049	 0.211548208200769 
2050	 0.211892280342508 
2051	 0.212231308646619 
2052	 0.212559062198116 
2053	 0.212855388672629 
2054	 0.213178574409173 
2055	 0.213509412244593 
2056	 0.213846386563294 
2057	 0.214169588544703 
2058	 0.214506627564541 
2059	 0.214828340060925 
2060	 0.215117754339352 
2061	 0.215439089362129 
2062	 0.215779184783643 
2063	 0.216111833487781 
2064	 0.216461022337265 
2065	 0.216789042050803 
2066	 0.217116252181549 
2067	 0.217425522411358 
2068	 0.217717911336115 
2069	 0.217996819361172 
2070	 0.21827786408628 
2071	 0.218545384501865 
2072	 0.218821077670226 
2073	 0.21909550205038 
2074	 0.21937566342416 
2075	 0.219665021216679 
2076	 0.219939082843056 
2077	 0.220209252518521 
2078	 0.220479347190713 
2079	 0.220725722466853 
2080	 0.220998186780104 
2081	 0.221302196167083 
2082	 0.221581141711321 
2083	 0.221865228609348 
2084	 0.222129680005837 
2085	 0.222403863358205 
2086	 0.222659067755993 
2087	 0.222938772353173 
2088	 0.223239067263656 
2089	 0.223528530103857 
2090	 0.223827163935158 
2091	 0.22410279688362 
2092	 0.224375134889853 
2093	 0.224631420690725 
2094	 0.224852981571211 
2095	 0.225097946740923 
2096	 0.225346321635333 
2097	 0.225594536681124 
2098	 0.225859167075753 
2099	 0.226110190261251 
2100	 0.226358199954296 
2101	 0.226595468263568 
2102	 0.226840775677822 
2103	 0.227082580600206 
2104	 0.227333309453294 
2105	 0.227586417323112 
2106	 0.227845977802474 
2107	 0.22813250022072 
2108	 0.228382422979893 
2109	 0.22860383934278 
2110	 0.22885179389151 
2111	 0.229085707379268 
2112	 0.229332131991863 
2113	 0.229609037025426 
2114	 0.229886152519673 
2115	 0.230139591285548 
2116	 0.230370433847343 
2117	 0.230625430544528 
2118	 0.230881841567454 
2119	 0.231136554592612 
2120	 0.2314177658081 
2121	 0.231660138250439 
2122	 0.231884838977771 
2123	 0.232096788885999 
2124	 0.232285277336056 
2125	 0.232469766817189 
2126	 0.2326361850929 
2127	 0.232807905277201 
2128	 0.23297297228096 
2129	 0.233138246070328 
2130	 0.233313847057303 
2131	 0.233476072944537 
2132	 0.233619885534733 
2133	 0.233754037760919 
2134	 0.233878331895074 
2135	 0.2339860237755 
2136	 0.234081701967726 
2137	 0.234184768391723 
2138	 0.23424064106117 
2139	 0.234238089536078 
2140	 0.234274202223271 
2141	 0.234302184909374 
2142	 0.234326976476342 
2143	 0.234391126659998 
2144	 0.234410875395352 
2145	 0.234386320055759 
2146	 0.234369529586617 
2147	 0.234322503036538 
2148	 0.234304018944565 
2149	 0.234274191135066 
2150	 0.234238652401254 
2151	 0.234223014681459 
2152	 0.234228779587191 
2153	 0.234199547694183 
2154	 0.23418315078355 
2155	 0.234128546930564 
2156	 0.234040416080919 
2157	 0.233939798826561 
2158	 0.233821895863452 
2159	 0.233689872910875 
2160	 0.233525871514983 
2161	 0.233365959586643 
2162	 0.233178175088487 
2163	 0.233017672726522 
2164	 0.23287437347605 
2165	 0.232726298209364 
2166	 0.232573616375375 
2167	 0.232435578241405 
2168	 0.232283383795363 
2169	 0.232110143524614 
2170	 0.231952285006411 
2171	 0.231814677123269 
2172	 0.231646408733307 
2173	 0.231467056592971 
2174	 0.231282801454511 
2175	 0.231069893081629 
2176	 0.230878259292736 
2177	 0.230701150600862 
2178	 0.230507795001459 
2179	 0.230307723922954 
2180	 0.230115142624263 
2181	 0.229931331749981 
2182	 0.229726119494023 
2183	 0.229506199686207 
2184	 0.22929664075205 
2185	 0.2290883987912 
2186	 0.228847587468897 
2187	 0.228658878932668 
2188	 0.228517114463312 
2189	 0.228340966720578 
2190	 0.228174831129881 
2191	 0.227992493748085 
2192	 0.227778203468813 
2193	 0.227596011507291 
2194	 0.227410349023499 
2195	 0.227252876556736 
2196	 0.227119387030733 
2197	 0.226993818456721 
2198	 0.226892074395208 
2199	 0.226794166933121 
2200	 0.226688938833078 
2201	 0.22661951426984 
2202	 0.226583586097638 
2203	 0.226537682467951 
2204	 0.226523649404719 
2205	 0.226552213140533 
2206	 0.226551806243797 
2207	 0.226548226932864 
2208	 0.226558515308824 
2209	 0.226557614782791 
2210	 0.226594042297774 
2211	 0.226676228306375 
2212	 0.22671730266078 
2213	 0.226750273058527 
2214	 0.226798924379527 
2215	 0.226844748732571 
2216	 0.226878728015199 
2217	 0.226912793343573 
2218	 0.226961265264698 
2219	 0.226989254317908 
2220	 0.227037924676681 
2221	 0.227127460618669 
2222	 0.227211738725502 
2223	 0.227264469559643 
2224	 0.227304181044645 
2225	 0.227327590044439 
2226	 0.227319621181729 
2227	 0.227336660710869 
2228	 0.227356864704994 
2229	 0.227363685069677 
2230	 0.227373640594892 
2231	 0.227374271107854 
2232	 0.227354535856384 
2233	 0.227344792083682 
2234	 0.227342766688562 
2235	 0.227334534948142 
2236	 0.227318265476235 
2237	 0.227305778671625 
2238	 0.227316976927523 
2239	 0.227281877696335 
2240	 0.227215118742281 
2241	 0.227164785608654 
2242	 0.227083590094208 
2243	 0.227014330480622 
2244	 0.226963943248136 
2245	 0.226916458791625 
2246	 0.226833472611942 
2247	 0.226772006119254 
2248	 0.226717343800587 
2249	 0.22667485810872 
2250	 0.226605546022448 
2251	 0.22653689670785 
2252	 0.226467902857544 
2253	 0.226373689412358 
2254	 0.226301965830969 
2255	 0.226252680575864 
2256	 0.226185239392631 
2257	 0.226101392720296 
2258	 0.226039657151624 
2259	 0.225981844883669 
2260	 0.22593489656451 
2261	 0.225913384286202 
2262	 0.225876781778725 
2263	 0.225845394468834 
2264	 0.22579819816657 
2265	 0.225719093974912 
2266	 0.225675258791494 
2267	 0.225640259417674 
2268	 0.225610469264374 
2269	 0.225606092482292 
2270	 0.225605955339518 
2271	 0.225587877413439 
2272	 0.225553085515469 
2273	 0.225534248248464 
2274	 0.225484014025949 
2275	 0.225428325088106 
2276	 0.225367602002273 
2277	 0.22529575330076 
2278	 0.22518038623039 
2279	 0.225129486351472 
2280	 0.225116499643469 
2281	 0.2250580359142 
2282	 0.225006109777847 
2283	 0.224962746557611 
2284	 0.224888473838723 
2285	 0.224838660258554 
2286	 0.224842047112101 
2287	 0.224796895240946 
2288	 0.224706152022823 
2289	 0.224643971975976 
2290	 0.224598750806239 
2291	 0.224526230466784 
2292	 0.224449341048502 
2293	 0.224369680154879 
2294	 0.224260934744963 
2295	 0.224168752609328 
2296	 0.22410028366737 
2297	 0.224007472133711 
2298	 0.223902200475818 
2299	 0.223812840432832 
2300	 0.223739879251535 
2301	 0.223634215311308 
2302	 0.223533363531711 
2303	 0.223425555711749 
2304	 0.223307006823136 
2305	 0.223236251537448 
2306	 0.223130485875167 
2307	 0.223042024509964 
2308	 0.222912095298857 
2309	 0.222734295561205 
2310	 0.222584671515701 
2311	 0.222424291627581 
2312	 0.222283820435662 
2313	 0.222162296884539 
2314	 0.222035483372604 
2315	 0.221918655383348 
2316	 0.221804553309113 
2317	 0.221710996936304 
2318	 0.221559549000715 
2319	 0.221376312156974 
2320	 0.221204780068772 
2321	 0.220990017600869 
2322	 0.220803429316184 
2323	 0.220653099398031 
2324	 0.220485649431295 
2325	 0.220295410563438 
2326	 0.220131486026977 
2327	 0.219993596009768 
2328	 0.219825260246358 
2329	 0.219667590442602 
2330	 0.219521799405636 
2331	 0.219392221712125 
2332	 0.219272354158203 
2333	 0.219150490421219 
2334	 0.21901843610896 
2335	 0.218894339917759 
2336	 0.218802526920528 
2337	 0.218707882723352 
2338	 0.218619678484399 
2339	 0.218459369788164 
2340	 0.21818859313843 
2341	 0.217972605495916 
2342	 0.217766527632514 
2343	 0.217563253016217 
2344	 0.21741727660953 
2345	 0.217210638685044 
2346	 0.2169584996953 
2347	 0.216733414675499 
2348	 0.216501174169275 
2349	 0.216280770080373 
2350	 0.21609598029075 
2351	 0.215849853171567 
2352	 0.215532037830517 
2353	 0.215275869613426 
2354	 0.215048593592707 
2355	 0.214791476017474 
2356	 0.214565486639949 
2357	 0.21432322630062 
2358	 0.214016880192874 
2359	 0.213736695598936 
2360	 0.213475809441666 
2361	 0.213229788279419 
2362	 0.212995072112171 
2363	 0.212756605179625 
2364	 0.212545242985185 
2365	 0.212319984288147 
2366	 0.21208221681466 
2367	 0.211832903579216 
2368	 0.211571354058476 
2369	 0.211298158786887 
2370	 0.210991461286371 
2371	 0.210735157551817 
2372	 0.210475296874128 
2373	 0.210240514786006 
2374	 0.209970111946462 
2375	 0.209649620769053 
2376	 0.20932356696816 
2377	 0.209007106168049 
2378	 0.208731260159527 
2379	 0.208469053263695 
2380	 0.208173645265907 
2381	 0.207860905953491 
2382	 0.207571574591495 
2383	 0.207250122649071 
2384	 0.206941042860553 
2385	 0.206658170610257 
2386	 0.206296182311686 
2387	 0.205964281316456 
2388	 0.205629126092219 
2389	 0.205250921013716 
2390	 0.204963634036338 
2391	 0.204633038001832 
2392	 0.204282724363741 
2393	 0.203984908948065 
2394	 0.203609226021889 
2395	 0.203282427603107 
2396	 0.203013423119316 
2397	 0.202675892978686 
2398	 0.202397670397051 
2399	 0.202112128146589 
2400	 0.201731044448812 
2401	 0.201325468823179 
2402	 0.200834977094077 
2403	 0.200402570849354 
2404	 0.200059133545958 
2405	 0.199710071053551 
2406	 0.19938421237857 
2407	 0.19900314378814 
2408	 0.19861558393045 
2409	 0.198264148274588 
2410	 0.197910685763457 
2411	 0.197558412201246 
2412	 0.19712247633135 
2413	 0.1966938251747 
2414	 0.196322550343842 
2415	 0.195929570059119 
2416	 0.195552961883864 
2417	 0.195211447034806 
2418	 0.194797922105713 
2419	 0.194368213736956 
2420	 0.193947778412129 
2421	 0.193483427430632 
2422	 0.193086126066943 
2423	 0.192706856916479 
2424	 0.19231138226093 
2425	 0.191990092631389 
2426	 0.1915552730055 
2427	 0.191046948279651 
2428	 0.190568030331312 
2429	 0.19002431400445 
2430	 0.189542417556759 
2431	 0.189102901828349 
2432	 0.188663542489888 
2433	 0.188224082531497 
2434	 0.187793736886561 
2435	 0.187401002309133 
2436	 0.187002270576105 
2437	 0.186578448246729 
2438	 0.186210268780983 
2439	 0.185902645084745 
2440	 0.185526989362889 
2441	 0.185148971626257 
2442	 0.184777799404198 
2443	 0.184365542912483 
2444	 0.183971090740316 
2445	 0.18363610758315 
2446	 0.18323264475946 
2447	 0.182750234642212 
2448	 0.182279391197025 
2449	 0.181828369906132 
2450	 0.181375130320125 
2451	 0.180864604929911 
2452	 0.180460478933595 
2453	 0.180088920161623 
2454	 0.179705828563806 
2455	 0.179426844903523 
2456	 0.179091141953127 
2457	 0.17868480246389 
2458	 0.17833145813501 
2459	 0.178032719006778 
2460	 0.177692448160655 
2461	 0.177391811872451 
2462	 0.176984710188268 
2463	 0.176423231418985 
2464	 0.175973708025377 
2465	 0.175514665287192 
2466	 0.175062488418908 
2467	 0.174721740590361 
2468	 0.174308937951638 
2469	 0.173760963722184 
2470	 0.17338825640646 
2471	 0.173140473888795 
2472	 0.172831396177903 
2473	 0.172705776542475 
2474	 0.172461380099849 
2475	 0.172067691549932 
2476	 0.171754912064325 
2477	 0.171341428927002 
2478	 0.17092757939129 
2479	 0.170511957830614 
2480	 0.170104825889817 
2481	 0.169680216377303 
2482	 0.169328503189002 
2483	 0.169052618496758 
2484	 0.168672907335698 
2485	 0.168331632344881 
2486	 0.167977838546053 
2487	 0.167560088877152 
2488	 0.167247523194401 
2489	 0.166987889012848 
2490	 0.16668013894514 
2491	 0.166487266845109 
2492	 0.166279915737904 
2493	 0.165727661305085 
2494	 0.165298786096232 
2495	 0.164973391517771 
2496	 0.164500274238136 
2497	 0.164491854157656 
2498	 0.164606566701481 
2499	 0.164389489270416 
2500	 0.164396575570921 
