Wavelength	mm1900000.asd
350	 3.51281441472153E-02 
351	 4.34611515508478E-02 
352	 4.25799731855524E-02 
353	 2.93734372429924E-02 
354	 4.34167733199831E-02 
355	 4.02038009567842E-02 
356	 3.19636370241141E-02 
357	 3.76193391294773E-02 
358	 4.47174655930577E-02 
359	 4.18669305998913E-02 
360	 3.57931940383309E-02 
361	 4.20360861596689E-02 
362	 3.93316909273371E-02 
363	 3.58618013974121E-02 
364	 3.68195447487529E-02 
365	 3.72938490864559E-02 
366	 3.59723300301162E-02 
367	 3.61854176125494E-02 
368	 4.02552073097177E-02 
369	 4.16441976277501E-02 
370	 4.19664646777645E-02 
371	 0.040760930394578 
372	 3.68739016674731E-02 
373	 3.93654140494163E-02 
374	 4.22859937568799E-02 
375	 4.17736123690551E-02 
376	 4.08670032729973E-02 
377	 3.93661897536669E-02 
378	 3.99906399716364E-02 
379	 4.38949154837898E-02 
380	 4.29112732195332E-02 
381	 3.98164266989657E-02 
382	 3.89704116015547E-02 
383	 4.43573780524305E-02 
384	 4.51429672860199E-02 
385	 4.25000799830723E-02 
386	 3.98511522337668E-02 
387	 4.12392592393536E-02 
388	 0.042989821159469 
389	 0.044177483249983 
390	 4.46440990249027E-02 
391	 4.32963426613668E-02 
392	 4.32693957157281E-02 
393	 4.51827038000835E-02 
394	 4.72216739219028E-02 
395	 4.57498898907583E-02 
396	 4.48850314829296E-02 
397	 4.66413846971584E-02 
398	 4.56505708225411E-02 
399	 4.55247584912266E-02 
400	 4.69400691633517E-02 
401	 4.89641462676683E-02 
402	 0.048216787036112 
403	 4.79943281783093E-02 
404	 4.88241386718019E-02 
405	 0.048151652478063 
406	 4.76522167743594E-02 
407	 4.78912779706761E-02 
408	 0.048702059495891 
409	 4.87577371548928E-02 
410	 4.81533475284902E-02 
411	 4.79178201190944E-02 
412	 4.90854013289987E-02 
413	 4.95356628557933E-02 
414	 4.90721995686868E-02 
415	 4.85120445606969E-02 
416	 0.049711155281358 
417	 0.049064871058704 
418	 4.83829157008794E-02 
419	 4.95205705915052E-02 
420	 4.99888805166873E-02 
421	 4.96007211599371E-02 
422	 4.90558857954861E-02 
423	 4.94081707255431E-02 
424	 4.90888916397275E-02 
425	 4.87411630459182E-02 
426	 4.87898096580798E-02 
427	 4.87747557193933E-02 
428	 4.86896202385299E-02 
429	 4.85361648427583E-02 
430	 4.83899484382485E-02 
431	 4.86083659107442E-02 
432	 4.87106556516411E-02 
433	 4.86418408114992E-02 
434	 4.87697839718597E-02 
435	 4.86759538234754E-02 
436	 4.85895056744599E-02 
437	 4.86346305093439E-02 
438	 4.82669057403303E-02 
439	 0.048332834775033 
440	 4.87165026834239E-02 
441	 4.88237027060082E-02 
442	 0.048458301973567 
443	 0.048337373244843 
444	 4.86384313326082E-02 
445	 4.86112775049873E-02 
446	 0.048686962229969 
447	 4.87598726348488E-02 
448	 0.048728411666541 
449	 4.91743747253054E-02 
450	 4.93835565898218E-02 
451	 4.92874154494891E-02 
452	 4.93768361923156E-02 
453	 4.94160737697624E-02 
454	 4.92821463768714E-02 
455	 4.90475725817027E-02 
456	 4.92320552415757E-02 
457	 4.93854329517105E-02 
458	 4.93809542955685E-02 
459	 4.92554924993897E-02 
460	 4.90923330825265E-02 
461	 4.88627159695842E-02 
462	 4.87383664511187E-02 
463	 4.91977083107447E-02 
464	 4.93010627645368E-02 
465	 4.92117348717951E-02 
466	 4.92941709970907E-02 
467	 4.93644525609911E-02 
468	 4.94103628671094E-02 
469	 0.049378424834345 
470	 4.92040367267187E-02 
471	 4.92142235742342E-02 
472	 4.91916653412504E-02 
473	 4.90141285436755E-02 
474	 4.90056345375408E-02 
475	 4.90242678980759E-02 
476	 4.89936655184258E-02 
477	 4.88954844045026E-02 
478	 4.89477665643765E-02 
479	 4.89704461891237E-02 
480	 4.89381189741256E-02 
481	 4.90862513319318E-02 
482	 4.92279676010878E-02 
483	 4.93299672560102E-02 
484	 4.93671039121136E-02 
485	 4.91614174200616E-02 
486	 4.89434567366441E-02 
487	 4.88307788234955E-02 
488	 4.88323842942186E-02 
489	 4.89647114998332E-02 
490	 0.049160983907275 
491	 4.93245771636876E-02 
492	 4.93323379826871E-02 
493	 4.91230223992056E-02 
494	 4.89842698387304E-02 
495	 4.92434330595884E-02 
496	 4.91436681043542E-02 
497	 0.049046035892247 
498	 0.049096030099422 
499	 4.89459114524166E-02 
500	 4.91247002121447E-02 
501	 4.92761115381877E-02 
502	 0.04900612811863 
503	 4.89319932463101E-02 
504	 4.90083823854968E-02 
505	 4.90819759831992E-02 
506	 4.89482869157481E-02 
507	 4.90281632141593E-02 
508	 4.92376416705984E-02 
509	 4.93666194577743E-02 
510	 4.91150738050656E-02 
511	 4.89876658840692E-02 
512	 4.90223752057577E-02 
513	 4.90104558281845E-02 
514	 4.89981565364856E-02 
515	 4.90010611034034E-02 
516	 4.90625336266821E-02 
517	 4.92999957599895E-02 
518	 4.93295118690709E-02 
519	 4.92440828380862E-02 
520	 4.92697291797956E-02 
521	 4.94159393492207E-02 
522	 4.94265625363371E-02 
523	 4.93122493041908E-02 
524	 4.93692202489792E-02 
525	 4.93937342954569E-02 
526	 4.93936781249008E-02 
527	 0.049403438338602 
528	 4.93858566316313E-02 
529	 4.94065842464066E-02 
530	 4.94829967184683E-02 
531	 4.95886887670668E-02 
532	 4.95924810535907E-02 
533	 4.95952160220605E-02 
534	 4.96440552609473E-02 
535	 0.049592325289157 
536	 4.95892922587476E-02 
537	 4.96742962931621E-02 
538	 0.049821213835071 
539	 4.99006952632799E-02 
540	 4.99270442725152E-02 
541	 4.99484005389072E-02 
542	 5.00382196680178E-02 
543	 5.01454853009232E-02 
544	 5.02549862244736E-02 
545	 0.050360486389177 
546	 5.04579692966353E-02 
547	 5.05232973184359E-02 
548	 5.05989257166111E-02 
549	 5.07744492079501E-02 
550	 5.09286124071589E-02 
551	 5.10365110776135E-02 
552	 5.11220642141618E-02 
553	 5.12894843751014E-02 
554	 5.14082591083824E-02 
555	 5.15391108559126E-02 
556	 5.18156208474566E-02 
557	 5.20561269947536E-02 
558	 5.22523833143801E-02 
559	 5.24707174210502E-02 
560	 5.28911581764053E-02 
561	 5.31112596562558E-02 
562	 5.32808415860375E-02 
563	 5.36559983227675E-02 
564	 5.39168003241796E-02 
565	 5.42061779902906E-02 
566	 5.45798737387693E-02 
567	 5.49679287000884E-02 
568	 5.54177434695048E-02 
569	 5.58692621609921E-02 
570	 5.62864896838763E-02 
571	 5.67927791740568E-02 
572	 5.73559254146896E-02 
573	 5.79377560666355E-02 
574	 5.84975279790775E-02 
575	 0.059020449706418 
576	 5.95784424870041E-02 
577	 6.01935171466538E-02 
578	 6.07357780020686E-02 
579	 6.13752853054838E-02 
580	 6.20752249751128E-02 
581	 6.27301415275023E-02 
582	 6.34311775669513E-02 
583	 6.41511213300363E-02 
584	 6.48610624163187E-02 
585	 6.55433498736817E-02 
586	 6.63600684275149E-02 
587	 6.72062246426789E-02 
588	 6.79590983799198E-02 
589	 6.87967925653337E-02 
590	 6.96590930371749E-02 
591	 7.05078430185835E-02 
592	 7.13340951192371E-02 
593	 7.20863707772133E-02 
594	 7.28324002711967E-02 
595	 7.36077536937912E-02 
596	 7.42949509962638E-02 
597	 7.49959584527819E-02 
598	 7.57326254311897E-02 
599	 7.64814378953157E-02 
600	 7.72026239395787E-02 
601	 7.79475339469866E-02 
602	 7.87024251032894E-02 
603	 7.93165882758601E-02 
604	 7.99285937420773E-02 
605	 8.05640058554801E-02 
606	 8.12059880532887E-02 
607	 8.18380447170085E-02 
608	 8.24316573986299E-02 
609	 8.29920292220392E-02 
610	 8.35626698170037E-02 
611	 8.40742355988505E-02 
612	 8.45492391185123E-02 
613	 8.50066675949086E-02 
614	 8.53729868901635E-02 
615	 0.085751878531694 
616	 8.61377754931422E-02 
617	 8.64544620896895E-02 
618	 8.67986855433289E-02 
619	 8.71395371420445E-02 
620	 8.74447634481335E-02 
621	 8.77191353420191E-02 
622	 8.79541327355759E-02 
623	 0.088189527200736 
624	 0.088465621412511 
625	 8.86805357477563E-02 
626	 8.88943170873494E-02 
627	 0.089134088257545 
628	 8.93666626607835E-02 
629	 8.95736050421737E-02 
630	 8.97660781474058E-02 
631	 8.99617938837255E-02 
632	 9.01616207455536E-02 
633	 9.03595666367162E-02 
634	 9.05457942964845E-02 
635	 9.07104377489126E-02 
636	 9.08858780813142E-02 
637	 9.10641615562185E-02 
638	 0.091236586139107 
639	 9.14132149014296E-02 
640	 9.15746255576364E-02 
641	 0.091742034123219 
642	 9.19517035096924E-02 
643	 9.22040184514997E-02 
644	 9.24106837401079E-02 
645	 9.25657283134086E-02 
646	 9.27928165078361E-02 
647	 9.30061221660948E-02 
648	 9.32254467646487E-02 
649	 9.34751517467177E-02 
650	 9.36699795726713E-02 
651	 9.38707355435376E-02 
652	 9.40937795560573E-02 
653	 9.43159250146161E-02 
654	 9.45824153012288E-02 
655	 9.48500466174528E-02 
656	 9.50920852031832E-02 
657	 9.53624403602487E-02 
658	 9.56316539556318E-02 
659	 0.095889060571166 
660	 9.61413447944531E-02 
661	 9.64605392776512E-02 
662	 9.67706654035083E-02 
663	 9.70393062548119E-02 
664	 9.73158854952571E-02 
665	 9.76253757366604E-02 
666	 9.79499423353688E-02 
667	 9.82692362223093E-02 
668	 9.86198007526949E-02 
669	 9.89572210067776E-02 
670	 9.92839807455917E-02 
671	 9.96405805162506E-02 
672	 0.100000923102241 
673	 0.1004023653772 
674	 0.100845615715795 
675	 0.101223897542317 
676	 0.101559168856911 
677	 0.101925715741181 
678	 0.102392130550224 
679	 0.102792998333458 
680	 0.103208423038524 
681	 0.1036642499903 
682	 0.104088158635108 
683	 0.104563919034807 
684	 0.105054953230181 
685	 0.105512127836182 
686	 0.105954279757035 
687	 0.106451049008927 
688	 0.106983825312373 
689	 0.107475176214062 
690	 0.107966653354805 
691	 0.108491808072159 
692	 0.109036827708451 
693	 0.10948949714049 
694	 0.10998828921321 
695	 0.110550560388071 
696	 0.111138855040273 
697	 0.111682802901243 
698	 0.112249716543099 
699	 0.112835450507838 
700	 0.113355276222555 
701	 0.113878580647825 
702	 0.114431914742174 
703	 0.115015999427078 
704	 0.115591218285502 
705	 0.116150677717582 
706	 0.116714213353812 
707	 0.117309221504694 
708	 0.117901015722576 
709	 0.11847706869517 
710	 0.119046420872578 
711	 0.119647795842275 
712	 0.120208616852486 
713	 0.120738768304729 
714	 0.121278009305236 
715	 0.121881844203699 
716	 0.122466830088307 
717	 0.122997500565686 
718	 0.123484476984907 
719	 0.123991529998844 
720	 0.124540314872831 
721	 0.125099397552756 
722	 0.125550380584841 
723	 0.126024663374446 
724	 0.126503736370906 
725	 0.126936581402262 
726	 0.127387819093213 
727	 0.127792564470239 
728	 0.128150986140035 
729	 0.128527938501913 
730	 0.128942817428634 
731	 0.129320796493839 
732	 0.129614855589429 
733	 0.129879276318152 
734	 0.130162034491365 
735	 0.130423170470098 
736	 0.130611375589531 
737	 0.130866892081229 
738	 0.131104316761369 
739	 0.131276776897135 
740	 0.131399534400095 
741	 0.13151026087147 
742	 0.131592078463844 
743	 0.131641222941168 
744	 0.131733698865675 
745	 0.13174015116759 
746	 0.131706925667274 
747	 0.131739022081572 
748	 0.131705159882952 
749	 0.131626808831119 
750	 0.131541230955545 
751	 0.131485675628705 
752	 0.131362632312299 
753	 0.13119001652955 
754	 0.131006140097192 
755	 0.130817330291244 
756	 0.130658279114349 
757	 0.130481996653141 
758	 0.130220243074744 
759	 0.129985012421041 
760	 0.129739825054465 
761	 0.129471077461604 
762	 0.129210722587252 
763	 0.128944396744424 
764	 0.128628902810356 
765	 0.128258381261875 
766	 0.127950366966817 
767	 0.127647735755439 
768	 0.12733073513529 
769	 0.126997035635276 
770	 0.126631787765363 
771	 0.126258686781463 
772	 0.12588664629409 
773	 0.125502890680208 
774	 0.125108142118221 
775	 0.124734087135808 
776	 0.124388377619061 
777	 0.123994527368094 
778	 0.123602263181355 
779	 0.123234074915228 
780	 0.122884981788624 
781	 0.122462714524703 
782	 0.122067447530962 
783	 0.121708219467072 
784	 0.12128919756764 
785	 0.120909376144168 
786	 0.120542593236459 
787	 0.120156975179113 
788	 0.119761570583628 
789	 0.119407890998698 
790	 0.119046293508225 
791	 0.118622274025371 
792	 0.11827100001483 
793	 0.117933878316922 
794	 0.117582592885369 
795	 0.117222994309231 
796	 0.116820979908599 
797	 0.116471678516672 
798	 0.116195625836914 
799	 0.115844542406414 
800	 0.115490058846062 
801	 0.115143131362855 
802	 0.114801543838494 
803	 0.114476448536624 
804	 0.114175972636254 
805	 0.11388139690438 
806	 0.113563957141936 
807	 0.113259197938758 
808	 0.112959367705142 
809	 0.112661102195391 
810	 0.112371849754389 
811	 0.112091844813686 
812	 0.111802768857673 
813	 0.111508326547529 
814	 0.111282136208268 
815	 0.111084427103631 
816	 0.110851053036578 
817	 0.110541852970999 
818	 0.1102917574494 
819	 0.110066453627798 
820	 0.109851031467993 
821	 0.109652191809462 
822	 0.109433699753406 
823	 0.109192778755088 
824	 0.108961832638555 
825	 0.10881873679471 
826	 0.10866276137173 
827	 0.108469923272322 
828	 0.108252932844475 
829	 0.108063519054473 
830	 0.107861175205295 
831	 0.107658506853742 
832	 0.107496621643146 
833	 0.107426549142321 
834	 0.107309470894545 
835	 0.107124531391435 
836	 0.106973947433665 
837	 0.106868365310832 
838	 0.106762238612585 
839	 0.106638994075674 
840	 0.106550641586595 
841	 0.1064189630366 
842	 0.106306842593891 
843	 0.106266573443848 
844	 0.106195006484321 
845	 0.106119064964318 
846	 0.106027218761982 
847	 0.10590999331868 
848	 0.105857422409775 
849	 0.10582704421417 
850	 0.105789394784235 
851	 0.105735748843776 
852	 0.105665476256622 
853	 0.105624316609474 
854	 0.105613396095045 
855	 0.105563261138697 
856	 0.105590071796628 
857	 0.10561892686993 
858	 0.105586062259728 
859	 0.105570180645079 
860	 0.105585814943095 
861	 0.105608237594179 
862	 0.105604698732674 
863	 0.105581895542563 
864	 0.10560895928548 
865	 0.105672883660437 
866	 0.105715084794685 
867	 0.105765669927985 
868	 0.105808468333045 
869	 0.105841574597298 
870	 0.105884055494608 
871	 0.105992917608737 
872	 0.106098041347589 
873	 0.106156241264011 
874	 0.106202919777668 
875	 0.10629352226829 
876	 0.106415674011227 
877	 0.10653136449968 
878	 0.106577104826802 
879	 0.106749103078791 
880	 0.106924659502502 
881	 0.10696198301853 
882	 0.107143500954005 
883	 0.107308766334375 
884	 0.107422303936864 
885	 0.107537004037401 
886	 0.107739324943096 
887	 0.107941310900376 
888	 0.108105417181963 
889	 0.10825304523576 
890	 0.108401730922472 
891	 0.108577586601508 
892	 0.108784494598349 
893	 0.108996729637229 
894	 0.109152120463915 
895	 0.109361988263816 
896	 0.109650420781031 
897	 0.10982779620711 
898	 0.11008129315209 
899	 0.1103390054897 
900	 0.110531291049165 
901	 0.110775024744964 
902	 0.111046796438484 
903	 0.111340072861816 
904	 0.111639231353962 
905	 0.111887237174367 
906	 0.112155227430786 
907	 0.11246858060053 
908	 0.112815408350191 
909	 0.113145967091411 
910	 0.113427291689375 
911	 0.113685809953692 
912	 0.113981323630889 
913	 0.114306914955365 
914	 0.114698504514178 
915	 0.11510158519208 
916	 0.115406324633641 
917	 0.115766512441726 
918	 0.116122713886997 
919	 0.116451148280254 
920	 0.116801810285527 
921	 0.117250411693034 
922	 0.117699595723276 
923	 0.118101151453038 
924	 0.118525890940414 
925	 0.1190009537861 
926	 0.119485526383266 
927	 0.119933003748337 
928	 0.120318091015955 
929	 0.120805571283047 
930	 0.121326772194073 
931	 0.121810594677407 
932	 0.122335794872735 
933	 0.122806716444175 
934	 0.123251536354408 
935	 0.123725231722635 
936	 0.124245595504246 
937	 0.124757580599131 
938	 0.125271271578817 
939	 0.125812275880036 
940	 0.126375349197386 
941	 0.126923852244492 
942	 0.12753549580254 
943	 0.128246204792774 
944	 0.128751290654565 
945	 0.129303393898963 
946	 0.129923693996569 
947	 0.130535265599889 
948	 0.131175470794133 
949	 0.131830715019223 
950	 0.132469145821805 
951	 0.13308680364766 
952	 0.133852032161335 
953	 0.13451807152827 
954	 0.135117476358152 
955	 0.135819652638844 
956	 0.136537489584959 
957	 0.137220587339907 
958	 0.137870490561982 
959	 0.138530861904527 
960	 0.139262686732304 
961	 0.1400747605871 
962	 0.140861601623821 
963	 0.141503104807025 
964	 0.142200492462581 
965	 0.143072091411744 
966	 0.143969343352904 
967	 0.144656318557985 
968	 0.145474367838715 
969	 0.146248903061312 
970	 0.147003210047888 
971	 0.147857679071302 
972	 0.148514181632508 
973	 0.149437615079003 
974	 0.15047278973899 
975	 0.151158822848954 
976	 0.152062387414204 
977	 0.15299640508296 
978	 0.153854854527096 
979	 0.1546640092268 
980	 0.15567438361819 
981	 0.156535996652802 
982	 0.157267207252069 
983	 0.158117663947165 
984	 0.15910242194913 
985	 0.159940882188897 
986	 0.160723281795902 
987	 0.161677325163885 
988	 0.162526761057612 
989	 0.163359481897592 
990	 0.164235509788788 
991	 0.165189899937167 
992	 0.16626906545364 
993	 0.16716161091014 
994	 0.167944696785608 
995	 0.168825958833257 
996	 0.169700049641942 
997	 0.17068263111794 
998	 0.171607217131183 
999	 0.172346045342988 
1000	 0.173288065079933 
1001	 0.172205921534526 
1002	 0.173083252917467 
1003	 0.173929623726753 
1004	 0.174758773545698 
1005	 0.175640777366813 
1006	 0.176475180728346 
1007	 0.177245058668619 
1008	 0.178026707003612 
1009	 0.178875816521083 
1010	 0.179653766232548 
1011	 0.180430920378317 
1012	 0.181175000065753 
1013	 0.181845782406338 
1014	 0.182568520648333 
1015	 0.183371448741602 
1016	 0.184192713694345 
1017	 0.184950962627819 
1018	 0.185711702147139 
1019	 0.18642670820771 
1020	 0.187099959801091 
1021	 0.187718245098739 
1022	 0.188339710216606 
1023	 0.188982658353401 
1024	 0.18963196211744 
1025	 0.190337849824618 
1026	 0.191091290856498 
1027	 0.191816974895837 
1028	 0.192496667869556 
1029	 0.193141286105767 
1030	 0.193797416629142 
1031	 0.194414944667403 
1032	 0.195016076697272 
1033	 0.19558697124068 
1034	 0.196197322551883 
1035	 0.196764300400005 
1036	 0.197375244876781 
1037	 0.1980492422224 
1038	 0.198655735969219 
1039	 0.19930276734841 
1040	 0.199908323524761 
1041	 0.200472950992789 
1042	 0.201110316306631 
1043	 0.201663934036709 
1044	 0.202222913461973 
1045	 0.202770303050576 
1046	 0.203376706495739 
1047	 0.203960573446341 
1048	 0.204554573020021 
1049	 0.205146299641647 
1050	 0.205746117130106 
1051	 0.2063353095431 
1052	 0.20691678502607 
1053	 0.207482228602811 
1054	 0.208034845398512 
1055	 0.208620095550774 
1056	 0.209157527782517 
1057	 0.209693411415363 
1058	 0.210261553776364 
1059	 0.210829564038447 
1060	 0.211369478209178 
1061	 0.211886221479351 
1062	 0.2124684828796 
1063	 0.213011673398689 
1064	 0.213512321949294 
1065	 0.214084392334816 
1066	 0.214657696500525 
1067	 0.215228323259233 
1068	 0.215771840993407 
1069	 0.216258330991512 
1070	 0.216764156222001 
1071	 0.21723956551909 
1072	 0.217743572202175 
1073	 0.218290483083261 
1074	 0.218797761003898 
1075	 0.219301847870192 
1076	 0.219758151961911 
1077	 0.220221400747871 
1078	 0.22065455255339 
1079	 0.22107976725134 
1080	 0.22155650277077 
1081	 0.222037422143584 
1082	 0.222496732371965 
1083	 0.22296256148631 
1084	 0.223421983901205 
1085	 0.223908828598025 
1086	 0.224427173030401 
1087	 0.224909931243302 
1088	 0.225402060725184 
1089	 0.225880003217115 
1090	 0.226286100702525 
1091	 0.22666338859965 
1092	 0.227078267154923 
1093	 0.227477810396754 
1094	 0.227916959135864 
1095	 0.228353304396333 
1096	 0.228776469462005 
1097	 0.229214779503222 
1098	 0.229636551775829 
1099	 0.23003940798779 
1100	 0.230472945679868 
1101	 0.230901982596795 
1102	 0.231346882102707 
1103	 0.231828441196003 
1104	 0.232294674177063 
1105	 0.232715525426707 
1106	 0.2331350353815 
1107	 0.233543835020931 
1108	 0.233942660016419 
1109	 0.234366189228398 
1110	 0.234817588984987 
1111	 0.235261564420246 
1112	 0.23572570676191 
1113	 0.236158599531573 
1114	 0.236579296407928 
1115	 0.237001311048918 
1116	 0.2374000031517 
1117	 0.237809497493151 
1118	 0.238220945713512 
1119	 0.238643936344015 
1120	 0.239069276490916 
1121	 0.239517973097153 
1122	 0.239947922956907 
1123	 0.240360996294806 
1124	 0.240792380589054 
1125	 0.241234538184761 
1126	 0.241639131880705 
1127	 0.24203154519332 
1128	 0.242434075460254 
1129	 0.242801743558111 
1130	 0.243196398844213 
1131	 0.243636169871054 
1132	 0.244043080443855 
1133	 0.244428007064149 
1134	 0.244816911489077 
1135	 0.245191967919429 
1136	 0.245583729789912 
1137	 0.245982195294233 
1138	 0.246355223491611 
1139	 0.246710791584928 
1140	 0.247045150959532 
1141	 0.247384390491692 
1142	 0.247706819980419 
1143	 0.248041426104432 
1144	 0.248390712373582 
1145	 0.248715406720793 
1146	 0.249032513029657 
1147	 0.249337471397981 
1148	 0.249603202686802 
1149	 0.249909979263558 
1150	 0.250245942303922 
1151	 0.250555932174314 
1152	 0.250867485022616 
1153	 0.25119469550285 
1154	 0.251500970827503 
1155	 0.251771588598309 
1156	 0.252076163631357 
1157	 0.252404083696547 
1158	 0.252706477873999 
1159	 0.25301293320936 
1160	 0.253309033260779 
1161	 0.253579628527093 
1162	 0.253867228264714 
1163	 0.254168065280062 
1164	 0.254451790107887 
1165	 0.254727043934901 
1166	 0.255011604087306 
1167	 0.255289866669243 
1168	 0.255574529577004 
1169	 0.255850776200816 
1170	 0.256145354447654 
1171	 0.25640344131198 
1172	 0.256635098675423 
1173	 0.256873703470065 
1174	 0.25709731850035 
1175	 0.257327574430044 
1176	 0.257561619228943 
1177	 0.257792522852323 
1178	 0.258012368919391 
1179	 0.25824732164476 
1180	 0.258504598807158 
1181	 0.258735744445852 
1182	 0.258950890777433 
1183	 0.259187836537199 
1184	 0.259404789014521 
1185	 0.259598195798078 
1186	 0.259808794591776 
1187	 0.260027004354875 
1188	 0.26024063504072 
1189	 0.260460125797317 
1190	 0.260662669452119 
1191	 0.260865389484727 
1192	 0.261052476719908 
1193	 0.261207539271322 
1194	 0.261386329739278 
1195	 0.261577678242011 
1196	 0.261754909954669 
1197	 0.261931704415898 
1198	 0.262111206046978 
1199	 0.262287592690596 
1200	 0.262448163456009 
1201	 0.26262638962323 
1202	 0.262826099157158 
1203	 0.262996136616562 
1204	 0.263155064880395 
1205	 0.263315968699193 
1206	 0.263460835703985 
1207	 0.263616526122526 
1208	 0.263790649368707 
1209	 0.263939972551139 
1210	 0.264078981401529 
1211	 0.26421429434168 
1212	 0.264320889959877 
1213	 0.264449920768062 
1214	 0.264596674960827 
1215	 0.264732469261761 
1216	 0.264868154258625 
1217	 0.265012934549647 
1218	 0.265145783751065 
1219	 0.26526619127628 
1220	 0.265392707038304 
1221	 0.265521494491856 
1222	 0.265647647347152 
1223	 0.265769227109099 
1224	 0.265895216930104 
1225	 0.266030421976566 
1226	 0.266150938576696 
1227	 0.266270775966289 
1228	 0.266381198404846 
1229	 0.266471358246141 
1230	 0.266570933060318 
1231	 0.266675966868162 
1232	 0.266772198563563 
1233	 0.266865653684771 
1234	 0.266958939223607 
1235	 0.267053096152618 
1236	 0.267135507720604 
1237	 0.267236188645864 
1238	 0.267351446211371 
1239	 0.26745575136031 
1240	 0.267571170925937 
1241	 0.26766621774631 
1242	 0.267753706975601 
1243	 0.267830578962315 
1244	 0.267881636840938 
1245	 0.267949879483834 
1246	 0.268008476345216 
1247	 0.268082811101963 
1248	 0.268171955801866 
1249	 0.268273526861234 
1250	 0.268350635268062 
1251	 0.26842858445268 
1252	 0.268516568703693 
1253	 0.268603056246947 
1254	 0.268683948798616 
1255	 0.268788205191316 
1256	 0.268853946556738 
1257	 0.2688867744533 
1258	 0.26893028008053 
1259	 0.268951690504212 
1260	 0.268997452256846 
1261	 0.269057399498381 
1262	 0.26911256854994 
1263	 0.269186361567037 
1264	 0.269243160113092 
1265	 0.269288309343227 
1266	 0.269331581964182 
1267	 0.269369279250055 
1268	 0.269392816731414 
1269	 0.269439907953956 
1270	 0.269484416753636 
1271	 0.269555866060233 
1272	 0.26965470382839 
1273	 0.26974353581006 
1274	 0.269853479203103 
1275	 0.269938320667767 
1276	 0.270002266273331 
1277	 0.270085369332364 
1278	 0.270162062785053 
1279	 0.270250626284324 
1280	 0.270348883843608 
1281	 0.27046052843899 
1282	 0.270597092857307 
1283	 0.270712026611705 
1284	 0.270837542101614 
1285	 0.270943023990709 
1286	 0.271036967455426 
1287	 0.271124943978933 
1288	 0.271214061175129 
1289	 0.271305895764976 
1290	 0.271397356890444 
1291	 0.271483782128554 
1292	 0.271570320388112 
1293	 0.271661672973516 
1294	 0.27174412641306 
1295	 0.271827825435289 
1296	 0.271890985390258 
1297	 0.271941595073565 
1298	 0.271993528879258 
1299	 0.27203666206995 
1300	 0.272066537966885 
1301	 0.272088950540282 
1302	 0.272110332115264 
1303	 0.272126507018193 
1304	 0.272125622237629 
1305	 0.272117751092629 
1306	 0.272092034204223 
1307	 0.272055751011919 
1308	 0.272037130573045 
1309	 0.271998857849476 
1310	 0.271968493124301 
1311	 0.271913011272739 
1312	 0.27182506549269 
1313	 0.271757110284932 
1314	 0.271692425004969 
1315	 0.27162915655349 
1316	 0.27156607533448 
1317	 0.271502545429549 
1318	 0.271445812927151 
1319	 0.271377670820343 
1320	 0.271304577777461 
1321	 0.27123395292212 
1322	 0.271166590811347 
1323	 0.271079413603224 
1324	 0.270992012303348 
1325	 0.270903698966081 
1326	 0.270805867188629 
1327	 0.270719290618621 
1328	 0.270638870228427 
1329	 0.270567865911977 
1330	 0.270483013509895 
1331	 0.270396253166202 
1332	 0.270298276132941 
1333	 0.270186759390614 
1334	 0.270083074619033 
1335	 0.269971860357227 
1336	 0.269875587489319 
1337	 0.269786536432568 
1338	 0.269701483779518 
1339	 0.269616935524095 
1340	 0.2695456022226 
1341	 0.26948856013941 
1342	 0.269424582879909 
1343	 0.269359947960101 
1344	 0.269314832310756 
1345	 0.269260711464483 
1346	 0.269201433467977 
1347	 0.269156359252482 
1348	 0.269105742820977 
1349	 0.269028564592093 
1350	 0.268967215122343 
1351	 0.26891083325846 
1352	 0.268860166951448 
1353	 0.268791667159522 
1354	 0.268725982331617 
1355	 0.268651866254974 
1356	 0.268555985940948 
1357	 0.268475437708856 
1358	 0.268404411880201 
1359	 0.268329778054598 
1360	 0.268250022989077 
1361	 0.268172779168934 
1362	 0.268107971358265 
1363	 0.268029980275995 
1364	 0.267936943660738 
1365	 0.267859633755416 
1366	 0.267790712823896 
1367	 0.267705044589538 
1368	 0.26764512955307 
1369	 0.267567381479533 
1370	 0.267450142877088 
1371	 0.26734060337752 
1372	 0.267198409558607 
1373	 0.267042460949089 
1374	 0.266874062442288 
1375	 0.266700425170329 
1376	 0.266485481275809 
1377	 0.266250007471914 
1378	 0.265989209577075 
1379	 0.265688259800574 
1380	 0.265386169644219 
1381	 0.265077410574497 
1382	 0.264732324168752 
1383	 0.264378738561115 
1384	 0.263988903387686 
1385	 0.263569658438905 
1386	 0.263117191152752 
1387	 0.26264693406134 
1388	 0.262125679619176 
1389	 0.261568778142471 
1390	 0.260963196056005 
1391	 0.260326112878738 
1392	 0.25964142782617 
1393	 0.258899652652703 
1394	 0.258149761195975 
1395	 0.257351715738413 
1396	 0.25654442773899 
1397	 0.25573997578059 
1398	 0.254924040234957 
1399	 0.254104020039805 
1400	 0.25327981376186 
1401	 0.252453545270099 
1402	 0.251614044945619 
1403	 0.250797303660043 
1404	 0.249959953396545 
1405	 0.249187782361565 
1406	 0.248456864067736 
1407	 0.247730570047002 
1408	 0.247030192947885 
1409	 0.246362213389953 
1410	 0.245679685744575 
1411	 0.245073054569802 
1412	 0.244519727403426 
1413	 0.244017243906196 
1414	 0.243565826642474 
1415	 0.243149218353383 
1416	 0.242765737156862 
1417	 0.242417371405243 
1418	 0.242064060392933 
1419	 0.241740164157002 
1420	 0.241449596067477 
1421	 0.241166275103602 
1422	 0.240917744671478 
1423	 0.240683091369621 
1424	 0.240438552901583 
1425	 0.240195698418997 
1426	 0.239955647557528 
1427	 0.239694578028588 
1428	 0.239483226922311 
1429	 0.239292173533334 
1430	 0.239117523349244 
1431	 0.238983700393469 
1432	 0.238841520949158 
1433	 0.23870273084749 
1434	 0.238573514567411 
1435	 0.238442704604764 
1436	 0.238340392707326 
1437	 0.238256176809062 
1438	 0.238179062483254 
1439	 0.238120816127208 
1440	 0.238079850528015 
1441	 0.238024508653148 
1442	 0.237968952129138 
1443	 0.237904328301486 
1444	 0.237840646272127 
1445	 0.237803691682132 
1446	 0.237769915182754 
1447	 0.237762774631673 
1448	 0.237760901138391 
1449	 0.237725864214299 
1450	 0.237703082349218 
1451	 0.237685201210183 
1452	 0.237649626698459 
1453	 0.237654011530816 
1454	 0.237691578662258 
1455	 0.23771501152379 
1456	 0.237753872295871 
1457	 0.237785704732723 
1458	 0.237804014032103 
1459	 0.237838020688824 
1460	 0.237871083985687 
1461	 0.237930589064877 
1462	 0.238005708250051 
1463	 0.238093727329828 
1464	 0.238211672450104 
1465	 0.238322038131803 
1466	 0.238437076490004 
1467	 0.238552913713635 
1468	 0.238649948392205 
1469	 0.23878107938107 
1470	 0.238927684201204 
1471	 0.239096217727301 
1472	 0.239273321961799 
1473	 0.239479630138993 
1474	 0.239674389149001 
1475	 0.239865743041418 
1476	 0.240063620978471 
1477	 0.24026823124992 
1478	 0.240481526499808 
1479	 0.240695872896992 
1480	 0.240921705905752 
1481	 0.241153885506741 
1482	 0.241395194568911 
1483	 0.241652481065571 
1484	 0.241889916393964 
1485	 0.242128497767014 
1486	 0.242365546326542 
1487	 0.242584320900917 
1488	 0.242820825865313 
1489	 0.243072355618185 
1490	 0.243316796847126 
1491	 0.243572058797161 
1492	 0.243803244598087 
1493	 0.244019739977433 
1494	 0.244239477195563 
1495	 0.244445160266806 
1496	 0.24465435046681 
1497	 0.244873589589787 
1498	 0.245082430696249 
1499	 0.245279008090324 
1500	 0.245477442677685 
1501	 0.245666596385174 
1502	 0.245867153329803 
1503	 0.246070759077116 
1504	 0.246277412837558 
1505	 0.246502477990155 
1506	 0.246727454125399 
1507	 0.246935040123957 
1508	 0.247152707155732 
1509	 0.247349869865315 
1510	 0.247528965418241 
1511	 0.247712142650917 
1512	 0.247877100359448 
1513	 0.248041889433681 
1514	 0.24821038012279 
1515	 0.248391575994881 
1516	 0.248596172532607 
1517	 0.248792331861739 
1518	 0.24900771778104 
1519	 0.249195073721369 
1520	 0.249367658223949 
1521	 0.249539909171436 
1522	 0.249701399758079 
1523	 0.249866995058749 
1524	 0.250032042386647 
1525	 0.250193116293164 
1526	 0.250350857600659 
1527	 0.250507397925168 
1528	 0.250666174076634 
1529	 0.250811765412767 
1530	 0.250950881426705 
1531	 0.251085222381467 
1532	 0.251206902726229 
1533	 0.251332827406817 
1534	 0.25145636100355 
1535	 0.251583089590059 
1536	 0.251714839680041 
1537	 0.251836592047532 
1538	 0.251952475433953 
1539	 0.252071016481259 
1540	 0.25217685454782 
1541	 0.252294687834833 
1542	 0.25243086124335 
1543	 0.25255244978145 
1544	 0.252674211356577 
1545	 0.25279146121548 
1546	 0.252905055714927 
1547	 0.25300255779714 
1548	 0.253101044682544 
1549	 0.253196569939254 
1550	 0.253275181975693 
1551	 0.253362774837358 
1552	 0.25345105557286 
1553	 0.253540640952205 
1554	 0.253639012089398 
1555	 0.253723154733295 
1556	 0.253810257954719 
1557	 0.253894712077743 
1558	 0.253992863106338 
1559	 0.254113981943168 
1560	 0.254216847431747 
1561	 0.254333322755229 
1562	 0.254416592130588 
1563	 0.254463683354791 
1564	 0.254548952281815 
1565	 0.254649245904242 
1566	 0.254725690393124 
1567	 0.254815004659623 
1568	 0.254877990615637 
1569	 0.254888076010227 
1570	 0.254949237061067 
1571	 0.255038146244846 
1572	 0.255110418732486 
1573	 0.255204034913137 
1574	 0.255271491300004 
1575	 0.255308314830202 
1576	 0.255363395259298 
1577	 0.255420209906318 
1578	 0.255474368945062 
1579	 0.255524133793711 
1580	 0.255593474454111 
1581	 0.25566631456283 
1582	 0.255746053493985 
1583	 0.255862572700932 
1584	 0.255941113178997 
1585	 0.256004639870635 
1586	 0.256062309509783 
1587	 0.256098447324389 
1588	 0.256134895803481 
1589	 0.256167875856136 
1590	 0.25619709941119 
1591	 0.256218778203283 
1592	 0.256239132342704 
1593	 0.256242667785713 
1594	 0.25627157029643 
1595	 0.256306384240737 
1596	 0.256350944953632 
1597	 0.256435186553279 
1598	 0.256490270174925 
1599	 0.256541577593677 
1600	 0.256579859853302 
1601	 0.256580299376547 
1602	 0.25660488333004 
1603	 0.256635284042005 
1604	 0.256664853730343 
1605	 0.256717633552208 
1606	 0.256754257447108 
1607	 0.256775822424876 
1608	 0.256797397284128 
1609	 0.256827712096357 
1610	 0.256864265879216 
1611	 0.256891313365594 
1612	 0.256921966214558 
1613	 0.256942594518505 
1614	 0.256944516494029 
1615	 0.256967841387802 
1616	 0.256996386290515 
1617	 0.257018742248282 
1618	 0.25706358473752 
1619	 0.257116256787859 
1620	 0.257150267051144 
1621	 0.257167544563307 
1622	 0.257177427492276 
1623	 0.257176828267863 
1624	 0.257151537565568 
1625	 0.25713827680909 
1626	 0.257123575700355 
1627	 0.257114369531877 
1628	 0.257095957033489 
1629	 0.257105236673885 
1630	 0.257128727604848 
1631	 0.257164327104318 
1632	 0.25722602323382 
1633	 0.257263332276705 
1634	 0.257307821969436 
1635	 0.257327512835715 
1636	 0.257330863025315 
1637	 0.257326816191446 
1638	 0.257295716861488 
1639	 0.257301431036799 
1640	 0.257306892714503 
1641	 0.257330424670142 
1642	 0.25739175506089 
1643	 0.257422020114579 
1644	 0.257442236499445 
1645	 0.257470552198257 
1646	 0.257506044828585 
1647	 0.257510537336733 
1648	 0.257506184860686 
1649	 0.257497219020162 
1650	 0.257447752365912 
1651	 0.257442011032429 
1652	 0.257469744435593 
1653	 0.257465217073185 
1654	 0.257464593742665 
1655	 0.257449717136989 
1656	 0.257408898096957 
1657	 0.257380636766532 
1658	 0.25735293465845 
1659	 0.257328892979017 
1660	 0.257309078777678 
1661	 0.257280267713334 
1662	 0.257242661777292 
1663	 0.257224322775138 
1664	 0.257206798106335 
1665	 0.257195461027551 
1666	 0.257210781695062 
1667	 0.257202216291619 
1668	 0.257173779454078 
1669	 0.257164327720429 
1670	 0.257164385322506 
1671	 0.257149599291755 
1672	 0.25713167417375 
1673	 0.257122003204627 
1674	 0.257105569276541 
1675	 0.257091643476432 
1676	 0.257086919660888 
1677	 0.25708472380859 
1678	 0.257084328625097 
1679	 0.257071170737373 
1680	 0.257058664601945 
1681	 0.257048345109199 
1682	 0.25701757550264 
1683	 0.257008937014788 
1684	 0.257026388812207 
1685	 0.257024678174887 
1686	 0.257033785330863 
1687	 0.257007527651586 
1688	 0.256952141254105 
1689	 0.256909696372485 
1690	 0.256841287779037 
1691	 0.256797678562512 
1692	 0.256777402450214 
1693	 0.256745986191975 
1694	 0.256710318196205 
1695	 0.256685983951375 
1696	 0.256659506315686 
1697	 0.256647946022118 
1698	 0.256660031469627 
1699	 0.256653691685177 
1700	 0.2566561185993 
1701	 0.256635754022227 
1702	 0.256599370848726 
1703	 0.256556183992575 
1704	 0.256500441407316 
1705	 0.256438004481824 
1706	 0.256350952455666 
1707	 0.256290226680262 
1708	 0.25624069886859 
1709	 0.25618351096976 
1710	 0.256140015860461 
1711	 0.256085396950609 
1712	 0.256013336669787 
1713	 0.255948722653729 
1714	 0.255895423127407 
1715	 0.255827991214089 
1716	 0.255747249111583 
1717	 0.255676214957316 
1718	 0.255588125832899 
1719	 0.255536669390926 
1720	 0.25551439246928 
1721	 0.255477978654598 
1722	 0.255471239335241 
1723	 0.255426718352926 
1724	 0.255352562808409 
1725	 0.255288680611945 
1726	 0.255217690841126 
1727	 0.255136013291452 
1728	 0.255044688156458 
1729	 0.254969426660032 
1730	 0.254892220043546 
1731	 0.25481474350102 
1732	 0.254753746232449 
1733	 0.254672239013812 
1734	 0.25457773429358 
1735	 0.254476824558222 
1736	 0.254365774982705 
1737	 0.254267706072169 
1738	 0.254158126599553 
1739	 0.254067648923742 
1740	 0.253993666619985 
1741	 0.253916930266736 
1742	 0.253856637073914 
1743	 0.253766462409171 
1744	 0.253664678387298 
1745	 0.253568456015996 
1746	 0.253459738796287 
1747	 0.253328005808217 
1748	 0.253222809262354 
1749	 0.253115176817107 
1750	 0.253018728340052 
1751	 0.252946323454071 
1752	 0.25282843615176 
1753	 0.252694442596885 
1754	 0.252551842272091 
1755	 0.252414458251222 
1756	 0.252307303638171 
1757	 0.252184760889238 
1758	 0.25205047747481 
1759	 0.251909685404007 
1760	 0.251783460448894 
1761	 0.251700373896737 
1762	 0.251623663898456 
1763	 0.251545463621687 
1764	 0.251454873241032 
1765	 0.251340227764119 
1766	 0.251226064391294 
1767	 0.2511117636158 
1768	 0.251010933132979 
1769	 0.250905769650945 
1770	 0.250805124361262 
1771	 0.250751534535081 
1772	 0.250706605663056 
1773	 0.250666968052649 
1774	 0.250634741438761 
1775	 0.250570324173375 
1776	 0.250484421594145 
1777	 0.250399345548762 
1778	 0.250305398192833 
1779	 0.250199508272853 
1780	 0.250099730867681 
1781	 0.249998009672497 
1782	 0.24991441927719 
1783	 0.249876234777952 
1784	 0.249835497399259 
1785	 0.249844073075364 
1786	 0.249821417668664 
1787	 0.249764161837995 
1788	 0.249730687935416 
1789	 0.249690525933243 
1790	 0.249664555275078 
1791	 0.249679792281566 
1792	 0.249664730750229 
1793	 0.249636052402882 
1794	 0.249620239139226 
1795	 0.249578730920512 
1796	 0.249555700921129 
1797	 0.249571389429668 
1798	 0.249555687055722 
1799	 0.249532989725178 
1800	 0.249503363300698 
1801	 0.248781405600608 
1802	 0.248946980484726 
1803	 0.249153233268113 
1804	 0.249374181170369 
1805	 0.249582878273937 
1806	 0.249792598250022 
1807	 0.250000409074043 
1808	 0.250167977705904 
1809	 0.250323530022291 
1810	 0.250455493601258 
1811	 0.250555319278095 
1812	 0.250638530091083 
1813	 0.250727444156434 
1814	 0.250772552242312 
1815	 0.250767720311047 
1816	 0.250739417250773 
1817	 0.250730849218449 
1818	 0.250692531026559 
1819	 0.250695903612558 
1820	 0.250722029912177 
1821	 0.250757926564528 
1822	 0.250806878733615 
1823	 0.250833618887356 
1824	 0.250868208077024 
1825	 0.2509028859387 
1826	 0.250920579433647 
1827	 0.250932479344217 
1828	 0.250907696460264 
1829	 0.250853205405167 
1830	 0.250790903554025 
1831	 0.250694733303048 
1832	 0.250593477745618 
1833	 0.250522896884196 
1834	 0.25047719194222 
1835	 0.250470211203533 
1836	 0.250456225155098 
1837	 0.250445511837861 
1838	 0.250441744482944 
1839	 0.250411554853738 
1840	 0.250360455596079 
1841	 0.250322774995953 
1842	 0.250264779236124 
1843	 0.250183195862156 
1844	 0.250083364715432 
1845	 0.249937110769305 
1846	 0.249801031744711 
1847	 0.24968585887221 
1848	 0.249578200432865 
1849	 0.249479259243771 
1850	 0.249361003758898 
1851	 0.24924507771294 
1852	 0.249080696363417 
1853	 0.248890880756783 
1854	 0.24870178916231 
1855	 0.24849528407826 
1856	 0.248261548756451 
1857	 0.248000600563285 
1858	 0.247722735394023 
1859	 0.247417308239754 
1860	 0.247070003634095 
1861	 0.246688451739577 
1862	 0.246283834119205 
1863	 0.245836437218462 
1864	 0.245325256031497 
1865	 0.244791269635701 
1866	 0.244215263887833 
1867	 0.243579647484016 
1868	 0.242920270643498 
1869	 0.242204499223052 
1870	 0.241406912256299 
1871	 0.240559355544445 
1872	 0.239658659080414 
1873	 0.238711661827719 
1874	 0.237694338203358 
1875	 0.236636569823218 
1876	 0.235537784609437 
1877	 0.234344864530651 
1878	 0.233072379798664 
1879	 0.231733600042381 
1880	 0.230283942445999 
1881	 0.228723725223042 
1882	 0.227093413118466 
1883	 0.225380394775328 
1884	 0.223540037917382 
1885	 0.221652088255632 
1886	 0.21968890344112 
1887	 0.217626093172635 
1888	 0.215505638838477 
1889	 0.213299405801565 
1890	 0.211033590741276 
1891	 0.20879303740788 
1892	 0.206499900670777 
1893	 0.204239641734842 
1894	 0.201981362981921 
1895	 0.199770170916474 
1896	 0.197517716938162 
1897	 0.195316630620394 
1898	 0.193145349651314 
1899	 0.191000303788216 
1900	 0.188957331796865 
1901	 0.186991131782417 
1902	 0.185124567409684 
1903	 0.183372149166084 
1904	 0.181694380150773 
1905	 0.180100790355422 
1906	 0.178590923266847 
1907	 0.177185120899 
1908	 0.175859213198328 
1909	 0.17460983828948 
1910	 0.17346414540879 
1911	 0.172392091194419 
1912	 0.17138299565941 
1913	 0.170440287641167 
1914	 0.169570968639504 
1915	 0.168763309974417 
1916	 0.168017981471263 
1917	 0.167338461472413 
1918	 0.166734767458932 
1919	 0.16615547772895 
1920	 0.165632086765437 
1921	 0.165170527167006 
1922	 0.164748132939544 
1923	 0.16436324805589 
1924	 0.164023504465185 
1925	 0.163732312277707 
1926	 0.16347371627242 
1927	 0.163240141170356 
1928	 0.16307779446559 
1929	 0.162952532358127 
1930	 0.162859448691472 
1931	 0.162843700066783 
1932	 0.162844205916375 
1933	 0.162860331982097 
1934	 0.162910704332284 
1935	 0.162980124854864 
1936	 0.163058475156747 
1937	 0.163175152000282 
1938	 0.163328714418565 
1939	 0.163499877682638 
1940	 0.163693353719544 
1941	 0.16390695969952 
1942	 0.16415446923234 
1943	 0.164424868739644 
1944	 0.16471035057529 
1945	 0.165002507237078 
1946	 0.165324731430943 
1947	 0.165673945360013 
1948	 0.166025063011527 
1949	 0.166413584498467 
1950	 0.166784887179089 
1951	 0.167144108622868 
1952	 0.167511200583727 
1953	 0.167901138405963 
1954	 0.16831898523065 
1955	 0.168754818018799 
1956	 0.169192761166945 
1957	 0.16965308162331 
1958	 0.170127321193437 
1959	 0.170603683676228 
1960	 0.17111578169954 
1961	 0.171605434454349 
1962	 0.172070697883247 
1963	 0.172563590509658 
1964	 0.173060614727587 
1965	 0.173561553248001 
1966	 0.174100190231327 
1967	 0.174673199785549 
1968	 0.175222097622897 
1969	 0.175780894849261 
1970	 0.17633021220642 
1971	 0.176863696995167 
1972	 0.177406798350639 
1973	 0.177954298703206 
1974	 0.178506628791678 
1975	 0.179064417059483 
1976	 0.179623849513837 
1977	 0.180170573299465 
1978	 0.180707898843457 
1979	 0.181259404605269 
1980	 0.181792579466535 
1981	 0.182327750063099 
1982	 0.182860274112456 
1983	 0.183414088601575 
1984	 0.183955620785936 
1985	 0.184522897326775 
1986	 0.18514928646313 
1987	 0.185729000452397 
1988	 0.186291688714805 
1989	 0.186859765217014 
1990	 0.187412268448708 
1991	 0.187934671699891 
1992	 0.188475912954336 
1993	 0.189016993303579 
1994	 0.189568197290689 
1995	 0.190133532685282 
1996	 0.190678356614806 
1997	 0.191222084178846 
1998	 0.191763582617636 
1999	 0.192286875091916 
2000	 0.192818939886656 
2001	 0.193359528683549 
2002	 0.193893703366612 
2003	 0.194438919209699 
2004	 0.194987008553512 
2005	 0.19550796482826 
2006	 0.196020598208153 
2007	 0.196529892133846 
2008	 0.197002224497049 
2009	 0.197503847949665 
2010	 0.198036115279295 
2011	 0.198544069125381 
2012	 0.199057513440246 
2013	 0.199547614772653 
2014	 0.200022023522335 
2015	 0.200471563953659 
2016	 0.200915946772259 
2017	 0.201385547945001 
2018	 0.201856597102741 
2019	 0.202341232693089 
2020	 0.202820379936641 
2021	 0.203311723754829 
2022	 0.203784642525672 
2023	 0.204243155766184 
2024	 0.204711090020627 
2025	 0.205183279010699 
2026	 0.205640625371765 
2027	 0.206100157515291 
2028	 0.206555415276819 
2029	 0.206988085334958 
2030	 0.207395399160844 
2031	 0.207809870963387 
2032	 0.208208972622772 
2033	 0.20862152787432 
2034	 0.209048034318097 
2035	 0.209449040673658 
2036	 0.209847133824806 
2037	 0.210236774882385 
2038	 0.210609286823517 
2039	 0.210971247280746 
2040	 0.21133406799521 
2041	 0.211674066203405 
2042	 0.211986927520419 
2043	 0.212333246028051 
2044	 0.212688793260535 
2045	 0.213062374586996 
2046	 0.213426813355538 
2047	 0.213808505654097 
2048	 0.214173012855139 
2049	 0.214538086490377 
2050	 0.214881190063427 
2051	 0.215216178519933 
2052	 0.215537530843003 
2053	 0.215811796243833 
2054	 0.216118288046248 
2055	 0.216438279609778 
2056	 0.216756094268834 
2057	 0.217070839867296 
2058	 0.217398675191967 
2059	 0.21771707124274 
2060	 0.218026744310471 
2061	 0.218332729632261 
2062	 0.218644957082689 
2063	 0.218945514255745 
2064	 0.219227760453249 
2065	 0.219516097126048 
2066	 0.219808114021942 
2067	 0.22009330627893 
2068	 0.220369986504219 
2069	 0.22064938678041 
2070	 0.220934160198392 
2071	 0.22121707208838 
2072	 0.221506024311372 
2073	 0.221811943066838 
2074	 0.222092772523109 
2075	 0.222364582821975 
2076	 0.222634020973335 
2077	 0.22288978718247 
2078	 0.223148218767811 
2079	 0.22339284078321 
2080	 0.223660731687616 
2081	 0.223941124003618 
2082	 0.224216165368392 
2083	 0.224514908100369 
2084	 0.224798058706685 
2085	 0.22506998561574 
2086	 0.225312471227028 
2087	 0.225600354938081 
2088	 0.225906584558668 
2089	 0.226198158997248 
2090	 0.226529488261172 
2091	 0.226801492216598 
2092	 0.227025650631784 
2093	 0.227266579313714 
2094	 0.227483794509054 
2095	 0.227713009871771 
2096	 0.227946253621657 
2097	 0.228185862302123 
2098	 0.228432820083008 
2099	 0.228678629756894 
2100	 0.228912031810426 
2101	 0.229135402521234 
2102	 0.229389398606543 
2103	 0.22964433076831 
2104	 0.229902820185977 
2105	 0.230200006118655 
2106	 0.230461564562476 
2107	 0.230687881284665 
2108	 0.230942545144258 
2109	 0.231201710851345 
2110	 0.231466615801385 
2111	 0.231750245508203 
2112	 0.232023161959089 
2113	 0.23229630237812 
2114	 0.23256684138363 
2115	 0.232828542680515 
2116	 0.233081235592561 
2117	 0.233340307565735 
2118	 0.233606186236825 
2119	 0.233845503237512 
2120	 0.234077457935488 
2121	 0.234302534946964 
2122	 0.234493179114757 
2123	 0.23471039062387 
2124	 0.234961547700075 
2125	 0.235167868714079 
2126	 0.23537117159836 
2127	 0.235547857536023 
2128	 0.23567798141556 
2129	 0.235812683144255 
2130	 0.235922900258001 
2131	 0.236049091916498 
2132	 0.236179899161634 
2133	 0.23631872707354 
2134	 0.236438203854033 
2135	 0.236570423639524 
2136	 0.23666826594369 
2137	 0.236743872468691 
2138	 0.23680232656077 
2139	 0.236835967877662 
2140	 0.236871229602564 
2141	 0.236884080666262 
2142	 0.236901131471386 
2143	 0.236933101729492 
2144	 0.236936307430531 
2145	 0.236924892568643 
2146	 0.236901029690181 
2147	 0.236847868241652 
2148	 0.236786645044948 
2149	 0.236755227912122 
2150	 0.23672540399408 
2151	 0.236707364073881 
2152	 0.236736256831895 
2153	 0.236703283321348 
2154	 0.236648080837595 
2155	 0.236585861305561 
2156	 0.236499550725801 
2157	 0.236401234450579 
2158	 0.23630326590178 
2159	 0.236177036201539 
2160	 0.236010618776013 
2161	 0.235852052294856 
2162	 0.23568222921252 
2163	 0.235508387459437 
2164	 0.235329776204883 
2165	 0.23514943992826 
2166	 0.234962777401868 
2167	 0.234757298380638 
2168	 0.234580508960358 
2169	 0.234415675507387 
2170	 0.234243463120904 
2171	 0.234087611407444 
2172	 0.233915695056766 
2173	 0.233739171273529 
2174	 0.233546698473519 
2175	 0.233337285920967 
2176	 0.233138619055195 
2177	 0.232922650304604 
2178	 0.232720293862781 
2179	 0.232540242669542 
2180	 0.2323463599476 
2181	 0.232144461811227 
2182	 0.231948276637681 
2183	 0.231740086424177 
2184	 0.231549519506782 
2185	 0.231363178145741 
2186	 0.231190266359955 
2187	 0.231002413838055 
2188	 0.23081791799267 
2189	 0.230624984028383 
2190	 0.230415133447861 
2191	 0.230220489371301 
2192	 0.230028550088513 
2193	 0.229840271978461 
2194	 0.22963926757083 
2195	 0.229474755843653 
2196	 0.229316449419054 
2197	 0.22919228930775 
2198	 0.229113622264238 
2199	 0.229037795302044 
2200	 0.228987531874688 
2201	 0.228939405205048 
2202	 0.228899277907662 
2203	 0.228867123150032 
2204	 0.228842345017384 
2205	 0.228821901174433 
2206	 0.228813329110483 
2207	 0.228813265781081 
2208	 0.228825823552153 
2209	 0.228849798973451 
2210	 0.228885026009805 
2211	 0.228941579688651 
2212	 0.228985727383952 
2213	 0.2290404811355 
2214	 0.229084858616824 
2215	 0.229119155556145 
2216	 0.229155827045388 
2217	 0.229175300979744 
2218	 0.229220340241365 
2219	 0.229286856950995 
2220	 0.229342227113532 
2221	 0.229413952466604 
2222	 0.229479136073604 
2223	 0.229504377186657 
2224	 0.229540822638463 
2225	 0.229574512474009 
2226	 0.229601954348496 
2227	 0.229627759960172 
2228	 0.229668344974994 
2229	 0.229667928021206 
2230	 0.229638880409396 
2231	 0.229624820391102 
2232	 0.229578499827184 
2233	 0.229572843592513 
2234	 0.229602388780401 
2235	 0.229608369866186 
2236	 0.229626349087501 
2237	 0.229626461941374 
2238	 0.229604377294363 
2239	 0.229591440951172 
2240	 0.229590662655949 
2241	 0.229567115096938 
2242	 0.229528197099398 
2243	 0.229487361755582 
2244	 0.22944276292879 
2245	 0.229373684796691 
2246	 0.229281126684864 
2247	 0.229223552885213 
2248	 0.229157168148874 
2249	 0.229076804749493 
2250	 0.229014636041038 
2251	 0.228972302808426 
2252	 0.228917418703878 
2253	 0.228861090332485 
2254	 0.228800552128961 
2255	 0.228741002639395 
2256	 0.228674322555259 
2257	 0.228584576804765 
2258	 0.228532646000347 
2259	 0.228508593060398 
2260	 0.22846110617775 
2261	 0.228421852461515 
2262	 0.228377446677234 
2263	 0.228319978622181 
2264	 0.228254904018255 
2265	 0.228178419562895 
2266	 0.22812769891709 
2267	 0.2280421226331 
2268	 0.228012298318657 
2269	 0.228039136101863 
2270	 0.228093488823863 
2271	 0.2280995129327 
2272	 0.228121031155506 
2273	 0.228074915501397 
2274	 0.227970723016716 
2275	 0.227914947902702 
2276	 0.227860198555724 
2277	 0.227802402805376 
2278	 0.227755652954176 
2279	 0.227706797794057 
2280	 0.227651442334137 
2281	 0.227593704650892 
2282	 0.227534134524339 
2283	 0.227496075031788 
2284	 0.227466886291126 
2285	 0.227422111901883 
2286	 0.227407944270116 
2287	 0.227355595204434 
2288	 0.227240692531946 
2289	 0.227177512572128 
2290	 0.227134334164446 
2291	 0.227076702964263 
2292	 0.227036990072926 
2293	 0.226992444718685 
2294	 0.226935742397909 
2295	 0.226877283920905 
2296	 0.226832370285653 
2297	 0.226781446126295 
2298	 0.22668203571403 
2299	 0.226563761787104 
2300	 0.226425727947397 
2301	 0.226290252283145 
2302	 0.226148465766107 
2303	 0.226054169982535 
2304	 0.225990108048453 
2305	 0.225891959005564 
2306	 0.225762299121098 
2307	 0.225600427779889 
2308	 0.225471721235669 
2309	 0.225316003221855 
2310	 0.225193828643428 
2311	 0.225126087146202 
2312	 0.225013617140468 
2313	 0.224877707897565 
2314	 0.224746643191145 
2315	 0.224627167449525 
2316	 0.224473236444862 
2317	 0.224284334247391 
2318	 0.224124630846321 
2319	 0.223938164327979 
2320	 0.223789734893636 
2321	 0.223704334880098 
2322	 0.223567690013985 
2323	 0.223427977337846 
2324	 0.223267450780439 
2325	 0.223049248802457 
2326	 0.222872520286222 
2327	 0.222684259551539 
2328	 0.222541299556191 
2329	 0.222458300307399 
2330	 0.222371098655975 
2331	 0.222278379391237 
2332	 0.222163077483592 
2333	 0.222020969780841 
2334	 0.221910268894891 
2335	 0.22185021067779 
2336	 0.221808245608464 
2337	 0.22173242576047 
2338	 0.221614099395516 
2339	 0.221409566310442 
2340	 0.221148869577199 
2341	 0.220936805875997 
2342	 0.220743051104277 
2343	 0.220594403958326 
2344	 0.22047238186079 
2345	 0.220283221901071 
2346	 0.220055617891433 
2347	 0.2198183501495 
2348	 0.219517079735303 
2349	 0.219290571735234 
2350	 0.21911436923392 
2351	 0.218876608506189 
2352	 0.218632562852958 
2353	 0.218391903159426 
2354	 0.218094511750784 
2355	 0.217866922555188 
2356	 0.217719211584747 
2357	 0.217489120951091 
2358	 0.217227639701972 
2359	 0.216973013147194 
2360	 0.216683778545918 
2361	 0.216432589782224 
2362	 0.216198416141529 
2363	 0.215988791308328 
2364	 0.215777553540132 
2365	 0.215575102207909 
2366	 0.21545575497209 
2367	 0.215259590213187 
2368	 0.215032355379857 
2369	 0.214803797266767 
2370	 0.214561691461576 
2371	 0.214246173861869 
2372	 0.213921600853507 
2373	 0.213578316019906 
2374	 0.213283255935916 
2375	 0.212997354226125 
2376	 0.212759683523166 
2377	 0.212534199281933 
2378	 0.212255986721529 
2379	 0.211975386887641 
2380	 0.211680798441615 
2381	 0.211382982542021 
2382	 0.211083129346285 
2383	 0.210716441963863 
2384	 0.210317470635506 
2385	 0.209994054044281 
2386	 0.20956406506167 
2387	 0.209156958720065 
2388	 0.208911540406771 
2389	 0.208575213519797 
2390	 0.208271004429703 
2391	 0.208049908598986 
2392	 0.207721187518696 
2393	 0.207323624770971 
2394	 0.206968036597288 
2395	 0.206662810265429 
2396	 0.206377012450515 
2397	 0.206101360395692 
2398	 0.205844188584595 
2399	 0.205565704804013 
2400	 0.205240432199683 
2401	 0.204850550969508 
2402	 0.204413017644926 
2403	 0.203991880613656 
2404	 0.203578165119372 
2405	 0.203216238908235 
2406	 0.202859345197682 
2407	 0.202460019099837 
2408	 0.202052393362851 
2409	 0.201567188134188 
2410	 0.201151012704253 
2411	 0.200867154477563 
2412	 0.200503416452939 
2413	 0.200174795611937 
2414	 0.199847371881436 
2415	 0.199369336266243 
2416	 0.198964715977805 
2417	 0.198528069424572 
2418	 0.198165594678344 
2419	 0.197935223934852 
2420	 0.19760116385947 
2421	 0.197277917999782 
2422	 0.19692230497863 
2423	 0.196434380217331 
2424	 0.196001032393696 
2425	 0.195635072621557 
2426	 0.195153812211699 
2427	 0.194606304806404 
2428	 0.194115177709622 
2429	 0.193583104249905 
2430	 0.193075755369188 
2431	 0.192595718763734 
2432	 0.192150110836054 
2433	 0.191718981591833 
2434	 0.191297188688275 
2435	 0.190919627402398 
2436	 0.190539005243434 
2437	 0.190138377539724 
2438	 0.189747591015491 
2439	 0.189422508182784 
2440	 0.18901597098167 
2441	 0.188587895349252 
2442	 0.188198883027553 
2443	 0.187732534925312 
2444	 0.187350507465828 
2445	 0.187025149573642 
2446	 0.186594302182589 
2447	 0.18619637421885 
2448	 0.185751972891634 
2449	 0.185177422796123 
2450	 0.184757112146873 
2451	 0.184381827726617 
2452	 0.184085006301859 
2453	 0.183970406578992 
2454	 0.183739393474956 
2455	 0.183522230699943 
2456	 0.183152931065942 
2457	 0.182545883559554 
2458	 0.182129482902004 
2459	 0.181805573388304 
2460	 0.181453286978383 
2461	 0.18120085497886 
2462	 0.180865292162007 
2463	 0.180421161452425 
2464	 0.179998342501056 
2465	 0.179602256512127 
2466	 0.179184757018744 
2467	 0.178701116406018 
2468	 0.178248770175414 
2469	 0.177782833743348 
2470	 0.177452179824178 
2471	 0.177096344888335 
2472	 0.176606243333805 
2473	 0.176272746404536 
2474	 0.17597771717405 
2475	 0.175647614614303 
2476	 0.175496723426078 
2477	 0.175345772670931 
2478	 0.174967978387705 
2479	 0.174589264734998 
2480	 0.17430165353724 
2481	 0.173828294817229 
2482	 0.173426336486625 
2483	 0.173103156199243 
2484	 0.172649314612363 
2485	 0.172225099581421 
2486	 0.171924400423689 
2487	 0.171845845978418 
2488	 0.17172382069797 
2489	 0.171553732354924 
2490	 0.171207756116465 
2491	 0.170700458744935 
2492	 0.170333969254212 
2493	 0.170008133705981 
2494	 0.169922988369501 
2495	 0.169770816085869 
2496	 0.169434284138594 
2497	 0.169155900464331 
2498	 0.168868360701261 
2499	 0.16856759793255 
2500	 0.168298055428906 
