Wavelength	mm1900003.asd
350	 3.82047203262472E-02 
351	 4.98783271489987E-02 
352	 4.49448865898392E-02 
353	 2.76033611867015E-02 
354	 3.24042347960517E-02 
355	 3.95078656602724E-02 
356	 4.28143928615059E-02 
357	 0.04179470598804 
358	 0.041166249422021 
359	 3.79216822012254E-02 
360	 3.68221385677553E-02 
361	 4.50270253092679E-02 
362	 3.80356388669587E-02 
363	 3.28753512846068E-02 
364	 3.72140287545537E-02 
365	 3.65709591871285E-02 
366	 3.59967604953346E-02 
367	 3.68549593906793E-02 
368	 3.91069835576528E-02 
369	 4.13404501689253E-02 
370	 3.99732592402368E-02 
371	 3.73666293336754E-02 
372	 3.92347869213882E-02 
373	 4.03807115699551E-02 
374	 4.02469121082849E-02 
375	 3.93140882061158E-02 
376	 3.86168949394374E-02 
377	 3.87765071863303E-02 
378	 4.02057740236069E-02 
379	 0.042738920297069 
380	 4.49995670460269E-02 
381	 4.45761703795313E-02 
382	 4.29631702012266E-02 
383	 4.41185351603456E-02 
384	 4.45607208154156E-02 
385	 4.21814379259257E-02 
386	 0.038720520998759 
387	 4.30361177504739E-02 
388	 4.49529927603387E-02 
389	 4.47365658963038E-02 
390	 0.04530278316773 
391	 4.49014293953532E-02 
392	 0.045440804370133 
393	 4.65369422270844E-02 
394	 4.59073782894495E-02 
395	 4.42363115083378E-02 
396	 0.043760680230584 
397	 0.045514215000079 
398	 4.79503096396618E-02 
399	 4.78159477536467E-02 
400	 4.74260689955503E-02 
401	 0.049773854857387 
402	 4.87979701988731E-02 
403	 0.047406023285053 
404	 4.71506076339528E-02 
405	 4.75965465905944E-02 
406	 4.83620421913682E-02 
407	 4.95868563189659E-02 
408	 5.06365359417526E-02 
409	 4.82683450912515E-02 
410	 4.71408636303524E-02 
411	 4.76437008141081E-02 
412	 4.81827449528052E-02 
413	 4.92304179405506E-02 
414	 4.94449500439124E-02 
415	 4.88410237460105E-02 
416	 4.92610988818313E-02 
417	 4.99688404471656E-02 
418	 5.01136218482822E-02 
419	 4.94299009713922E-02 
420	 4.97181753603188E-02 
421	 4.94720822249925E-02 
422	 4.90255823992351E-02 
423	 4.97164651436901E-02 
424	 4.98476462999775E-02 
425	 0.049626489699856 
426	 4.94336153005625E-02 
427	 4.95193879965192E-02 
428	 4.93071754147508E-02 
429	 4.90876769550268E-02 
430	 4.92220897850739E-02 
431	 0.048908675263162 
432	 4.87764120809451E-02 
433	 4.89493694409546E-02 
434	 4.90172046819065E-02 
435	 4.90651412993679E-02 
436	 4.90700161467113E-02 
437	 4.89750820779484E-02 
438	 4.86099674959715E-02 
439	 4.85757842399385E-02 
440	 4.87170758329553E-02 
441	 4.85794119512425E-02 
442	 4.86745890448801E-02 
443	 0.048919737551815 
444	 4.90868573584839E-02 
445	 4.87992557588108E-02 
446	 4.88933097584098E-02 
447	 4.91781598416278E-02 
448	 4.92639423124059E-02 
449	 4.93013551652958E-02 
450	 4.93716516534089E-02 
451	 4.95158765964903E-02 
452	 4.97264023827517E-02 
453	 4.97848605842678E-02 
454	 4.95635215240164E-02 
455	 4.92148524619048E-02 
456	 4.95547876740668E-02 
457	 4.96663711730485E-02 
458	 4.95665967021415E-02 
459	 4.96271655824547E-02 
460	 4.94113262241726E-02 
461	 4.92659831100185E-02 
462	 4.93154920581546E-02 
463	 4.92835429034928E-02 
464	 4.92286801298145E-02 
465	 4.93800344455689E-02 
466	 4.98114106850598E-02 
467	 4.98321690262333E-02 
468	 4.95942053561933E-02 
469	 4.93127419953899E-02 
470	 4.92210926273147E-02 
471	 4.92516640563595E-02 
472	 4.93317025737135E-02 
473	 4.93971025619509E-02 
474	 4.94226925643679E-02 
475	 4.93300599480811E-02 
476	 4.92208624304248E-02 
477	 4.92578103857833E-02 
478	 4.94195561616273E-02 
479	 4.93880941968245E-02 
480	 4.92006213664042E-02 
481	 4.94089124564762E-02 
482	 4.96604165142223E-02 
483	 4.97072139316584E-02 
484	 4.95035111856131E-02 
485	 4.97095527661068E-02 
486	 4.96726620344054E-02 
487	 0.049372235931165 
488	 4.93175257708264E-02 
489	 4.92800558803201E-02 
490	 4.93967832959337E-02 
491	 4.96619917648001E-02 
492	 4.95984104895859E-02 
493	 4.93594454273217E-02 
494	 4.91856024662075E-02 
495	 4.92937645334488E-02 
496	 4.93076150901576E-02 
497	 4.92370582179998E-02 
498	 4.91878473463493E-02 
499	 4.93531064156771E-02 
500	 4.94373953359317E-02 
501	 4.93918131217702E-02 
502	 4.92796484631867E-02 
503	 4.92746442888037E-02 
504	 4.93328273297766E-02 
505	 4.93937495847389E-02 
506	 4.93946081984467E-02 
507	 4.93418570180303E-02 
508	 4.94299074856686E-02 
509	 4.96765861608025E-02 
510	 0.049529599783625 
511	 4.94065917940223E-02 
512	 4.94012107759424E-02 
513	 4.94307101452951E-02 
514	 4.94925276281347E-02 
515	 4.95182293653046E-02 
516	 4.95045596223336E-02 
517	 4.95723343738999E-02 
518	 4.95695220143027E-02 
519	 4.95154999383239E-02 
520	 4.94984170407635E-02 
521	 4.96590102338546E-02 
522	 4.96921429945452E-02 
523	 4.95801594641783E-02 
524	 4.96236098886305E-02 
525	 4.97057280538022E-02 
526	 4.97646042008674E-02 
527	 4.97672556701491E-02 
528	 4.97331986661675E-02 
529	 4.97207599131983E-02 
530	 0.049769473742525 
531	 4.98882889457378E-02 
532	 4.99057051131275E-02 
533	 4.98852813226232E-02 
534	 4.99023093588919E-02 
535	 4.99973324019411E-02 
536	 4.99866717058962E-02 
537	 4.99903005938853E-02 
538	 5.01829757749806E-02 
539	 5.02294287485074E-02 
540	 5.02106170248129E-02 
541	 5.02289086401898E-02 
542	 5.03691545603573E-02 
543	 5.04902261638699E-02 
544	 5.05927780496721E-02 
545	 5.07051469785412E-02 
546	 5.08000146470951E-02 
547	 5.08585725321165E-02 
548	 5.09306657670855E-02 
549	 5.11110662271657E-02 
550	 5.12059073399479E-02 
551	 5.12615616258848E-02 
552	 0.051355948296916 
553	 0.05153334090781 
554	 5.16907089425631E-02 
555	 5.18342046175452E-02 
556	 5.20261358805597E-02 
557	 5.22616955590041E-02 
558	 5.25185469740938E-02 
559	 5.27803423111516E-02 
560	 5.30480719088474E-02 
561	 0.053277011161785 
562	 5.35267695107626E-02 
563	 5.38651497689243E-02 
564	 5.41960699314993E-02 
565	 5.44817474758418E-02 
566	 5.47578581180442E-02 
567	 5.51345302866501E-02 
568	 5.55472703360159E-02 
569	 5.59799257336851E-02 
570	 5.64352810393231E-02 
571	 5.69490363616391E-02 
572	 5.74571261897746E-02 
573	 5.79752014606006E-02 
574	 5.85642020048921E-02 
575	 5.90817060983102E-02 
576	 5.96127057103505E-02 
577	 6.02078120054737E-02 
578	 6.07527499358145E-02 
579	 6.13824472750037E-02 
580	 6.20567022793341E-02 
581	 0.06268382024237 
582	 6.33853852941666E-02 
583	 6.40663505658522E-02 
584	 6.47119291459571E-02 
585	 6.54493413730256E-02 
586	 6.62230014848152E-02 
587	 0.066989820592149 
588	 6.77401241929327E-02 
589	 6.86066879371581E-02 
590	 6.94684762391204E-02 
591	 7.02703914695195E-02 
592	 0.071032070952758 
593	 7.18059715839606E-02 
594	 7.25702638355302E-02 
595	 0.073299894193626 
596	 7.40021391133171E-02 
597	 0.074721660003366 
598	 7.54557607291443E-02 
599	 7.61791358683193E-02 
600	 7.69003881134964E-02 
601	 7.76272640514682E-02 
602	 7.83410504229411E-02 
603	 7.89804291577918E-02 
604	 7.95508375886833E-02 
605	 8.01448600603846E-02 
606	 8.08433059378837E-02 
607	 8.14790110856218E-02 
608	 8.20647577466426E-02 
609	 8.26311359849728E-02 
610	 8.32157126656792E-02 
611	 8.37371354788683E-02 
612	 8.41807376179005E-02 
613	 8.45652297710996E-02 
614	 8.49578346227368E-02 
615	 8.53414427151037E-02 
616	 8.57194923362335E-02 
617	 8.61029409949095E-02 
618	 8.64454193919106E-02 
619	 8.67457786357716E-02 
620	 8.70220941702212E-02 
621	 8.73189039847578E-02 
622	 8.75783421497571E-02 
623	 0.087811809636376 
624	 0.088054202864603 
625	 8.82872438200541E-02 
626	 8.85269984207497E-02 
627	 8.87679804898848E-02 
628	 0.088972728790097 
629	 8.92003131500482E-02 
630	 8.94143669317296E-02 
631	 8.95800285412726E-02 
632	 0.089765939624123 
633	 8.99924166163494E-02 
634	 9.02135726884339E-02 
635	 9.03438122064374E-02 
636	 9.05581797379086E-02 
637	 9.07808876476514E-02 
638	 9.09372523521984E-02 
639	 9.10582949847494E-02 
640	 0.091204424440603 
641	 9.13993120402581E-02 
642	 9.16354900379929E-02 
643	 9.18452821423684E-02 
644	 9.20539766564492E-02 
645	 9.22740417238298E-02 
646	 9.24859896753936E-02 
647	 9.26583662158476E-02 
648	 9.28456255087171E-02 
649	 9.30940087398139E-02 
650	 9.33015189717426E-02 
651	 9.35136686047207E-02 
652	 9.37418882165946E-02 
653	 9.39671534960136E-02 
654	 9.42310197508939E-02 
655	 9.44754616811127E-02 
656	 9.46836224309492E-02 
657	 9.49868575008641E-02 
658	 9.53002597082132E-02 
659	 9.55836042699907E-02 
660	 9.58282743245154E-02 
661	 9.61006708753529E-02 
662	 9.64004569296628E-02 
663	 9.67038183358097E-02 
664	 9.69614281366253E-02 
665	 9.72958241548774E-02 
666	 9.76203863313236E-02 
667	 9.78531686133775E-02 
668	 9.81854247449269E-02 
669	 9.85937917146142E-02 
670	 9.89913224184218E-02 
671	 9.92606956361693E-02 
672	 9.96145058690864E-02 
673	 0.100005778967628 
674	 0.100382176761481 
675	 0.100795852197781 
676	 0.101178069245548 
677	 0.101562656309285 
678	 0.10200796334666 
679	 0.102398996191163 
680	 0.102806973149766 
681	 0.103258526784328 
682	 0.103702209747443 
683	 0.104139820770483 
684	 0.104585258661984 
685	 0.105057642830282 
686	 0.105587975549211 
687	 0.10607640824059 
688	 0.106531446519257 
689	 0.107032263674579 
690	 0.107498093477034 
691	 0.107974199695313 
692	 0.108494876643612 
693	 0.109045721960906 
694	 0.109539603708105 
695	 0.110039722205581 
696	 0.110629527416156 
697	 0.111162957259527 
698	 0.111691679097086 
699	 0.112250447019841 
700	 0.112841019200171 
701	 0.113415984313642 
702	 0.113973045440964 
703	 0.114516380169901 
704	 0.115029148170376 
705	 0.115583390194034 
706	 0.116170048008502 
707	 0.116737672362145 
708	 0.11728642952963 
709	 0.117866888844723 
710	 0.118481123087494 
711	 0.119056759740576 
712	 0.119599798011342 
713	 0.120130542510642 
714	 0.120677833215261 
715	 0.121282327739844 
716	 0.121841977296842 
717	 0.122344513113497 
718	 0.122847285938839 
719	 0.123361293587475 
720	 0.123877645609119 
721	 0.124386572805341 
722	 0.124889457440757 
723	 0.125364547734279 
724	 0.125822338616247 
725	 0.126280842173058 
726	 0.126736318377287 
727	 0.12713763364283 
728	 0.127492346261276 
729	 0.127863449217078 
730	 0.128272213061604 
731	 0.128642144727957 
732	 0.128927874207622 
733	 0.129198464074806 
734	 0.129453495457399 
735	 0.129701399277383 
736	 0.129945338515123 
737	 0.13015382143564 
738	 0.130336467772586 
739	 0.130511718983962 
740	 0.130700916971559 
741	 0.130811855548712 
742	 0.130875388945808 
743	 0.130941761285271 
744	 0.13104688052683 
745	 0.131047557636329 
746	 0.13101283379253 
747	 0.131074469337361 
748	 0.131014991424487 
749	 0.1309271681643 
750	 0.13086402261407 
751	 0.130796173139009 
752	 0.130674787982419 
753	 0.130508452090665 
754	 0.130321982888699 
755	 0.130135497626726 
756	 0.129975292133045 
757	 0.12980044025222 
758	 0.129550989452311 
759	 0.129304862914344 
760	 0.12906350199679 
761	 0.12881081785445 
762	 0.128519387299451 
763	 0.128237784525499 
764	 0.12793903504337 
765	 0.127606100240285 
766	 0.127301828942982 
767	 0.127008917314538 
768	 0.126695181207425 
769	 0.126331940243503 
770	 0.125976022979761 
771	 0.125612714237545 
772	 0.125246398758037 
773	 0.124909986671064 
774	 0.124530226101545 
775	 0.12415089034644 
776	 0.123803438549372 
777	 0.123410777492584 
778	 0.123008613791877 
779	 0.122632557362917 
780	 0.122296405111784 
781	 0.121878926709685 
782	 0.121468027021767 
783	 0.121096633175881 
784	 0.120723045059241 
785	 0.120339069620359 
786	 0.119951324503761 
787	 0.119572224793329 
788	 0.119218305031618 
789	 0.118883669494752 
790	 0.118519645964771 
791	 0.118096056309052 
792	 0.117758511890853 
793	 0.117422039164628 
794	 0.117060804557464 
795	 0.116707828057406 
796	 0.116316117252667 
797	 0.115953320292678 
798	 0.115646980228095 
799	 0.115321661184294 
800	 0.11500408214064 
801	 0.114676928688243 
802	 0.114330149780147 
803	 0.114027928652686 
804	 0.113722362856708 
805	 0.11339984584594 
806	 0.113075794590768 
807	 0.112792454377347 
808	 0.112503558780479 
809	 0.112196928885195 
810	 0.111915833020888 
811	 0.111626963281754 
812	 0.111344953935257 
813	 0.111085264873 
814	 0.110836673754034 
815	 0.110611506509899 
816	 0.110375438631919 
817	 0.110095533836045 
818	 0.109845123525673 
819	 0.109643626032419 
820	 0.109451477763137 
821	 0.109194507205588 
822	 0.108975835683754 
823	 0.108763252711081 
824	 0.108544064666497 
825	 0.108369616505459 
826	 0.108220464221541 
827	 0.108048681396684 
828	 0.107834039660721 
829	 0.107671234462962 
830	 0.107462227804533 
831	 0.107256939278604 
832	 0.107147717057122 
833	 0.107014291485702 
834	 0.106865190092785 
835	 0.106720163633511 
836	 0.106598858446838 
837	 0.106489341321236 
838	 0.10637642685153 
839	 0.106258083407777 
840	 0.106155828286712 
841	 0.106019881734249 
842	 0.105901303459705 
843	 0.105840276911491 
844	 0.105754818073489 
845	 0.105673891690226 
846	 0.105595875706701 
847	 0.105515442914683 
848	 0.105486746874961 
849	 0.105437152477158 
850	 0.105373642769252 
851	 0.105364528105318 
852	 0.105294461694334 
853	 0.105257980772836 
854	 0.105277570981608 
855	 0.105232747184045 
856	 0.105230413595067 
857	 0.105224788265705 
858	 0.105187395212993 
859	 0.105226875513872 
860	 0.105268466094471 
861	 0.105264150892217 
862	 0.105203221277169 
863	 0.105172122802003 
864	 0.105235919583641 
865	 0.105334602685671 
866	 0.105351320606608 
867	 0.105362225044525 
868	 0.105396211966264 
869	 0.105460945056169 
870	 0.105544057771513 
871	 0.105632743702102 
872	 0.105694718276632 
873	 0.105746907744813 
874	 0.105884235476848 
875	 0.105990795231092 
876	 0.106059900487251 
877	 0.106124940156355 
878	 0.1062466376524 
879	 0.10636677089422 
880	 0.106476499212755 
881	 0.10659030233949 
882	 0.106732916028549 
883	 0.106940744423414 
884	 0.107140452491195 
885	 0.107230618187689 
886	 0.107325495468907 
887	 0.107498496838442 
888	 0.107702268120064 
889	 0.107814527761653 
890	 0.108014260808656 
891	 0.108192290221262 
892	 0.108329096094682 
893	 0.108553998184047 
894	 0.108780839962241 
895	 0.109005865143323 
896	 0.109226934181298 
897	 0.109417902252662 
898	 0.109649526795979 
899	 0.109884629048788 
900	 0.110090039098634 
901	 0.110317310877505 
902	 0.110609953841053 
903	 0.110923617361577 
904	 0.111191037904404 
905	 0.111384494392155 
906	 0.111680861839658 
907	 0.112037424775667 
908	 0.112332759762439 
909	 0.112663648436546 
910	 0.112983460225312 
911	 0.113267075606584 
912	 0.113520507927763 
913	 0.113807902502236 
914	 0.114167775148069 
915	 0.114563925653744 
916	 0.114912073069863 
917	 0.115299005672716 
918	 0.115637817285125 
919	 0.115930877354193 
920	 0.116296900273873 
921	 0.11669813999764 
922	 0.117102464132939 
923	 0.117512824247703 
924	 0.117981689567211 
925	 0.118475202899121 
926	 0.118930173763597 
927	 0.119328053029509 
928	 0.119737634453645 
929	 0.120243667299751 
930	 0.120793936551435 
931	 0.121303037776464 
932	 0.121708381626254 
933	 0.122138237171002 
934	 0.122613755513066 
935	 0.123121795116173 
936	 0.123663404844159 
937	 0.124145287782038 
938	 0.124599603206785 
939	 0.125105048657085 
940	 0.12573119322917 
941	 0.126326046594201 
942	 0.126897916910121 
943	 0.12749537720196 
944	 0.128032380603911 
945	 0.128604353649434 
946	 0.129219522459078 
947	 0.129843098790466 
948	 0.130465990198616 
949	 0.131094697393737 
950	 0.131687989174163 
951	 0.132240718735723 
952	 0.133031044177686 
953	 0.133748023391035 
954	 0.134379239213043 
955	 0.135081606278629 
956	 0.135823272865712 
957	 0.136546882922187 
958	 0.137223471866802 
959	 0.137858790913495 
960	 0.138500571254896 
961	 0.139245214419759 
962	 0.140024583022079 
963	 0.140702831225687 
964	 0.141426861015222 
965	 0.142254025999988 
966	 0.143083974711984 
967	 0.143774745399366 
968	 0.144563106487624 
969	 0.145367980486862 
970	 0.146109978069091 
971	 0.146787300440341 
972	 0.147745760598388 
973	 0.148653937914676 
974	 0.14942159915851 
975	 0.150190373456713 
976	 0.151190353390264 
977	 0.152034654664038 
978	 0.152796855395587 
979	 0.153769483690642 
980	 0.154488194752239 
981	 0.155310552798083 
982	 0.156239062395608 
983	 0.157069970104191 
984	 0.157947234064669 
985	 0.158868040257662 
986	 0.159732912660711 
987	 0.160467620454819 
988	 0.161356725521943 
989	 0.162299364748923 
990	 0.163236559248254 
991	 0.164152526753744 
992	 0.165065563163971 
993	 0.16594401505689 
994	 0.166883640582768 
995	 0.167913294086202 
996	 0.168576795277025 
997	 0.169448998575649 
998	 0.170402408274688 
999	 0.171193141609628 
1000	 0.172281854556742 
1001	 0.171029623653691 
1002	 0.171944645183675 
1003	 0.172813246306033 
1004	 0.173628593718511 
1005	 0.174450830631985 
1006	 0.175298850113874 
1007	 0.176109337084637 
1008	 0.176882370244811 
1009	 0.17766222170457 
1010	 0.178485369873094 
1011	 0.179231728498298 
1012	 0.179941812738917 
1013	 0.180716268074588 
1014	 0.181439497243549 
1015	 0.182170930287127 
1016	 0.182903226548168 
1017	 0.18361768188944 
1018	 0.184338074979063 
1019	 0.185059893406728 
1020	 0.185729796784259 
1021	 0.186429647870081 
1022	 0.187099872451338 
1023	 0.187723724681399 
1024	 0.188373996577169 
1025	 0.18905357942039 
1026	 0.189788379811131 
1027	 0.190522482573027 
1028	 0.191203311365298 
1029	 0.191822737867613 
1030	 0.192449915105404 
1031	 0.19306952184209 
1032	 0.193698096298617 
1033	 0.194313099241885 
1034	 0.194931102908163 
1035	 0.195451263307157 
1036	 0.195982326262536 
1037	 0.196631234954798 
1038	 0.197259692085214 
1039	 0.197898840712749 
1040	 0.198535026251929 
1041	 0.199112107289503 
1042	 0.199674344291506 
1043	 0.200260149752431 
1044	 0.200847481272693 
1045	 0.20144969281392 
1046	 0.202033232318485 
1047	 0.202614813720292 
1048	 0.203170027215725 
1049	 0.203737389524492 
1050	 0.204346550345196 
1051	 0.204947304427773 
1052	 0.205559030775332 
1053	 0.206125822364589 
1054	 0.206656008147589 
1055	 0.207239779687447 
1056	 0.207823873017893 
1057	 0.208381538086539 
1058	 0.208953308003639 
1059	 0.209500165897492 
1060	 0.210007940335418 
1061	 0.210508872852666 
1062	 0.211035291434643 
1063	 0.211591115356794 
1064	 0.212126872367006 
1065	 0.212662039066093 
1066	 0.213200656099865 
1067	 0.213735380518297 
1068	 0.214270116556535 
1069	 0.21477090022851 
1070	 0.215298193948517 
1071	 0.215832952651566 
1072	 0.216355165400298 
1073	 0.216888922244456 
1074	 0.21742496833312 
1075	 0.217967997602003 
1076	 0.218451523400374 
1077	 0.21893221597267 
1078	 0.219427848239562 
1079	 0.219924955044705 
1080	 0.220372558162839 
1081	 0.220803718751774 
1082	 0.221264213950438 
1083	 0.22169751176977 
1084	 0.222068503810385 
1085	 0.222506931148057 
1086	 0.222984229125616 
1087	 0.223421149301327 
1088	 0.223834106549901 
1089	 0.224302304997419 
1090	 0.224762866718372 
1091	 0.225211191010607 
1092	 0.22567840560421 
1093	 0.226123315502717 
1094	 0.226559907853044 
1095	 0.226982037925941 
1096	 0.227398409625276 
1097	 0.22783369167351 
1098	 0.228255249762099 
1099	 0.228662183165126 
1100	 0.229087318118804 
1101	 0.229507220014921 
1102	 0.229940800863053 
1103	 0.23039766930435 
1104	 0.230834006393741 
1105	 0.231277426418507 
1106	 0.231720989465882 
1107	 0.232125432492067 
1108	 0.232546873454456 
1109	 0.232967797269896 
1110	 0.233396511417849 
1111	 0.233834584081428 
1112	 0.234299202343987 
1113	 0.234731939624187 
1114	 0.235154698072162 
1115	 0.235583010286107 
1116	 0.236006777038485 
1117	 0.236424368599492 
1118	 0.236848148222922 
1119	 0.237249204920355 
1120	 0.23765424754995 
1121	 0.238079641831195 
1122	 0.238497307726496 
1123	 0.238924188092576 
1124	 0.239352696767371 
1125	 0.239781575688742 
1126	 0.240201183949577 
1127	 0.240630438998871 
1128	 0.241039874949683 
1129	 0.24142207102872 
1130	 0.2418282830937 
1131	 0.242247550840896 
1132	 0.242648925980532 
1133	 0.24305528967671 
1134	 0.243452252739297 
1135	 0.243825300682831 
1136	 0.244205564754679 
1137	 0.244612885291833 
1138	 0.245000047206098 
1139	 0.245372703227827 
1140	 0.245739863140141 
1141	 0.246097346142809 
1142	 0.246436506646747 
1143	 0.246775896392006 
1144	 0.247121542446629 
1145	 0.247441932786073 
1146	 0.247732920439816 
1147	 0.248041886010247 
1148	 0.24834354477382 
1149	 0.248650218981449 
1150	 0.248965512748208 
1151	 0.249281250104395 
1152	 0.249599697736035 
1153	 0.249931377062888 
1154	 0.250247813070128 
1155	 0.250569836667153 
1156	 0.250881248756363 
1157	 0.251182409622254 
1158	 0.251475940582441 
1159	 0.251764820163282 
1160	 0.252058397435892 
1161	 0.252338566805837 
1162	 0.252625977539628 
1163	 0.25292874143785 
1164	 0.25321987605977 
1165	 0.253501239113955 
1166	 0.253790949739539 
1167	 0.254066087958094 
1168	 0.254351285823334 
1169	 0.254629968521321 
1170	 0.254906205461968 
1171	 0.255178847198265 
1172	 0.255467082321219 
1173	 0.255711864093717 
1174	 0.255927302249057 
1175	 0.256156780245231 
1176	 0.25635057404601 
1177	 0.256580616947065 
1178	 0.25685146262622 
1179	 0.257093800313934 
1180	 0.257347120861716 
1181	 0.257575483356247 
1182	 0.257771131968615 
1183	 0.257965443189685 
1184	 0.258189022317463 
1185	 0.258425122053199 
1186	 0.258641496638044 
1187	 0.258878968945878 
1188	 0.259086940037081 
1189	 0.259251578555511 
1190	 0.259448567681083 
1191	 0.259665762802877 
1192	 0.259862808824047 
1193	 0.260062058674545 
1194	 0.26025062929335 
1195	 0.260423272736951 
1196	 0.260595559194292 
1197	 0.260758150778871 
1198	 0.260928277636901 
1199	 0.261099356689508 
1200	 0.261268030312074 
1201	 0.261438199800967 
1202	 0.261617707870178 
1203	 0.26178443006839 
1204	 0.261943203037632 
1205	 0.262104030189823 
1206	 0.262263107439413 
1207	 0.262419131446746 
1208	 0.262573022745544 
1209	 0.262726511449724 
1210	 0.26288453222969 
1211	 0.263028478893402 
1212	 0.263153124945423 
1213	 0.263295909553596 
1214	 0.263443320249243 
1215	 0.263584635213262 
1216	 0.263728326872498 
1217	 0.26389082213131 
1218	 0.264027580449716 
1219	 0.264147683033598 
1220	 0.26427061690706 
1221	 0.264387773112664 
1222	 0.264506178328791 
1223	 0.264619618286432 
1224	 0.26473568654065 
1225	 0.264850281380746 
1226	 0.264969608585839 
1227	 0.265099802241128 
1228	 0.26521538710278 
1229	 0.265323111850571 
1230	 0.265435419914885 
1231	 0.265546753468208 
1232	 0.265649019526501 
1233	 0.265748416286048 
1234	 0.265849181920532 
1235	 0.265951835197255 
1236	 0.266046452316104 
1237	 0.266143726396219 
1238	 0.266254848096707 
1239	 0.266346784588172 
1240	 0.266413786119369 
1241	 0.266505667530342 
1242	 0.266615517918163 
1243	 0.266703645036042 
1244	 0.26678844927902 
1245	 0.266877736931417 
1246	 0.266950695578346 
1247	 0.267030031523433 
1248	 0.267122333554323 
1249	 0.267216139051656 
1250	 0.267289512488475 
1251	 0.267363041877481 
1252	 0.267438254218399 
1253	 0.267509708812015 
1254	 0.267586314485875 
1255	 0.267675360923813 
1256	 0.267740033110379 
1257	 0.267801267781173 
1258	 0.267849198393159 
1259	 0.267861333370445 
1260	 0.26790578153815 
1261	 0.267960800923082 
1262	 0.268011124722716 
1263	 0.268086040618826 
1264	 0.268137887787382 
1265	 0.268165048354316 
1266	 0.268204157562955 
1267	 0.268233617993924 
1268	 0.268265968784521 
1269	 0.268332356674297 
1270	 0.268425239166485 
1271	 0.268501753745769 
1272	 0.26859809386814 
1273	 0.268679343151421 
1274	 0.268745504496106 
1275	 0.268820002819589 
1276	 0.268900008516458 
1277	 0.268977769490784 
1278	 0.269040587450271 
1279	 0.269125560235357 
1280	 0.269225712662574 
1281	 0.269325528846743 
1282	 0.269441369862643 
1283	 0.269550137630608 
1284	 0.269655938937538 
1285	 0.269760383255931 
1286	 0.269871956463529 
1287	 0.269976163963207 
1288	 0.270085807976469 
1289	 0.270211116543014 
1290	 0.270294526575353 
1291	 0.270352588738827 
1292	 0.270432463680201 
1293	 0.270505827373677 
1294	 0.270566555839837 
1295	 0.27063730871215 
1296	 0.27069767606808 
1297	 0.270724772512988 
1298	 0.270769263445738 
1299	 0.270848268816993 
1300	 0.270884935024602 
1301	 0.270898314386699 
1302	 0.270908204767725 
1303	 0.270890060193038 
1304	 0.27087718337368 
1305	 0.270886512220349 
1306	 0.270876197618646 
1307	 0.270855715264574 
1308	 0.270828965636138 
1309	 0.270792340665171 
1310	 0.270736702060257 
1311	 0.270685428720306 
1312	 0.270635368741976 
1313	 0.270573672661972 
1314	 0.270498400527488 
1315	 0.270428955303089 
1316	 0.27035767241363 
1317	 0.270282450651099 
1318	 0.270205850133574 
1319	 0.270128148609981 
1320	 0.27005172007639 
1321	 0.269969030764783 
1322	 0.269879051710442 
1323	 0.269796235267897 
1324	 0.269712079795099 
1325	 0.269610834670239 
1326	 0.269539685966288 
1327	 0.269455676453326 
1328	 0.269368849573451 
1329	 0.269297904296372 
1330	 0.269205299943365 
1331	 0.269096107056932 
1332	 0.269001976063069 
1333	 0.268905191277587 
1334	 0.268808380878482 
1335	 0.268711914903832 
1336	 0.268630288418611 
1337	 0.268551923232876 
1338	 0.268473896285443 
1339	 0.268414645696816 
1340	 0.26834353897981 
1341	 0.268257918302278 
1342	 0.268186818797349 
1343	 0.26812281633472 
1344	 0.268052477007453 
1345	 0.268013184986982 
1346	 0.267958713701804 
1347	 0.267893467332789 
1348	 0.267852038873866 
1349	 0.267789357788728 
1350	 0.267716305895535 
1351	 0.267658414803996 
1352	 0.267613395401634 
1353	 0.267552527624669 
1354	 0.267494314517191 
1355	 0.267425489449255 
1356	 0.267335841629805 
1357	 0.267266634825716 
1358	 0.267205749120348 
1359	 0.26713713547219 
1360	 0.267076630453134 
1361	 0.267007683640813 
1362	 0.266933242992424 
1363	 0.266851603564608 
1364	 0.266763380844268 
1365	 0.266678756312593 
1366	 0.266593123072628 
1367	 0.266497400398679 
1368	 0.266404509161363 
1369	 0.266305165625753 
1370	 0.266174369343221 
1371	 0.266034414686496 
1372	 0.265883391866191 
1373	 0.265700226182038 
1374	 0.265520742234725 
1375	 0.265340946926466 
1376	 0.26512905253743 
1377	 0.264914054346579 
1378	 0.264652331582947 
1379	 0.264348170629694 
1380	 0.264038248497307 
1381	 0.263701256040484 
1382	 0.263351447461434 
1383	 0.263015636194728 
1384	 0.262607726111708 
1385	 0.262164016795258 
1386	 0.261683847205722 
1387	 0.261144373786899 
1388	 0.26059319041667 
1389	 0.260032124542896 
1390	 0.259418683688025 
1391	 0.258766330946965 
1392	 0.258081056497979 
1393	 0.257341824944861 
1394	 0.256571362705262 
1395	 0.255747949364762 
1396	 0.254908714551772 
1397	 0.254075932215148 
1398	 0.253215448954247 
1399	 0.252360995929648 
1400	 0.251518367377225 
1401	 0.250660427455768 
1402	 0.249762433254607 
1403	 0.24892691311788 
1404	 0.24810548789008 
1405	 0.247314176931373 
1406	 0.246564769685769 
1407	 0.245818458522734 
1408	 0.245070291310796 
1409	 0.244368792935685 
1410	 0.243680096799344 
1411	 0.243044699909893 
1412	 0.242437846938092 
1413	 0.241901903795424 
1414	 0.241424295611207 
1415	 0.240978463710018 
1416	 0.240588807664124 
1417	 0.240219384506091 
1418	 0.239843382872499 
1419	 0.239502885094832 
1420	 0.239204421989794 
1421	 0.238926822721647 
1422	 0.238683547542987 
1423	 0.238446262535321 
1424	 0.238191508151382 
1425	 0.237920737756432 
1426	 0.237674808553661 
1427	 0.237413309004538 
1428	 0.237204993660124 
1429	 0.23703148296443 
1430	 0.236863847726924 
1431	 0.23674254119306 
1432	 0.236589044870198 
1433	 0.236418121711552 
1434	 0.236275814492618 
1435	 0.236111719872494 
1436	 0.236000010543005 
1437	 0.235943656898065 
1438	 0.23587314849517 
1439	 0.235815070430282 
1440	 0.235781249334818 
1441	 0.235724019626004 
1442	 0.235666707216366 
1443	 0.235634105734364 
1444	 0.235589425286272 
1445	 0.235555071428293 
1446	 0.235542707109041 
1447	 0.235539243211394 
1448	 0.235545913377257 
1449	 0.235535251796023 
1450	 0.235523918583019 
1451	 0.235521513756418 
1452	 0.235504494874763 
1453	 0.235508141072544 
1454	 0.235535222138802 
1455	 0.235554320476288 
1456	 0.235571705238572 
1457	 0.235595078211496 
1458	 0.235622441870166 
1459	 0.23565846455547 
1460	 0.235690511910171 
1461	 0.235746255949084 
1462	 0.235818917748752 
1463	 0.235899221675616 
1464	 0.23598965152578 
1465	 0.236093757780663 
1466	 0.236206422711442 
1467	 0.236335090939094 
1468	 0.236477602973484 
1469	 0.236640741502239 
1470	 0.23682136492453 
1471	 0.237018849119317 
1472	 0.237236443752674 
1473	 0.23745233868033 
1474	 0.237649262838677 
1475	 0.237843725032797 
1476	 0.238028133939703 
1477	 0.238219454280255 
1478	 0.238439435440675 
1479	 0.238669343997972 
1480	 0.238913548682868 
1481	 0.239171795783997 
1482	 0.23942207332601 
1483	 0.239684528433097 
1484	 0.239923803908696 
1485	 0.240139587088668 
1486	 0.240383651968351 
1487	 0.240621851489828 
1488	 0.240877688348028 
1489	 0.241176197332345 
1490	 0.241435172669812 
1491	 0.241684655224407 
1492	 0.241925647989112 
1493	 0.242139199773985 
1494	 0.242368189596258 
1495	 0.242599957768611 
1496	 0.242829304794744 
1497	 0.24306260702178 
1498	 0.243293345327162 
1499	 0.243530039817646 
1500	 0.243748034343501 
1501	 0.243948785550138 
1502	 0.244161856099277 
1503	 0.244369067429699 
1504	 0.244571466759686 
1505	 0.244800442413483 
1506	 0.245030602230224 
1507	 0.245247753685271 
1508	 0.245463448332491 
1509	 0.245664609466854 
1510	 0.245862632231818 
1511	 0.246043554640152 
1512	 0.246225553043536 
1513	 0.246418481351185 
1514	 0.246595580729922 
1515	 0.246782769392755 
1516	 0.246977964594292 
1517	 0.247169327511458 
1518	 0.247362657916267 
1519	 0.247551176264661 
1520	 0.247739384261896 
1521	 0.247920452599285 
1522	 0.248093328029604 
1523	 0.248269597532061 
1524	 0.248449749370756 
1525	 0.24861804289554 
1526	 0.248780393400815 
1527	 0.248937667226834 
1528	 0.249086121642811 
1529	 0.249232705988227 
1530	 0.249379449142643 
1531	 0.249521651720429 
1532	 0.249652597664844 
1533	 0.249785827043504 
1534	 0.249917578352804 
1535	 0.250050446170375 
1536	 0.25018513002357 
1537	 0.250314734671963 
1538	 0.250442693168507 
1539	 0.250568500200957 
1540	 0.250687615721928 
1541	 0.250812280856002 
1542	 0.250943029926717 
1543	 0.251063291865872 
1544	 0.251182828989208 
1545	 0.251298572077788 
1546	 0.251410024344011 
1547	 0.251510738947622 
1548	 0.25161478638239 
1549	 0.251714059140835 
1550	 0.251807307688254 
1551	 0.251910928204711 
1552	 0.251997022470454 
1553	 0.252078562790394 
1554	 0.252173125678226 
1555	 0.252265451385593 
1556	 0.252377751982747 
1557	 0.25248649064797 
1558	 0.25258372045916 
1559	 0.252675479740129 
1560	 0.252772756963549 
1561	 0.252871631511875 
1562	 0.252964626182674 
1563	 0.253062167267799 
1564	 0.25314687684847 
1565	 0.25321948118819 
1566	 0.253294534453479 
1567	 0.253367671563556 
1568	 0.253435884178745 
1569	 0.253492119689345 
1570	 0.253565224048305 
1571	 0.253642828627354 
1572	 0.253717730774286 
1573	 0.253811251539922 
1574	 0.253881499446117 
1575	 0.253933278092481 
1576	 0.253994465233344 
1577	 0.254050912900955 
1578	 0.254106763435294 
1579	 0.254164414850298 
1580	 0.254221637773993 
1581	 0.254261713659053 
1582	 0.25433287122107 
1583	 0.254435903487852 
1584	 0.254509283239434 
1585	 0.254587786711092 
1586	 0.25465781288835 
1587	 0.254706260682169 
1588	 0.25475859269317 
1589	 0.254825668935055 
1590	 0.254866803621533 
1591	 0.25488163118448 
1592	 0.254903152882433 
1593	 0.254904435947843 
1594	 0.254928200359188 
1595	 0.254961858412347 
1596	 0.255001006507394 
1597	 0.255060270813263 
1598	 0.255111936195265 
1599	 0.255180568628919 
1600	 0.255220016223619 
1601	 0.255230843977467 
1602	 0.255254977323853 
1603	 0.255256097165615 
1604	 0.255276462845676 
1605	 0.255321203081943 
1606	 0.255362706006908 
1607	 0.25540300013657 
1608	 0.255456360132683 
1609	 0.25551513654014 
1610	 0.255560919304107 
1611	 0.255579885181728 
1612	 0.255600195465342 
1613	 0.255606065341561 
1614	 0.255597180092692 
1615	 0.255622534158779 
1616	 0.255658633274579 
1617	 0.255696952275817 
1618	 0.255741224957184 
1619	 0.25577754768284 
1620	 0.255807872105799 
1621	 0.255835905151136 
1622	 0.255867203309862 
1623	 0.255880778505687 
1624	 0.255883484824081 
1625	 0.255880681601433 
1626	 0.25585754001233 
1627	 0.255861555717546 
1628	 0.255869812497861 
1629	 0.255889249620044 
1630	 0.255927464203635 
1631	 0.255953389290486 
1632	 0.255980713342776 
1633	 0.256004404955109 
1634	 0.256034230052246 
1635	 0.256038563382673 
1636	 0.256030342106558 
1637	 0.256019199315189 
1638	 0.255976711720985 
1639	 0.255978296840309 
1640	 0.255996138460245 
1641	 0.256017396000356 
1642	 0.256067594466039 
1643	 0.25609069633425 
1644	 0.256106616026276 
1645	 0.25612028689233 
1646	 0.256125547363736 
1647	 0.256129676928158 
1648	 0.256131590566165 
1649	 0.256131721682332 
1650	 0.256122414041827 
1651	 0.256123948309927 
1652	 0.256136278302206 
1653	 0.256131121260334 
1654	 0.256121180665922 
1655	 0.256113362511942 
1656	 0.256094705959862 
1657	 0.256080897043222 
1658	 0.256073093256637 
1659	 0.256063243556251 
1660	 0.256057006969537 
1661	 0.256033343597098 
1662	 0.256002802125148 
1663	 0.255972925194315 
1664	 0.255914054511765 
1665	 0.255894576867423 
1666	 0.255904642160336 
1667	 0.255897296451733 
1668	 0.255900815724801 
1669	 0.255896883507363 
1670	 0.255887038441998 
1671	 0.255868053089801 
1672	 0.255847748970232 
1673	 0.255822987558574 
1674	 0.25577308705831 
1675	 0.25575197298491 
1676	 0.255758545721636 
1677	 0.255734505416016 
1678	 0.255703055490597 
1679	 0.255677396370548 
1680	 0.255628055991923 
1681	 0.255605112711174 
1682	 0.255604500454058 
1683	 0.255601046327847 
1684	 0.255610823081966 
1685	 0.255602332724644 
1686	 0.25559195901688 
1687	 0.255576479297168 
1688	 0.255541253169217 
1689	 0.255521810763929 
1690	 0.255514243709898 
1691	 0.25549625798817 
1692	 0.255480468577432 
1693	 0.255455587211884 
1694	 0.255411680195174 
1695	 0.255390849016209 
1696	 0.255374693358013 
1697	 0.255364140108979 
1698	 0.255385901313801 
1699	 0.255365501314194 
1700	 0.255323205085177 
1701	 0.255287573407031 
1702	 0.255233113238535 
1703	 0.255182783183445 
1704	 0.255142600434367 
1705	 0.255092573226502 
1706	 0.255031749023623 
1707	 0.254970466994312 
1708	 0.254908834023917 
1709	 0.254839527986979 
1710	 0.254756612341755 
1711	 0.254686894786393 
1712	 0.254617477086584 
1713	 0.254554453911385 
1714	 0.254506894936987 
1715	 0.254442141026278 
1716	 0.254362406343892 
1717	 0.254306234535157 
1718	 0.25424651311986 
1719	 0.254206796316457 
1720	 0.254206157474228 
1721	 0.254170531159906 
1722	 0.25413016457601 
1723	 0.254079693910196 
1724	 0.254007271941946 
1725	 0.253945074626088 
1726	 0.253886548279334 
1727	 0.253811976251866 
1728	 0.253729600280017 
1729	 0.253648399913842 
1730	 0.253555472679199 
1731	 0.253476226472507 
1732	 0.253402889392571 
1733	 0.253332145744072 
1734	 0.253275383618886 
1735	 0.253183734546006 
1736	 0.253077511266177 
1737	 0.252982453815211 
1738	 0.252870637521674 
1739	 0.252764106966556 
1740	 0.252665470613283 
1741	 0.252573756766154 
1742	 0.252477466341765 
1743	 0.252385310252985 
1744	 0.252317558256459 
1745	 0.252215546671295 
1746	 0.252090295565024 
1747	 0.25198545630594 
1748	 0.251871760555535 
1749	 0.251781761182136 
1750	 0.251660838843108 
1751	 0.251529050518768 
1752	 0.251412626021237 
1753	 0.251272655702013 
1754	 0.251128435954641 
1755	 0.251018227154548 
1756	 0.250878514491175 
1757	 0.250726662356874 
1758	 0.250602236640719 
1759	 0.250462161649662 
1760	 0.250376759465646 
1761	 0.250306307275878 
1762	 0.250222737714209 
1763	 0.25016161709635 
1764	 0.250051243955123 
1765	 0.249945628397079 
1766	 0.249837700528024 
1767	 0.249693083813594 
1768	 0.249581460485788 
1769	 0.24949836357481 
1770	 0.249438114256012 
1771	 0.2493965671643 
1772	 0.249340881307776 
1773	 0.249250476596917 
1774	 0.249156409170891 
1775	 0.249075634983296 
1776	 0.248971991802629 
1777	 0.248883981191365 
1778	 0.248813022377069 
1779	 0.248725205948186 
1780	 0.248658925985878 
1781	 0.248596156635418 
1782	 0.248525586700972 
1783	 0.248460241116148 
1784	 0.24840130492088 
1785	 0.248343037440058 
1786	 0.24828827898445 
1787	 0.24824226486346 
1788	 0.248202916492208 
1789	 0.248175662245167 
1790	 0.248146382079728 
1791	 0.24811487978919 
1792	 0.248089258611039 
1793	 0.248059844349704 
1794	 0.248039759957366 
1795	 0.248036243529715 
1796	 0.248016301719119 
1797	 0.247993495275818 
1798	 0.247971214048493 
1799	 0.247943020039063 
1800	 0.247929571271459 
1801	 0.247463748060091 
1802	 0.247656134202855 
1803	 0.247856418513679 
1804	 0.248108502737104 
1805	 0.24836672905071 
1806	 0.248570844456145 
1807	 0.248752051133586 
1808	 0.248913965424462 
1809	 0.249044996177644 
1810	 0.249159281852841 
1811	 0.24924541395025 
1812	 0.249355532971987 
1813	 0.24944846880975 
1814	 0.24946019161747 
1815	 0.249462787907462 
1816	 0.249468628713856 
1817	 0.249469924859712 
1818	 0.249434472496537 
1819	 0.249444864707115 
1820	 0.249489502210367 
1821	 0.249499847345529 
1822	 0.249528300844482 
1823	 0.249546640298412 
1824	 0.249551278057441 
1825	 0.249555876393714 
1826	 0.249558878886416 
1827	 0.24957202135588 
1828	 0.249561975876833 
1829	 0.249557137975653 
1830	 0.249525259647338 
1831	 0.249471222171142 
1832	 0.249393035603407 
1833	 0.24931594023569 
1834	 0.249232358097964 
1835	 0.249163452033536 
1836	 0.249110548969477 
1837	 0.249086463883307 
1838	 0.249079837376057 
1839	 0.249051495483701 
1840	 0.249031453835915 
1841	 0.248986275399343 
1842	 0.248907612976507 
1843	 0.248823571082995 
1844	 0.248733270302704 
1845	 0.248618529296758 
1846	 0.248493410500755 
1847	 0.248388338824552 
1848	 0.248262082165163 
1849	 0.248111554324548 
1850	 0.247976638104497 
1851	 0.24786267968387 
1852	 0.247708940634102 
1853	 0.247534849888959 
1854	 0.247361745101042 
1855	 0.247145885227659 
1856	 0.246874465192925 
1857	 0.246561429579504 
1858	 0.246251767663073 
1859	 0.245921501598725 
1860	 0.24554815592956 
1861	 0.245151053918917 
1862	 0.244721693866386 
1863	 0.244232453188617 
1864	 0.243706955832293 
1865	 0.243145050274791 
1866	 0.242540714048796 
1867	 0.24189344233588 
1868	 0.241186840526675 
1869	 0.240428768318348 
1870	 0.239621730341532 
1871	 0.238748886073052 
1872	 0.237823900515582 
1873	 0.236840853998367 
1874	 0.235793480949394 
1875	 0.23469014939409 
1876	 0.233542814028685 
1877	 0.232322365497895 
1878	 0.230995487532166 
1879	 0.22957469115706 
1880	 0.228048960902929 
1881	 0.226391714976372 
1882	 0.224674036338784 
1883	 0.222875524904881 
1884	 0.220963800940291 
1885	 0.21898830880745 
1886	 0.216948801073523 
1887	 0.214801502621233 
1888	 0.212589737741522 
1889	 0.210301820332769 
1890	 0.207954069827747 
1891	 0.205638724480805 
1892	 0.203282780095152 
1893	 0.20095583191656 
1894	 0.198632628170441 
1895	 0.196347425675325 
1896	 0.19404122147338 
1897	 0.191805795081442 
1898	 0.189603235941397 
1899	 0.187446417451167 
1900	 0.185372207629742 
1901	 0.183346087515617 
1902	 0.181460206064765 
1903	 0.179727288003483 
1904	 0.178028238321769 
1905	 0.176404597677792 
1906	 0.174895808728139 
1907	 0.173455740850496 
1908	 0.172079034626141 
1909	 0.170840237701621 
1910	 0.169695095841106 
1911	 0.168597672723463 
1912	 0.167578851278739 
1913	 0.166630979162671 
1914	 0.165752661072128 
1915	 0.164943425848069 
1916	 0.164220264137593 
1917	 0.163539073237353 
1918	 0.162911084776034 
1919	 0.162339584279703 
1920	 0.161820109821769 
1921	 0.161339115118051 
1922	 0.160906413597714 
1923	 0.160527812275107 
1924	 0.160189433757872 
1925	 0.159888891589545 
1926	 0.159645149370405 
1927	 0.159457509577149 
1928	 0.159301104031601 
1929	 0.159193958300122 
1930	 0.159134612360814 
1931	 0.159103617766093 
1932	 0.159111646939298 
1933	 0.159162941934226 
1934	 0.159233037874725 
1935	 0.159325183307357 
1936	 0.159446729975237 
1937	 0.159588961224797 
1938	 0.159747341231017 
1939	 0.159937982730256 
1940	 0.160159136771742 
1941	 0.160402285206656 
1942	 0.160671989164864 
1943	 0.160963780221585 
1944	 0.161270037942102 
1945	 0.161590520829728 
1946	 0.161909893085275 
1947	 0.162221808766792 
1948	 0.162562126179446 
1949	 0.162908122670577 
1950	 0.163281852913688 
1951	 0.163676632431265 
1952	 0.164103161988167 
1953	 0.164539064746409 
1954	 0.164993304071869 
1955	 0.165454209205318 
1956	 0.16590721735415 
1957	 0.166374140696933 
1958	 0.16683977320662 
1959	 0.167325385536737 
1960	 0.167833098584654 
1961	 0.168337083212407 
1962	 0.168852126110334 
1963	 0.169370478912099 
1964	 0.16988673375037 
1965	 0.170406718602278 
1966	 0.170960605379159 
1967	 0.171512652560706 
1968	 0.172072731126906 
1969	 0.172660875591324 
1970	 0.173220425105892 
1971	 0.173762654819321 
1972	 0.174321709548502 
1973	 0.174885237165416 
1974	 0.17544142449374 
1975	 0.175999169158651 
1976	 0.176559709758103 
1977	 0.177139569039293 
1978	 0.177685492723244 
1979	 0.178231967986324 
1980	 0.178801221779821 
1981	 0.17935210741142 
1982	 0.179869439897115 
1983	 0.180421497933609 
1984	 0.180983088084631 
1985	 0.181558207580511 
1986	 0.182163239796949 
1987	 0.182747961198637 
1988	 0.183349638919909 
1989	 0.183926738741946 
1990	 0.184467667879552 
1991	 0.185013223075156 
1992	 0.185568483194863 
1993	 0.186117184997082 
1994	 0.186676907337465 
1995	 0.187258391089631 
1996	 0.187817530706282 
1997	 0.188371938981183 
1998	 0.188917752817739 
1999	 0.189441860451689 
2000	 0.189986162477624 
2001	 0.19054528674227 
2002	 0.191085145967256 
2003	 0.191630330368492 
2004	 0.192163811176038 
2005	 0.192690049714353 
2006	 0.19320064180942 
2007	 0.193707663303123 
2008	 0.194199896471646 
2009	 0.194707847229615 
2010	 0.19520308131131 
2011	 0.195715062879951 
2012	 0.196274926989457 
2013	 0.196792545439249 
2014	 0.197291441344055 
2015	 0.197786936415224 
2016	 0.198269978562118 
2017	 0.198725747057455 
2018	 0.19920268319358 
2019	 0.199686479751779 
2020	 0.200169838311277 
2021	 0.200666764312002 
2022	 0.2011408536514 
2023	 0.20159804911576 
2024	 0.202071054200682 
2025	 0.202538129930044 
2026	 0.203004945020607 
2027	 0.203495016486906 
2028	 0.203966927753905 
2029	 0.204418968102903 
2030	 0.204849557028833 
2031	 0.205287476345086 
2032	 0.205709545368595 
2033	 0.206142956229399 
2034	 0.206590775710772 
2035	 0.207016300729083 
2036	 0.207433559120006 
2037	 0.207846004030989 
2038	 0.208256797057965 
2039	 0.208642583928566 
2040	 0.209004973272832 
2041	 0.209379758396964 
2042	 0.20971885732409 
2043	 0.210054475958731 
2044	 0.210412842447214 
2045	 0.21078057029459 
2046	 0.211153054680928 
2047	 0.211549629098014 
2048	 0.211922677593082 
2049	 0.21230389812181 
2050	 0.212656343662596 
2051	 0.212981099899136 
2052	 0.213310794331364 
2053	 0.213609778326453 
2054	 0.213931744227411 
2055	 0.214269926525269 
2056	 0.214607474425427 
2057	 0.214936283371538 
2058	 0.215272453892948 
2059	 0.215601556567067 
2060	 0.215915878339549 
2061	 0.216239856172818 
2062	 0.21657371350518 
2063	 0.216895727967408 
2064	 0.217222533895763 
2065	 0.217529987990396 
2066	 0.217826323087282 
2067	 0.218115658706429 
2068	 0.218390563010812 
2069	 0.218651092546098 
2070	 0.218928356410442 
2071	 0.21920389981084 
2072	 0.219486576095246 
2073	 0.219782396512095 
2074	 0.220065457476078 
2075	 0.220348596562055 
2076	 0.220628360892329 
2077	 0.220909469195273 
2078	 0.221174737684373 
2079	 0.221415700880516 
2080	 0.221678921267819 
2081	 0.221933498558482 
2082	 0.222205412842739 
2083	 0.222502096745838 
2084	 0.222803099636281 
2085	 0.223097984128257 
2086	 0.223395908246819 
2087	 0.223687173275407 
2088	 0.223975255712428 
2089	 0.22426630604757 
2090	 0.224569681322312 
2091	 0.22484066619247 
2092	 0.225101444117385 
2093	 0.225352047722357 
2094	 0.225561655549999 
2095	 0.225797820804221 
2096	 0.226040956074548 
2097	 0.226287497528052 
2098	 0.226556859565631 
2099	 0.226802046309855 
2100	 0.227049309194303 
2101	 0.227297438197245 
2102	 0.227536009017855 
2103	 0.227761591896079 
2104	 0.227996839527179 
2105	 0.228225737796655 
2106	 0.228465885725278 
2107	 0.228712637655341 
2108	 0.228962182763866 
2109	 0.229211495943379 
2110	 0.229475729106534 
2111	 0.229755320874739 
2112	 0.23002954138446 
2113	 0.23031608070474 
2114	 0.230605914620907 
2115	 0.230861898932691 
2116	 0.231097830499805 
2117	 0.231337492451792 
2118	 0.23155701425624 
2119	 0.231785754901892 
2120	 0.23201932678715 
2121	 0.23224810085104 
2122	 0.23247003450832 
2123	 0.232693214212168 
2124	 0.232932807619989 
2125	 0.233142610096814 
2126	 0.233353513688663 
2127	 0.233530186082155 
2128	 0.233645265166583 
2129	 0.233793260823659 
2130	 0.233943455672856 
2131	 0.234091970858443 
2132	 0.234218978452076 
2133	 0.234359775681805 
2134	 0.234475100506036 
2135	 0.234544930305411 
2136	 0.234644195501947 
2137	 0.234774153088214 
2138	 0.234855754522234 
2139	 0.234919117451421 
2140	 0.234971730009647 
2141	 0.234993599066962 
2142	 0.235014711400101 
2143	 0.235034032838794 
2144	 0.235039374095148 
2145	 0.235025947122545 
2146	 0.235009846204603 
2147	 0.234980583689133 
2148	 0.234952200009113 
2149	 0.234925788669084 
2150	 0.234896947310205 
2151	 0.23486739195326 
2152	 0.234849449514935 
2153	 0.234806044487946 
2154	 0.234754256608624 
2155	 0.234688053622656 
2156	 0.234611382682693 
2157	 0.234513036196979 
2158	 0.2344035979211 
2159	 0.234271515081591 
2160	 0.234101570538444 
2161	 0.233940036451132 
2162	 0.233745234259653 
2163	 0.233581962426809 
2164	 0.233433609718725 
2165	 0.233297298158089 
2166	 0.233153391950763 
2167	 0.233027846058394 
2168	 0.232882903681085 
2169	 0.23272654533873 
2170	 0.232568078178802 
2171	 0.232409639911782 
2172	 0.232241911122933 
2173	 0.23206380725589 
2174	 0.231882933028084 
2175	 0.231696535115692 
2176	 0.231505783051618 
2177	 0.231310267180924 
2178	 0.231108243471414 
2179	 0.230908688257551 
2180	 0.230693570818823 
2181	 0.23045283587872 
2182	 0.230225938153305 
2183	 0.229990086758348 
2184	 0.229756757638374 
2185	 0.229547847334229 
2186	 0.229358247933076 
2187	 0.229168393060951 
2188	 0.228999242296045 
2189	 0.228810490068287 
2190	 0.228616831790412 
2191	 0.228427723897847 
2192	 0.228221596193968 
2193	 0.228045027143508 
2194	 0.227872546847372 
2195	 0.227726533682753 
2196	 0.227605618537924 
2197	 0.227492087959213 
2198	 0.227404607588498 
2199	 0.227318559134123 
2200	 0.227236637322789 
2201	 0.22716998511805 
2202	 0.227104764046484 
2203	 0.227070021770196 
2204	 0.227033905355644 
2205	 0.22699975470523 
2206	 0.226999119978332 
2207	 0.227017322704394 
2208	 0.227043501204741 
2209	 0.227113299972868 
2210	 0.227151795474064 
2211	 0.227173021683052 
2212	 0.227217439869493 
2213	 0.227260498957674 
2214	 0.227314304147675 
2215	 0.227403348209491 
2216	 0.227460295123649 
2217	 0.227501247113666 
2218	 0.22754655831904 
2219	 0.227562396572778 
2220	 0.227613137445683 
2221	 0.227691147737004 
2222	 0.227769340919117 
2223	 0.227843165891971 
2224	 0.227882327192683 
2225	 0.227923184143278 
2226	 0.227937908333891 
2227	 0.227954633628956 
2228	 0.2279782996801 
2229	 0.22797621874082 
2230	 0.227945424299976 
2231	 0.22792561265261 
2232	 0.22788886803144 
2233	 0.227881198668571 
2234	 0.227895001090368 
2235	 0.227885839171062 
2236	 0.227895934876574 
2237	 0.227876135574261 
2238	 0.22780672236604 
2239	 0.227770935848655 
2240	 0.227760431441611 
2241	 0.227716569495325 
2242	 0.227668864607485 
2243	 0.227617499263288 
2244	 0.22754496179799 
2245	 0.227458074432805 
2246	 0.227386018881991 
2247	 0.22731640158422 
2248	 0.227252218728802 
2249	 0.227184520209491 
2250	 0.22712590359035 
2251	 0.227086642906717 
2252	 0.227021838064241 
2253	 0.226939638997802 
2254	 0.226877352052364 
2255	 0.226818217122763 
2256	 0.226749625147272 
2257	 0.226688419281226 
2258	 0.226624608347528 
2259	 0.226550252670605 
2260	 0.22648201889226 
2261	 0.226411959202946 
2262	 0.226352870884308 
2263	 0.226294278689007 
2264	 0.226237723512795 
2265	 0.226192036297547 
2266	 0.226155026387408 
2267	 0.226112584935163 
2268	 0.226086642074707 
2269	 0.226067199330432 
2270	 0.226094979682169 
2271	 0.226084185228953 
2272	 0.22604203556151 
2273	 0.2260052374528 
2274	 0.225942689679114 
2275	 0.225886087345254 
2276	 0.225830665076171 
2277	 0.225778630110937 
2278	 0.225718834428181 
2279	 0.225655551563633 
2280	 0.225595729172407 
2281	 0.225538048982517 
2282	 0.225479929535014 
2283	 0.22540987299413 
2284	 0.225335821027231 
2285	 0.225270199132549 
2286	 0.225186720218729 
2287	 0.225120596912645 
2288	 0.225065690866785 
2289	 0.225029531928675 
2290	 0.22502213110942 
2291	 0.224982824720535 
2292	 0.22495120096554 
2293	 0.224904496511434 
2294	 0.224822162025764 
2295	 0.224760644905746 
2296	 0.22471248955162 
2297	 0.224672190766247 
2298	 0.224587219400442 
2299	 0.224439847547793 
2300	 0.224285585644856 
2301	 0.224132827758619 
2302	 0.224013620629705 
2303	 0.223917668422728 
2304	 0.223824914798269 
2305	 0.223714890420134 
2306	 0.223600601446066 
2307	 0.2234665845523 
2308	 0.223355427984429 
2309	 0.223269409532187 
2310	 0.223140880802343 
2311	 0.223000772383022 
2312	 0.22286635274356 
2313	 0.222694968030365 
2314	 0.222547266561174 
2315	 0.22242906584173 
2316	 0.222288200250827 
2317	 0.22212428035092 
2318	 0.221985212002441 
2319	 0.221852570991637 
2320	 0.221733930681262 
2321	 0.221667844840927 
2322	 0.221529499351771 
2323	 0.221343170866885 
2324	 0.221173837798872 
2325	 0.220969175828073 
2326	 0.220788843069631 
2327	 0.220626649869322 
2328	 0.220483525376423 
2329	 0.22031508438769 
2330	 0.220123006122126 
2331	 0.219986112068684 
2332	 0.219866931537514 
2333	 0.21974209062333 
2334	 0.219615872204549 
2335	 0.219508432477504 
2336	 0.219377552337933 
2337	 0.219210758561218 
2338	 0.219087372490002 
2339	 0.218894019339296 
2340	 0.218632563612349 
2341	 0.21848559992958 
2342	 0.21836016098934 
2343	 0.218219161381066 
2344	 0.218098052247262 
2345	 0.217910786867422 
2346	 0.217640773916049 
2347	 0.217420668515727 
2348	 0.217202462659644 
2349	 0.216973347758207 
2350	 0.216768517570038 
2351	 0.21651846372244 
2352	 0.216207372675124 
2353	 0.215943549389161 
2354	 0.215693139128375 
2355	 0.215430006724346 
2356	 0.215179698386686 
2357	 0.214928640111595 
2358	 0.214653674999902 
2359	 0.214384176840847 
2360	 0.214124535737006 
2361	 0.213877088233983 
2362	 0.21362694266184 
2363	 0.213410437969214 
2364	 0.213230529595478 
2365	 0.213024739785422 
2366	 0.212837944223467 
2367	 0.212617452218548 
2368	 0.212389641241708 
2369	 0.212132445578249 
2370	 0.211851164947972 
2371	 0.21153261196064 
2372	 0.211206986630394 
2373	 0.210874421711528 
2374	 0.21055358180638 
2375	 0.210226995712075 
2376	 0.209888692234044 
2377	 0.209619228389369 
2378	 0.209393193867515 
2379	 0.209117948564854 
2380	 0.208836896965385 
2381	 0.20854449746004 
2382	 0.208179152006964 
2383	 0.207833414027446 
2384	 0.207560137556783 
2385	 0.207229179768325 
2386	 0.20682487866709 
2387	 0.206474465241099 
2388	 0.20618727953749 
2389	 0.205903039142907 
2390	 0.205628071483088 
2391	 0.205339621671052 
2392	 0.204971079807971 
2393	 0.204603368203484 
2394	 0.204327869503794 
2395	 0.204058178857871 
2396	 0.203762919624858 
2397	 0.203468626984029 
2398	 0.203160853150297 
2399	 0.202837448946235 
2400	 0.202495943388671 
2401	 0.202149737443245 
2402	 0.201735150651036 
2403	 0.201294984977756 
2404	 0.200921792898192 
2405	 0.20057426734024 
2406	 0.200216060379589 
2407	 0.199859961570591 
2408	 0.199462190700665 
2409	 0.198949683967664 
2410	 0.198438014085127 
2411	 0.197981758228287 
2412	 0.197564489085343 
2413	 0.197123183767234 
2414	 0.19673527621894 
2415	 0.196488549871477 
2416	 0.196145592201666 
2417	 0.195792673131016 
2418	 0.195467765886918 
2419	 0.195090690848592 
2420	 0.194701350138659 
2421	 0.194356603978392 
2422	 0.193949341874668 
2423	 0.193503526651297 
2424	 0.193059379761042 
2425	 0.192574313131909 
2426	 0.192173980213127 
2427	 0.191821093204219 
2428	 0.191362561198273 
2429	 0.190885369330381 
2430	 0.190400971626768 
2431	 0.189824407548932 
2432	 0.189357599357024 
2433	 0.188984337558762 
2434	 0.188601197341011 
2435	 0.188227699227775 
2436	 0.187799124515301 
2437	 0.187390300388204 
2438	 0.186961056860909 
2439	 0.186464088385591 
2440	 0.186000610225827 
2441	 0.185557173338524 
2442	 0.18513768054599 
2443	 0.184754268620965 
2444	 0.184336175739295 
2445	 0.183883992724869 
2446	 0.183470362381002 
2447	 0.183039996377216 
2448	 0.182660385683398 
2449	 0.182405065286906 
2450	 0.182022855351469 
2451	 0.181532166507711 
2452	 0.181112231573991 
2453	 0.180698313587459 
2454	 0.180292418199511 
2455	 0.179927936942381 
2456	 0.179586087297171 
2457	 0.179198966275359 
2458	 0.17884629653707 
2459	 0.17862868405664 
2460	 0.178255514635539 
2461	 0.177814697903497 
2462	 0.177446707286891 
2463	 0.176976148101381 
2464	 0.176505799381333 
2465	 0.176086869858961 
2466	 0.175677102977786 
2467	 0.175279908153606 
2468	 0.174918390198742 
2469	 0.174580168575275 
2470	 0.174246867079003 
2471	 0.173803095032417 
2472	 0.173381227473133 
2473	 0.173131182068247 
2474	 0.172883592793574 
2475	 0.172554749477389 
2476	 0.172295853249569 
2477	 0.172149167349932 
2478	 0.171678567431587 
2479	 0.17119685325074 
2480	 0.170947303596523 
2481	 0.170463334054302 
2482	 0.170079925348818 
2483	 0.16984697657017 
2484	 0.169465550638584 
2485	 0.169208661289435 
2486	 0.168830481751257 
2487	 0.168478399357634 
2488	 0.168323319320554 
2489	 0.167891948533819 
2490	 0.167545983847175 
2491	 0.16720034079997 
2492	 0.16672865020459 
2493	 0.166394027392912 
2494	 0.166006997442396 
2495	 0.165706721608273 
2496	 0.16541654128745 
2497	 0.165005705864857 
2498	 0.164617955591652 
2499	 0.164225597060015 
2500	 0.164045377837924 
