Wavelength	mm2000003.asd
350	 6.50807124153897E-02 
351	 0.06871945149236 
352	 5.94622623289665E-02 
353	 4.90598951017544E-02 
354	 6.46320365405828E-02 
355	 6.84578270960124E-02 
356	 5.98537253369689E-02 
357	 5.03749809925996E-02 
358	 0.056174384422556 
359	 5.56848546785207E-02 
360	 0.050670330026452 
361	 5.62772388028243E-02 
362	 0.052931253511908 
363	 5.20273023368661E-02 
364	 5.71501552101789E-02 
365	 5.39720827748877E-02 
366	 5.38215984075171E-02 
367	 5.57421960756606E-02 
368	 5.57512486993607E-02 
369	 5.15148867010291E-02 
370	 5.05373971863599E-02 
371	 5.21144264300232E-02 
372	 5.05000998651274E-02 
373	 5.29572236031791E-02 
374	 5.49374889242678E-02 
375	 5.45308437660155E-02 
376	 5.70288151199382E-02 
377	 5.70748056374783E-02 
378	 0.056873973438107 
379	 5.90768594084398E-02 
380	 5.82391660818483E-02 
381	 5.82511860132584E-02 
382	 5.91578519931414E-02 
383	 5.82536987460723E-02 
384	 5.94495412495468E-02 
385	 5.95501862360113E-02 
386	 5.83939250726993E-02 
387	 6.39660049976309E-02 
388	 6.54554399034726E-02 
389	 6.51764786570867E-02 
390	 6.75480185078068E-02 
391	 6.54749415761606E-02 
392	 6.38432307094347E-02 
393	 6.55806865644598E-02 
394	 7.09213542645309E-02 
395	 7.16789943384359E-02 
396	 0.071730605835409 
397	 7.41373665919885E-02 
398	 7.59063665379071E-02 
399	 0.076548092516775 
400	 7.77261283855094E-02 
401	 8.10139360666246E-02 
402	 8.24495804872349E-02 
403	 8.42614310329608E-02 
404	 8.66902624498724E-02 
405	 8.77482438778038E-02 
406	 8.98836200773909E-02 
407	 9.21556675492032E-02 
408	 9.33152705316679E-02 
409	 9.28039522947305E-02 
410	 9.29240047281919E-02 
411	 9.43786271659682E-02 
412	 9.67071509891599E-02 
413	 9.77321877942897E-02 
414	 9.80014544579976E-02 
415	 9.80572323333771E-02 
416	 9.80442214127843E-02 
417	 9.83723576907806E-02 
418	 9.93643790794931E-02 
419	 0.100646494825357 
420	 9.96865440829596E-02 
421	 9.87728137409774E-02 
422	 9.86083111001762E-02 
423	 9.86898876183861E-02 
424	 9.78503197865487E-02 
425	 9.68958247464708E-02 
426	 9.61889733682709E-02 
427	 9.47477347433937E-02 
428	 9.37760060206308E-02 
429	 0.09299196661736 
430	 9.18304403984572E-02 
431	 9.08961687761956E-02 
432	 8.97961862843339E-02 
433	 0.088760131793555 
434	 8.86021188990029E-02 
435	 8.87145400472875E-02 
436	 8.89432082767985E-02 
437	 8.92051081378368E-02 
438	 8.92495120427896E-02 
439	 9.00957875236086E-02 
440	 9.15070539136205E-02 
441	 9.26988435241139E-02 
442	 9.42009269124557E-02 
443	 0.095652149935521 
444	 9.69310722661113E-02 
445	 9.83865047620678E-02 
446	 9.98255674236384E-02 
447	 0.101270807837006 
448	 0.102844416517871 
449	 0.104906620058884 
450	 0.106569547717923 
451	 0.107890347716095 
452	 0.109707161430379 
453	 0.111330232959245 
454	 0.112640488373425 
455	 0.113782884994304 
456	 0.115312002258995 
457	 0.116616990386891 
458	 0.117680061748534 
459	 0.11877079688635 
460	 0.120151449741061 
461	 0.121181686261807 
462	 0.121809772031004 
463	 0.122907645434919 
464	 0.123762405484364 
465	 0.124499774636932 
466	 0.125349187165349 
467	 0.125985087775647 
468	 0.126736007931897 
469	 0.127484641204475 
470	 0.127803472328241 
471	 0.128457848510324 
472	 0.129237450354991 
473	 0.129895701055719 
474	 0.130543321657563 
475	 0.130788255446418 
476	 0.130996905367355 
477	 0.131756579152198 
478	 0.132604535245875 
479	 0.133236408407817 
480	 0.133630471632143 
481	 0.134120952408234 
482	 0.134705832241072 
483	 0.135325105129026 
484	 0.135901854693013 
485	 0.136441773073212 
486	 0.136735946026565 
487	 0.136977444251539 
488	 0.137640998452663 
489	 0.138014574811507 
490	 0.138476429833863 
491	 0.139250801401256 
492	 0.13972406873362 
493	 0.140112641153938 
494	 0.140572244837496 
495	 0.141203320034736 
496	 0.141861096502118 
497	 0.142216925671068 
498	 0.142326974841264 
499	 0.142829084889809 
500	 0.14326148036352 
501	 0.143647562008163 
502	 0.144115981842317 
503	 0.144627935978647 
504	 0.14517609793207 
505	 0.145649704153089 
506	 0.145869967754718 
507	 0.14624919986006 
508	 0.146848561627829 
509	 0.147519990448891 
510	 0.147755237059776 
511	 0.148016456085617 
512	 0.148451743495919 
513	 0.149010653986392 
514	 0.149514498836546 
515	 0.149889430320745 
516	 0.150179064879763 
517	 0.150594382151359 
518	 0.151018700984546 
519	 0.151381058832723 
520	 0.151682227373426 
521	 0.152238752594906 
522	 0.152650543888444 
523	 0.1529009524739 
524	 0.153402456936408 
525	 0.15378635822744 
526	 0.154128418542282 
527	 0.154531974648825 
528	 0.154864738763396 
529	 0.155204194045974 
530	 0.15558679760837 
531	 0.156013636414101 
532	 0.156414952562454 
533	 0.156823174999464 
534	 0.157255910808698 
535	 0.157675863005558 
536	 0.158017727809221 
537	 0.158342555778778 
538	 0.158746033967426 
539	 0.159164469218043 
540	 0.15957268446647 
541	 0.159976423376884 
542	 0.160418423367885 
543	 0.160779513256337 
544	 0.161162529373731 
545	 0.161659731110242 
546	 0.162074202797791 
547	 0.162442972891409 
548	 0.162854359657488 
549	 0.163418894037556 
550	 0.163917723894859 
551	 0.164357049976714 
552	 0.164792105270039 
553	 0.165295557052513 
554	 0.165712434047241 
555	 0.166155984440939 
556	 0.166830486544191 
557	 0.167372631063362 
558	 0.167947110608835 
559	 0.168637254947448 
560	 0.169285289200296 
561	 0.169872655261317 
562	 0.170462136758234 
563	 0.171130540001242 
564	 0.171836526722391 
565	 0.172488450891152 
566	 0.173054213504711 
567	 0.17357259391874 
568	 0.174134022481763 
569	 0.174877999838296 
570	 0.175848561970887 
571	 0.176788715385961 
572	 0.177648253710988 
573	 0.178447279115442 
574	 0.17925422911802 
575	 0.180005763791352 
576	 0.18089161400355 
577	 0.181966555027433 
578	 0.182916333500264 
579	 0.183861155550536 
580	 0.184744658521037 
581	 0.185478332616481 
582	 0.186218522065711 
583	 0.187016824472548 
584	 0.187886170931196 
585	 0.18880046764691 
586	 0.189965968058274 
587	 0.191201471276727 
588	 0.192297769560547 
589	 0.193477018089154 
590	 0.194654976816888 
591	 0.195775029176936 
592	 0.196820465732683 
593	 0.197805756630371 
594	 0.198659980754408 
595	 0.199372357244045 
596	 0.200114518435713 
597	 0.200928759966214 
598	 0.201792436721958 
599	 0.202651742766526 
600	 0.203549565892978 
601	 0.204458759559012 
602	 0.205365929671326 
603	 0.206307527856852 
604	 0.207169191875635 
605	 0.207999966210833 
606	 0.20888806955582 
607	 0.209787737637833 
608	 0.210603722160895 
609	 0.211340044952668 
610	 0.21211459255699 
611	 0.212734195501707 
612	 0.213228015695711 
613	 0.213682005591623 
614	 0.214174085773029 
615	 0.214659187430485 
616	 0.215131174360832 
617	 0.215604485004872 
618	 0.216032887534704 
619	 0.216399282223734 
620	 0.216718123997807 
621	 0.217050409679545 
622	 0.217435554962966 
623	 0.217801432446301 
624	 0.218053448147717 
625	 0.21829040564363 
626	 0.218583196635694 
627	 0.218920202877697 
628	 0.219186306072747 
629	 0.219450315090527 
630	 0.219720706651146 
631	 0.219978706670255 
632	 0.220147375677317 
633	 0.220381915143758 
634	 0.22067715651884 
635	 0.220898264201504 
636	 0.221095823571298 
637	 0.221330347843367 
638	 0.221611739983502 
639	 0.221824136649005 
640	 0.222002693927636 
641	 0.22220416193817 
642	 0.222479359861083 
643	 0.222733411486855 
644	 0.222956403657652 
645	 0.223161366825995 
646	 0.223381474920798 
647	 0.22356278648489 
648	 0.223778042118687 
649	 0.224098840590369 
650	 0.224447320253099 
651	 0.224712601772446 
652	 0.224938229328489 
653	 0.225290222902964 
654	 0.225613306358631 
655	 0.225896560607194 
656	 0.226173160137919 
657	 0.226513202951435 
658	 0.226909910941812 
659	 0.227276205993178 
660	 0.227527641119465 
661	 0.22792949052036 
662	 0.228338732041169 
663	 0.228677173589066 
664	 0.229014850653074 
665	 0.229444016936158 
666	 0.229868622443363 
667	 0.230204968977575 
668	 0.230671000901951 
669	 0.231128539844229 
670	 0.231577333049273 
671	 0.232122562419796 
672	 0.232530213458359 
673	 0.232961030791824 
674	 0.233512257361494 
675	 0.233961639973426 
676	 0.234451728479584 
677	 0.234995820396979 
678	 0.235549846304507 
679	 0.236078330738317 
680	 0.236602676538419 
681	 0.237143804637215 
682	 0.237714115721057 
683	 0.238291934267929 
684	 0.238879103348653 
685	 0.239480120013224 
686	 0.240084806114396 
687	 0.240727023688027 
688	 0.241374138398799 
689	 0.241957687813674 
690	 0.242593001401786 
691	 0.243247982855027 
692	 0.24389443549932 
693	 0.244555861048082 
694	 0.245254045042105 
695	 0.245947110461106 
696	 0.24658815232158 
697	 0.247239800741794 
698	 0.247904830708682 
699	 0.248581105646695 
700	 0.249265275710266 
701	 0.25002276475504 
702	 0.250729484538154 
703	 0.251326614181527 
704	 0.252057927658389 
705	 0.25272171078818 
706	 0.253355815339365 
707	 0.254092300526247 
708	 0.254729610838348 
709	 0.255430615127119 
710	 0.256227602025025 
711	 0.256916868645804 
712	 0.257530387563461 
713	 0.258087973787452 
714	 0.258641381116706 
715	 0.259359111776111 
716	 0.259985855131545 
717	 0.260516388419811 
718	 0.261124549674653 
719	 0.26171868461758 
720	 0.262250832976073 
721	 0.262725536328234 
722	 0.263235981814562 
723	 0.263778952669423 
724	 0.264252888169131 
725	 0.264580562645424 
726	 0.26498800140414 
727	 0.265366263264217 
728	 0.265690529120948 
729	 0.266023852210203 
730	 0.266281538306194 
731	 0.266512336860582 
732	 0.266757420003837 
733	 0.266984244930465 
734	 0.267193710764749 
735	 0.267317325957137 
736	 0.267301669396242 
737	 0.26735151262798 
738	 0.267375204447778 
739	 0.2673347860875 
740	 0.267274803082018 
741	 0.267186229173976 
742	 0.26707191471564 
743	 0.266926972417411 
744	 0.266721782311902 
745	 0.266465432743484 
746	 0.266185990882325 
747	 0.265909261665965 
748	 0.265576815630601 
749	 0.265212512107681 
750	 0.264841171692577 
751	 0.264477095647033 
752	 0.263981121222973 
753	 0.263428904931332 
754	 0.262904811733082 
755	 0.262357807747267 
756	 0.261827643252074 
757	 0.261276434168458 
758	 0.260645114443774 
759	 0.260028853432386 
760	 0.259391588756866 
761	 0.258712752631023 
762	 0.258007149616511 
763	 0.257330427613874 
764	 0.2566081229866 
765	 0.255802436285687 
766	 0.255068819858193 
767	 0.254362038658527 
768	 0.253609754971184 
769	 0.252756741667461 
770	 0.25197627558258 
771	 0.251223071746047 
772	 0.250423120563138 
773	 0.249500821369408 
774	 0.248651777443331 
775	 0.247851997692209 
776	 0.247043453747965 
777	 0.246226069510548 
778	 0.245395929478833 
779	 0.2445744317279 
780	 0.243774412669517 
781	 0.242873636180301 
782	 0.242023555428871 
783	 0.241238115537353 
784	 0.240373375432805 
785	 0.239518066227514 
786	 0.238703927383254 
787	 0.237924664685101 
788	 0.237108122706789 
789	 0.236323476115463 
790	 0.235525184596319 
791	 0.234666859861063 
792	 0.233932750967459 
793	 0.233119641988876 
794	 0.232241732361609 
795	 0.231499025155319 
796	 0.230711594935356 
797	 0.229930058536654 
798	 0.229199248084723 
799	 0.228492265633471 
800	 0.227764821043794 
801	 0.227006448802951 
802	 0.226235811671664 
803	 0.225527329608439 
804	 0.224824001456558 
805	 0.224112721050724 
806	 0.22341044683515 
807	 0.222704722942555 
808	 0.222042556202622 
809	 0.221408723711135 
810	 0.220702492244305 
811	 0.22001201607697 
812	 0.219344917965626 
813	 0.218702504740018 
814	 0.218123578952199 
815	 0.217568822166855 
816	 0.216974053090291 
817	 0.216303302281142 
818	 0.215701327025481 
819	 0.21518437483505 
820	 0.214670364260661 
821	 0.214026760196552 
822	 0.21347168423316 
823	 0.212905230811889 
824	 0.212295718578966 
825	 0.211797528396259 
826	 0.211347408694679 
827	 0.210860507990152 
828	 0.210301560469198 
829	 0.209811376226689 
830	 0.209295594519213 
831	 0.208788477435804 
832	 0.20836664970128 
833	 0.207966624624508 
834	 0.207555701922607 
835	 0.207114273636194 
836	 0.206643163013313 
837	 0.206254279880163 
838	 0.205894171701976 
839	 0.205502693953435 
840	 0.205058016329189 
841	 0.204636934884675 
842	 0.204282689722169 
843	 0.203986865088379 
844	 0.203625960757001 
845	 0.203287469519535 
846	 0.202952834365552 
847	 0.202593275563994 
848	 0.202426283015321 
849	 0.20213645230746 
850	 0.201696824577051 
851	 0.201342859518981 
852	 0.201014125089231 
853	 0.200756907436898 
854	 0.200574009516916 
855	 0.200392496054991 
856	 0.200149393347446 
857	 0.199865345242085 
858	 0.199601753292738 
859	 0.199464632854711 
860	 0.199308695239381 
861	 0.199081086455614 
862	 0.198797238509458 
863	 0.198581091132317 
864	 0.198427432201017 
865	 0.198301682204344 
866	 0.198160080038259 
867	 0.198032665404061 
868	 0.197854852619001 
869	 0.1976598129277 
870	 0.197569989985768 
871	 0.197427696533428 
872	 0.197319097487322 
873	 0.197275970472835 
874	 0.197182041371767 
875	 0.197105036929405 
876	 0.19701882548633 
877	 0.196913634192945 
878	 0.196880387600585 
879	 0.196853948432686 
880	 0.196816131863702 
881	 0.196776743308945 
882	 0.19678459246043 
883	 0.196815385345458 
884	 0.196809336199165 
885	 0.196726171100636 
886	 0.196739169590205 
887	 0.196816572303814 
888	 0.196877783545832 
889	 0.196843941546451 
890	 0.196924013680804 
891	 0.19698427203903 
892	 0.196995695614928 
893	 0.197107791485502 
894	 0.197273025556438 
895	 0.197401433283071 
896	 0.197448166168655 
897	 0.197462284069609 
898	 0.197662014727691 
899	 0.197885213726942 
900	 0.197976965038998 
901	 0.19808668480389 
902	 0.198223516730654 
903	 0.198390595738014 
904	 0.198575053844578 
905	 0.198729492825057 
906	 0.198976971649066 
907	 0.19926709527362 
908	 0.19949273172738 
909	 0.19973868801197 
910	 0.199958822123271 
911	 0.20015961337655 
912	 0.200381825515082 
913	 0.200609526332853 
914	 0.200930604325373 
915	 0.201284371951684 
916	 0.201506222502719 
917	 0.201791890743549 
918	 0.202099748627916 
919	 0.202412935423988 
920	 0.202772906748683 
921	 0.203167257217117 
922	 0.20350781884579 
923	 0.203827981655647 
924	 0.204335564411323 
925	 0.204675918319704 
926	 0.205043194860845 
927	 0.205543818565734 
928	 0.205909750804604 
929	 0.206309809527657 
930	 0.206808241020648 
931	 0.207352225661818 
932	 0.207688381909991 
933	 0.208179855811211 
934	 0.208763746571759 
935	 0.209308607746586 
936	 0.209885818423833 
937	 0.210390027374751 
938	 0.210884278539467 
939	 0.21144460559749 
940	 0.211975620487019 
941	 0.212573768177967 
942	 0.213199278495831 
943	 0.213783259932116 
944	 0.214367296745395 
945	 0.214986925012806 
946	 0.215654734227777 
947	 0.216344471257265 
948	 0.216927032918244 
949	 0.217601399056462 
950	 0.218348462392328 
951	 0.21906303071097 
952	 0.219869119708316 
953	 0.220555650693374 
954	 0.221178094991836 
955	 0.221924600415588 
956	 0.222762117037193 
957	 0.223566942637178 
958	 0.224309150890032 
959	 0.225038666207818 
960	 0.22583603685142 
961	 0.226694913107466 
962	 0.227544967035263 
963	 0.228313511056405 
964	 0.229134961035062 
965	 0.230040934673976 
966	 0.230944764683754 
967	 0.231755043561693 
968	 0.232825133510281 
969	 0.233688580463285 
970	 0.234373022678581 
971	 0.235250870369368 
972	 0.236344895428217 
973	 0.237365299932538 
974	 0.238304967733726 
975	 0.239340974974932 
976	 0.24040639707085 
977	 0.241355083796773 
978	 0.242228008643851 
979	 0.243188715005798 
980	 0.244305720535702 
981	 0.245441744075104 
982	 0.246498381582247 
983	 0.24744828331528 
984	 0.248371560181958 
985	 0.249491139981995 
986	 0.250645468287222 
987	 0.251579222253661 
988	 0.252777888919165 
989	 0.253718533683887 
990	 0.254610237611692 
991	 0.255886178167753 
992	 0.257065296773026 
993	 0.258135530754679 
994	 0.259229207862594 
995	 0.260432010685187 
996	 0.26138325015247 
997	 0.262485808714994 
998	 0.263583578866666 
999	 0.26450572863926 
1000	 0.265881828704796 
1001	 0.260412162439771 
1002	 0.261371473441535 
1003	 0.262402294794371 
1004	 0.263400531644246 
1005	 0.26439765850919 
1006	 0.26538797413929 
1007	 0.266389100876228 
1008	 0.267312523042101 
1009	 0.268252718412622 
1010	 0.269272961878646 
1011	 0.270254021690124 
1012	 0.271207490826684 
1013	 0.272214968432775 
1014	 0.273135963318066 
1015	 0.27403251837354 
1016	 0.275036555959188 
1017	 0.276007480530673 
1018	 0.276954550269606 
1019	 0.277885293511114 
1020	 0.278863819393196 
1021	 0.27976111196652 
1022	 0.280588253077591 
1023	 0.28148876699342 
1024	 0.282372504841013 
1025	 0.283188082975234 
1026	 0.284088540902192 
1027	 0.284963648100164 
1028	 0.285835230720713 
1029	 0.286782402415147 
1030	 0.287676287341125 
1031	 0.288553096090693 
1032	 0.289415953270388 
1033	 0.290254526176463 
1034	 0.291077997853059 
1035	 0.2919373426379 
1036	 0.292788889930674 
1037	 0.293645677730018 
1038	 0.294496234906819 
1039	 0.295320867039434 
1040	 0.296146696048761 
1041	 0.296972568097107 
1042	 0.297809666576512 
1043	 0.298620774685851 
1044	 0.299418839317802 
1045	 0.300205541724565 
1046	 0.300985839446165 
1047	 0.301718619152389 
1048	 0.302521291667056 
1049	 0.303354555484856 
1050	 0.304162177119151 
1051	 0.305054699139019 
1052	 0.305904188533233 
1053	 0.306709016841468 
1054	 0.307552014290454 
1055	 0.308295619773965 
1056	 0.309016087497696 
1057	 0.30977831916662 
1058	 0.310549163169171 
1059	 0.311281424594135 
1060	 0.31200852499723 
1061	 0.312779046834817 
1062	 0.313494136168272 
1063	 0.314219089164215 
1064	 0.315058663056937 
1065	 0.315874960439183 
1066	 0.316591117545996 
1067	 0.317310797547728 
1068	 0.318013628713881 
1069	 0.318681228664288 
1070	 0.319411454178473 
1071	 0.320255471117962 
1072	 0.320975911255363 
1073	 0.321650017193451 
1074	 0.322341569046108 
1075	 0.322984574930839 
1076	 0.323617291808225 
1077	 0.324320303312714 
1078	 0.324967400667649 
1079	 0.325627668587993 
1080	 0.326275387583448 
1081	 0.326852537474414 
1082	 0.327494587347095 
1083	 0.32811512387654 
1084	 0.328676046522767 
1085	 0.329310713894745 
1086	 0.330028488882545 
1087	 0.330647334173828 
1088	 0.331227420316516 
1089	 0.331848157051252 
1090	 0.332440194835081 
1091	 0.333018431130657 
1092	 0.333652087513616 
1093	 0.334290138221724 
1094	 0.33490183518733 
1095	 0.335501009030383 
1096	 0.336114909240677 
1097	 0.336713540622676 
1098	 0.337289566369031 
1099	 0.337831384659552 
1100	 0.338412370013323 
1101	 0.338981596001967 
1102	 0.33957332348155 
1103	 0.340222319909547 
1104	 0.340807436912034 
1105	 0.341373488733088 
1106	 0.34196079874251 
1107	 0.342508968636547 
1108	 0.343081444627956 
1109	 0.343674356984068 
1110	 0.344252696850464 
1111	 0.344840138557246 
1112	 0.345456946827277 
1113	 0.346023850505885 
1114	 0.346560718730645 
1115	 0.347117192137701 
1116	 0.347636178855852 
1117	 0.34819894009132 
1118	 0.348797405353023 
1119	 0.349393876301674 
1120	 0.349986421285212 
1121	 0.350567598498512 
1122	 0.351107613910101 
1123	 0.351660308508096 
1124	 0.352223442554122 
1125	 0.352782114693745 
1126	 0.353337648118841 
1127	 0.353912485364703 
1128	 0.35446878766856 
1129	 0.355011279638069 
1130	 0.355558778813068 
1131	 0.35610430601993 
1132	 0.356642547646733 
1133	 0.357169941587711 
1134	 0.357703926266099 
1135	 0.35824384875827 
1136	 0.358776208475171 
1137	 0.359310498665302 
1138	 0.359832663950346 
1139	 0.360345556180653 
1140	 0.360846670782509 
1141	 0.36134994186949 
1142	 0.361848212706355 
1143	 0.362343521141835 
1144	 0.362833415428252 
1145	 0.363324208104043 
1146	 0.363827409867543 
1147	 0.36429593813964 
1148	 0.364735585206571 
1149	 0.365193529148092 
1150	 0.365622333703061 
1151	 0.366092879999291 
1152	 0.366568224608438 
1153	 0.367028840143219 
1154	 0.367485696045832 
1155	 0.367909897068355 
1156	 0.368385101637273 
1157	 0.368904878877477 
1158	 0.369375511168812 
1159	 0.36985400204494 
1160	 0.37031847273159 
1161	 0.370728928499037 
1162	 0.371174429554959 
1163	 0.3716498249119 
1164	 0.37211088825437 
1165	 0.372561948223854 
1166	 0.373036638781301 
1167	 0.373486644031288 
1168	 0.373938478032491 
1169	 0.374385451136028 
1170	 0.374824472259707 
1171	 0.375265454562202 
1172	 0.375711462894579 
1173	 0.376144149135483 
1174	 0.376569326976925 
1175	 0.37699749969848 
1176	 0.377420060451699 
1177	 0.377841852951056 
1178	 0.378278713059689 
1179	 0.378690783395827 
1180	 0.37907263059698 
1181	 0.37947612975648 
1182	 0.37988321186662 
1183	 0.380274929335155 
1184	 0.380692358238316 
1185	 0.381140483236575 
1186	 0.381557069476678 
1187	 0.381974372771473 
1188	 0.382374777420282 
1189	 0.382752693117492 
1190	 0.383142512045883 
1191	 0.383532243085698 
1192	 0.383916268528573 
1193	 0.384287490235592 
1194	 0.384680459649616 
1195	 0.385099941741654 
1196	 0.385483905025507 
1197	 0.385853069665334 
1198	 0.386237800541468 
1199	 0.386618718675245 
1200	 0.386974778323808 
1201	 0.387345470426355 
1202	 0.38774124590288 
1203	 0.388115869446486 
1204	 0.388473731073669 
1205	 0.388832421137264 
1206	 0.389188663039322 
1207	 0.389552021704859 
1208	 0.38991940414762 
1209	 0.390270081491289 
1210	 0.390626971118465 
1211	 0.39097052833317 
1212	 0.391274931485978 
1213	 0.391606518445242 
1214	 0.391950466865289 
1215	 0.39229563664581 
1216	 0.392646863350179 
1217	 0.393022057290022 
1218	 0.393355789463882 
1219	 0.393674461117467 
1220	 0.393995843740644 
1221	 0.394292496415184 
1222	 0.394608390957144 
1223	 0.394938721953844 
1224	 0.395259756868944 
1225	 0.395586036973775 
1226	 0.395897624232643 
1227	 0.396210069524494 
1228	 0.396504831523211 
1229	 0.396764396842905 
1230	 0.397049690262855 
1231	 0.397340871967645 
1232	 0.397629033640108 
1233	 0.397921874842319 
1234	 0.398231093438341 
1235	 0.398531109570261 
1236	 0.398825431583959 
1237	 0.399120170857031 
1238	 0.399414664316734 
1239	 0.399717515156604 
1240	 0.4000156767158 
1241	 0.400324543508618 
1242	 0.400662158820971 
1243	 0.400971213764492 
1244	 0.40128275001914 
1245	 0.401570074388219 
1246	 0.401819037795626 
1247	 0.402087552740077 
1248	 0.402366689953791 
1249	 0.402612880001567 
1250	 0.402882338768339 
1251	 0.403166920923017 
1252	 0.403423485062811 
1253	 0.403665643756823 
1254	 0.403911052106153 
1255	 0.404141712856848 
1256	 0.404384615725708 
1257	 0.404642061129802 
1258	 0.404876906957414 
1259	 0.405093622066145 
1260	 0.405329206918737 
1261	 0.405564677604803 
1262	 0.405796146817633 
1263	 0.406033580171991 
1264	 0.406279468240341 
1265	 0.406529074344235 
1266	 0.406768068010017 
1267	 0.407017099450966 
1268	 0.407260862089023 
1269	 0.407492399549959 
1270	 0.407698674916905 
1271	 0.407928490530323 
1272	 0.408162462082065 
1273	 0.408400370036326 
1274	 0.408640734992676 
1275	 0.408889550514382 
1276	 0.409136179386633 
1277	 0.409403848713246 
1278	 0.409689763184557 
1279	 0.409974686435873 
1280	 0.410298122787858 
1281	 0.410580813366369 
1282	 0.41083707705486 
1283	 0.411099745438542 
1284	 0.411362663539185 
1285	 0.411581428616934 
1286	 0.411827794352426 
1287	 0.412089254391103 
1288	 0.412319122945184 
1289	 0.412530051296757 
1290	 0.412755295440542 
1291	 0.412974388475421 
1292	 0.413185783004233 
1293	 0.413408226997354 
1294	 0.413605906231105 
1295	 0.41379165624199 
1296	 0.413952213362181 
1297	 0.4140923012547 
1298	 0.414225816432996 
1299	 0.414337723234022 
1300	 0.414445116217327 
1301	 0.414541780998695 
1302	 0.414635350080701 
1303	 0.414721092133967 
1304	 0.414791713619189 
1305	 0.414865429202359 
1306	 0.414943182211033 
1307	 0.414987855525482 
1308	 0.415044678349629 
1309	 0.415084307940755 
1310	 0.415106510178181 
1311	 0.415127281074361 
1312	 0.415139978055101 
1313	 0.415153293009033 
1314	 0.415166372262827 
1315	 0.415174015274222 
1316	 0.415179186698477 
1317	 0.415177236683395 
1318	 0.415168160852431 
1319	 0.415153256030778 
1320	 0.415130050304806 
1321	 0.415113059209429 
1322	 0.415098979393842 
1323	 0.415072976440944 
1324	 0.415042386029513 
1325	 0.415006382504531 
1326	 0.414956833805118 
1327	 0.41488551491057 
1328	 0.414819473362576 
1329	 0.414781149683196 
1330	 0.414730168128261 
1331	 0.414687128169745 
1332	 0.414624024581196 
1333	 0.414553781593651 
1334	 0.414473679484191 
1335	 0.414366307841546 
1336	 0.414291052861586 
1337	 0.414228672193218 
1338	 0.414157885140566 
1339	 0.414111903586592 
1340	 0.414032967188372 
1341	 0.413931117101532 
1342	 0.41383190758284 
1343	 0.413715041904593 
1344	 0.413604532259631 
1345	 0.413506533667 
1346	 0.413411522172054 
1347	 0.413323291000666 
1348	 0.413230437255065 
1349	 0.413121960721156 
1350	 0.413005666845921 
1351	 0.412893047315 
1352	 0.412781900932484 
1353	 0.412649926567985 
1354	 0.412517091230999 
1355	 0.41236625260522 
1356	 0.412172938452507 
1357	 0.412025773402182 
1358	 0.411886295711971 
1359	 0.411755641405276 
1360	 0.41165548697461 
1361	 0.411539112634685 
1362	 0.411432486095363 
1363	 0.411307555160063 
1364	 0.411171820625174 
1365	 0.411032037753266 
1366	 0.410883409698025 
1367	 0.410715168827766 
1368	 0.410579203028473 
1369	 0.410425962036935 
1370	 0.41023674057533 
1371	 0.410040066057722 
1372	 0.409781272422455 
1373	 0.409498278051768 
1374	 0.409193984865119 
1375	 0.408878267580509 
1376	 0.408494070160585 
1377	 0.408093049509195 
1378	 0.40760122121052 
1379	 0.407027846019116 
1380	 0.40643444116163 
1381	 0.40577870747987 
1382	 0.405092259475708 
1383	 0.404399380406237 
1384	 0.403619413466059 
1385	 0.40281740319007 
1386	 0.40190805093123 
1387	 0.400903764098781 
1388	 0.39985116900375 
1389	 0.398736668071385 
1390	 0.397519937165098 
1391	 0.396269738275694 
1392	 0.394952272874559 
1393	 0.393529748103352 
1394	 0.392054927153874 
1395	 0.39048669523819 
1396	 0.388874540189 
1397	 0.38729098088417 
1398	 0.385677236445964 
1399	 0.384070220972261 
1400	 0.382490362655427 
1401	 0.380867047744281 
1402	 0.379186289160468 
1403	 0.37756986084055 
1404	 0.375936184441237 
1405	 0.374377089715182 
1406	 0.372882502151665 
1407	 0.371382315763522 
1408	 0.369888178907834 
1409	 0.368461757078647 
1410	 0.367008702145157 
1411	 0.365703568349228 
1412	 0.364469152538654 
1413	 0.363353759068225 
1414	 0.362411960821492 
1415	 0.361547980945964 
1416	 0.360815940469877 
1417	 0.360184460459216 
1418	 0.359563189328653 
1419	 0.359000304861107 
1420	 0.358474294591563 
1421	 0.357942323551197 
1422	 0.357418665991668 
1423	 0.356899234604817 
1424	 0.356330882150828 
1425	 0.355710455385844 
1426	 0.355132068852367 
1427	 0.354517772188002 
1428	 0.353972670277293 
1429	 0.35346550870952 
1430	 0.352990894079281 
1431	 0.352570257202905 
1432	 0.352128209614177 
1433	 0.351702676998037 
1434	 0.351288580681139 
1435	 0.350848450902111 
1436	 0.350468101283817 
1437	 0.3501281979865 
1438	 0.34980522845125 
1439	 0.349528331649018 
1440	 0.349251125557733 
1441	 0.348948113406443 
1442	 0.348652397974832 
1443	 0.348343600111071 
1444	 0.348034907625824 
1445	 0.347753403984152 
1446	 0.347487061252308 
1447	 0.347224357216682 
1448	 0.346938685300616 
1449	 0.346610627693202 
1450	 0.346258844786468 
1451	 0.345906547206401 
1452	 0.345514728401662 
1453	 0.345150961652208 
1454	 0.344817414747816 
1455	 0.344439503387127 
1456	 0.344048155789285 
1457	 0.343636115962338 
1458	 0.343173814637143 
1459	 0.342749842432198 
1460	 0.342318729439696 
1461	 0.341915697459115 
1462	 0.341534631354862 
1463	 0.341172890150819 
1464	 0.340804980732097 
1465	 0.340491256656782 
1466	 0.340190617902392 
1467	 0.339957718188148 
1468	 0.339750953932184 
1469	 0.339645397788194 
1470	 0.339617467941505 
1471	 0.339655690075456 
1472	 0.339772599206894 
1473	 0.339961140716666 
1474	 0.340182042976346 
1475	 0.34046432860934 
1476	 0.340802628399467 
1477	 0.341187890993821 
1478	 0.341646040438949 
1479	 0.34213685205971 
1480	 0.342675262081566 
1481	 0.34325992454941 
1482	 0.343844341287928 
1483	 0.344472724184801 
1484	 0.345059525875403 
1485	 0.345642184163717 
1486	 0.346221229207869 
1487	 0.346784619484117 
1488	 0.347340775328037 
1489	 0.347916554616294 
1490	 0.348442294393391 
1491	 0.3489408463287 
1492	 0.349420344246618 
1493	 0.349861269906132 
1494	 0.350303561755182 
1495	 0.350725779275132 
1496	 0.351144576914208 
1497	 0.351568858909895 
1498	 0.351966739655317 
1499	 0.352356325271006 
1500	 0.352715949055267 
1501	 0.353040335068228 
1502	 0.353363719213319 
1503	 0.353666573505357 
1504	 0.353957714307534 
1505	 0.354268530771494 
1506	 0.354575277830153 
1507	 0.354879836852027 
1508	 0.355185742375178 
1509	 0.355464309984394 
1510	 0.355717975330906 
1511	 0.355965312531631 
1512	 0.356195016866537 
1513	 0.356430392896394 
1514	 0.356696893894254 
1515	 0.356964701974761 
1516	 0.357242768868299 
1517	 0.357513177369807 
1518	 0.35779481236946 
1519	 0.358045778543674 
1520	 0.358282783375346 
1521	 0.358514133182294 
1522	 0.358716414843677 
1523	 0.358947854019543 
1524	 0.359188821997674 
1525	 0.359426727833523 
1526	 0.35967530199373 
1527	 0.359920360729911 
1528	 0.360176346348883 
1529	 0.36039510921577 
1530	 0.360603394425399 
1531	 0.360802107132502 
1532	 0.360955868542008 
1533	 0.361139171944355 
1534	 0.361340658965113 
1535	 0.361529591252565 
1536	 0.36171229265302 
1537	 0.361904988764608 
1538	 0.362091068529255 
1539	 0.3622878207176 
1540	 0.362506597637334 
1541	 0.362712852015659 
1542	 0.362920580618621 
1543	 0.3631248110502 
1544	 0.363335239905557 
1545	 0.363517175566422 
1546	 0.363685439585102 
1547	 0.363840176648922 
1548	 0.363973900775213 
1549	 0.364111723441663 
1550	 0.364256764338879 
1551	 0.3644094045561 
1552	 0.364555975004567 
1553	 0.364708608812751 
1554	 0.364892648465758 
1555	 0.365053398322158 
1556	 0.365204186127739 
1557	 0.365390870427913 
1558	 0.365584238202141 
1559	 0.365761271753232 
1560	 0.36593587166385 
1561	 0.366129865074939 
1562	 0.366292232569968 
1563	 0.366425986073364 
1564	 0.366576383018496 
1565	 0.366728777166396 
1566	 0.366865152021028 
1567	 0.366995746980385 
1568	 0.367117509676648 
1569	 0.36722075442069 
1570	 0.367338366337714 
1571	 0.367460131164462 
1572	 0.367574347994886 
1573	 0.367687991845475 
1574	 0.367804342045826 
1575	 0.367923028859491 
1576	 0.368027188031123 
1577	 0.368128818230249 
1578	 0.368229870435747 
1579	 0.368303425205203 
1580	 0.368406302901513 
1581	 0.36853300992115 
1582	 0.368646274057306 
1583	 0.368776129397506 
1584	 0.368882011921759 
1585	 0.368971063072331 
1586	 0.369057910183403 
1587	 0.369130146737916 
1588	 0.369207719992652 
1589	 0.369291844677627 
1590	 0.369359017540867 
1591	 0.369416795919987 
1592	 0.369471863126476 
1593	 0.369501968687824 
1594	 0.369550887119438 
1595	 0.369617239014949 
1596	 0.369673193662772 
1597	 0.3697384223442 
1598	 0.36979016073817 
1599	 0.369838283996156 
1600	 0.369862827841871 
1601	 0.369852908652326 
1602	 0.369867414065634 
1603	 0.36985159535148 
1604	 0.369880451216858 
1605	 0.369972445420802 
1606	 0.370035578602316 
1607	 0.370103320880141 
1608	 0.370179406206949 
1609	 0.370233952564063 
1610	 0.370259741967893 
1611	 0.370270337504995 
1612	 0.370278636756136 
1613	 0.370256658759037 
1614	 0.370228907646632 
1615	 0.370243458439465 
1616	 0.370247802388888 
1617	 0.370236296442264 
1618	 0.370239146857551 
1619	 0.37022601875865 
1620	 0.370221526689054 
1621	 0.370222211592037 
1622	 0.370244664954634 
1623	 0.370247693261263 
1624	 0.37024382912783 
1625	 0.37022961271186 
1626	 0.370211748330908 
1627	 0.370187495348008 
1628	 0.370146902793255 
1629	 0.370119914675479 
1630	 0.370094716218448 
1631	 0.370076140078975 
1632	 0.370061650313576 
1633	 0.370046952467539 
1634	 0.370040911637194 
1635	 0.370021171531793 
1636	 0.370004112908272 
1637	 0.369962524620375 
1638	 0.369898120945253 
1639	 0.369852858069101 
1640	 0.36979225563481 
1641	 0.369758035229109 
1642	 0.369748345558378 
1643	 0.369727017799922 
1644	 0.369708676393141 
1645	 0.369690773440019 
1646	 0.369681067832534 
1647	 0.3696503088954 
1648	 0.369618886012045 
1649	 0.369569527311434 
1650	 0.369498759649679 
1651	 0.369426080659896 
1652	 0.36933821651036 
1653	 0.369261504554914 
1654	 0.369179838266804 
1655	 0.369104587044696 
1656	 0.369048576922588 
1657	 0.368963000063978 
1658	 0.368865131979781 
1659	 0.368762301879076 
1660	 0.368647298126663 
1661	 0.368521088291196 
1662	 0.368370950280143 
1663	 0.368254076954922 
1664	 0.368132209910764 
1665	 0.368031634560911 
1666	 0.367957725795169 
1667	 0.367893932660304 
1668	 0.367856149874141 
1669	 0.36778574832403 
1670	 0.367738189171167 
1671	 0.367639924121413 
1672	 0.367487619972211 
1673	 0.367353227685146 
1674	 0.367182077395732 
1675	 0.367068325931196 
1676	 0.366989613571119 
1677	 0.366890862413648 
1678	 0.366828863297356 
1679	 0.366725445715731 
1680	 0.366569580166348 
1681	 0.366461150784951 
1682	 0.366364336196339 
1683	 0.3662710868193 
1684	 0.366203083339069 
1685	 0.366122914429809 
1686	 0.366049969693305 
1687	 0.365946895799011 
1688	 0.365837454393842 
1689	 0.365708936621939 
1690	 0.365528768779726 
1691	 0.365398049253104 
1692	 0.365291408847639 
1693	 0.365165719531112 
1694	 0.365052542239269 
1695	 0.364930299517505 
1696	 0.36477518193192 
1697	 0.364659040683217 
1698	 0.364581831316375 
1699	 0.364469925587226 
1700	 0.364377701844315 
1701	 0.364230826624224 
1702	 0.364029294506489 
1703	 0.363852780257233 
1704	 0.363649170491889 
1705	 0.363472137418732 
1706	 0.363318535468405 
1707	 0.363153965221844 
1708	 0.362994245164921 
1709	 0.362826848565432 
1710	 0.362666055664931 
1711	 0.362481639476059 
1712	 0.362281912528239 
1713	 0.362078325493604 
1714	 0.361851006033591 
1715	 0.361635868079387 
1716	 0.361428968397394 
1717	 0.361213365573901 
1718	 0.360990060770995 
1719	 0.360772639631984 
1720	 0.360546230087076 
1721	 0.360334177519037 
1722	 0.360129586290099 
1723	 0.359943565572959 
1724	 0.35979248582178 
1725	 0.359590178814865 
1726	 0.359382020104013 
1727	 0.359150950793277 
1728	 0.358865622290129 
1729	 0.358620729263467 
1730	 0.358397159743241 
1731	 0.35815636624085 
1732	 0.357916470526122 
1733	 0.357669010416606 
1734	 0.357406099462038 
1735	 0.357147349090642 
1736	 0.356887397630387 
1737	 0.356642169303785 
1738	 0.356404534492976 
1739	 0.356157113406052 
1740	 0.355918360190387 
1741	 0.355662211739845 
1742	 0.355394762966049 
1743	 0.355117976601544 
1744	 0.354836493701224 
1745	 0.354543007236143 
1746	 0.354222536628166 
1747	 0.35392960746672 
1748	 0.353647522751547 
1749	 0.353351474645119 
1750	 0.35309887940649 
1751	 0.352852929130212 
1752	 0.352574523792505 
1753	 0.352321417741148 
1754	 0.352037961796372 
1755	 0.351715969655996 
1756	 0.351409928915681 
1757	 0.351075716326744 
1758	 0.350741913397172 
1759	 0.350424452302302 
1760	 0.350115225646793 
1761	 0.349860194316279 
1762	 0.349604815788696 
1763	 0.349340124833997 
1764	 0.349067449236605 
1765	 0.348747913479306 
1766	 0.348416052667187 
1767	 0.348077531720651 
1768	 0.347740590518034 
1769	 0.34744657330957 
1770	 0.347181795173613 
1771	 0.346922864852567 
1772	 0.34667547923649 
1773	 0.346405703481162 
1774	 0.346136273753021 
1775	 0.345902790661849 
1776	 0.345653399764173 
1777	 0.345411974488211 
1778	 0.345187155659683 
1779	 0.344950494422855 
1780	 0.344739032728649 
1781	 0.344538146958373 
1782	 0.34431486594956 
1783	 0.344103443330467 
1784	 0.3439177488223 
1785	 0.34378343895837 
1786	 0.343597047774141 
1787	 0.343391457244273 
1788	 0.343193008546834 
1789	 0.342961059700102 
1790	 0.34275311456335 
1791	 0.342566326809405 
1792	 0.342375490631575 
1793	 0.342173894200276 
1794	 0.341995846764496 
1795	 0.341837650788213 
1796	 0.341676297196273 
1797	 0.341537426405021 
1798	 0.341370228136359 
1799	 0.341189695969081 
1800	 0.341015125075145 
1801	 0.339576312363796 
1802	 0.339655710003017 
1803	 0.339769585584508 
1804	 0.33992438729923 
1805	 0.34013099404899 
1806	 0.340306907904553 
1807	 0.340418234279389 
1808	 0.340487959725707 
1809	 0.340525258731675 
1810	 0.340508900061041 
1811	 0.340429722724527 
1812	 0.340356268843302 
1813	 0.340207396353502 
1814	 0.340030764858802 
1815	 0.339859914894155 
1816	 0.339640848394935 
1817	 0.339426210423988 
1818	 0.339205287268838 
1819	 0.338981714362704 
1820	 0.338745758279971 
1821	 0.338508633257745 
1822	 0.338254727935685 
1823	 0.337992090572005 
1824	 0.337719866570188 
1825	 0.337366048322873 
1826	 0.337001159511639 
1827	 0.336604866495307 
1828	 0.336146673211449 
1829	 0.335646053388706 
1830	 0.335105149421747 
1831	 0.334509724396442 
1832	 0.333864692633812 
1833	 0.33322123403438 
1834	 0.332525618549032 
1835	 0.331841649791898 
1836	 0.331174208588657 
1837	 0.330490275728404 
1838	 0.329797656411172 
1839	 0.329131735739508 
1840	 0.328472277477923 
1841	 0.327843758390044 
1842	 0.327229717689926 
1843	 0.326660147738102 
1844	 0.326130372055884 
1845	 0.325609099737718 
1846	 0.325173437338755 
1847	 0.324806899034702 
1848	 0.324488784218083 
1849	 0.324223271111931 
1850	 0.323984520042437 
1851	 0.323791401464107 
1852	 0.32360204484205 
1853	 0.323426362216544 
1854	 0.323260086715006 
1855	 0.323080137990846 
1856	 0.322870007716177 
1857	 0.322635448236322 
1858	 0.322398897302603 
1859	 0.322116186359518 
1860	 0.321813269491992 
1861	 0.321490441317094 
1862	 0.321151506794472 
1863	 0.32076673733956 
1864	 0.320357622351081 
1865	 0.319893127526686 
1866	 0.319378918032596 
1867	 0.318820166326589 
1868	 0.318150174140759 
1869	 0.317396836542667 
1870	 0.31660520193606 
1871	 0.315705122554281 
1872	 0.314707160602531 
1873	 0.31365858293857 
1874	 0.312518122232063 
1875	 0.3111813301356 
1876	 0.309757144939835 
1877	 0.308221662571233 
1878	 0.306503352705729 
1879	 0.304691964409372 
1880	 0.302745657760443 
1881	 0.300632701021851 
1882	 0.298417369100948 
1883	 0.296105159866368 
1884	 0.293622131431667 
1885	 0.291023839468002 
1886	 0.288300491297517 
1887	 0.285415400298414 
1888	 0.282468506869416 
1889	 0.279401272736726 
1890	 0.276250883597718 
1891	 0.273123059435261 
1892	 0.269930961062818 
1893	 0.266754331788084 
1894	 0.263557232284865 
1895	 0.260409151578447 
1896	 0.257212884295837 
1897	 0.254072156372621 
1898	 0.251006690215259 
1899	 0.247959137201788 
1900	 0.245020614707142 
1901	 0.242168156542581 
1902	 0.239445913825652 
1903	 0.236856244318971 
1904	 0.234361571675708 
1905	 0.231963026834464 
1906	 0.229709631554262 
1907	 0.227570169881155 
1908	 0.225532574898825 
1909	 0.223645080602641 
1910	 0.22187172249478 
1911	 0.220217904111331 
1912	 0.218663356560647 
1913	 0.217201750501722 
1914	 0.215862235497563 
1915	 0.214586647315705 
1916	 0.21339036549088 
1917	 0.212283639533183 
1918	 0.211264436852068 
1919	 0.210299848330077 
1920	 0.209409258556787 
1921	 0.208593995201109 
1922	 0.207831337614192 
1923	 0.207132270967349 
1924	 0.20650185290253 
1925	 0.20594333473857 
1926	 0.205440901681979 
1927	 0.204996463928547 
1928	 0.204625879804863 
1929	 0.204314270562355 
1930	 0.20403211624884 
1931	 0.203807888290744 
1932	 0.203626255434331 
1933	 0.203482762487453 
1934	 0.203389879767144 
1935	 0.203330422189326 
1936	 0.203307847980403 
1937	 0.203328993940681 
1938	 0.203388942264215 
1939	 0.203489290549 
1940	 0.203636124658511 
1941	 0.203813550854734 
1942	 0.204035262964529 
1943	 0.204280349431052 
1944	 0.204540751499314 
1945	 0.204844154149273 
1946	 0.205129395929221 
1947	 0.205405486144469 
1948	 0.205714897404472 
1949	 0.20603650915024 
1950	 0.206360622431382 
1951	 0.206685059234141 
1952	 0.207064373618982 
1953	 0.20744377815589 
1954	 0.207852295976387 
1955	 0.208312534710504 
1956	 0.208786547618415 
1957	 0.209250679683815 
1958	 0.209724319144911 
1959	 0.210197280740964 
1960	 0.210666314198103 
1961	 0.211137412412132 
1962	 0.211609052895953 
1963	 0.2120970637134 
1964	 0.212575159687401 
1965	 0.213087571126094 
1966	 0.213638923728656 
1967	 0.214174206099534 
1968	 0.214717907383124 
1969	 0.215277591674214 
1970	 0.215829863979683 
1971	 0.216378492949192 
1972	 0.216933007610977 
1973	 0.217494376708395 
1974	 0.21805494166249 
1975	 0.218611431746581 
1976	 0.219177320879188 
1977	 0.219754506359664 
1978	 0.220329304079111 
1979	 0.220891431422636 
1980	 0.221448910383512 
1981	 0.222007116848678 
1982	 0.222542622650584 
1983	 0.223105340845653 
1984	 0.223683503375456 
1985	 0.224261206744897 
1986	 0.224861337387002 
1987	 0.225439958726083 
1988	 0.226009378408117 
1989	 0.226587352161843 
1990	 0.227143774540652 
1991	 0.227676385092914 
1992	 0.228232251264898 
1993	 0.228787897042704 
1994	 0.229353277633556 
1995	 0.229929880322564 
1996	 0.230510136998189 
1997	 0.231105276591531 
1998	 0.231684365936217 
1999	 0.232265665898434 
2000	 0.232840646390025 
2001	 0.233409893031915 
2002	 0.233961963654454 
2003	 0.234528308072788 
2004	 0.235087283843112 
2005	 0.235643945331357 
2006	 0.23619846898478 
2007	 0.236750434697419 
2008	 0.237292589695069 
2009	 0.237846129261293 
2010	 0.238409627194683 
2011	 0.23896193026802 
2012	 0.239514269741251 
2013	 0.24006353220892 
2014	 0.240609401303835 
2015	 0.241146673631791 
2016	 0.241681798744973 
2017	 0.242206072466288 
2018	 0.242722697599036 
2019	 0.243218844662083 
2020	 0.243725742929368 
2021	 0.244237790077278 
2022	 0.244738024802346 
2023	 0.24522306879252 
2024	 0.245728347289098 
2025	 0.246240071659489 
2026	 0.246744065823818 
2027	 0.247272274489496 
2028	 0.247775758954466 
2029	 0.248259746505337 
2030	 0.248716377983066 
2031	 0.249188697977567 
2032	 0.2496627408696 
2033	 0.250112213209122 
2034	 0.250564614052165 
2035	 0.250987098650311 
2036	 0.251379161614795 
2037	 0.251760663701173 
2038	 0.252109457758361 
2039	 0.252475361644928 
2040	 0.252829724576565 
2041	 0.253192484528826 
2042	 0.253554440795148 
2043	 0.253923705118106 
2044	 0.25428823561174 
2045	 0.25463324060897 
2046	 0.255009765172623 
2047	 0.25541565991647 
2048	 0.255797134563982 
2049	 0.256205823522676 
2050	 0.256564853028676 
2051	 0.256874807850274 
2052	 0.257203800916715 
2053	 0.257520458017623 
2054	 0.257829720366427 
2055	 0.258133288205993 
2056	 0.258449245429083 
2057	 0.258759283870127 
2058	 0.259050904429274 
2059	 0.259364704876118 
2060	 0.259704641393206 
2061	 0.26001606906188 
2062	 0.260320114361838 
2063	 0.260620262749612 
2064	 0.260917661615067 
2065	 0.261197818891811 
2066	 0.261462681245572 
2067	 0.261732281404746 
2068	 0.261998343147217 
2069	 0.262241691340631 
2070	 0.262495848292931 
2071	 0.262757304770461 
2072	 0.263008134296234 
2073	 0.26325005667138 
2074	 0.263494393360207 
2075	 0.263744414363447 
2076	 0.263980804024294 
2077	 0.264208729538937 
2078	 0.264432749236981 
2079	 0.264640212912443 
2080	 0.26485835277642 
2081	 0.265084828549409 
2082	 0.265300875398581 
2083	 0.265506857597112 
2084	 0.265733202732219 
2085	 0.265938165653444 
2086	 0.266127225682051 
2087	 0.266329087472755 
2088	 0.266537808945782 
2089	 0.26672896577245 
2090	 0.266924601615244 
2091	 0.267095088426307 
2092	 0.267238428210658 
2093	 0.267389784992096 
2094	 0.267513993157405 
2095	 0.267668415678798 
2096	 0.267823380729913 
2097	 0.268004103698602 
2098	 0.268210207082178 
2099	 0.268437468958842 
2100	 0.268644632573938 
2101	 0.268869975537577 
2102	 0.269064362024882 
2103	 0.269238094827796 
2104	 0.269411141449849 
2105	 0.26956868428805 
2106	 0.269737214529116 
2107	 0.269899240477889 
2108	 0.270070188532971 
2109	 0.270236874282471 
2110	 0.270424383155612 
2111	 0.270626837387507 
2112	 0.270831631105546 
2113	 0.271047910366302 
2114	 0.271284575653673 
2115	 0.271496439040424 
2116	 0.271701691509383 
2117	 0.271901818796434 
2118	 0.272083464258336 
2119	 0.272290505550655 
2120	 0.272524890562299 
2121	 0.272714333813087 
2122	 0.272888227836523 
2123	 0.273071877428607 
2124	 0.273249503977723 
2125	 0.273394472772813 
2126	 0.273544706236846 
2127	 0.273671862434214 
2128	 0.27373725669114 
2129	 0.273822181496034 
2130	 0.273912521563654 
2131	 0.274010368456267 
2132	 0.274083222097206 
2133	 0.274147839366751 
2134	 0.274197972795969 
2135	 0.274234492513342 
2136	 0.274257048483569 
2137	 0.274279255160846 
2138	 0.274261760229251 
2139	 0.274210167073284 
2140	 0.274157404058742 
2141	 0.274073177192641 
2142	 0.27399267130839 
2143	 0.273922395619132 
2144	 0.273823652888039 
2145	 0.273712911161884 
2146	 0.273580022431637 
2147	 0.273413153619955 
2148	 0.273251088332115 
2149	 0.273066249133111 
2150	 0.272860311342842 
2151	 0.272651783655884 
2152	 0.272425554425014 
2153	 0.272205169701421 
2154	 0.271988289577356 
2155	 0.27174723184863 
2156	 0.271510844429141 
2157	 0.27124033670334 
2158	 0.270936930515021 
2159	 0.270628127140992 
2160	 0.270298349784559 
2161	 0.269959035755431 
2162	 0.269587949461916 
2163	 0.269239923132466 
2164	 0.268891785284939 
2165	 0.268550887980388 
2166	 0.268205386645003 
2167	 0.26787017830397 
2168	 0.267531940543083 
2169	 0.267189876973951 
2170	 0.266842283225313 
2171	 0.266508523808118 
2172	 0.266150166861151 
2173	 0.265765877923005 
2174	 0.265389351406467 
2175	 0.265022881593636 
2176	 0.26462664554338 
2177	 0.264226283695319 
2178	 0.263797987663801 
2179	 0.263321605549016 
2180	 0.262859781027965 
2181	 0.262386978717304 
2182	 0.261916233114254 
2183	 0.261432277491719 
2184	 0.260975000978201 
2185	 0.260521969497483 
2186	 0.260077068361635 
2187	 0.259619876987558 
2188	 0.259176050112189 
2189	 0.258713680829453 
2190	 0.258225569807745 
2191	 0.257756113744499 
2192	 0.25727275766657 
2193	 0.256831683170289 
2194	 0.256404790228795 
2195	 0.255997133399047 
2196	 0.255631495700756 
2197	 0.255262176757547 
2198	 0.254902676227138 
2199	 0.254550200962795 
2200	 0.254193003915072 
2201	 0.253864828419072 
2202	 0.253557422327802 
2203	 0.253254329545192 
2204	 0.252982053366283 
2205	 0.252720522103007 
2206	 0.252528701250756 
2207	 0.252378381832686 
2208	 0.252252174685579 
2209	 0.252198518771506 
2210	 0.252128610992694 
2211	 0.252062037923217 
2212	 0.252013834959166 
2213	 0.251998347030818 
2214	 0.251970635322188 
2215	 0.251948119258451 
2216	 0.251929901707236 
2217	 0.251932050187433 
2218	 0.251898060790643 
2219	 0.251861852499939 
2220	 0.251804797841542 
2221	 0.251721308718862 
2222	 0.251620715619971 
2223	 0.251506085032074 
2224	 0.251366730889035 
2225	 0.251203070590359 
2226	 0.251011115044563 
2227	 0.25079679235128 
2228	 0.250548597019089 
2229	 0.250308063202817 
2230	 0.250055513713208 
2231	 0.249778727486813 
2232	 0.249508108619364 
2233	 0.249191747268028 
2234	 0.24882101527853 
2235	 0.248460465897933 
2236	 0.248111857704768 
2237	 0.247697840627844 
2238	 0.247250503364089 
2239	 0.24677959953492 
2240	 0.246244034060047 
2241	 0.24571062965159 
2242	 0.245182472784764 
2243	 0.244615783529892 
2244	 0.244040389523675 
2245	 0.243401886048389 
2246	 0.242727947196694 
2247	 0.242040154033024 
2248	 0.241328721040996 
2249	 0.240579787064288 
2250	 0.239836149247413 
2251	 0.239060120507448 
2252	 0.238326906789517 
2253	 0.237575727071015 
2254	 0.236887744048766 
2255	 0.236242125644183 
2256	 0.23561827619923 
2257	 0.235021085901994 
2258	 0.234471012479042 
2259	 0.233917434418902 
2260	 0.233476546410174 
2261	 0.233112352406306 
2262	 0.232801326576298 
2263	 0.232576236602403 
2264	 0.232404420538344 
2265	 0.232290630098895 
2266	 0.232230087022709 
2267	 0.232246286262569 
2268	 0.232300111139161 
2269	 0.232391414686001 
2270	 0.232541273065346 
2271	 0.232761153353882 
2272	 0.233052621002687 
2273	 0.233415797175319 
2274	 0.233782841177347 
2275	 0.234153538274588 
2276	 0.234533857399725 
2277	 0.234957842871609 
2278	 0.235398724153837 
2279	 0.235873341367042 
2280	 0.236418925068355 
2281	 0.236915219985515 
2282	 0.237409120367417 
2283	 0.237896234983583 
2284	 0.238372488639491 
2285	 0.238846632922619 
2286	 0.239352935364779 
2287	 0.239789629185705 
2288	 0.240177498297204 
2289	 0.240566734634123 
2290	 0.240927586642083 
2291	 0.241264991887961 
2292	 0.241605876466437 
2293	 0.2419031846308 
2294	 0.242145861594697 
2295	 0.242370455597523 
2296	 0.242539083133899 
2297	 0.242743407268864 
2298	 0.242970311052562 
2299	 0.243169149236024 
2300	 0.243361488769404 
2301	 0.243558852299213 
2302	 0.243653267231305 
2303	 0.243721782840305 
2304	 0.243828033044294 
2305	 0.243897224583983 
2306	 0.244022394329541 
2307	 0.244193923840992 
2308	 0.244350952392357 
2309	 0.244547301615707 
2310	 0.24468311026975 
2311	 0.2447910201923 
2312	 0.244893646043732 
2313	 0.24497265095559 
2314	 0.24502727894696 
2315	 0.245071622883671 
2316	 0.245099726944961 
2317	 0.245073965275167 
2318	 0.245079416682897 
2319	 0.245107195586136 
2320	 0.245116441047327 
2321	 0.245142536339583 
2322	 0.24511646070414 
2323	 0.245035739410261 
2324	 0.244970809805567 
2325	 0.244904378970585 
2326	 0.244811245524578 
2327	 0.244709461107063 
2328	 0.244602235847638 
2329	 0.244471638971309 
2330	 0.244288871847128 
2331	 0.244149776171265 
2332	 0.244022453013408 
2333	 0.243832894047104 
2334	 0.243661465546131 
2335	 0.243532636532551 
2336	 0.243367640899953 
2337	 0.243208821055196 
2338	 0.243039537436308 
2339	 0.242795286025551 
2340	 0.242532764056296 
2341	 0.242284474535709 
2342	 0.24201049403671 
2343	 0.241696075027856 
2344	 0.241378831861006 
2345	 0.241057644700971 
2346	 0.240710154605069 
2347	 0.240386125389532 
2348	 0.240079910205242 
2349	 0.239743239877371 
2350	 0.239406383362164 
2351	 0.239036798435141 
2352	 0.238639420193845 
2353	 0.238245011819336 
2354	 0.237835542477191 
2355	 0.23740261170145 
2356	 0.236955063926013 
2357	 0.236503733922025 
2358	 0.23600226537685 
2359	 0.235565692366249 
2360	 0.235201452721954 
2361	 0.234750572793918 
2362	 0.234293021584804 
2363	 0.23380873615273 
2364	 0.233203931444138 
2365	 0.232699325321888 
2366	 0.232285736863493 
2367	 0.231804717145789 
2368	 0.231357935421853 
2369	 0.230849472405987 
2370	 0.230282788078117 
2371	 0.229661987452961 
2372	 0.229080402437708 
2373	 0.228458863991346 
2374	 0.227842094422181 
2375	 0.227297589294728 
2376	 0.226756140728751 
2377	 0.226233253636144 
2378	 0.225724235978666 
2379	 0.225114377659317 
2380	 0.224455115840969 
2381	 0.223823425707824 
2382	 0.223168902413423 
2383	 0.222542148139921 
2384	 0.221878903918414 
2385	 0.221157897884666 
2386	 0.220406650376612 
2387	 0.219668147153902 
2388	 0.219075416573978 
2389	 0.218468165622333 
2390	 0.217815337477572 
2391	 0.217192768911 
2392	 0.216531246932402 
2393	 0.215832751143645 
2394	 0.215181637856747 
2395	 0.21458647504163 
2396	 0.213972284803495 
2397	 0.213410909779814 
2398	 0.212883775346499 
2399	 0.212296313103795 
2400	 0.211649475102167 
2401	 0.210981911675983 
2402	 0.210293381241755 
2403	 0.209633104771312 
2404	 0.209037898850541 
2405	 0.208419023164884 
2406	 0.207798019902874 
2407	 0.207157769556401 
2408	 0.20646297064804 
2409	 0.205753273988631 
2410	 0.205099260254003 
2411	 0.204534900703495 
2412	 0.204043835908429 
2413	 0.203558723390301 
2414	 0.202995833312121 
2415	 0.202471129000366 
2416	 0.20198968814098 
2417	 0.201542273433067 
2418	 0.201046383782506 
2419	 0.200582510371787 
2420	 0.200061815571485 
2421	 0.199453484369333 
2422	 0.198886052854227 
2423	 0.198374631792211 
2424	 0.197815617382107 
2425	 0.197143201740481 
2426	 0.196616767387586 
2427	 0.196212328035459 
2428	 0.195663764597246 
2429	 0.195184911734717 
2430	 0.194579078611209 
2431	 0.193684316377761 
2432	 0.193112226656094 
2433	 0.19266934400276 
2434	 0.192209694688339 
2435	 0.191973991672228 
2436	 0.191512313275457 
2437	 0.190922748511402 
2438	 0.190345149053264 
2439	 0.189630035729148 
2440	 0.189055654844909 
2441	 0.188577628756505 
2442	 0.188045412110206 
2443	 0.187557403644999 
2444	 0.187087695182976 
2445	 0.186570188570767 
2446	 0.185994998264435 
2447	 0.18547713822426 
2448	 0.184891134263397 
2449	 0.184207594593276 
2450	 0.183658745860048 
2451	 0.183086066813733 
2452	 0.182543305226215 
2453	 0.182039698663087 
2454	 0.181539976834036 
2455	 0.181152289482634 
2456	 0.1807176387705 
2457	 0.180284947894116 
2458	 0.179774644629226 
2459	 0.179156267287243 
2460	 0.178660500016837 
2461	 0.1781536890151 
2462	 0.177799854631003 
2463	 0.177629295768332 
2464	 0.17731048546799 
2465	 0.177001097763299 
2466	 0.176643838719609 
2467	 0.176229276228424 
2468	 0.175752723182935 
2469	 0.175210480397786 
2470	 0.174632065029816 
2471	 0.174127746168474 
2472	 0.173836376834487 
2473	 0.173621762127386 
2474	 0.173344615326393 
2475	 0.173166252122584 
2476	 0.172874794889759 
2477	 0.172433862171822 
2478	 0.17201320826936 
2479	 0.171555690547191 
2480	 0.17126583345949 
2481	 0.170863431595381 
2482	 0.170465804252304 
2483	 0.170006405976348 
2484	 0.169353594535257 
2485	 0.168988996778415 
2486	 0.168672655229954 
2487	 0.168442521933861 
2488	 0.168300366840267 
2489	 0.167941208283372 
2490	 0.167571885698873 
2491	 0.16716638983265 
2492	 0.166600334446922 
2493	 0.166060066184633 
2494	 0.165391005804076 
2495	 0.164664529457481 
2496	 0.164144290646065 
2497	 0.163851365169761 
2498	 0.163749406869297 
2499	 0.163487916514034 
2500	 0.163102101242423 
