Wavelength	mm2100001.asd
350	 5.26500798953889E-02 
351	 5.84539854590278E-02 
352	 5.74847774581875E-02 
353	 4.65777504416026E-02 
354	 5.17212430397706E-02 
355	 5.53887298568145E-02 
356	 5.45854919623269E-02 
357	 0.051384968063776 
358	 5.02186185214864E-02 
359	 5.23103100009623E-02 
360	 5.41307396628049E-02 
361	 0.050082973331715 
362	 4.39434442138186E-02 
363	 4.51513192440533E-02 
364	 5.30669618158939E-02 
365	 5.11312195354078E-02 
366	 4.84344358820619E-02 
367	 4.81930783551946E-02 
368	 5.08889010963907E-02 
369	 5.36902656492105E-02 
370	 5.25488646726065E-02 
371	 4.96446660524605E-02 
372	 0.050833206621663 
373	 5.20789469274739E-02 
374	 5.34804979725304E-02 
375	 5.52483617983279E-02 
376	 5.69864601372237E-02 
377	 5.66631348168347E-02 
378	 5.64885251739072E-02 
379	 5.82235515088819E-02 
380	 5.60343214391392E-02 
381	 5.29572586607019E-02 
382	 5.28320776978487E-02 
383	 0.058722816309025 
384	 6.09585573291334E-02 
385	 0.060635942062453 
386	 6.02157743035099E-02 
387	 0.061469601398103 
388	 6.30230962435773E-02 
389	 6.27073412459827E-02 
390	 5.98572380494469E-02 
391	 6.19108270194508E-02 
392	 6.29029673380039E-02 
393	 6.26333389969812E-02 
394	 6.57781311337422E-02 
395	 6.66479516146789E-02 
396	 6.64513633286682E-02 
397	 6.69829177538485E-02 
398	 6.90168627261963E-02 
399	 6.96901438735307E-02 
400	 7.03623793757293E-02 
401	 7.28946644131568E-02 
402	 7.25770694973161E-02 
403	 7.17244082400892E-02 
404	 7.21550894966564E-02 
405	 0.074583340623622 
406	 7.61284302607084E-02 
407	 7.78435662768707E-02 
408	 7.99154600474357E-02 
409	 7.78429682799917E-02 
410	 7.70419363455806E-02 
411	 7.81002871358446E-02 
412	 7.91718807357063E-02 
413	 7.91158359112182E-02 
414	 7.92816423673795E-02 
415	 7.99517129049837E-02 
416	 7.97609605994967E-02 
417	 7.98531672193978E-02 
418	 8.03684713050705E-02 
419	 8.09609071354586E-02 
420	 8.05865194512185E-02 
421	 7.98133935381582E-02 
422	 7.93156743794394E-02 
423	 7.96568023965647E-02 
424	 7.98033964354513E-02 
425	 7.92842354226818E-02 
426	 7.83898935010491E-02 
427	 0.078656067453319 
428	 7.84209632517677E-02 
429	 7.76982229465529E-02 
430	 7.70877332693458E-02 
431	 7.72697667389933E-02 
432	 7.68147197441208E-02 
433	 7.58230282282946E-02 
434	 7.58669453131631E-02 
435	 7.61303921281953E-02 
436	 0.076186663909658 
437	 0.075931715887438 
438	 7.58339214179033E-02 
439	 7.61467017018441E-02 
440	 7.67002261274554E-02 
441	 7.71498441384281E-02 
442	 7.77382906723779E-02 
443	 0.078491531626146 
444	 7.92322777035386E-02 
445	 7.95001689376367E-02 
446	 7.98957610431334E-02 
447	 8.04407060771951E-02 
448	 8.09800486697609E-02 
449	 8.13642844690656E-02 
450	 8.19968746472838E-02 
451	 8.27533450702487E-02 
452	 8.30958028060689E-02 
453	 8.35657775968222E-02 
454	 8.39923545162661E-02 
455	 0.084262527660482 
456	 8.47314250400925E-02 
457	 8.49985775258748E-02 
458	 0.085167825108441 
459	 8.55425312473201E-02 
460	 8.60967701882611E-02 
461	 8.62968358420722E-02 
462	 8.61756388607591E-02 
463	 8.66073553798011E-02 
464	 8.68534711727895E-02 
465	 8.69181342332687E-02 
466	 8.70066266285502E-02 
467	 8.72806018214642E-02 
468	 8.74298092541329E-02 
469	 8.74329137619375E-02 
470	 8.75119457779572E-02 
471	 8.77431623292143E-02 
472	 8.78676658780753E-02 
473	 8.77845942109869E-02 
474	 8.78968350444192E-02 
475	 8.80005664002648E-02 
476	 8.80869619127955E-02 
477	 8.82156420756482E-02 
478	 8.83298039841172E-02 
479	 8.84774861290945E-02 
480	 8.86211313218477E-02 
481	 8.85874699771433E-02 
482	 8.88211350886769E-02 
483	 8.90707206546935E-02 
484	 8.90299087435273E-02 
485	 8.90010551441649E-02 
486	 8.89806819464063E-02 
487	 8.89466860482283E-02 
488	 0.088883203559596 
489	 8.91189765207829E-02 
490	 0.08929579334114 
491	 8.92227061693166E-02 
492	 8.94364020986739E-02 
493	 8.94440184971167E-02 
494	 8.93812994067194E-02 
495	 8.96125012220099E-02 
496	 8.98502822094548E-02 
497	 0.08990882018651 
498	 8.97981137557919E-02 
499	 8.97869266562239E-02 
500	 8.99178602772333E-02 
501	 8.99086855620672E-02 
502	 8.95985790110517E-02 
503	 8.98094157828115E-02 
504	 0.090003789027344 
505	 9.00630937123839E-02 
506	 9.02751465079771E-02 
507	 9.02885536180344E-02 
508	 9.02804266081556E-02 
509	 9.03937671535425E-02 
510	 9.04156736797986E-02 
511	 0.09031402680233 
512	 9.02603382187391E-02 
513	 9.04822726404757E-02 
514	 9.06442380718229E-02 
515	 9.06752660583321E-02 
516	 9.06470924464033E-02 
517	 9.08258391481876E-02 
518	 9.08560390169003E-02 
519	 9.08629713972012E-02 
520	 9.10372840974676E-02 
521	 9.10373851774101E-02 
522	 9.10357653767965E-02 
523	 9.10981338501353E-02 
524	 9.11494479885283E-02 
525	 9.11865623599397E-02 
526	 9.11857243195682E-02 
527	 9.11584902359708E-02 
528	 9.12255075348388E-02 
529	 9.13671288887689E-02 
530	 9.15053163069542E-02 
531	 9.15400810108725E-02 
532	 9.15809859317208E-02 
533	 9.17205627561831E-02 
534	 9.19330400367274E-02 
535	 9.19543759233943E-02 
536	 9.19462929543471E-02 
537	 9.19861283843324E-02 
538	 9.21065681660257E-02 
539	 9.22550566177134E-02 
540	 9.23580771327757E-02 
541	 9.24138816357077E-02 
542	 9.25128321944348E-02 
543	 9.26550325320602E-02 
544	 0.092801261199739 
545	 9.29313790087051E-02 
546	 0.093174847276795 
547	 9.33060714784437E-02 
548	 9.33564089017037E-02 
549	 9.35685750575668E-02 
550	 9.37650558588425E-02 
551	 9.39697103688711E-02 
552	 9.42124059034973E-02 
553	 9.44545113712774E-02 
554	 9.46125577707787E-02 
555	 9.47945019723609E-02 
556	 9.51739196382333E-02 
557	 9.55106678212198E-02 
558	 9.58273234949627E-02 
559	 9.61732774308545E-02 
560	 0.096596585978515 
561	 9.69625089523722E-02 
562	 9.73408034310672E-02 
563	 9.78397480499299E-02 
564	 9.83623090341026E-02 
565	 9.88460501279501E-02 
566	 9.92638085637581E-02 
567	 9.96276592126868E-02 
568	 0.100131599134628 
569	 0.100730685803215 
570	 0.101349381858332 
571	 0.102036072116788 
572	 0.102756397342933 
573	 0.103483211588439 
574	 0.104197960477273 
575	 0.104900961750705 
576	 0.105725333160907 
577	 0.106678235319187 
578	 0.107436519313276 
579	 0.10826916633057 
580	 0.109148975657422 
581	 0.10994538995777 
582	 0.110718357705004 
583	 0.111543309421857 
584	 0.112467629394907 
585	 0.113505706188086 
586	 0.114552804312506 
587	 0.115659425398384 
588	 0.116873333110686 
589	 0.118025128405807 
590	 0.119194050641016 
591	 0.120377521179007 
592	 0.121497612122849 
593	 0.122563273453243 
594	 0.123609193359637 
595	 0.124630797965941 
596	 0.125491376962889 
597	 0.126383019431072 
598	 0.12733526582046 
599	 0.128293239317488 
600	 0.129277541128708 
601	 0.130303739319464 
602	 0.131334319258807 
603	 0.132239759700722 
604	 0.133122465007372 
605	 0.134025425579581 
606	 0.134954829964416 
607	 0.135830693780065 
608	 0.136688543601097 
609	 0.137525312366169 
610	 0.138288834916529 
611	 0.139010349731049 
612	 0.139652368265286 
613	 0.140184710464386 
614	 0.140645599514551 
615	 0.141147771336845 
616	 0.141679194616158 
617	 0.142144046003977 
618	 0.142637833304018 
619	 0.143069060875558 
620	 0.143411649389056 
621	 0.143844608512689 
622	 0.144188992972848 
623	 0.144476915142987 
624	 0.144806911790635 
625	 0.145099411286458 
626	 0.145416776125147 
627	 0.145760655560771 
628	 0.146039748768431 
629	 0.146293572017609 
630	 0.146553320626747 
631	 0.146827572544704 
632	 0.147033478225407 
633	 0.147269055914762 
634	 0.147545089303846 
635	 0.147799803663714 
636	 0.148056544693086 
637	 0.1483129516436 
638	 0.148554995259494 
639	 0.148735825187406 
640	 0.149005137605764 
641	 0.149344903123931 
642	 0.149653176673629 
643	 0.149875104316802 
644	 0.150119091040503 
645	 0.150415308678886 
646	 0.150656116425206 
647	 0.150910620674097 
648	 0.151211398787064 
649	 0.151558092520802 
650	 0.151867326666408 
651	 0.152128991579169 
652	 0.15240604870939 
653	 0.152808619476038 
654	 0.153152123746395 
655	 0.153450391463361 
656	 0.153762831703449 
657	 0.154166632189063 
658	 0.154581702428785 
659	 0.154971312403717 
660	 0.155325736526263 
661	 0.155664212334758 
662	 0.156076150412186 
663	 0.156551513607259 
664	 0.156927176137906 
665	 0.157393333834661 
666	 0.157876777525284 
667	 0.158282796702629 
668	 0.158746197399528 
669	 0.159289105683105 
670	 0.159852028018025 
671	 0.160317926130174 
672	 0.160744573034006 
673	 0.161273548394238 
674	 0.161929922844609 
675	 0.1624245573517 
676	 0.162998284457899 
677	 0.16362126063069 
678	 0.164169828174647 
679	 0.164728680981516 
680	 0.165342164239157 
681	 0.165997423679187 
682	 0.166612482118154 
683	 0.1672997763346 
684	 0.167972051553215 
685	 0.168568271478604 
686	 0.169323927108077 
687	 0.170028606494662 
688	 0.170670349722302 
689	 0.171378538530689 
690	 0.172131740651278 
691	 0.172883742574536 
692	 0.173617045726943 
693	 0.174386012474604 
694	 0.175113832452207 
695	 0.175864147706582 
696	 0.17670928166571 
697	 0.177468361690618 
698	 0.178233607916833 
699	 0.17903975380504 
700	 0.17984385241631 
701	 0.180672525058822 
702	 0.181508896189837 
703	 0.182329530797528 
704	 0.183115518978828 
705	 0.183905172850926 
706	 0.18471846235817 
707	 0.185558284986466 
708	 0.18639211192374 
709	 0.187234537485742 
710	 0.188079118263552 
711	 0.18888435990843 
712	 0.189675314273744 
713	 0.19043170883091 
714	 0.191164647478442 
715	 0.192061366757172 
716	 0.192829905191089 
717	 0.193476517263863 
718	 0.194222273912219 
719	 0.194988892476155 
720	 0.195724057029185 
721	 0.196394240172814 
722	 0.196991492943839 
723	 0.197655507348006 
724	 0.198314372253344 
725	 0.198862702343418 
726	 0.199434596199758 
727	 0.199991681529965 
728	 0.200516060340587 
729	 0.201015605656056 
730	 0.201478594325957 
731	 0.201890997658649 
732	 0.202262497454187 
733	 0.202659531112006 
734	 0.203053423298651 
735	 0.203353567673551 
736	 0.203494685399416 
737	 0.203723894423033 
738	 0.203957932725405 
739	 0.204134800177774 
740	 0.204246548119027 
741	 0.204373858933613 
742	 0.20446780288014 
743	 0.204480127578975 
744	 0.204444096689878 
745	 0.204347114553916 
746	 0.204224891621634 
747	 0.204124819189391 
748	 0.204012353797489 
749	 0.203831421774683 
750	 0.203609556091075 
751	 0.20347146955344 
752	 0.203206540655309 
753	 0.202830779966978 
754	 0.202428855755743 
755	 0.202117429402915 
756	 0.201791548188191 
757	 0.201400828266676 
758	 0.200938918950019 
759	 0.200484985497683 
760	 0.200006474508211 
761	 0.199489665364693 
762	 0.198958270910587 
763	 0.198460103332286 
764	 0.197951326350263 
765	 0.197384917730618 
766	 0.19675795909955 
767	 0.196211125963472 
768	 0.19570286189282 
769	 0.195107684115575 
770	 0.194452551322221 
771	 0.193813139294815 
772	 0.193189626360069 
773	 0.192490187259473 
774	 0.191836567842307 
775	 0.191201728203796 
776	 0.190541798352602 
777	 0.189857547783605 
778	 0.189214068181615 
779	 0.188582692101438 
780	 0.187901738684072 
781	 0.187206487532714 
782	 0.186541625454442 
783	 0.18591103423276 
784	 0.185274982415024 
785	 0.184567362367501 
786	 0.183889167066677 
787	 0.183291235812238 
788	 0.18261806811804 
789	 0.182021138737648 
790	 0.181421446384682 
791	 0.180700536328028 
792	 0.179998506608157 
793	 0.179378683300017 
794	 0.178810555023901 
795	 0.178189807518788 
796	 0.177513583831147 
797	 0.176905898855742 
798	 0.176395534981211 
799	 0.175804102519524 
800	 0.175219864854657 
801	 0.1746480381329 
802	 0.17407262823905 
803	 0.173485455748433 
804	 0.172931057261568 
805	 0.172408481872311 
806	 0.171885641192208 
807	 0.171340593084505 
808	 0.170808238089672 
809	 0.170286103645891 
810	 0.169716114793774 
811	 0.169202232113283 
812	 0.168698531023376 
813	 0.168175505197241 
814	 0.167745976146936 
815	 0.167340222904268 
816	 0.166892520540432 
817	 0.166375926607206 
818	 0.165945531036246 
819	 0.165557166777724 
820	 0.165149780070362 
821	 0.164676379278268 
822	 0.164304080638758 
823	 0.163916196834986 
824	 0.163484480246981 
825	 0.163193827351348 
826	 0.162884787278949 
827	 0.162535467618714 
828	 0.162160326671948 
829	 0.161751101218294 
830	 0.161392551809659 
831	 0.161088506836704 
832	 0.160799459733454 
833	 0.16052029869405 
834	 0.160233009964653 
835	 0.159941671365932 
836	 0.1596713143515 
837	 0.159441331904037 
838	 0.159193696610104 
839	 0.158911983563205 
840	 0.158671157951337 
841	 0.158410206047948 
842	 0.158171932436904 
843	 0.157987251064165 
844	 0.157759613754249 
845	 0.157584804047637 
846	 0.157404957273857 
847	 0.157143674725289 
848	 0.157048518148676 
849	 0.156939745829034 
850	 0.156760420485142 
851	 0.156583744107064 
852	 0.15643238924478 
853	 0.156303673592922 
854	 0.156198127124437 
855	 0.156128339168074 
856	 0.156082524054662 
857	 0.156002223456093 
858	 0.155872842421759 
859	 0.155814225133642 
860	 0.155761410363466 
861	 0.155699066037167 
862	 0.155630754423455 
863	 0.155561169106646 
864	 0.155534279018208 
865	 0.155532747906328 
866	 0.155513656307694 
867	 0.155557976192156 
868	 0.155561114956431 
869	 0.155521295707037 
870	 0.155551426724137 
871	 0.155639571342072 
872	 0.155652990521952 
873	 0.155593901472169 
874	 0.155704059247141 
875	 0.155851493577048 
876	 0.155916389519004 
877	 0.155880762077605 
878	 0.155976520623509 
879	 0.156111016397575 
880	 0.156241385935229 
881	 0.156348943256511 
882	 0.156448217042816 
883	 0.156623223570441 
884	 0.15680530610718 
885	 0.156883300618674 
886	 0.157047821897788 
887	 0.157266747590442 
888	 0.157458249501006 
889	 0.157543021566305 
890	 0.157732420869002 
891	 0.157943643859208 
892	 0.158152857589476 
893	 0.15844934154132 
894	 0.158697194887209 
895	 0.158917240890327 
896	 0.159143729797126 
897	 0.159374880807648 
898	 0.159662584435413 
899	 0.159975189683298 
900	 0.160262480030538 
901	 0.160479894398694 
902	 0.160803893181089 
903	 0.161166172928601 
904	 0.161451786079929 
905	 0.161714119549345 
906	 0.162104944626006 
907	 0.162531540232135 
908	 0.162850374495014 
909	 0.163333226583999 
910	 0.163736089776017 
911	 0.164051354284035 
912	 0.164435580236299 
913	 0.164890256872553 
914	 0.16531807526017 
915	 0.165723519370764 
916	 0.166194242379013 
917	 0.166605345762433 
918	 0.16705583446483 
919	 0.167552232878423 
920	 0.167977853833537 
921	 0.168500710306035 
922	 0.169068754190666 
923	 0.169614578217256 
924	 0.170115672014049 
925	 0.170739780850172 
926	 0.17134212329897 
927	 0.171832457042608 
928	 0.172342487736199 
929	 0.172983435267592 
930	 0.173691745872243 
931	 0.17435736428693 
932	 0.174892513690034 
933	 0.175472831211361 
934	 0.176163937029434 
935	 0.176931107152252 
936	 0.177580770642771 
937	 0.178153168013615 
938	 0.178790215097969 
939	 0.179580197201432 
940	 0.180305458456703 
941	 0.181072008598761 
942	 0.181852053597474 
943	 0.182600957863566 
944	 0.183420913697279 
945	 0.184199550890737 
946	 0.184944427569184 
947	 0.185713613648275 
948	 0.18651586602694 
949	 0.187274755708604 
950	 0.188033389828669 
951	 0.188885402086509 
952	 0.189834805669141 
953	 0.190737122914389 
954	 0.19160848732497 
955	 0.192547069994193 
956	 0.193530785882086 
957	 0.19439458429524 
958	 0.19525325993214 
959	 0.196303681614938 
960	 0.197149574008706 
961	 0.198089941069214 
962	 0.19913858922667 
963	 0.200100543184931 
964	 0.200916064550188 
965	 0.20188522654085 
966	 0.203014397384271 
967	 0.204099443083957 
968	 0.20510123313953 
969	 0.206159137145873 
970	 0.20718869565578 
971	 0.208032524384147 
972	 0.209104057774019 
973	 0.210286887040713 
974	 0.211447231713935 
975	 0.212514311896076 
976	 0.213674462573995 
977	 0.214866101123372 
978	 0.215987959091088 
979	 0.216985052967783 
980	 0.218119861609605 
981	 0.219198253287077 
982	 0.220227135234974 
983	 0.221322447952476 
984	 0.222344192016341 
985	 0.223530877134874 
986	 0.224788655702651 
987	 0.225887722613492 
988	 0.227012511156794 
989	 0.22807258365841 
990	 0.229101293677939 
991	 0.230216294517738 
992	 0.231579323475882 
993	 0.232729638311312 
994	 0.233777791556752 
995	 0.234973353074171 
996	 0.235929227870872 
997	 0.236893807177934 
998	 0.237990571428727 
999	 0.239218006585009 
1000	 0.240390493861957 
1001	 0.235082859691616 
1002	 0.236161274720914 
1003	 0.237197379784107 
1004	 0.238162517485963 
1005	 0.239055257140458 
1006	 0.240050023459623 
1007	 0.241036733737005 
1008	 0.242014291429558 
1009	 0.243023252432882 
1010	 0.244015370741537 
1011	 0.244878164699313 
1012	 0.24564082821122 
1013	 0.246534180414867 
1014	 0.247549072112095 
1015	 0.248456761628903 
1016	 0.249338574477288 
1017	 0.250235345080446 
1018	 0.251120049401308 
1019	 0.251883372915635 
1020	 0.252720107154785 
1021	 0.253632458402404 
1022	 0.254407975245011 
1023	 0.255140699021085 
1024	 0.25591154695712 
1025	 0.256656541607755 
1026	 0.257424779740407 
1027	 0.258214921743597 
1028	 0.259010407622755 
1029	 0.259827332482497 
1030	 0.260600452231196 
1031	 0.261341808389705 
1032	 0.262066547496959 
1033	 0.262786038014441 
1034	 0.263460923211731 
1035	 0.26414703243285 
1036	 0.264906324604086 
1037	 0.265639092180438 
1038	 0.266324624998988 
1039	 0.267032005839888 
1040	 0.267707972370869 
1041	 0.26837263425126 
1042	 0.26907041969844 
1043	 0.269759384130864 
1044	 0.270452252174332 
1045	 0.27116434326279 
1046	 0.271835165908974 
1047	 0.27248175383068 
1048	 0.273184972731515 
1049	 0.273846149052125 
1050	 0.274523471351667 
1051	 0.275255421211493 
1052	 0.275912366453675 
1053	 0.276535531315656 
1054	 0.277170499890371 
1055	 0.277792842588407 
1056	 0.278390827124537 
1057	 0.279012354552842 
1058	 0.279661824251408 
1059	 0.280329416504431 
1060	 0.281003495363119 
1061	 0.281680042299098 
1062	 0.282383719927532 
1063	 0.282967490321477 
1064	 0.283548460580937 
1065	 0.28413365496719 
1066	 0.284681635281577 
1067	 0.285260110863799 
1068	 0.285796526215233 
1069	 0.286310262048738 
1070	 0.286864783057549 
1071	 0.287466247375723 
1072	 0.288000745847832 
1073	 0.288510214755708 
1074	 0.289054273860253 
1075	 0.289599095451473 
1076	 0.290085813320036 
1077	 0.290593119599763 
1078	 0.291042598865165 
1079	 0.29143665441494 
1080	 0.291886101134145 
1081	 0.29233210417945 
1082	 0.292818559286656 
1083	 0.293309032872077 
1084	 0.293802973645526 
1085	 0.294268030040962 
1086	 0.294750479236872 
1087	 0.295205050529001 
1088	 0.295616990434879 
1089	 0.296075486796203 
1090	 0.296473235983076 
1091	 0.296854547347203 
1092	 0.297276857703563 
1093	 0.297656220700678 
1094	 0.298081941169306 
1095	 0.298575098758624 
1096	 0.299005796386572 
1097	 0.29939880276645 
1098	 0.299808270077256 
1099	 0.300206979364972 
1100	 0.300603360239107 
1101	 0.301005658361765 
1102	 0.301402481249581 
1103	 0.301792024094356 
1104	 0.30216956825254 
1105	 0.302569302597036 
1106	 0.30300560700121 
1107	 0.303422037603336 
1108	 0.30384485246444 
1109	 0.304281150337454 
1110	 0.304674973163154 
1111	 0.3050880046348 
1112	 0.305531056761628 
1113	 0.305929010289823 
1114	 0.306288475285106 
1115	 0.306687607121797 
1116	 0.307074967187172 
1117	 0.307477264710665 
1118	 0.307907703491047 
1119	 0.308339400306748 
1120	 0.308758243431872 
1121	 0.309149686279835 
1122	 0.309501760213759 
1123	 0.309890673993748 
1124	 0.310302866974556 
1125	 0.310735928965952 
1126	 0.311136421054964 
1127	 0.311552080491225 
1128	 0.311949374169935 
1129	 0.312318852280913 
1130	 0.312688501660199 
1131	 0.313070088490979 
1132	 0.31343890637275 
1133	 0.31376251246652 
1134	 0.314118457292038 
1135	 0.314498043972693 
1136	 0.31487115825697 
1137	 0.315248125216458 
1138	 0.31563690872382 
1139	 0.315991906496343 
1140	 0.316339851813821 
1141	 0.316658083512828 
1142	 0.316943947672782 
1143	 0.3172405356662 
1144	 0.317516664744178 
1145	 0.317798378635059 
1146	 0.318085277047894 
1147	 0.318363002100258 
1148	 0.318632871295755 
1149	 0.318906039774706 
1150	 0.319173255633626 
1151	 0.319451933649 
1152	 0.319726978348918 
1153	 0.32001247585325 
1154	 0.320280029212315 
1155	 0.320538899289069 
1156	 0.320807239496253 
1157	 0.321067678182394 
1158	 0.321332837536125 
1159	 0.321618465373444 
1160	 0.321886222336718 
1161	 0.322142163928092 
1162	 0.322395850657273 
1163	 0.322638060255091 
1164	 0.322890285232966 
1165	 0.323138570504381 
1166	 0.323408583750945 
1167	 0.323646535080045 
1168	 0.323862190846498 
1169	 0.324112846238591 
1170	 0.324366169471835 
1171	 0.324601080564228 
1172	 0.324870830770831 
1173	 0.325091564487418 
1174	 0.325244908707993 
1175	 0.325452592340055 
1176	 0.325669866755639 
1177	 0.325892321501255 
1178	 0.326142764535314 
1179	 0.326377256758878 
1180	 0.326616125014796 
1181	 0.326840175592216 
1182	 0.32704858254175 
1183	 0.327262488962393 
1184	 0.327473797404024 
1185	 0.327674942377467 
1186	 0.327881649924585 
1187	 0.328102375330341 
1188	 0.328297630504456 
1189	 0.328478061648646 
1190	 0.328661344014762 
1191	 0.328833131461414 
1192	 0.329008924067571 
1193	 0.329177218155642 
1194	 0.329360596278697 
1195	 0.329563493081718 
1196	 0.329744198266403 
1197	 0.329927430371471 
1198	 0.330103388790039 
1199	 0.330269233200777 
1200	 0.330404627859415 
1201	 0.330575396744615 
1202	 0.330757039830681 
1203	 0.330939949162393 
1204	 0.331145699987481 
1205	 0.331322417964952 
1206	 0.331491568410882 
1207	 0.331654747980364 
1208	 0.331797871604741 
1209	 0.331950538661092 
1210	 0.332108089901371 
1211	 0.332258228529958 
1212	 0.33238966172998 
1213	 0.332545602208136 
1214	 0.332723487683648 
1215	 0.332883729530134 
1216	 0.333043243798031 
1217	 0.333217648773855 
1218	 0.33337340391051 
1219	 0.333505650328753 
1220	 0.333653841668425 
1221	 0.333813056301436 
1222	 0.333958861110264 
1223	 0.334094218654287 
1224	 0.334238725139318 
1225	 0.33437969482799 
1226	 0.334527247203382 
1227	 0.334700200273741 
1228	 0.334842132115062 
1229	 0.334961374812968 
1230	 0.33509270937006 
1231	 0.335209002814513 
1232	 0.335332041337481 
1233	 0.335461132334643 
1234	 0.335612368691418 
1235	 0.335734211620783 
1236	 0.335840624993776 
1237	 0.335959316861847 
1238	 0.336073789684171 
1239	 0.336187784564037 
1240	 0.336305223093142 
1241	 0.336424783379318 
1242	 0.336534466462034 
1243	 0.336658351600372 
1244	 0.336811831079041 
1245	 0.336935367228491 
1246	 0.337035722350269 
1247	 0.337155356424817 
1248	 0.337280891519608 
1249	 0.337384778373281 
1250	 0.337508072075584 
1251	 0.337652897479575 
1252	 0.337774881335695 
1253	 0.337893431032984 
1254	 0.337990202368486 
1255	 0.338069597727248 
1256	 0.338154885635577 
1257	 0.33822137648986 
1258	 0.338296866441619 
1259	 0.338381154411368 
1260	 0.338463557298942 
1261	 0.338531885419485 
1262	 0.338619264782336 
1263	 0.33872231266631 
1264	 0.338822248529787 
1265	 0.338940770462446 
1266	 0.339042341956254 
1267	 0.339137274864135 
1268	 0.339221636746783 
1269	 0.339313065192021 
1270	 0.339395097887837 
1271	 0.33948842996809 
1272	 0.339582442987982 
1273	 0.339696455949186 
1274	 0.339822309882395 
1275	 0.339945480392652 
1276	 0.340079129312721 
1277	 0.340220076762076 
1278	 0.340363129066039 
1279	 0.340508320134039 
1280	 0.340674461136506 
1281	 0.340826653440687 
1282	 0.340975166305444 
1283	 0.341112642167293 
1284	 0.341243019857003 
1285	 0.341362028963054 
1286	 0.341494455681066 
1287	 0.341626439828449 
1288	 0.34175558671911 
1289	 0.341899882441211 
1290	 0.342024490822718 
1291	 0.342125642263864 
1292	 0.342244806073081 
1293	 0.342379109665202 
1294	 0.342488318311114 
1295	 0.342608402639569 
1296	 0.34268855201437 
1297	 0.342736804307467 
1298	 0.342775651904828 
1299	 0.342788874325286 
1300	 0.342795632657796 
1301	 0.342789911791141 
1302	 0.342777948239217 
1303	 0.34275235394818 
1304	 0.342714186610404 
1305	 0.342713331978499 
1306	 0.342682203161057 
1307	 0.342606931545608 
1308	 0.342540244639329 
1309	 0.342453011676346 
1310	 0.34231342910134 
1311	 0.342210862001511 
1312	 0.342131793478719 
1313	 0.342030920871038 
1314	 0.34191391172701 
1315	 0.341817421320402 
1316	 0.341728315320779 
1317	 0.341631369534653 
1318	 0.341547850751412 
1319	 0.341450670505979 
1320	 0.341336109257848 
1321	 0.341226896732243 
1322	 0.341117495321909 
1323	 0.34101201767142 
1324	 0.340883217429549 
1325	 0.340776268350497 
1326	 0.340690745336407 
1327	 0.34058979021438 
1328	 0.340490561247401 
1329	 0.340418377973297 
1330	 0.340328949044086 
1331	 0.340232371779553 
1332	 0.340123054911554 
1333	 0.340016769940143 
1334	 0.339889680149291 
1335	 0.339712915865993 
1336	 0.339602804245282 
1337	 0.33950874645941 
1338	 0.339424880661658 
1339	 0.33939225393658 
1340	 0.339332304938968 
1341	 0.339266417848621 
1342	 0.339199728001007 
1343	 0.3391351026765 
1344	 0.339050653792613 
1345	 0.338984422800788 
1346	 0.338917117162628 
1347	 0.338858017281288 
1348	 0.338808057027674 
1349	 0.33870191741317 
1350	 0.338602319652547 
1351	 0.338518175432236 
1352	 0.338421790598072 
1353	 0.338338490608322 
1354	 0.338287650662438 
1355	 0.338204557173946 
1356	 0.338099864990497 
1357	 0.3380116041958 
1358	 0.337917380780059 
1359	 0.337840613379231 
1360	 0.337771130134903 
1361	 0.337705126364847 
1362	 0.337665900192588 
1363	 0.33760071332892 
1364	 0.337532534839614 
1365	 0.337457501408757 
1366	 0.337367201142638 
1367	 0.33726281345045 
1368	 0.337189209809098 
1369	 0.337111065675651 
1370	 0.337006211371546 
1371	 0.336889637647354 
1372	 0.336739307619682 
1373	 0.336552968932987 
1374	 0.336356232719579 
1375	 0.336147709020265 
1376	 0.335906910161866 
1377	 0.335653029039622 
1378	 0.335348179399664 
1379	 0.335001170117772 
1380	 0.334645034365127 
1381	 0.3342431708759 
1382	 0.333838152183973 
1383	 0.333455926433096 
1384	 0.33299723610654 
1385	 0.33251426102947 
1386	 0.331978190739582 
1387	 0.331383316783501 
1388	 0.330750295861605 
1389	 0.330082356164317 
1390	 0.329356507677889 
1391	 0.328596640295523 
1392	 0.32779636028054 
1393	 0.326950535727335 
1394	 0.326058952666997 
1395	 0.325082946632601 
1396	 0.324090203385794 
1397	 0.323112232587377 
1398	 0.322105669050537 
1399	 0.321104546560751 
1400	 0.320126991316493 
1401	 0.319118384486457 
1402	 0.318068334235424 
1403	 0.317053158368671 
1404	 0.316028767313361 
1405	 0.315044025310232 
1406	 0.314096116809458 
1407	 0.313130982590735 
1408	 0.312154478351771 
1409	 0.311229884814738 
1410	 0.31028305078283 
1411	 0.309427648859958 
1412	 0.308618165696428 
1413	 0.307893841758478 
1414	 0.307264603770485 
1415	 0.306689160387744 
1416	 0.306227942561574 
1417	 0.305825798741818 
1418	 0.305439667916505 
1419	 0.305091767834614 
1420	 0.304753329937934 
1421	 0.304428188976596 
1422	 0.304133741452052 
1423	 0.303837859707109 
1424	 0.303506483406246 
1425	 0.303160205289232 
1426	 0.302817613188039 
1427	 0.302421567951823 
1428	 0.302097630845471 
1429	 0.301809770850267 
1430	 0.301532703500076 
1431	 0.301299804828648 
1432	 0.301042680595186 
1433	 0.300785724043972 
1434	 0.300534923439734 
1435	 0.30025769470917 
1436	 0.300029834858171 
1437	 0.29983182292156 
1438	 0.299641907994982 
1439	 0.299483977783431 
1440	 0.299331596547723 
1441	 0.299155895597151 
1442	 0.298984344752938 
1443	 0.298819124401614 
1444	 0.298670174733179 
1445	 0.298555207758737 
1446	 0.298441728471127 
1447	 0.298327614687297 
1448	 0.298207117643434 
1449	 0.298062860938745 
1450	 0.29791366470389 
1451	 0.29777188934486 
1452	 0.297617548917042 
1453	 0.297486761467633 
1454	 0.297374163464553 
1455	 0.29725161523321 
1456	 0.297142363764713 
1457	 0.297016427037312 
1458	 0.296873369046423 
1459	 0.296746468570825 
1460	 0.296601105680277 
1461	 0.296497347000965 
1462	 0.296409854508539 
1463	 0.296347380201057 
1464	 0.296330137753348 
1465	 0.296297126804663 
1466	 0.296264919450209 
1467	 0.296254454239566 
1468	 0.296216036869913 
1469	 0.29625255775292 
1470	 0.296338274004605 
1471	 0.296451088612691 
1472	 0.296611713906653 
1473	 0.296789410152626 
1474	 0.2969531302877 
1475	 0.297145860759 
1476	 0.29735678700564 
1477	 0.297563636142054 
1478	 0.297788654706802 
1479	 0.298025321287698 
1480	 0.298264480690976 
1481	 0.298519403945437 
1482	 0.298782910229427 
1483	 0.299066881548701 
1484	 0.299337109594662 
1485	 0.299605636234933 
1486	 0.299885249953784 
1487	 0.300162509254465 
1488	 0.300448571290286 
1489	 0.300766325420588 
1490	 0.301043835472569 
1491	 0.301311988523548 
1492	 0.30156262697977 
1493	 0.301779407428947 
1494	 0.30200795832202 
1495	 0.302229245338495 
1496	 0.30245325340696 
1497	 0.302687949759476 
1498	 0.302901325333838 
1499	 0.303106927918207 
1500	 0.303305760986996 
1501	 0.303475807596611 
1502	 0.303666983643045 
1503	 0.303866290866123 
1504	 0.30406250408679 
1505	 0.304271946137643 
1506	 0.304465486081915 
1507	 0.304665941002813 
1508	 0.304861087938669 
1509	 0.305040860613668 
1510	 0.305223539518791 
1511	 0.305370346840583 
1512	 0.305504697710873 
1513	 0.305653958403945 
1514	 0.305816442223216 
1515	 0.305985896861637 
1516	 0.306158019140264 
1517	 0.306323876525802 
1518	 0.30648076350937 
1519	 0.306646851582686 
1520	 0.306821060019706 
1521	 0.306981286948431 
1522	 0.307137419607973 
1523	 0.307288985688708 
1524	 0.307424297325278 
1525	 0.307577683697105 
1526	 0.30774471610927 
1527	 0.307896712593456 
1528	 0.308054917135007 
1529	 0.308199897264668 
1530	 0.30832855596793 
1531	 0.30846302050349 
1532	 0.308595247029139 
1533	 0.308719391991652 
1534	 0.308841164664505 
1535	 0.308954665449363 
1536	 0.309064912274795 
1537	 0.309166985445848 
1538	 0.309251703523986 
1539	 0.309346878426766 
1540	 0.309429201521827 
1541	 0.309532075515537 
1542	 0.30965727916081 
1543	 0.309774856260427 
1544	 0.309908307097643 
1545	 0.310023657888086 
1546	 0.31013015814841 
1547	 0.310231261667258 
1548	 0.310305904380377 
1549	 0.310375496143874 
1550	 0.310455055069616 
1551	 0.310531657857647 
1552	 0.310614815614748 
1553	 0.310712299025568 
1554	 0.310812705431045 
1555	 0.310907798692246 
1556	 0.311002318596133 
1557	 0.311106123267123 
1558	 0.311206391285307 
1559	 0.311290922441215 
1560	 0.311378166627201 
1561	 0.311471684657812 
1562	 0.311557098054294 
1563	 0.311624487391335 
1564	 0.311714930808607 
1565	 0.311825847847988 
1566	 0.311906480895471 
1567	 0.311991438723877 
1568	 0.312055348412535 
1569	 0.312080453080989 
1570	 0.312134121451315 
1571	 0.312191440718177 
1572	 0.312248171448499 
1573	 0.312325982600524 
1574	 0.312376975720085 
1575	 0.312406395023381 
1576	 0.312449733320444 
1577	 0.312486033380288 
1578	 0.312525326599082 
1579	 0.312572553622088 
1580	 0.312619149742955 
1581	 0.312650122537848 
1582	 0.312708890944457 
1583	 0.312803613544889 
1584	 0.312865332277859 
1585	 0.312927839947241 
1586	 0.31297889839491 
1587	 0.313004249655625 
1588	 0.313032796180387 
1589	 0.313060689413346 
1590	 0.313089327714296 
1591	 0.313113645192334 
1592	 0.313132226511684 
1593	 0.313144629136174 
1594	 0.313166371182677 
1595	 0.313185504128008 
1596	 0.313208043784542 
1597	 0.313244536139242 
1598	 0.313273155389437 
1599	 0.313309461900449 
1600	 0.313322010493504 
1601	 0.313311878534968 
1602	 0.313315273620236 
1603	 0.313289452387317 
1604	 0.313292900133681 
1605	 0.31333142336091 
1606	 0.313360075067754 
1607	 0.313388176789174 
1608	 0.313437857964745 
1609	 0.313482942940952 
1610	 0.313514436464318 
1611	 0.31352628173832 
1612	 0.313540446523535 
1613	 0.313521465597171 
1614	 0.313492790055883 
1615	 0.313507399189487 
1616	 0.313508394981597 
1617	 0.313512242449052 
1618	 0.313528174240536 
1619	 0.313519051570168 
1620	 0.313505327860965 
1621	 0.31349064795437 
1622	 0.313481027771168 
1623	 0.313447791793505 
1624	 0.313391620238338 
1625	 0.313367553578409 
1626	 0.313341912858832 
1627	 0.313324687967615 
1628	 0.313326866053242 
1629	 0.313329150128057 
1630	 0.313328841486506 
1631	 0.313334226122997 
1632	 0.313352354788014 
1633	 0.313372596964199 
1634	 0.313395000391068 
1635	 0.313407628481552 
1636	 0.313447636920557 
1637	 0.313422378989156 
1638	 0.31334350434414 
1639	 0.313304490549394 
1640	 0.31323944460749 
1641	 0.313210334029164 
1642	 0.313223903011772 
1643	 0.313206795855412 
1644	 0.313185425203303 
1645	 0.313159454367082 
1646	 0.313120511978557 
1647	 0.31309734623392 
1648	 0.313076856054524 
1649	 0.313059162055632 
1650	 0.313048800844782 
1651	 0.313042363401134 
1652	 0.313043452599614 
1653	 0.313031141195665 
1654	 0.313029934560641 
1655	 0.312999042579448 
1656	 0.312942926041862 
1657	 0.312890909707385 
1658	 0.312830504967219 
1659	 0.312760565201171 
1660	 0.312681889155506 
1661	 0.312603054998783 
1662	 0.312498558880243 
1663	 0.312430976570159 
1664	 0.31238086112625 
1665	 0.312332955275888 
1666	 0.31231172326187 
1667	 0.312270582239158 
1668	 0.312224945345646 
1669	 0.312174608198324 
1670	 0.31212556087058 
1671	 0.312057149814347 
1672	 0.311965471131607 
1673	 0.311895298542041 
1674	 0.311816896000106 
1675	 0.311753319959821 
1676	 0.311711323219386 
1677	 0.311663500316968 
1678	 0.311618243899488 
1679	 0.311567919515395 
1680	 0.311520906312728 
1681	 0.311468835334527 
1682	 0.311406133153936 
1683	 0.311352624192068 
1684	 0.311304218897745 
1685	 0.311253773323745 
1686	 0.311212783983591 
1687	 0.31115251935985 
1688	 0.311082489052205 
1689	 0.311011232109359 
1690	 0.310924139639896 
1691	 0.310847564780322 
1692	 0.310774809167604 
1693	 0.310701226692996 
1694	 0.310622860125926 
1695	 0.31055924751979 
1696	 0.31050710432162 
1697	 0.310449188808644 
1698	 0.310400288455045 
1699	 0.31034349084964 
1700	 0.310290620493821 
1701	 0.310209807403378 
1702	 0.310117620531914 
1703	 0.310019931619457 
1704	 0.309898517609267 
1705	 0.309777608558075 
1706	 0.309653479481874 
1707	 0.309529550221603 
1708	 0.30938419149716 
1709	 0.309268721192375 
1710	 0.309179900392837 
1711	 0.30907084261583 
1712	 0.308973967838105 
1713	 0.308853466301922 
1714	 0.308703752162745 
1715	 0.308575441413879 
1716	 0.308431170731491 
1717	 0.308324941724538 
1718	 0.308245704769535 
1719	 0.308166230292254 
1720	 0.308125574749509 
1721	 0.308037152122451 
1722	 0.307929083525947 
1723	 0.307825354673873 
1724	 0.307705966705221 
1725	 0.307578420623951 
1726	 0.307451754363831 
1727	 0.307315406096728 
1728	 0.307149528043895 
1729	 0.307006783478359 
1730	 0.306883175209506 
1731	 0.306740365540284 
1732	 0.306598575037675 
1733	 0.306440561410144 
1734	 0.306268276083981 
1735	 0.306091741100966 
1736	 0.305894228280129 
1737	 0.30572564928055 
1738	 0.305557257467577 
1739	 0.305405782575746 
1740	 0.305281862913001 
1741	 0.305137989048349 
1742	 0.304999533661429 
1743	 0.304852369107299 
1744	 0.304704608784672 
1745	 0.304527574152659 
1746	 0.304329217587738 
1747	 0.304139598467546 
1748	 0.303940311341409 
1749	 0.303758179561778 
1750	 0.303598697365993 
1751	 0.303457394251506 
1752	 0.303317808887146 
1753	 0.303167550407578 
1754	 0.302999161293303 
1755	 0.302824260077765 
1756	 0.302659154561892 
1757	 0.302513360247926 
1758	 0.302367902624842 
1759	 0.302205072411145 
1760	 0.302053724011212 
1761	 0.301898679921788 
1762	 0.30173480043414 
1763	 0.301546266590482 
1764	 0.301339378642979 
1765	 0.301144372385125 
1766	 0.300957276592712 
1767	 0.300796337523088 
1768	 0.300641679547348 
1769	 0.300489227359983 
1770	 0.300334144323196 
1771	 0.300189474184382 
1772	 0.300068008498624 
1773	 0.299935093371314 
1774	 0.299832157393966 
1775	 0.299745565106157 
1776	 0.299603693691378 
1777	 0.299445665735487 
1778	 0.299306931733204 
1779	 0.299153860429158 
1780	 0.29901904883741 
1781	 0.29891023550098 
1782	 0.298780942426528 
1783	 0.298659272482223 
1784	 0.298567750667346 
1785	 0.298529471835284 
1786	 0.298461109957064 
1787	 0.298402368401519 
1788	 0.298319766243985 
1789	 0.298205573028734 
1790	 0.298082214045471 
1791	 0.297947378179399 
1792	 0.297805835370688 
1793	 0.297623528001636 
1794	 0.297506641487517 
1795	 0.297409075830248 
1796	 0.297332428748395 
1797	 0.297326931691693 
1798	 0.297271097918109 
1799	 0.29719674644044 
1800	 0.297119801152636 
1801	 0.297560732700726 
1802	 0.297722397648586 
1803	 0.297934875200628 
1804	 0.298147673434473 
1805	 0.298372062847504 
1806	 0.298604711703475 
1807	 0.298810925871723 
1808	 0.298964692406648 
1809	 0.299092089386735 
1810	 0.299179797614637 
1811	 0.299213409708069 
1812	 0.299236428955085 
1813	 0.29925371443254 
1814	 0.29922376991793 
1815	 0.299187918242164 
1816	 0.299171853932293 
1817	 0.2991305194115 
1818	 0.299065489076614 
1819	 0.299010311804756 
1820	 0.298962151881366 
1821	 0.298873160965022 
1822	 0.298804202718418 
1823	 0.298746711380197 
1824	 0.298685191698606 
1825	 0.298624184892904 
1826	 0.298522261351846 
1827	 0.298416106154885 
1828	 0.298270525137408 
1829	 0.298076841953929 
1830	 0.297876665746931 
1831	 0.297649224526202 
1832	 0.297419311753695 
1833	 0.297193706293156 
1834	 0.296972363161211 
1835	 0.296746596320433 
1836	 0.296493849497679 
1837	 0.296224641379008 
1838	 0.295968886663973 
1839	 0.295724400126081 
1840	 0.295483355060556 
1841	 0.295277328612211 
1842	 0.295070212277617 
1843	 0.29482620518935 
1844	 0.294597564271023 
1845	 0.294353439523321 
1846	 0.294121458974767 
1847	 0.293948120647192 
1848	 0.293792951939807 
1849	 0.293665830751709 
1850	 0.293542442656056 
1851	 0.293446471082274 
1852	 0.293322930338564 
1853	 0.29320349348566 
1854	 0.293063360641218 
1855	 0.292892646696775 
1856	 0.292692688231445 
1857	 0.292461109318895 
1858	 0.292220795805834 
1859	 0.291940167604597 
1860	 0.291633302562088 
1861	 0.291313553454674 
1862	 0.290952385388145 
1863	 0.290539067126053 
1864	 0.29011494881222 
1865	 0.289651615892456 
1866	 0.289162239361088 
1867	 0.288631748146797 
1868	 0.288040737399671 
1869	 0.287418726557977 
1870	 0.286763389184158 
1871	 0.286049545709319 
1872	 0.285298432318704 
1873	 0.284503741537615 
1874	 0.283636037772062 
1875	 0.282676573472557 
1876	 0.281665659129792 
1877	 0.280595394227393 
1878	 0.279420285033422 
1879	 0.278162371030707 
1880	 0.276805607219581 
1881	 0.275356450736953 
1882	 0.273789148025915 
1883	 0.272115424014389 
1884	 0.270334461125437 
1885	 0.268483820408653 
1886	 0.266537618378098 
1887	 0.264484301211701 
1888	 0.262346788158071 
1889	 0.260069299990805 
1890	 0.257694502478825 
1891	 0.255322373768243 
1892	 0.252873108031458 
1893	 0.25042614726054 
1894	 0.2479651789462 
1895	 0.245484935407932 
1896	 0.242931734644439 
1897	 0.240414588108596 
1898	 0.237859273177692 
1899	 0.235331796674535 
1900	 0.232909331662685 
1901	 0.230499224035526 
1902	 0.22820199521821 
1903	 0.2260248620108 
1904	 0.223892925239044 
1905	 0.221805200652336 
1906	 0.21984391412361 
1907	 0.217966680748845 
1908	 0.216196031915717 
1909	 0.214568887797166 
1910	 0.213017677915605 
1911	 0.211551370336396 
1912	 0.210163606240713 
1913	 0.208846145320587 
1914	 0.207603442717994 
1915	 0.206428495288834 
1916	 0.205324513956558 
1917	 0.204290543804893 
1918	 0.203340964408858 
1919	 0.202445244596829 
1920	 0.201641824767055 
1921	 0.200907523401713 
1922	 0.20020503784542 
1923	 0.199573560073287 
1924	 0.199004270807801 
1925	 0.198499469414161 
1926	 0.198046141384604 
1927	 0.197656815970275 
1928	 0.197319599554377 
1929	 0.197026872958927 
1930	 0.19677882017115 
1931	 0.1965722432791 
1932	 0.196408387308729 
1933	 0.196285892306971 
1934	 0.196172589701808 
1935	 0.196088635420932 
1936	 0.19601125704324 
1937	 0.196003862898844 
1938	 0.196041339616778 
1939	 0.196112504526167 
1940	 0.196241867229389 
1941	 0.196397897701728 
1942	 0.196566496658603 
1943	 0.196755470990439 
1944	 0.196979480651849 
1945	 0.197235831139273 
1946	 0.197490520692799 
1947	 0.197748919507463 
1948	 0.198039730249877 
1949	 0.19835427842669 
1950	 0.198670613386004 
1951	 0.199003014825141 
1952	 0.199367831528956 
1953	 0.199715704387432 
1954	 0.200069298648918 
1955	 0.200439095774858 
1956	 0.200838953873923 
1957	 0.201242501916002 
1958	 0.201654009322656 
1959	 0.20208351004103 
1960	 0.20254003132794 
1961	 0.202979394667565 
1962	 0.203417397969872 
1963	 0.203876781155553 
1964	 0.204333370572698 
1965	 0.204806144425738 
1966	 0.205312190635898 
1967	 0.205833346608325 
1968	 0.206339299181268 
1969	 0.206850048300063 
1970	 0.207351651200776 
1971	 0.207837516678438 
1972	 0.208340905911501 
1973	 0.208850331151391 
1974	 0.209364640857049 
1975	 0.209893397665456 
1976	 0.210405066357809 
1977	 0.21095325873802 
1978	 0.211492472554786 
1979	 0.21200771192313 
1980	 0.212548551197504 
1981	 0.21306619895461 
1982	 0.213549303102408 
1983	 0.214056514779234 
1984	 0.214555391268867 
1985	 0.215086184990046 
1986	 0.215659918863491 
1987	 0.216195889952112 
1988	 0.216727092679718 
1989	 0.217274162345758 
1990	 0.217797273258933 
1991	 0.218300306428873 
1992	 0.21882302727201 
1993	 0.219381365217187 
1994	 0.219886531789557 
1995	 0.220359724451478 
1996	 0.220849061863045 
1997	 0.221312169735755 
1998	 0.221800037164069 
1999	 0.222296203523824 
2000	 0.222811854366938 
2001	 0.223350907685875 
2002	 0.22388093945538 
2003	 0.224433874660572 
2004	 0.224964149359279 
2005	 0.225475036528323 
2006	 0.225957213179309 
2007	 0.226453282117409 
2008	 0.226934045971867 
2009	 0.2274255087049 
2010	 0.227925322976213 
2011	 0.228423715742971 
2012	 0.228932965027743 
2013	 0.229423354441414 
2014	 0.229905759965462 
2015	 0.230383612478435 
2016	 0.23084857802788 
2017	 0.231316959636577 
2018	 0.231787349042838 
2019	 0.232258029576842 
2020	 0.232734524387168 
2021	 0.233228184356037 
2022	 0.233695095787573 
2023	 0.234159664335239 
2024	 0.234614763841207 
2025	 0.235050809430243 
2026	 0.235477964572937 
2027	 0.23588520065102 
2028	 0.236311595916488 
2029	 0.236737418708744 
2030	 0.237153100618846 
2031	 0.237573683453738 
2032	 0.238015951710838 
2033	 0.238432332628944 
2034	 0.238829340169445 
2035	 0.239233584139638 
2036	 0.239651720054528 
2037	 0.240035625743675 
2038	 0.240398574573113 
2039	 0.240759717508714 
2040	 0.241104596549998 
2041	 0.241431530374443 
2042	 0.241764574204479 
2043	 0.242114947015659 
2044	 0.24243564853592 
2045	 0.242730313733202 
2046	 0.243048685222015 
2047	 0.243367407989326 
2048	 0.243680296831902 
2049	 0.2440123572308 
2050	 0.244321802333916 
2051	 0.244610235502666 
2052	 0.244899832224665 
2053	 0.245182979541106 
2054	 0.245462646387968 
2055	 0.245735172199143 
2056	 0.246007859513048 
2057	 0.246274630975275 
2058	 0.246537553010668 
2059	 0.246797548615854 
2060	 0.247043657018424 
2061	 0.247307463498494 
2062	 0.247579652823106 
2063	 0.247848748415553 
2064	 0.24813333035737 
2065	 0.248401907328644 
2066	 0.248667670830465 
2067	 0.248917388654655 
2068	 0.249150633713006 
2069	 0.249384039117429 
2070	 0.249614593325378 
2071	 0.249834098003799 
2072	 0.250055221010123 
2073	 0.250275562118334 
2074	 0.250498800880236 
2075	 0.250723803384659 
2076	 0.250938686492396 
2077	 0.251152252178185 
2078	 0.251363963377706 
2079	 0.25156057701755 
2080	 0.251764829189396 
2081	 0.251976189268 
2082	 0.252186194817525 
2083	 0.252397881064655 
2084	 0.252609164530409 
2085	 0.252808580779883 
2086	 0.253005764682914 
2087	 0.253198637345202 
2088	 0.253375919665922 
2089	 0.253564455466634 
2090	 0.253761627508897 
2091	 0.253944284950287 
2092	 0.254122038157963 
2093	 0.254300670139162 
2094	 0.254474325059178 
2095	 0.254643865875272 
2096	 0.254814567948693 
2097	 0.254979518341918 
2098	 0.255131732965289 
2099	 0.255284140429516 
2100	 0.255450300832753 
2101	 0.255618348502411 
2102	 0.255796411343738 
2103	 0.255994797848946 
2104	 0.256176945758873 
2105	 0.256360154135221 
2106	 0.256536605317616 
2107	 0.256691743309769 
2108	 0.256872520170654 
2109	 0.257051757028315 
2110	 0.257253905035627 
2111	 0.257488899518718 
2112	 0.257711809502669 
2113	 0.257933115686964 
2114	 0.258183682333508 
2115	 0.258398138423289 
2116	 0.258589566631426 
2117	 0.258812816935224 
2118	 0.259040555409901 
2119	 0.259258350486133 
2120	 0.259496603798298 
2121	 0.259714475128762 
2122	 0.259910580090141 
2123	 0.260110027450442 
2124	 0.260317584531504 
2125	 0.26050652268779 
2126	 0.260693486698149 
2127	 0.260852334356565 
2128	 0.26098500325885 
2129	 0.261114759174603 
2130	 0.261222483527121 
2131	 0.261328456077408 
2132	 0.261417782934967 
2133	 0.261494697827149 
2134	 0.261581433737536 
2135	 0.261661268482642 
2136	 0.26173120821208 
2137	 0.261831017208914 
2138	 0.261866255994258 
2139	 0.261850800558508 
2140	 0.261844435425779 
2141	 0.261814302648876 
2142	 0.26177250154588 
2143	 0.261729348507619 
2144	 0.261667414333448 
2145	 0.26157540990704 
2146	 0.26148296250756 
2147	 0.261388127433839 
2148	 0.261277902444575 
2149	 0.261159265804798 
2150	 0.261019507629841 
2151	 0.260902510442994 
2152	 0.260790524385093 
2153	 0.260665379505412 
2154	 0.260561809026497 
2155	 0.260414324128026 
2156	 0.26024597540722 
2157	 0.26005530392289 
2158	 0.259833482699774 
2159	 0.259606968649221 
2160	 0.259355434056646 
2161	 0.259100540736862 
2162	 0.258833190408936 
2163	 0.258566795676355 
2164	 0.25828967631546 
2165	 0.258014462368688 
2166	 0.2577445748948 
2167	 0.257473282083044 
2168	 0.257213620963599 
2169	 0.256965002868726 
2170	 0.256709087245803 
2171	 0.25646836604812 
2172	 0.256200757932279 
2173	 0.255928205585801 
2174	 0.25563274045108 
2175	 0.255300705264113 
2176	 0.254989511300971 
2177	 0.254671839332608 
2178	 0.254352360540451 
2179	 0.254041696664297 
2180	 0.253728458357649 
2181	 0.253426670055558 
2182	 0.253094950472845 
2183	 0.252742111171866 
2184	 0.252388967432627 
2185	 0.252042000443197 
2186	 0.251656645511304 
2187	 0.251329944399354 
2188	 0.251034939768946 
2189	 0.250749525630885 
2190	 0.250494971622288 
2191	 0.250231122692345 
2192	 0.249979478655305 
2193	 0.249729354879301 
2194	 0.249473700478437 
2195	 0.249230515252744 
2196	 0.248988767303677 
2197	 0.24877127749672 
2198	 0.248579879699412 
2199	 0.248380129844158 
2200	 0.248193758293977 
2201	 0.248012224070424 
2202	 0.24782342984635 
2203	 0.247636467759801 
2204	 0.247484120069551 
2205	 0.247345967622906 
2206	 0.247240032915948 
2207	 0.247152468795586 
2208	 0.247113021444755 
2209	 0.24710317479465 
2210	 0.247140539433562 
2211	 0.247247332604277 
2212	 0.247332230389803 
2213	 0.247453803161977 
2214	 0.247560732571658 
2215	 0.247659955164935 
2216	 0.247765115656767 
2217	 0.247902416283985 
2218	 0.247995200807794 
2219	 0.248071687550857 
2220	 0.248131112068609 
2221	 0.248168328244248 
2222	 0.248177088730926 
2223	 0.248161954783039 
2224	 0.248164063750932 
2225	 0.248133466018562 
2226	 0.248080705780775 
2227	 0.248010572831783 
2228	 0.247916140218003 
2229	 0.247824298228315 
2230	 0.247719481703042 
2231	 0.247604418065281 
2232	 0.247516937579313 
2233	 0.247347078658378 
2234	 0.247107775554233 
2235	 0.246892964593009 
2236	 0.246615879827929 
2237	 0.246393528477025 
2238	 0.246243033887752 
2239	 0.246021002293042 
2240	 0.245781970334286 
2241	 0.245528109003871 
2242	 0.245209262061517 
2243	 0.244921921784469 
2244	 0.244655799107234 
2245	 0.244383126728854 
2246	 0.244067470438834 
2247	 0.243746494413595 
2248	 0.243415664834625 
2249	 0.243043210176639 
2250	 0.24269762268729 
2251	 0.242360823470871 
2252	 0.242030351393129 
2253	 0.241700042413754 
2254	 0.241377463163229 
2255	 0.24107360687974 
2256	 0.240760453404221 
2257	 0.24041240708664 
2258	 0.240135127410169 
2259	 0.239850621306722 
2260	 0.239649608893856 
2261	 0.239548699135761 
2262	 0.239429848364046 
2263	 0.239345838156304 
2264	 0.239295990451514 
2265	 0.23924653899764 
2266	 0.239236437104817 
2267	 0.239301319981604 
2268	 0.239349404351302 
2269	 0.239375029624107 
2270	 0.239479241348081 
2271	 0.239609148633873 
2272	 0.239721114337735 
2273	 0.239851858841028 
2274	 0.239976032504387 
2275	 0.240095621470133 
2276	 0.24017993284821 
2277	 0.240312348661996 
2278	 0.240475078278742 
2279	 0.240633815645423 
2280	 0.240803756209398 
2281	 0.240977049343956 
2282	 0.241161959852486 
2283	 0.241331329158123 
2284	 0.241514143908065 
2285	 0.241673618748177 
2286	 0.241816042321728 
2287	 0.241947297077275 
2288	 0.242025025551126 
2289	 0.242169930655408 
2290	 0.242384033118574 
2291	 0.242526520422685 
2292	 0.242700866180511 
2293	 0.242809453941427 
2294	 0.242808901978046 
2295	 0.242825832723496 
2296	 0.242799152417045 
2297	 0.242832884661507 
2298	 0.242859475816821 
2299	 0.242868796209754 
2300	 0.242944860605768 
2301	 0.242983826712535 
2302	 0.242953884625637 
2303	 0.24297242502666 
2304	 0.243001129174665 
2305	 0.243011388425861 
2306	 0.242992047449767 
2307	 0.242988390687716 
2308	 0.242943917286654 
2309	 0.242812853028206 
2310	 0.242754868191666 
2311	 0.242755375188232 
2312	 0.242686315740084 
2313	 0.24260214230873 
2314	 0.242519093472861 
2315	 0.242383590973336 
2316	 0.242285928512371 
2317	 0.242210517298759 
2318	 0.242127618705198 
2319	 0.242062247013555 
2320	 0.241977205099812 
2321	 0.241887275594822 
2322	 0.241784547100079 
2323	 0.241649630772395 
2324	 0.241534167548805 
2325	 0.241431545986939 
2326	 0.241330227955724 
2327	 0.241256984691745 
2328	 0.241137900834244 
2329	 0.240976589335625 
2330	 0.24082470506192 
2331	 0.24067182038172 
2332	 0.240510089845712 
2333	 0.24038732711857 
2334	 0.240263716256988 
2335	 0.240112987242665 
2336	 0.239946646925172 
2337	 0.239761337787939 
2338	 0.239547876380974 
2339	 0.239299599880488 
2340	 0.239044480363565 
2341	 0.238855273356298 
2342	 0.238685315739491 
2343	 0.238518457294149 
2344	 0.23840491804851 
2345	 0.23818961600464 
2346	 0.237890134831924 
2347	 0.237621533995847 
2348	 0.237321706450155 
2349	 0.237001615909167 
2350	 0.236677376163058 
2351	 0.236338387794477 
2352	 0.235944606313339 
2353	 0.235630043849362 
2354	 0.23535541637408 
2355	 0.235066002817373 
2356	 0.234828687705402 
2357	 0.23451590103522 
2358	 0.234146582353957 
2359	 0.233816082800643 
2360	 0.233470406834453 
2361	 0.233124755194809 
2362	 0.23280367519418 
2363	 0.232455623383276 
2364	 0.232049040453887 
2365	 0.231714880519681 
2366	 0.231433295805782 
2367	 0.231118263501196 
2368	 0.230857518983295 
2369	 0.23053613583622 
2370	 0.230153442243755 
2371	 0.229787827259768 
2372	 0.229380768923232 
2373	 0.228903640773699 
2374	 0.228463841790817 
2375	 0.228022072203516 
2376	 0.227613467626491 
2377	 0.227250130701971 
2378	 0.226832166023543 
2379	 0.22637181876345 
2380	 0.225900145056138 
2381	 0.225450740152648 
2382	 0.225038653094598 
2383	 0.224588906015031 
2384	 0.2240667717711 
2385	 0.223543335251557 
2386	 0.223064575167479 
2387	 0.222589230784275 
2388	 0.222154192869294 
2389	 0.221727939133302 
2390	 0.221247798329834 
2391	 0.220755421192865 
2392	 0.22033368310812 
2393	 0.219918651681338 
2394	 0.219459786351021 
2395	 0.219029817660552 
2396	 0.218511285216393 
2397	 0.218022690142844 
2398	 0.217626603911662 
2399	 0.217144432472435 
2400	 0.216706052162233 
2401	 0.216291378296718 
2402	 0.215794034072109 
2403	 0.215360245817091 
2404	 0.214955012562653 
2405	 0.214465476613031 
2406	 0.213984047910337 
2407	 0.21352615159109 
2408	 0.213011581907183 
2409	 0.212473878737059 
2410	 0.211894215467641 
2411	 0.211299033658312 
2412	 0.210811348292791 
2413	 0.210329031778353 
2414	 0.209881238542594 
2415	 0.209504673158614 
2416	 0.209056630105604 
2417	 0.208514804350754 
2418	 0.208110746256288 
2419	 0.20775451732657 
2420	 0.20733257996733 
2421	 0.206999790502169 
2422	 0.206561457185962 
2423	 0.206006613381376 
2424	 0.2054980164889 
2425	 0.204981881414065 
2426	 0.204424767881807 
2427	 0.203813280716631 
2428	 0.203340168133706 
2429	 0.202924359876046 
2430	 0.202453631598331 
2431	 0.202058602278804 
2432	 0.201596164362492 
2433	 0.201032497320889 
2434	 0.200571660257495 
2435	 0.200144440015864 
2436	 0.199705881761262 
2437	 0.199303290246291 
2438	 0.198867721613561 
2439	 0.198491870816284 
2440	 0.198027718679739 
2441	 0.19747695900236 
2442	 0.196962335198656 
2443	 0.196363037274758 
2444	 0.195826757731854 
2445	 0.195326106636916 
2446	 0.194848672310949 
2447	 0.194422194826185 
2448	 0.194013482707593 
2449	 0.193673974060823 
2450	 0.193285963651514 
2451	 0.192901399939435 
2452	 0.192451936728727 
2453	 0.191952039733103 
2454	 0.191423811198959 
2455	 0.190778852228922 
2456	 0.19034438396928 
2457	 0.189970339272307 
2458	 0.189585036264482 
2459	 0.189394332788176 
2460	 0.188930493817418 
2461	 0.188283520680724 
2462	 0.187843054104911 
2463	 0.187373609865182 
2464	 0.186963422875957 
2465	 0.186669135783829 
2466	 0.186339775524827 
2467	 0.186052712645099 
2468	 0.185637872914413 
2469	 0.185156111157138 
2470	 0.184850463334529 
2471	 0.184487494527572 
2472	 0.184264627930121 
2473	 0.184004181797077 
2474	 0.183610930066368 
2475	 0.183196438386512 
2476	 0.182867405237866 
2477	 0.182602201462234 
2478	 0.182072657614495 
2479	 0.181529990105489 
2480	 0.181188018390994 
2481	 0.180846142052209 
2482	 0.180656793765581 
2483	 0.180414166908719 
2484	 0.180040334502956 
2485	 0.179668455083118 
2486	 0.179181882292063 
2487	 0.178836232836417 
2488	 0.178453124172636 
2489	 0.177937872014726 
2490	 0.177619276269977 
2491	 0.177168864621907 
2492	 0.176761970716946 
2493	 0.176522857747856 
2494	 0.176114468578147 
2495	 0.175879750985751 
2496	 0.17568973664728 
2497	 0.175382943080814 
2498	 0.175116752961739 
2499	 0.174633883543818 
2500	 0.174187121433603 
