Wavelength	mm2200006.asd
350	 3.01411190717925E-02 
351	 3.73122420334672E-02 
352	 3.89388139880309E-02 
353	 3.07717670726126E-02 
354	 3.23963250381654E-02 
355	 3.03734784636004E-02 
356	 2.83230431655353E-02 
357	 3.13334778659509E-02 
358	 3.48379893709002E-02 
359	 2.99124740586816E-02 
360	 2.44396251329813E-02 
361	 3.36972357308945E-02 
362	 3.01953914631087E-02 
363	 2.69549612399704E-02 
364	 2.94881646262466E-02 
365	 2.34565167225135E-02 
366	 2.34280954596209E-02 
367	 2.81624212292189E-02 
368	 3.20230113554876E-02 
369	 3.09528124362588E-02 
370	 3.09230500607407E-02 
371	 3.28874830329969E-02 
372	 3.40463164355232E-02 
373	 0.033261200811708 
374	 3.11949167790486E-02 
375	 2.97239521947721E-02 
376	 3.26850240636164E-02 
377	 3.12566797429773E-02 
378	 2.94889319066473E-02 
379	 3.30040735328241E-02 
380	 3.72139627434445E-02 
381	 3.60076337044525E-02 
382	 0.032380300506749 
383	 3.52096860245588E-02 
384	 3.73677217770992E-02 
385	 3.58328565627808E-02 
386	 3.24571144103552E-02 
387	 3.75104935852392E-02 
388	 3.84824800640632E-02 
389	 3.59838669269192E-02 
390	 0.034369709579112 
391	 3.38909489927838E-02 
392	 3.37668619724583E-02 
393	 3.47331759703758E-02 
394	 0.038414403679959 
395	 3.84311729716887E-02 
396	 3.71308999526475E-02 
397	 3.73043255150601E-02 
398	 3.98520927702062E-02 
399	 4.00936897193033E-02 
400	 3.89487519727703E-02 
401	 3.89970839049934E-02 
402	 3.90008667685418E-02 
403	 3.85210166762714E-02 
404	 3.74608481543553E-02 
405	 3.60673575302308E-02 
406	 0.03758018209749 
407	 3.98866324536327E-02 
408	 4.05399865485214E-02 
409	 3.87081938808196E-02 
410	 3.84219425668301E-02 
411	 3.94233043586338E-02 
412	 0.039635642639397 
413	 4.03449476125769E-02 
414	 4.02731661658952E-02 
415	 3.94658300580472E-02 
416	 3.98707115709725E-02 
417	 3.98939510359255E-02 
418	 3.98589118603163E-02 
419	 4.01849576765198E-02 
420	 4.00919296993783E-02 
421	 3.92071425719441E-02 
422	 3.89044085541815E-02 
423	 4.11175120879373E-02 
424	 4.11769720075306E-02 
425	 4.04460432955677E-02 
426	 4.01276396413754E-02 
427	 3.96203655829451E-02 
428	 3.93098689930641E-02 
429	 3.92968904786656E-02 
430	 0.039511437743174 
431	 3.96048302864272E-02 
432	 3.94884429910188E-02 
433	 3.93663230829555E-02 
434	 0.039667399796399 
435	 3.98433856658421E-02 
436	 3.98343786220805E-02 
437	 3.96569241611921E-02 
438	 3.91513986232051E-02 
439	 3.91805633143366E-02 
440	 3.96266160521323E-02 
441	 3.98766260942251E-02 
442	 3.98190339209332E-02 
443	 3.95989728304922E-02 
444	 3.94021287978316E-02 
445	 3.94201996501844E-02 
446	 3.95719008453612E-02 
447	 3.96305604379412E-02 
448	 3.94479318309747E-02 
449	 3.93458547167474E-02 
450	 3.94692131607174E-02 
451	 3.97257584946822E-02 
452	 3.98341613320824E-02 
453	 3.97631257148677E-02 
454	 3.94899822213181E-02 
455	 3.91375772447327E-02 
456	 3.91815832841023E-02 
457	 3.91028596018351E-02 
458	 3.88779295163077E-02 
459	 3.87343800495117E-02 
460	 3.89481927850435E-02 
461	 3.90120128136641E-02 
462	 3.88036703030878E-02 
463	 3.88323426944803E-02 
464	 3.87277419795422E-02 
465	 3.87415915888917E-02 
466	 3.90443119306817E-02 
467	 0.038793404603035 
468	 3.86941276311097E-02 
469	 3.88821102273393E-02 
470	 3.89975925519297E-02 
471	 3.89390261091309E-02 
472	 3.87468587991993E-02 
473	 3.85408274250834E-02 
474	 3.85629005324003E-02 
475	 3.85000386423585E-02 
476	 3.83839763077481E-02 
477	 3.83696410993652E-02 
478	 3.83108912960589E-02 
479	 3.82490771461567E-02 
480	 3.82320420276356E-02 
481	 3.82928656504352E-02 
482	 0.038444606095191 
483	 3.85268028303755E-02 
484	 3.84388890680032E-02 
485	 3.85484928904989E-02 
486	 3.83458693336758E-02 
487	 3.79471722786101E-02 
488	 3.79675838209516E-02 
489	 3.80586498290673E-02 
490	 3.82196841674368E-02 
491	 3.84030020131542E-02 
492	 0.038306648402707 
493	 3.80783108964254E-02 
494	 3.79689751178625E-02 
495	 0.038173157424735 
496	 3.80399339558353E-02 
497	 3.78208931390391E-02 
498	 3.77645236098662E-02 
499	 3.79898426227576E-02 
500	 3.81341518456235E-02 
501	 3.81196452937919E-02 
502	 3.79851450700826E-02 
503	 3.78130098840196E-02 
504	 3.77330200438751E-02 
505	 3.77509708175022E-02 
506	 3.77665334471041E-02 
507	 3.79639723922177E-02 
508	 3.80093773614535E-02 
509	 3.77559925725536E-02 
510	 3.78082415614117E-02 
511	 3.78496228439328E-02 
512	 0.037798219843029 
513	 3.77106641603698E-02 
514	 3.77180255536245E-02 
515	 3.77945135536444E-02 
516	 3.78858189777028E-02 
517	 3.79357385598314E-02 
518	 0.037825524645855 
519	 3.77079173190726E-02 
520	 3.77678387380056E-02 
521	 3.78361723453531E-02 
522	 3.79414833053654E-02 
523	 0.038020232070366 
524	 3.79103091487693E-02 
525	 3.79616029244381E-02 
526	 3.79685871451559E-02 
527	 3.77861817287503E-02 
528	 3.78638686198989E-02 
529	 3.79739775621243E-02 
530	 3.80702436637756E-02 
531	 3.82110887863162E-02 
532	 3.81715711712413E-02 
533	 3.81740631426305E-02 
534	 3.83121507318743E-02 
535	 3.82702946266472E-02 
536	 3.82934750177068E-02 
537	 3.83910356460172E-02 
538	 3.84761807948131E-02 
539	 3.84763073423825E-02 
540	 3.84609023521919E-02 
541	 3.84831891311139E-02 
542	 3.85585385936821E-02 
543	 3.86561990978901E-02 
544	 3.87375882625838E-02 
545	 3.87936726520032E-02 
546	 3.89477606327535E-02 
547	 3.90335435493202E-02 
548	 3.90488282215712E-02 
549	 3.91317953022556E-02 
550	 3.92196370964566E-02 
551	 3.93479675192993E-02 
552	 3.95330065940816E-02 
553	 3.97144014735678E-02 
554	 3.97942353689844E-02 
555	 3.98623365397663E-02 
556	 0.040089268905585 
557	 4.03696306128165E-02 
558	 4.06311785951419E-02 
559	 0.04086745411509 
560	 4.11835676430456E-02 
561	 4.14478933099401E-02 
562	 4.16965193461134E-02 
563	 0.042008558195442 
564	 4.23514479022515E-02 
565	 4.27146365100678E-02 
566	 4.30997877382352E-02 
567	 4.35209394845398E-02 
568	 4.39546502859065E-02 
569	 4.44151365996863E-02 
570	 4.49257097114871E-02 
571	 4.55162908802565E-02 
572	 4.61035373815135E-02 
573	 4.66867211261272E-02 
574	 4.73217558509756E-02 
575	 4.79725614707071E-02 
576	 4.86529106462061E-02 
577	 4.93664915626221E-02 
578	 5.00723153350607E-02 
579	 5.08475903287567E-02 
580	 5.16491194758818E-02 
581	 5.24144971147342E-02 
582	 5.33420262221164E-02 
583	 0.054255427108162 
584	 5.50992144750038E-02 
585	 0.056037863110487 
586	 5.70177609483616E-02 
587	 5.79993513623552E-02 
588	 5.89740519768263E-02 
589	 6.00735811558546E-02 
590	 6.11473919945169E-02 
591	 6.21550135452411E-02 
592	 6.31689790848408E-02 
593	 6.41995056830182E-02 
594	 6.52099985454701E-02 
595	 6.61800218643264E-02 
596	 6.71637939443523E-02 
597	 6.81381992548848E-02 
598	 6.90931549411409E-02 
599	 7.00289662721695E-02 
600	 7.09425740822316E-02 
601	 7.18537827662102E-02 
602	 7.27518769668261E-02 
603	 7.35661190435859E-02 
604	 7.44216994252633E-02 
605	 7.52822574383402E-02 
606	 7.60711097368001E-02 
607	 7.68361937121045E-02 
608	 7.75670705455803E-02 
609	 7.82767715901981E-02 
610	 7.90077126062983E-02 
611	 7.96670028354152E-02 
612	 8.02533919449608E-02 
613	 8.07802464820445E-02 
614	 8.12211042890732E-02 
615	 8.16803357272382E-02 
616	 8.21615257874605E-02 
617	 8.26006826421195E-02 
618	 8.31018447555922E-02 
619	 8.34941270362676E-02 
620	 8.37241113304391E-02 
621	 8.40676305623668E-02 
622	 8.44387187356243E-02 
623	 0.084776304064917 
624	 0.085040911280316 
625	 8.53249818218735E-02 
626	 0.085596548642444 
627	 8.58551610625903E-02 
628	 8.61546692188586E-02 
629	 8.64253635104187E-02 
630	 0.086671479347622 
631	 8.69120019659169E-02 
632	 8.71311653965203E-02 
633	 0.087365097506307 
634	 8.76030699033212E-02 
635	 8.78014285668108E-02 
636	 8.80396111605888E-02 
637	 0.088299077608683 
638	 0.088547959160363 
639	 8.87669332192076E-02 
640	 8.89646681484898E-02 
641	 8.91866997136684E-02 
642	 8.94775255466254E-02 
643	 0.089737738578429 
644	 8.99767843362668E-02 
645	 9.02055890769314E-02 
646	 9.04193482277946E-02 
647	 9.06471482179631E-02 
648	 9.09353033486357E-02 
649	 9.12904924047273E-02 
650	 9.15483031547606E-02 
651	 9.17905599274949E-02 
652	 9.20630054428761E-02 
653	 9.23724975571421E-02 
654	 9.27221848224195E-02 
655	 9.30463550999484E-02 
656	 9.33258223634647E-02 
657	 9.36865651454902E-02 
658	 9.40396898741581E-02 
659	 9.43963950311698E-02 
660	 9.47999482203434E-02 
661	 9.51656185126239E-02 
662	 9.55255476512685E-02 
663	 9.59007138464785E-02 
664	 9.62779762366526E-02 
665	 9.66824825464029E-02 
666	 0.097100560448532 
667	 9.75128585538283E-02 
668	 9.79267925083216E-02 
669	 9.83522331279649E-02 
670	 9.87964827549418E-02 
671	 9.92619944732814E-02 
672	 9.97248819080152E-02 
673	 0.100209940110967 
674	 0.100738087531048 
675	 0.101312633374526 
676	 0.101820013316634 
677	 0.102301572068575 
678	 0.102850670652148 
679	 0.103374994865808 
680	 0.103916673208799 
681	 0.104498640461286 
682	 0.105104939606254 
683	 0.105702773055195 
684	 0.106285934504099 
685	 0.106875522321068 
686	 0.107566284948997 
687	 0.108217745923685 
688	 0.108826895986505 
689	 0.109481977853006 
690	 0.110083173898961 
691	 0.110700832947169 
692	 0.111385259688772 
693	 0.112106925720025 
694	 0.112801716565043 
695	 0.113494942738731 
696	 0.114229407580382 
697	 0.114932217077376 
698	 0.115624219951211 
699	 0.116324357674957 
700	 0.117042402154875 
701	 0.117800428032867 
702	 0.118553252069491 
703	 0.119271281824187 
704	 0.120011674229472 
705	 0.12073266138265 
706	 0.121453455690882 
707	 0.122213947019773 
708	 0.122953042131987 
709	 0.123697844473969 
710	 0.124457656904332 
711	 0.125206220287262 
712	 0.125904892288901 
713	 0.126603026262175 
714	 0.127350941239461 
715	 0.128103490344815 
716	 0.128808140058215 
717	 0.129470164027869 
718	 0.130136534425927 
719	 0.130792737800369 
720	 0.131445182203125 
721	 0.132091368824952 
722	 0.132710269513346 
723	 0.133328101436539 
724	 0.133916549780266 
725	 0.13445078153998 
726	 0.135018281387422 
727	 0.135558907772505 
728	 0.136052171227501 
729	 0.136521581113086 
730	 0.136976530993462 
731	 0.137405976014574 
732	 0.137803662758389 
733	 0.138184461512197 
734	 0.138556547401198 
735	 0.138882524570734 
736	 0.139129339622779 
737	 0.13941473843236 
738	 0.139673936764042 
739	 0.139891686447924 
740	 0.140117738318819 
741	 0.140218960747018 
742	 0.140279468415213 
743	 0.140380151421167 
744	 0.140464148926417 
745	 0.140517745802137 
746	 0.140535002008499 
747	 0.140515691943537 
748	 0.140456086481674 
749	 0.14035680061974 
750	 0.14024750820236 
751	 0.140188619514561 
752	 0.140036494639172 
753	 0.139827084895798 
754	 0.139618672654776 
755	 0.139397969167506 
756	 0.139198009449041 
757	 0.138958979399094 
758	 0.138605253500704 
759	 0.138315690629985 
760	 0.138016506081714 
761	 0.137675860966343 
762	 0.137344036111364 
763	 0.13697012665374 
764	 0.136577078654017 
765	 0.136189481309027 
766	 0.135779080308365 
767	 0.135386483954937 
768	 0.134982103751752 
769	 0.134519013702413 
770	 0.134104378089997 
771	 0.133659891277054 
772	 0.133170295647561 
773	 0.132713652809918 
774	 0.132259200219858 
775	 0.131785439790398 
776	 0.131289432209181 
777	 0.130815089726711 
778	 0.130333204798389 
779	 0.129848275379617 
780	 0.129374706660912 
781	 0.128887799782685 
782	 0.12840542706043 
783	 0.127918964173158 
784	 0.127394395062662 
785	 0.126907093170179 
786	 0.126444471857683 
787	 0.125983353207982 
788	 0.125518726724749 
789	 0.125078046080479 
790	 0.124610487152206 
791	 0.124075290114414 
792	 0.123641526348019 
793	 0.123182583912679 
794	 0.122689970044742 
795	 0.122261737813708 
796	 0.121812985619575 
797	 0.121365406210458 
798	 0.120937420205203 
799	 0.120512131931505 
800	 0.120096380483021 
801	 0.119683316955572 
802	 0.119262092390673 
803	 0.118814790655452 
804	 0.118439108322989 
805	 0.118097134002872 
806	 0.117679310925348 
807	 0.117262480019991 
808	 0.11690152444724 
809	 0.116574791716753 
810	 0.116168891633643 
811	 0.115806188469639 
812	 0.115447254508215 
813	 0.115062718379505 
814	 0.114749782765058 
815	 0.11447466170066 
816	 0.114179050172945 
817	 0.113825008016162 
818	 0.113541486505774 
819	 0.113265979085165 
820	 0.112970792121667 
821	 0.112672709626411 
822	 0.112431734854053 
823	 0.112162521297956 
824	 0.111845020239568 
825	 0.111599228326895 
826	 0.111374702509524 
827	 0.111147907916354 
828	 0.110914686150165 
829	 0.110715539716411 
830	 0.110487501790243 
831	 0.110254668044325 
832	 0.110074746477527 
833	 0.109931874406294 
834	 0.10974176716574 
835	 0.109515644696744 
836	 0.10935348266327 
837	 0.109230711460716 
838	 0.109087436101609 
839	 0.108914762125553 
840	 0.10880080053594 
841	 0.108661672573525 
842	 0.108510378957377 
843	 0.108380711199213 
844	 0.108285694839873 
845	 0.108190884792882 
846	 0.108096312238806 
847	 0.108018293246162 
848	 0.107960689514737 
849	 0.107896343361139 
850	 0.10782232512751 
851	 0.107757323993991 
852	 0.107693484342104 
853	 0.10766230487874 
854	 0.107663731836047 
855	 0.10764710040178 
856	 0.107668711090143 
857	 0.107685626432128 
858	 0.107674466739923 
859	 0.10772440194166 
860	 0.10775217813247 
861	 0.107743021226517 
862	 0.107715624917581 
863	 0.107701414723513 
864	 0.107771079606143 
865	 0.107877684028862 
866	 0.107916929926401 
867	 0.107940473138409 
868	 0.108017648191324 
869	 0.108135816632678 
870	 0.108204528267608 
871	 0.108271149313973 
872	 0.108377296885852 
873	 0.108523126014222 
874	 0.108645471426751 
875	 0.108770413834388 
876	 0.108861701047208 
877	 0.108927983890165 
878	 0.109129580566604 
879	 0.109366926866428 
880	 0.109539127569746 
881	 0.109616597859224 
882	 0.109855861907309 
883	 0.110034087031237 
884	 0.110159935099346 
885	 0.110364922136539 
886	 0.110629718843228 
887	 0.110878351719616 
888	 0.111086770358969 
889	 0.111286142162837 
890	 0.111525075192239 
891	 0.111774288024896 
892	 0.112024904384107 
893	 0.112304340036782 
894	 0.112563021273277 
895	 0.112811764821866 
896	 0.11308338034872 
897	 0.113425277812788 
898	 0.113776388644895 
899	 0.114074548531769 
900	 0.114323181501065 
901	 0.11469169571675 
902	 0.115059879249425 
903	 0.115398237902747 
904	 0.115718589422701 
905	 0.116060312889701 
906	 0.116435771671792 
907	 0.116845887646886 
908	 0.117274449764579 
909	 0.117664039912197 
910	 0.118053401913458 
911	 0.118464199808983 
912	 0.118898856159021 
913	 0.119345842860015 
914	 0.119807741705123 
915	 0.120260223605226 
916	 0.120672050755284 
917	 0.121168460609007 
918	 0.12168584653759 
919	 0.122175979091646 
920	 0.12264462563361 
921	 0.123195987003133 
922	 0.123739751891647 
923	 0.124227271744751 
924	 0.124722921676051 
925	 0.12522252256017 
926	 0.125795057684952 
927	 0.126432210340261 
928	 0.126966479116984 
929	 0.1276233650994 
930	 0.128275676305396 
931	 0.128827880587136 
932	 0.129470627913072 
933	 0.130090701757902 
934	 0.1306935379154 
935	 0.131335233551665 
936	 0.132125191283503 
937	 0.132803480542057 
938	 0.133411152397904 
939	 0.134088332085705 
940	 0.134921328260804 
941	 0.135667027552545 
942	 0.136373143113317 
943	 0.137150950431399 
944	 0.137842408075865 
945	 0.138556048407858 
946	 0.139303812255635 
947	 0.140059389153763 
948	 0.140864709427116 
949	 0.141609418551896 
950	 0.142373827606342 
951	 0.143278813239523 
952	 0.144135121660954 
953	 0.144854277936882 
954	 0.145614511260016 
955	 0.146636560359461 
956	 0.14755213409573 
957	 0.148432578511175 
958	 0.149301182840585 
959	 0.150152647717823 
960	 0.151057296906374 
961	 0.151979621994986 
962	 0.152912187683303 
963	 0.153848551126852 
964	 0.154654146332373 
965	 0.155594853977037 
966	 0.156635724119452 
967	 0.157570562861199 
968	 0.158602796261002 
969	 0.159543648768956 
970	 0.160427242302725 
971	 0.161415545469413 
972	 0.162367169301111 
973	 0.163406396985674 
974	 0.164478758847266 
975	 0.165434971033324 
976	 0.166390168013892 
977	 0.167342422812938 
978	 0.168335526291763 
979	 0.169433185394248 
980	 0.170657713067089 
981	 0.17169437928548 
982	 0.172578177197635 
983	 0.173559412365562 
984	 0.174669728050383 
985	 0.175705781794226 
986	 0.17666482536387 
987	 0.177670368325844 
988	 0.178787491429633 
989	 0.179859121606381 
990	 0.180799797796332 
991	 0.181665915834019 
992	 0.182872703927943 
993	 0.183879387843182 
994	 0.184821623743695 
995	 0.185986043087875 
996	 0.186858585145225 
997	 0.187858921045424 
998	 0.188923143654546 
999	 0.189864976549076 
1000	 0.190812855042642 
1001	 0.191193728664762 
1002	 0.192102707521998 
1003	 0.193055742753714 
1004	 0.193974384172986 
1005	 0.194973482820937 
1006	 0.195871217867842 
1007	 0.196692249724383 
1008	 0.19748401318138 
1009	 0.198330705643227 
1010	 0.199127738181756 
1011	 0.199982562209588 
1012	 0.200859332275951 
1013	 0.201675705777482 
1014	 0.20252229402816 
1015	 0.203327976147257 
1016	 0.20411678864141 
1017	 0.204916850783476 
1018	 0.205712326916318 
1019	 0.206468378128597 
1020	 0.207242805955175 
1021	 0.207977935006955 
1022	 0.208651681688373 
1023	 0.209385879722678 
1024	 0.210116689431484 
1025	 0.21083196818681 
1026	 0.211523319456953 
1027	 0.212149903513762 
1028	 0.212814861264263 
1029	 0.213515909720748 
1030	 0.214205255720522 
1031	 0.214845442716639 
1032	 0.215484215698563 
1033	 0.216073703310872 
1034	 0.216638824678345 
1035	 0.217220875662583 
1036	 0.217870379605034 
1037	 0.218520614244789 
1038	 0.219090609690259 
1039	 0.219673998415288 
1040	 0.220250823788074 
1041	 0.220772239466961 
1042	 0.22136627257777 
1043	 0.221940254276032 
1044	 0.222470740398478 
1045	 0.222956645059953 
1046	 0.223483456675375 
1047	 0.223992456604025 
1048	 0.224532280452427 
1049	 0.225108477350984 
1050	 0.225672186916827 
1051	 0.226223582159157 
1052	 0.226772010280599 
1053	 0.227297995703976 
1054	 0.227812873100694 
1055	 0.228369553935357 
1056	 0.228879050500154 
1057	 0.229402729324313 
1058	 0.229963260673351 
1059	 0.230496005567437 
1060	 0.231012995393196 
1061	 0.231512775212629 
1062	 0.232007785125513 
1063	 0.232431246931562 
1064	 0.2328610626531 
1065	 0.233368434419287 
1066	 0.233870153510366 
1067	 0.234391026898887 
1068	 0.234926899465726 
1069	 0.235415569132801 
1070	 0.235922295079841 
1071	 0.236408560678528 
1072	 0.236933243429676 
1073	 0.237516003618041 
1074	 0.238024821714673 
1075	 0.23849529591852 
1076	 0.239010231744845 
1077	 0.239482487520956 
1078	 0.23991777535633 
1079	 0.240362468095388 
1080	 0.240738560542888 
1081	 0.241116764542598 
1082	 0.241563475143153 
1083	 0.242004808641204 
1084	 0.242498349087406 
1085	 0.242951671450516 
1086	 0.243388382513966 
1087	 0.243798831681368 
1088	 0.244165731565083 
1089	 0.244600790305798 
1090	 0.245036897420728 
1091	 0.245437986837311 
1092	 0.245868304985304 
1093	 0.246270912720248 
1094	 0.246627299578116 
1095	 0.247040916363684 
1096	 0.247451182541033 
1097	 0.247815162123485 
1098	 0.248173656806722 
1099	 0.248491332565621 
1100	 0.248844993989098 
1101	 0.249203778182741 
1102	 0.249577005401727 
1103	 0.249986625563832 
1104	 0.250369690967617 
1105	 0.250716918850353 
1106	 0.251056150828518 
1107	 0.251395768013328 
1108	 0.251741163966823 
1109	 0.25211456477825 
1110	 0.25247286132814 
1111	 0.252829662922453 
1112	 0.253203450803514 
1113	 0.253533143786536 
1114	 0.253837026489124 
1115	 0.254138565673419 
1116	 0.254396096194528 
1117	 0.254690135829515 
1118	 0.254995877420659 
1119	 0.255310519664522 
1120	 0.255645134026613 
1121	 0.255960324041517 
1122	 0.256243374394343 
1123	 0.256539576846393 
1124	 0.25684164026665 
1125	 0.257151756722861 
1126	 0.257423349880125 
1127	 0.257685552271083 
1128	 0.257952726347247 
1129	 0.258183799463837 
1130	 0.258439398300132 
1131	 0.258723110617225 
1132	 0.258993619237372 
1133	 0.259234120632756 
1134	 0.259511704995798 
1135	 0.259826085565385 
1136	 0.260123057998552 
1137	 0.260387452217274 
1138	 0.260676702810543 
1139	 0.260929988840124 
1140	 0.261133131982572 
1141	 0.261361973653314 
1142	 0.261601913953536 
1143	 0.26182417881029 
1144	 0.262040219256135 
1145	 0.26225366828585 
1146	 0.262462991706871 
1147	 0.26266257840026 
1148	 0.262840146331433 
1149	 0.263031910150113 
1150	 0.263223708905944 
1151	 0.2634208948422 
1152	 0.263618010565827 
1153	 0.263845161747344 
1154	 0.264049020815055 
1155	 0.264238059126076 
1156	 0.264448231801775 
1157	 0.264672848341156 
1158	 0.264877111784966 
1159	 0.265082301231383 
1160	 0.265287242414501 
1161	 0.265475146166666 
1162	 0.265668358664312 
1163	 0.265889141578358 
1164	 0.266080506129598 
1165	 0.266250462182794 
1166	 0.266417234677662 
1167	 0.266592069256738 
1168	 0.266755003223764 
1169	 0.266931426071065 
1170	 0.267120429700375 
1171	 0.267306480062047 
1172	 0.267499981609763 
1173	 0.267676117753328 
1174	 0.267858339910431 
1175	 0.26801936841916 
1176	 0.268147163788685 
1177	 0.268297543400905 
1178	 0.268445911268158 
1179	 0.268601496619019 
1180	 0.268786880514546 
1181	 0.26894194322183 
1182	 0.269079842540512 
1183	 0.269216972703812 
1184	 0.269355822471212 
1185	 0.269476602772154 
1186	 0.26961695405166 
1187	 0.269771623512766 
1188	 0.269921347036777 
1189	 0.270070851439677 
1190	 0.270222830120655 
1191	 0.270393275464448 
1192	 0.27053433771259 
1193	 0.270658769660754 
1194	 0.27078782197546 
1195	 0.27090708379726 
1196	 0.271018808347475 
1197	 0.271120588874654 
1198	 0.271235347387388 
1199	 0.271351311245851 
1200	 0.271461333800566 
1201	 0.271569227557429 
1202	 0.271692299208328 
1203	 0.271794643952345 
1204	 0.271865611290439 
1205	 0.271972092042452 
1206	 0.272096022071183 
1207	 0.272208583678611 
1208	 0.272340575329941 
1209	 0.272449245884822 
1210	 0.272536576419551 
1211	 0.272630116072927 
1212	 0.272717249731444 
1213	 0.272806062977067 
1214	 0.272893343999018 
1215	 0.272983678915925 
1216	 0.273075209785456 
1217	 0.273169639712065 
1218	 0.27325673663295 
1219	 0.273343115099064 
1220	 0.273429054349367 
1221	 0.273508530135695 
1222	 0.27359264109198 
1223	 0.273688538924596 
1224	 0.273765824969007 
1225	 0.273831442484236 
1226	 0.273900986195218 
1227	 0.273955767496996 
1228	 0.274024661015628 
1229	 0.274097097650882 
1230	 0.274179041606262 
1231	 0.274287516011762 
1232	 0.27437215271419 
1233	 0.274450087882937 
1234	 0.274523972279895 
1235	 0.274606639461282 
1236	 0.274682886488261 
1237	 0.274751757849676 
1238	 0.274832081727449 
1239	 0.274896435357291 
1240	 0.274933179337208 
1241	 0.27498703948825 
1242	 0.275056149236352 
1243	 0.275109171347119 
1244	 0.275145091269402 
1245	 0.275197304013439 
1246	 0.275250411574731 
1247	 0.27530508250559 
1248	 0.275360684297919 
1249	 0.275437531583417 
1250	 0.275519225917121 
1251	 0.275577277871899 
1252	 0.275631051930691 
1253	 0.275685436230577 
1254	 0.275729815491124 
1255	 0.275753990802498 
1256	 0.275787715851925 
1257	 0.275824069683448 
1258	 0.275857231522078 
1259	 0.275873389259539 
1260	 0.275915182260564 
1261	 0.275974593415791 
1262	 0.27602561484499 
1263	 0.276097512553054 
1264	 0.276152168345663 
1265	 0.276189626892365 
1266	 0.276232284827008 
1267	 0.276289209631424 
1268	 0.276309090547835 
1269	 0.276338178150525 
1270	 0.27635623838502 
1271	 0.276398613611665 
1272	 0.276450840229254 
1273	 0.276489530068514 
1274	 0.276527430203678 
1275	 0.276584900627712 
1276	 0.276641527636157 
1277	 0.276697387939089 
1278	 0.276770370285711 
1279	 0.27684823497825 
1280	 0.276912951201808 
1281	 0.27699477201568 
1282	 0.277121119907326 
1283	 0.277212188771955 
1284	 0.277291576000677 
1285	 0.277350573552341 
1286	 0.27742023134908 
1287	 0.277492369831335 
1288	 0.277569299761185 
1289	 0.277668543090605 
1290	 0.277736091106573 
1291	 0.277786937932298 
1292	 0.277842543815004 
1293	 0.27787334746516 
1294	 0.277941010254156 
1295	 0.278041134684666 
1296	 0.278110188326415 
1297	 0.278186101981952 
1298	 0.278248384860583 
1299	 0.278289830320278 
1300	 0.278325645232755 
1301	 0.278349784997384 
1302	 0.278385504959793 
1303	 0.278419226227485 
1304	 0.278439691269708 
1305	 0.278482502469679 
1306	 0.278533734835852 
1307	 0.278551135389648 
1308	 0.278566317127324 
1309	 0.278585403360498 
1310	 0.278600382314267 
1311	 0.278607934581426 
1312	 0.278618227461074 
1313	 0.278618597497515 
1314	 0.278611761959758 
1315	 0.278593528696809 
1316	 0.278572789398111 
1317	 0.278540126361526 
1318	 0.278481362681974 
1319	 0.278437369132855 
1320	 0.278401073938895 
1321	 0.2783493355132 
1322	 0.278288280349692 
1323	 0.278238469979862 
1324	 0.278176311293443 
1325	 0.278116777629791 
1326	 0.27806678605429 
1327	 0.277999815481801 
1328	 0.277915755927772 
1329	 0.277837193343223 
1330	 0.277757280828991 
1331	 0.277684378298905 
1332	 0.277586517443128 
1333	 0.277479420982626 
1334	 0.277368346013702 
1335	 0.277228470594831 
1336	 0.277115100287336 
1337	 0.277014254286941 
1338	 0.276909882390777 
1339	 0.27682450683458 
1340	 0.276715486011575 
1341	 0.276589335395777 
1342	 0.276470291375466 
1343	 0.276338819176349 
1344	 0.276214415645695 
1345	 0.276113203685856 
1346	 0.27601011308083 
1347	 0.275902006648446 
1348	 0.275787829940098 
1349	 0.275645021924509 
1350	 0.275498437351055 
1351	 0.275380457294097 
1352	 0.275275107638176 
1353	 0.275162207333815 
1354	 0.275067854281365 
1355	 0.274961378336925 
1356	 0.274836597742226 
1357	 0.274727946506818 
1358	 0.274633964333178 
1359	 0.274528083754691 
1360	 0.274418288528116 
1361	 0.274309997279753 
1362	 0.274200170247956 
1363	 0.274092125476766 
1364	 0.273984315335139 
1365	 0.27387666023108 
1366	 0.273770544479511 
1367	 0.273657386222974 
1368	 0.273555673078828 
1369	 0.273458605262769 
1370	 0.273353000550917 
1371	 0.273243286708795 
1372	 0.273103458646275 
1373	 0.272957894707248 
1374	 0.272797023647885 
1375	 0.272614254734378 
1376	 0.27242568571304 
1377	 0.272241091858648 
1378	 0.272013799405849 
1379	 0.271761178532485 
1380	 0.271501007714596 
1381	 0.27121330249559 
1382	 0.270915545462037 
1383	 0.270615843005495 
1384	 0.270285042278236 
1385	 0.269944315384575 
1386	 0.269567132439034 
1387	 0.269168869342028 
1388	 0.26873391241563 
1389	 0.268270273646814 
1390	 0.267762630157344 
1391	 0.267221013369126 
1392	 0.266667187924952 
1393	 0.266072139532248 
1394	 0.265437422807049 
1395	 0.264751196935711 
1396	 0.264041187508804 
1397	 0.263330657655538 
1398	 0.262590520920736 
1399	 0.261854240099315 
1400	 0.261127298086713 
1401	 0.260366450583421 
1402	 0.259578718135554 
1403	 0.258798254697048 
1404	 0.257981094731226 
1405	 0.257214606866117 
1406	 0.256467058528558 
1407	 0.255725505311435 
1408	 0.255002715502484 
1409	 0.254295761181843 
1410	 0.253582809517282 
1411	 0.252914316393363 
1412	 0.252266678302772 
1413	 0.251662595354002 
1414	 0.251108524012241 
1415	 0.250575759110476 
1416	 0.250076423454945 
1417	 0.249602659950272 
1418	 0.249125828565311 
1419	 0.248668864673698 
1420	 0.24825109990462 
1421	 0.247849156391847 
1422	 0.247473055207051 
1423	 0.247122854788087 
1424	 0.246782115368004 
1425	 0.246455466657562 
1426	 0.246147144096223 
1427	 0.245846275747118 
1428	 0.245582447839502 
1429	 0.245343504414711 
1430	 0.245121164716855 
1431	 0.244935796569616 
1432	 0.244748276258687 
1433	 0.244567476035105 
1434	 0.244403564314291 
1435	 0.244241594191152 
1436	 0.244112881835399 
1437	 0.244018933656141 
1438	 0.243922640182697 
1439	 0.243848459476398 
1440	 0.243777435795477 
1441	 0.243687156295113 
1442	 0.243596207089115 
1443	 0.243504508641744 
1444	 0.24343168311058 
1445	 0.243395792696103 
1446	 0.243362642325286 
1447	 0.243357497052578 
1448	 0.243364994667832 
1449	 0.243342033593092 
1450	 0.243320045120293 
1451	 0.243302573741074 
1452	 0.243267255252826 
1453	 0.243261508536522 
1454	 0.243278327658056 
1455	 0.243289605504815 
1456	 0.243312201955061 
1457	 0.243326371761204 
1458	 0.243337857255386 
1459	 0.243352842980114 
1460	 0.243355516001195 
1461	 0.243385950834841 
1462	 0.243428491194286 
1463	 0.243479693718203 
1464	 0.24355902428305 
1465	 0.243626265331678 
1466	 0.243689035115563 
1467	 0.243758876979007 
1468	 0.243817921849082 
1469	 0.243900727834721 
1470	 0.243995146821972 
1471	 0.244105078699428 
1472	 0.24423672652119 
1473	 0.244390369139918 
1474	 0.244547561302788 
1475	 0.244718177807868 
1476	 0.244868018001997 
1477	 0.245006860041834 
1478	 0.245160255354277 
1479	 0.245325909289042 
1480	 0.245524255320548 
1481	 0.245725354219275 
1482	 0.245918848428372 
1483	 0.246117977543886 
1484	 0.246304919962941 
1485	 0.24647650694646 
1486	 0.246669756064446 
1487	 0.246858252450611 
1488	 0.24706939732386 
1489	 0.247313545430507 
1490	 0.247528637044653 
1491	 0.247754027577736 
1492	 0.247955800828725 
1493	 0.248123433014982 
1494	 0.248311236583504 
1495	 0.248494895101153 
1496	 0.248681007522574 
1497	 0.248879545746179 
1498	 0.249070431533723 
1499	 0.249269177229733 
1500	 0.249450629820643 
1501	 0.249611556257459 
1502	 0.249779245837953 
1503	 0.249939545073357 
1504	 0.25009403595353 
1505	 0.250269786933697 
1506	 0.250462734896904 
1507	 0.250647057669469 
1508	 0.250831197358744 
1509	 0.251005983807086 
1510	 0.25117053303786 
1511	 0.25132453481207 
1512	 0.251467546007141 
1513	 0.251604611414524 
1514	 0.251742312108489 
1515	 0.251898529683796 
1516	 0.252057037741113 
1517	 0.25221682349712 
1518	 0.252393193345266 
1519	 0.252545488348392 
1520	 0.252685661444145 
1521	 0.252830276066137 
1522	 0.252964557842063 
1523	 0.253102922016492 
1524	 0.253246645037586 
1525	 0.253383895910436 
1526	 0.253517101789672 
1527	 0.253645440433388 
1528	 0.253774231464336 
1529	 0.253895386077866 
1530	 0.254009508364532 
1531	 0.254120247485084 
1532	 0.254221881509648 
1533	 0.254324967600867 
1534	 0.254421092193259 
1535	 0.254525810284812 
1536	 0.254636455007435 
1537	 0.254744848354661 
1538	 0.254853841387256 
1539	 0.254963909592144 
1540	 0.255081288689684 
1541	 0.25518832369774 
1542	 0.255285675736875 
1543	 0.255390623724976 
1544	 0.255502422377966 
1545	 0.255595430936797 
1546	 0.25568111175403 
1547	 0.255773775870579 
1548	 0.255842863800659 
1549	 0.255898680849443 
1550	 0.255971505095137 
1551	 0.256041372078657 
1552	 0.256100044687847 
1553	 0.256178700081531 
1554	 0.256269174293305 
1555	 0.2563505935291 
1556	 0.256429794171148 
1557	 0.256503550523971 
1558	 0.256574267623781 
1559	 0.256637803135771 
1560	 0.256698644232774 
1561	 0.256764318031479 
1562	 0.256824465422504 
1563	 0.256869378467676 
1564	 0.256930205504563 
1565	 0.257008186626032 
1566	 0.257061908752133 
1567	 0.257106356950713 
1568	 0.257155096590499 
1569	 0.257186039335034 
1570	 0.257240785967561 
1571	 0.257324399083404 
1572	 0.257367803392807 
1573	 0.257398612704166 
1574	 0.257434335194156 
1575	 0.257440351950797 
1576	 0.257474752636462 
1577	 0.257537577074117 
1578	 0.257579317999727 
1579	 0.257616206661204 
1580	 0.257654436219898 
1581	 0.257677743096524 
1582	 0.257725714444628 
1583	 0.257790059895944 
1584	 0.257848090529108 
1585	 0.257930373098383 
1586	 0.257977242525056 
1587	 0.257997248907056 
1588	 0.258029737470971 
1589	 0.258054801979541 
1590	 0.258076290544967 
1591	 0.258103791211516 
1592	 0.258122845284005 
1593	 0.258115431622173 
1594	 0.25813001625204 
1595	 0.258168343830631 
1596	 0.258188700126059 
1597	 0.258205533604869 
1598	 0.258226499193606 
1599	 0.25824287039516 
1600	 0.258249514072195 
1601	 0.258248181367554 
1602	 0.258261863648589 
1603	 0.258258344898042 
1604	 0.258279386310118 
1605	 0.258343949655985 
1606	 0.258387517745264 
1607	 0.258427195279107 
1608	 0.258478623104991 
1609	 0.258501667459876 
1610	 0.258498942550715 
1611	 0.258500339849824 
1612	 0.258498432837087 
1613	 0.258489069359687 
1614	 0.258487699547598 
1615	 0.258493312206651 
1616	 0.258498767832515 
1617	 0.258534940288073 
1618	 0.258580376732523 
1619	 0.258608381090369 
1620	 0.258630663210724 
1621	 0.258638337678818 
1622	 0.258626501233642 
1623	 0.258616482426727 
1624	 0.258601617732692 
1625	 0.258579371433375 
1626	 0.258537237781827 
1627	 0.258529813838227 
1628	 0.258533349048732 
1629	 0.258533992108904 
1630	 0.258552562153749 
1631	 0.258565195064651 
1632	 0.258567928421814 
1633	 0.258581328875795 
1634	 0.25861929023299 
1635	 0.258615794229165 
1636	 0.258596849060461 
1637	 0.258570236432806 
1638	 0.258509344042005 
1639	 0.258485111834779 
1640	 0.258469381355908 
1641	 0.258457812658942 
1642	 0.258468006279457 
1643	 0.258458421870023 
1644	 0.258441619341923 
1645	 0.258425932524182 
1646	 0.258403605199002 
1647	 0.258387179504366 
1648	 0.258374511953397 
1649	 0.258356801792551 
1650	 0.258339081881188 
1651	 0.258319447582779 
1652	 0.258290617432998 
1653	 0.258276958089682 
1654	 0.258272650243554 
1655	 0.258261535652439 
1656	 0.258265610349238 
1657	 0.258241367178124 
1658	 0.258200567892731 
1659	 0.258157121831302 
1660	 0.258088197036859 
1661	 0.258045476350592 
1662	 0.258012522667365 
1663	 0.257975398955388 
1664	 0.257949317535622 
1665	 0.257916437000481 
1666	 0.257869008495314 
1667	 0.25784238697248 
1668	 0.257835072242032 
1669	 0.257809025914024 
1670	 0.257786761169537 
1671	 0.257754982926988 
1672	 0.257699273984393 
1673	 0.257667319664878 
1674	 0.257642197649192 
1675	 0.257624217989746 
1676	 0.257631615411539 
1677	 0.257607467591745 
1678	 0.257573893640339 
1679	 0.257538032923981 
1680	 0.257473487118224 
1681	 0.257436792491717 
1682	 0.257415927297855 
1683	 0.257390626990088 
1684	 0.257382189479388 
1685	 0.257351581882513 
1686	 0.257312634609149 
1687	 0.257265931126699 
1688	 0.257204180297975 
1689	 0.257143419910892 
1690	 0.257068939758867 
1691	 0.257015526017726 
1692	 0.25696149499886 
1693	 0.256924051417052 
1694	 0.256920610081985 
1695	 0.256883962152654 
1696	 0.256835671513948 
1697	 0.256797424402924 
1698	 0.256742952865101 
1699	 0.256706566185005 
1700	 0.256697982282453 
1701	 0.25666272949209 
1702	 0.256626549204299 
1703	 0.256567248613725 
1704	 0.256484679270898 
1705	 0.256407769010157 
1706	 0.256315830053422 
1707	 0.256231250756319 
1708	 0.256140618767412 
1709	 0.256069275264225 
1710	 0.256005508463741 
1711	 0.255947967123618 
1712	 0.255911842016403 
1713	 0.2558654617404 
1714	 0.255816961608145 
1715	 0.255763050162216 
1716	 0.255712267018861 
1717	 0.255646958941584 
1718	 0.255575627604795 
1719	 0.255495095436892 
1720	 0.255395861153811 
1721	 0.255309580624423 
1722	 0.255218668547402 
1723	 0.255132667282947 
1724	 0.255067969866115 
1725	 0.254975566294092 
1726	 0.254868215900678 
1727	 0.254755886249589 
1728	 0.254608468514088 
1729	 0.254510828025964 
1730	 0.254439847308108 
1731	 0.254358654556053 
1732	 0.254307227959044 
1733	 0.254227062622382 
1734	 0.254127339622667 
1735	 0.254018707918721 
1736	 0.253899388406659 
1737	 0.253787813240685 
1738	 0.253666361342335 
1739	 0.253552097310817 
1740	 0.25344947239832 
1741	 0.253333703360793 
1742	 0.253196430997191 
1743	 0.253091335685485 
1744	 0.253000868128103 
1745	 0.252904178651071 
1746	 0.252837830881228 
1747	 0.252711280365196 
1748	 0.252582509114404 
1749	 0.25246174041386 
1750	 0.252311513118212 
1751	 0.252199127369833 
1752	 0.252086297473608 
1753	 0.251969269453602 
1754	 0.251871470712013 
1755	 0.251762588769499 
1756	 0.251654382582682 
1757	 0.251549688325649 
1758	 0.251438493697864 
1759	 0.251310956927375 
1760	 0.251189863107426 
1761	 0.25106696894939 
1762	 0.250919161206819 
1763	 0.250782434719052 
1764	 0.25064494094683 
1765	 0.250509423687001 
1766	 0.250381195753062 
1767	 0.250250136085038 
1768	 0.25015243470263 
1769	 0.250067439311846 
1770	 0.249993913551515 
1771	 0.249950613385998 
1772	 0.249886753545311 
1773	 0.249784959135289 
1774	 0.249689209185381 
1775	 0.249610281743677 
1776	 0.249525568974291 
1777	 0.249466238399867 
1778	 0.249397505624109 
1779	 0.249289467102813 
1780	 0.24919243367422 
1781	 0.249095472118845 
1782	 0.249018427662319 
1783	 0.248947543580401 
1784	 0.248890499131419 
1785	 0.248867589475729 
1786	 0.24881386410905 
1787	 0.248752718544573 
1788	 0.248700379251009 
1789	 0.248637950590643 
1790	 0.248566872999628 
1791	 0.248502923052743 
1792	 0.248428140598195 
1793	 0.248305014478059 
1794	 0.248251422548582 
1795	 0.248234331034684 
1796	 0.248232401820613 
1797	 0.248294492558362 
1798	 0.248296692630432 
1799	 0.248281472660928 
1800	 0.248267550495878 
1801	 0.245986946703293 
1802	 0.24615746150806 
1803	 0.24634151385947 
1804	 0.246553542961884 
1805	 0.246784449647528 
1806	 0.246998487049278 
1807	 0.247205902806336 
1808	 0.247386012320113 
1809	 0.247530998603898 
1810	 0.247683111326894 
1811	 0.247846388036936 
1812	 0.247974751100268 
1813	 0.24803894052836 
1814	 0.248086947573075 
1815	 0.248109022674137 
1816	 0.248114074385537 
1817	 0.248126703982991 
1818	 0.248151691790483 
1819	 0.248165500139912 
1820	 0.248163309734254 
1821	 0.248161024511831 
1822	 0.248186795873719 
1823	 0.248225159945323 
1824	 0.248267214947407 
1825	 0.248313237925406 
1826	 0.248342355300063 
1827	 0.248345787122193 
1828	 0.248340793914195 
1829	 0.248312902254304 
1830	 0.248291039701909 
1831	 0.248257979957875 
1832	 0.248233035223252 
1833	 0.24821223147483 
1834	 0.248182746252589 
1835	 0.248137638314256 
1836	 0.248083405421825 
1837	 0.248033133009865 
1838	 0.247978713547248 
1839	 0.24794451688175 
1840	 0.247925167256265 
1841	 0.247928083794132 
1842	 0.247897388669788 
1843	 0.247853401007882 
1844	 0.24780245359841 
1845	 0.247715110898633 
1846	 0.247656640451883 
1847	 0.247622725911955 
1848	 0.247540352131285 
1849	 0.24744615850986 
1850	 0.247336954481054 
1851	 0.247211385310587 
1852	 0.247035743397526 
1853	 0.246867974138446 
1854	 0.246695145005302 
1855	 0.246485967907435 
1856	 0.246277597775342 
1857	 0.246052110393581 
1858	 0.245805464577539 
1859	 0.245548684495184 
1860	 0.2452501397242 
1861	 0.244917663242869 
1862	 0.244564926825015 
1863	 0.244191238998843 
1864	 0.243771443451249 
1865	 0.243346103808691 
1866	 0.242888241598317 
1867	 0.242358590353663 
1868	 0.241794154567601 
1869	 0.241177503668959 
1870	 0.240512183088027 
1871	 0.239817681951111 
1872	 0.239090455114617 
1873	 0.238345195891065 
1874	 0.237565171010774 
1875	 0.236696330018232 
1876	 0.235792205670422 
1877	 0.234833986650549 
1878	 0.233761730384525 
1879	 0.232642840061556 
1880	 0.231448201210716 
1881	 0.230163549423173 
1882	 0.228816660675192 
1883	 0.227415980939577 
1884	 0.225921365882349 
1885	 0.224331020191863 
1886	 0.222662445201958 
1887	 0.220898677652941 
1888	 0.219041468860837 
1889	 0.2171114377539 
1890	 0.215139294157427 
1891	 0.213131029598915 
1892	 0.211035766591137 
1893	 0.208951256907 
1894	 0.206851956456342 
1895	 0.20471156079635 
1896	 0.202535483942562 
1897	 0.200394732925655 
1898	 0.19823565374228 
1899	 0.196088725526487 
1900	 0.19402955212374 
1901	 0.191990251774098 
1902	 0.190017873496394 
1903	 0.188123260624114 
1904	 0.186282288961389 
1905	 0.184474980252548 
1906	 0.182750707649855 
1907	 0.181123561524541 
1908	 0.179568519386574 
1909	 0.178104177770906 
1910	 0.176730378747537 
1911	 0.17545259336721 
1912	 0.174259119189365 
1913	 0.173125157009321 
1914	 0.172082159300628 
1915	 0.171085544347089 
1916	 0.170146407301724 
1917	 0.169250604475237 
1918	 0.168455568096434 
1919	 0.16771214753502 
1920	 0.167044805978663 
1921	 0.166455733665105 
1922	 0.165895912245484 
1923	 0.165395143905024 
1924	 0.164947574589154 
1925	 0.164559029381371 
1926	 0.164211555176408 
1927	 0.163917748295823 
1928	 0.163661971971495 
1929	 0.163456405624399 
1930	 0.163290868230305 
1931	 0.163180783506132 
1932	 0.163109256405962 
1933	 0.163031889690554 
1934	 0.162972180179369 
1935	 0.16294695689643 
1936	 0.162923189699309 
1937	 0.162950764185865 
1938	 0.163032353941191 
1939	 0.163131422465202 
1940	 0.163260310601 
1941	 0.16341254103757 
1942	 0.163591222589764 
1943	 0.163787165201488 
1944	 0.16397541082485 
1945	 0.164187915305328 
1946	 0.164422811423002 
1947	 0.164674624747183 
1948	 0.164936157560083 
1949	 0.165222888156847 
1950	 0.165514790425435 
1951	 0.165803063106613 
1952	 0.166123668246155 
1953	 0.166461522375724 
1954	 0.166840430384077 
1955	 0.167249538055377 
1956	 0.167655731916162 
1957	 0.168063056054963 
1958	 0.168480913640446 
1959	 0.168902691135475 
1960	 0.169327140626318 
1961	 0.16974762572422 
1962	 0.170173602921072 
1963	 0.170606525682712 
1964	 0.17102195712358 
1965	 0.171466608258492 
1966	 0.171945896388641 
1967	 0.172421679994964 
1968	 0.172897751937633 
1969	 0.173386138703571 
1970	 0.173864725468118 
1971	 0.17434158488283 
1972	 0.174813547116147 
1973	 0.175267263101071 
1974	 0.17575844865356 
1975	 0.176268558382095 
1976	 0.176763139012414 
1977	 0.177304245182624 
1978	 0.177845683147371 
1979	 0.17833674027945 
1980	 0.178846751515533 
1981	 0.179351034286398 
1982	 0.179831687013574 
1983	 0.180333311083182 
1984	 0.180848557660117 
1985	 0.181364848937969 
1986	 0.181890107502036 
1987	 0.182415352734468 
1988	 0.182952735125591 
1989	 0.183483843407271 
1990	 0.183990034382095 
1991	 0.184493774194408 
1992	 0.185003868982756 
1993	 0.185501097266539 
1994	 0.186013610272379 
1995	 0.186547181644338 
1996	 0.18706052283094 
1997	 0.187569776905475 
1998	 0.188076032264677 
1999	 0.188567450120352 
2000	 0.189069941170846 
2001	 0.189585403274412 
2002	 0.190084046512595 
2003	 0.190590621792679 
2004	 0.191082810620162 
2005	 0.191554569772766 
2006	 0.192003423295118 
2007	 0.192458902802328 
2008	 0.192879202213677 
2009	 0.193343311354307 
2010	 0.193834004037577 
2011	 0.194312185506549 
2012	 0.194829094132018 
2013	 0.195306399134682 
2014	 0.195757987212397 
2015	 0.196191406661811 
2016	 0.196650850109333 
2017	 0.197095185230164 
2018	 0.197545437143215 
2019	 0.198020179694311 
2020	 0.198466360070306 
2021	 0.19888701080182 
2022	 0.19931932040491 
2023	 0.199753172356798 
2024	 0.200179879331768 
2025	 0.200592567052792 
2026	 0.20102216051198 
2027	 0.20145424899481 
2028	 0.201891312837852 
2029	 0.20232972281525 
2030	 0.202795593200644 
2031	 0.203215208777583 
2032	 0.203609376412021 
2033	 0.204010379530135 
2034	 0.204391386958701 
2035	 0.204778418565209 
2036	 0.205186640427012 
2037	 0.205561880553299 
2038	 0.205909434709959 
2039	 0.206263776554855 
2040	 0.206610318439902 
2041	 0.20694024821221 
2042	 0.20728938291362 
2043	 0.207628709780238 
2044	 0.207962960483138 
2045	 0.208287108386618 
2046	 0.208618986045864 
2047	 0.20895140787368 
2048	 0.209280710629686 
2049	 0.209620531547136 
2050	 0.209939773238461 
2051	 0.210247546418518 
2052	 0.210547067027215 
2053	 0.210817503206926 
2054	 0.211110009025967 
2055	 0.211406086544643 
2056	 0.211712342671578 
2057	 0.212006032925087 
2058	 0.212308957216056 
2059	 0.212599650207206 
2060	 0.212872959124905 
2061	 0.21315463919774 
2062	 0.213444804068933 
2063	 0.213724696573009 
2064	 0.213990384541902 
2065	 0.214267505919236 
2066	 0.214549346693617 
2067	 0.214827342166774 
2068	 0.215108278940262 
2069	 0.215392581259701 
2070	 0.215663598825793 
2071	 0.215925817403351 
2072	 0.216189852055233 
2073	 0.216446605476214 
2074	 0.216709528115335 
2075	 0.216983469101484 
2076	 0.217236035655587 
2077	 0.217472729528298 
2078	 0.217722014207117 
2079	 0.217955717454924 
2080	 0.218206270378675 
2081	 0.218482318982009 
2082	 0.218744731903465 
2083	 0.218989425238262 
2084	 0.219260475110949 
2085	 0.219536415842217 
2086	 0.219824741096801 
2087	 0.220089936017702 
2088	 0.220372715379962 
2089	 0.22061935686479 
2090	 0.220819982397885 
2091	 0.221050652746611 
2092	 0.221279621043366 
2093	 0.221512139053956 
2094	 0.22175924004042 
2095	 0.221994542516541 
2096	 0.22221881674942 
2097	 0.222451854138209 
2098	 0.222674287920193 
2099	 0.222919888585684 
2100	 0.223160440211516 
2101	 0.223419221257194 
2102	 0.223644870564222 
2103	 0.223855343092863 
2104	 0.224072557614755 
2105	 0.224263954511947 
2106	 0.224483337574282 
2107	 0.224717725143234 
2108	 0.224957584336103 
2109	 0.225212037902325 
2110	 0.225463955893176 
2111	 0.225721166939696 
2112	 0.225981475131143 
2113	 0.226269184736938 
2114	 0.226515770832481 
2115	 0.226749434489124 
2116	 0.226968871212311 
2117	 0.227196235023979 
2118	 0.227393712094907 
2119	 0.227619054952809 
2120	 0.227876257819486 
2121	 0.228106775453289 
2122	 0.228338674293715 
2123	 0.228546326601674 
2124	 0.228736563342517 
2125	 0.228921289277449 
2126	 0.229092582945774 
2127	 0.229250497671746 
2128	 0.229400211799147 
2129	 0.229538613369883 
2130	 0.229651966794992 
2131	 0.229765917872783 
2132	 0.229881305030853 
2133	 0.229990657524675 
2134	 0.230108100913677 
2135	 0.230235975063162 
2136	 0.230344147014307 
2137	 0.230458330620413 
2138	 0.230545460838798 
2139	 0.230603542605178 
2140	 0.230670517324535 
2141	 0.230736678647698 
2142	 0.230782684511719 
2143	 0.230833302903705 
2144	 0.230853590453727 
2145	 0.230825081864544 
2146	 0.230815011589204 
2147	 0.230779911912523 
2148	 0.230780550679871 
2149	 0.230766903590151 
2150	 0.230769943811409 
2151	 0.230746624933571 
2152	 0.230711065779252 
2153	 0.230671046522055 
2154	 0.230622284599841 
2155	 0.230565341674128 
2156	 0.230510933440938 
2157	 0.23043099236712 
2158	 0.230337717720192 
2159	 0.23022569297824 
2160	 0.230076006783201 
2161	 0.229940741019 
2162	 0.229791350340267 
2163	 0.229653303916668 
2164	 0.229526907322435 
2165	 0.229399794671096 
2166	 0.229273053686675 
2167	 0.229149417005282 
2168	 0.229018248231558 
2169	 0.228889592974985 
2170	 0.228749555408179 
2171	 0.228596815997512 
2172	 0.228454030324204 
2173	 0.228302847815738 
2174	 0.228164969125116 
2175	 0.228040938769203 
2176	 0.227909288727999 
2177	 0.227790616564019 
2178	 0.227650347120486 
2179	 0.227500374908796 
2180	 0.227343247177082 
2181	 0.227161356808123 
2182	 0.226992165111223 
2183	 0.226825260911219 
2184	 0.22665508942973 
2185	 0.226490339227262 
2186	 0.226321480484046 
2187	 0.226177601992838 
2188	 0.226041634966599 
2189	 0.225919041412357 
2190	 0.225817914339989 
2191	 0.225719690763415 
2192	 0.225637007425169 
2193	 0.225542816116577 
2194	 0.225452253719518 
2195	 0.225364938167786 
2196	 0.225275101220446 
2197	 0.225182221854701 
2198	 0.225077567955296 
2199	 0.225000736207246 
2200	 0.224931337898379 
2201	 0.224867811459837 
2202	 0.224812860880876 
2203	 0.224799082387576 
2204	 0.224767329083949 
2205	 0.224716634319775 
2206	 0.224718318430135 
2207	 0.224757251097588 
2208	 0.224774659183126 
2209	 0.224821010550264 
2210	 0.224838976298805 
2211	 0.224818683404855 
2212	 0.224837754855043 
2213	 0.224875086864813 
2214	 0.22490721394886 
2215	 0.224971878500679 
2216	 0.224998521218426 
2217	 0.224993168759603 
2218	 0.224999192242954 
2219	 0.224995816850978 
2220	 0.224992487471761 
2221	 0.224978795803071 
2222	 0.224990425208592 
2223	 0.225006824506123 
2224	 0.22501662636706 
2225	 0.225038722778717 
2226	 0.225081647241527 
2227	 0.225109208789008 
2228	 0.225134920806637 
2229	 0.225151769229567 
2230	 0.225164530821965 
2231	 0.225177696955607 
2232	 0.225186532734309 
2233	 0.225188201211104 
2234	 0.225198933461498 
2235	 0.22518302757249 
2236	 0.22513442188625 
2237	 0.22510539045647 
2238	 0.22505835491253 
2239	 0.225036940256344 
2240	 0.225050329997542 
2241	 0.225042801004929 
2242	 0.225041705339247 
2243	 0.225026825649055 
2244	 0.22499288068613 
2245	 0.224959513674348 
2246	 0.224920132328976 
2247	 0.224901298146459 
2248	 0.224881732899585 
2249	 0.224876221164718 
2250	 0.224846798652576 
2251	 0.22480650536701 
2252	 0.224781232009251 
2253	 0.224742150136385 
2254	 0.224723036603353 
2255	 0.224741808721803 
2256	 0.224712941490265 
2257	 0.224664414926898 
2258	 0.224627781802245 
2259	 0.22455857459879 
2260	 0.224525778856848 
2261	 0.224526088788902 
2262	 0.224505129140171 
2263	 0.224514157287883 
2264	 0.224475193227868 
2265	 0.2243862278056 
2266	 0.224321762494512 
2267	 0.224200963004887 
2268	 0.224151069853816 
2269	 0.224162290371792 
2270	 0.224186303565009 
2271	 0.224193612796559 
2272	 0.224185932613974 
2273	 0.224119221080917 
2274	 0.224032354891524 
2275	 0.223943555085521 
2276	 0.223836403011429 
2277	 0.223745892111317 
2278	 0.223633314017412 
2279	 0.223560135078865 
2280	 0.223516853494077 
2281	 0.223470782494179 
2282	 0.223454541912958 
2283	 0.223411775820805 
2284	 0.223350781405876 
2285	 0.223305746408728 
2286	 0.223265142207947 
2287	 0.223211858944164 
2288	 0.223165018577055 
2289	 0.22311386457553 
2290	 0.223043738655995 
2291	 0.222983016650324 
2292	 0.222946530312913 
2293	 0.222879348188347 
2294	 0.222788157227931 
2295	 0.222698575842134 
2296	 0.22259118513287 
2297	 0.222486672555129 
2298	 0.222383111767774 
2299	 0.222317885886717 
2300	 0.222259831524181 
2301	 0.222157235093369 
2302	 0.222015192810709 
2303	 0.221897046334016 
2304	 0.221787507639973 
2305	 0.221675265108104 
2306	 0.221561125844931 
2307	 0.221489957966913 
2308	 0.221348735656436 
2309	 0.221140989917282 
2310	 0.220986309912906 
2311	 0.220846687695197 
2312	 0.220677040248616 
2313	 0.220498192021385 
2314	 0.220352239765619 
2315	 0.220201239689863 
2316	 0.220044337538403 
2317	 0.21991170137146 
2318	 0.219775668563362 
2319	 0.219617769296903 
2320	 0.219471147232178 
2321	 0.219363486391479 
2322	 0.219222830666708 
2323	 0.219047717992473 
2324	 0.218887821758796 
2325	 0.218710684214182 
2326	 0.218567057730161 
2327	 0.218459754832361 
2328	 0.218329143141721 
2329	 0.218174471864397 
2330	 0.218024146512092 
2331	 0.217862152147018 
2332	 0.217701104997124 
2333	 0.217606650048261 
2334	 0.217495421333185 
2335	 0.217381068484084 
2336	 0.217288513746488 
2337	 0.21709303406125 
2338	 0.216935696676012 
2339	 0.21680879944898 
2340	 0.216561100738918 
2341	 0.21637619457394 
2342	 0.216276404606063 
2343	 0.216116913033269 
2344	 0.215959826985289 
2345	 0.215774444823774 
2346	 0.215568879285289 
2347	 0.215362984347902 
2348	 0.215140201718172 
2349	 0.214906067666359 
2350	 0.214671336514515 
2351	 0.214422456622934 
2352	 0.214132580731808 
2353	 0.213882268657925 
2354	 0.213663805428912 
2355	 0.213416678221621 
2356	 0.213156524720447 
2357	 0.212910540171629 
2358	 0.212658631060522 
2359	 0.212405001849077 
2360	 0.212185007320321 
2361	 0.211920880225136 
2362	 0.211609410438172 
2363	 0.21134542035528 
2364	 0.211060064635379 
2365	 0.210805669468458 
2366	 0.210629714063762 
2367	 0.210375838049105 
2368	 0.210079756613025 
2369	 0.209816999474742 
2370	 0.20950475179381 
2371	 0.209275501187291 
2372	 0.209071476116511 
2373	 0.208849922240343 
2374	 0.208627657719584 
2375	 0.208300856573316 
2376	 0.207955768872465 
2377	 0.207628285530883 
2378	 0.207268527662456 
2379	 0.206916058128585 
2380	 0.206595704351482 
2381	 0.206345146478297 
2382	 0.206087250599856 
2383	 0.205843915738737 
2384	 0.20561478817329 
2385	 0.205230595964935 
2386	 0.204872894458205 
2387	 0.204558578141288 
2388	 0.204178243080892 
2389	 0.203889756380792 
2390	 0.20359331368024 
2391	 0.203262461585419 
2392	 0.202968236831872 
2393	 0.202602282656136 
2394	 0.202227711252755 
2395	 0.201815744798305 
2396	 0.201439792983631 
2397	 0.201132443898973 
2398	 0.20069765041907 
2399	 0.200325076328358 
2400	 0.199934862528195 
2401	 0.199472469387838 
2402	 0.199187895385233 
2403	 0.198967757979126 
2404	 0.198721489021343 
2405	 0.198408950213355 
2406	 0.19803551941651 
2407	 0.197694912105597 
2408	 0.197358714401903 
2409	 0.197032056197033 
2410	 0.196701446415884 
2411	 0.196261033886255 
2412	 0.195838575429445 
2413	 0.195491550506807 
2414	 0.195134403901799 
2415	 0.194836129847715 
2416	 0.194470688019332 
2417	 0.194020714226734 
2418	 0.193596251287243 
2419	 0.193134271135502 
2420	 0.192768606632871 
2421	 0.192468131251051 
2422	 0.192136719369134 
2423	 0.191889720421049 
2424	 0.191528583893566 
2425	 0.191044028937889 
2426	 0.190620794900967 
2427	 0.190235561056096 
2428	 0.189778144654128 
2429	 0.18924295340961 
2430	 0.188878938169723 
2431	 0.188541232280179 
2432	 0.188153079463055 
2433	 0.187920105215096 
2434	 0.187534804936577 
2435	 0.186988663124027 
2436	 0.186586553981201 
2437	 0.186211173604869 
2438	 0.185841471904007 
2439	 0.185512471910143 
2440	 0.185097675790849 
2441	 0.184663672449798 
2442	 0.184267262774527 
2443	 0.18389132651924 
2444	 0.183441590032008 
2445	 0.182927547073756 
2446	 0.182503099127137 
2447	 0.182030417674366 
2448	 0.181664780708178 
2449	 0.181443171766019 
2450	 0.181075917864171 
2451	 0.180713163675607 
2452	 0.180319265118094 
2453	 0.179865055789934 
2454	 0.179470802220692 
2455	 0.179014844648244 
2456	 0.178619282814276 
2457	 0.178299967977545 
2458	 0.177953080803603 
2459	 0.177656609416058 
2460	 0.177292095875621 
2461	 0.176864191960653 
2462	 0.176522443622197 
2463	 0.176181541870185 
2464	 0.17589639218176 
2465	 0.175695595581563 
2466	 0.175374512292561 
2467	 0.175049570362408 
2468	 0.174727425369381 
2469	 0.17430110366928 
2470	 0.174022295666562 
2471	 0.173686929210318 
2472	 0.173235054141939 
2473	 0.172960847283939 
2474	 0.172594096607526 
2475	 0.172133457203641 
2476	 0.171583370104555 
2477	 0.17103238474553 
2478	 0.170739447997496 
2479	 0.170376626946847 
2480	 0.170125352374487 
2481	 0.169860870038725 
2482	 0.169456639404859 
2483	 0.16929705748175 
2484	 0.169053441332487 
2485	 0.168882976175704 
2486	 0.168905945632713 
2487	 0.168488916499439 
2488	 0.167865793341767 
2489	 0.16746131628299 
2490	 0.16697467321099 
2491	 0.166555185094149 
2492	 0.166511175513651 
2493	 0.16636834380899 
2494	 0.166024593429995 
2495	 0.165832550443478 
2496	 0.165606679658733 
2497	 0.165320727843025 
2498	 0.16510303582523 
2499	 0.165002128089536 
2500	 0.165052447121904 
