Wavelength	mm23-100005.asd
350	 4.31642200647694E-02 
351	 5.43403149446232E-02 
352	 6.04076180460472E-02 
353	 5.08828684281227E-02 
354	 5.12791218362625E-02 
355	 5.65660940960373E-02 
356	 5.77214482779063E-02 
357	 5.03897990822663E-02 
358	 0.050418311136577 
359	 5.34625925953526E-02 
360	 5.57922368327012E-02 
361	 5.49305706719579E-02 
362	 5.24738854044075E-02 
363	 5.25870382115316E-02 
364	 0.055961168711503 
365	 0.058057490423701 
366	 0.056095110524276 
367	 0.054369099051881 
368	 5.71555932142895E-02 
369	 6.08994079180098E-02 
370	 6.16674697230927E-02 
371	 6.01110053269663E-02 
372	 6.00156744044706E-02 
373	 6.27003827405752E-02 
374	 6.35223897520687E-02 
375	 6.15435796499207E-02 
376	 6.36877632094204E-02 
377	 6.13658916243386E-02 
378	 6.00085732859494E-02 
379	 0.065212093345238 
380	 6.49723927616687E-02 
381	 6.45605725294026E-02 
382	 6.61797996462878E-02 
383	 6.90020860160908E-02 
384	 7.07641354805863E-02 
385	 6.94193397647266E-02 
386	 6.60809133505496E-02 
387	 6.73651932861114E-02 
388	 0.071448146460134 
389	 7.36793184623086E-02 
390	 7.11198866396555E-02 
391	 7.35858936345889E-02 
392	 7.56841719840955E-02 
393	 7.67014719288064E-02 
394	 0.080011376139246 
395	 7.96770905241403E-02 
396	 7.94985295197268E-02 
397	 8.22778561658698E-02 
398	 8.57605577137596E-02 
399	 0.086675160033171 
400	 0.08699444958906 
401	 0.089677283715112 
402	 9.10032376020885E-02 
403	 9.04663223327364E-02 
404	 8.99177484357158E-02 
405	 9.30415692612203E-02 
406	 9.54456026741441E-02 
407	 9.64025656166923E-02 
408	 9.63321013458779E-02 
409	 9.61182428056477E-02 
410	 9.77429201890845E-02 
411	 0.10037509671421 
412	 0.101969486035336 
413	 0.102606159872928 
414	 0.102822690424222 
415	 0.103198423873284 
416	 0.104309352032787 
417	 0.104561569315625 
418	 0.104736895957062 
419	 0.105459306269433 
420	 0.104718351941934 
421	 0.103917348205413 
422	 0.103709759485713 
423	 0.104099124156247 
424	 0.104137570853267 
425	 0.103884968471092 
426	 0.10347529471589 
427	 0.102866292646514 
428	 0.102339165592774 
429	 0.101864494596474 
430	 0.101297108021435 
431	 0.100428701724182 
432	 9.99928594859112E-02 
433	 0.100037412754644 
434	 0.099938412152005 
435	 9.97208061420741E-02 
436	 9.95284593340814E-02 
437	 9.95956388669936E-02 
438	 0.100367500160914 
439	 0.10105353617117 
440	 0.101552563386175 
441	 0.102123887564744 
442	 0.102830048121944 
443	 0.103626951444109 
444	 0.104477660447702 
445	 0.105385888223883 
446	 0.106170036525601 
447	 0.106874930535505 
448	 0.107651141583603 
449	 0.108791816025689 
450	 0.109860718042433 
451	 0.110667130453636 
452	 0.111286596770055 
453	 0.11228012753229 
454	 0.113134432411329 
455	 0.113516003653913 
456	 0.113936407763524 
457	 0.114757380669099 
458	 0.115615997967415 
459	 0.115944641739664 
460	 0.116545324615916 
461	 0.117057305280434 
462	 0.117329157470563 
463	 0.117633233969717 
464	 0.118254021924541 
465	 0.118859642761717 
466	 0.11911211985862 
467	 0.119418845761113 
468	 0.119649234710899 
469	 0.119755285561657 
470	 0.119798441454307 
471	 0.120387199758459 
472	 0.1208952880464 
473	 0.120932696225303 
474	 0.12113970877302 
475	 0.1214258755657 
476	 0.121646729811687 
477	 0.121689275546386 
478	 0.121983395277664 
479	 0.122245281164348 
480	 0.12234277129015 
481	 0.1224271870787 
482	 0.12294538703806 
483	 0.123376264286602 
484	 0.123259653959756 
485	 0.12355861535086 
486	 0.123703601361538 
487	 0.12370993596845 
488	 0.124066729164068 
489	 0.12425541199845 
490	 0.124438657775881 
491	 0.124730604495492 
492	 0.124831800992004 
493	 0.124871199515976 
494	 0.124972037538941 
495	 0.125228759051869 
496	 0.125516414881577 
497	 0.125691555413821 
498	 0.125790149345275 
499	 0.126114223838094 
500	 0.126373517279778 
501	 0.126429425572896 
502	 0.126322380210429 
503	 0.126655406077575 
504	 0.126819041676077 
505	 0.126804874395361 
506	 0.127157889312934 
507	 0.127477848821298 
508	 0.127657224958696 
509	 0.127704355092435 
510	 0.127750373188489 
511	 0.12791454106103 
512	 0.128135041588527 
513	 0.128273230484676 
514	 0.128526476313689 
515	 0.128633475864204 
516	 0.128585062298873 
517	 0.128894757678 
518	 0.129076837171557 
519	 0.129147501128955 
520	 0.129270569408533 
521	 0.129469493353147 
522	 0.12963479869805 
523	 0.129738471174303 
524	 0.129844912937353 
525	 0.129895647545079 
526	 0.129964397657202 
527	 0.130113230399589 
528	 0.130288227487913 
529	 0.13040979814161 
530	 0.130556761281532 
531	 0.130875834614596 
532	 0.130984282934894 
533	 0.131081625223675 
534	 0.131304536271531 
535	 0.131494238860176 
536	 0.131607806511635 
537	 0.131731653651465 
538	 0.131972463116951 
539	 0.132175413668372 
540	 0.132228455516129 
541	 0.132248176945536 
542	 0.13264590437458 
543	 0.132939213870263 
544	 0.133102458637472 
545	 0.1332477164719 
546	 0.133494540223468 
547	 0.133706501204541 
548	 0.133893585681315 
549	 0.134187007943491 
550	 0.134458350917892 
551	 0.134746280089928 
552	 0.135076432925551 
553	 0.135355797983063 
554	 0.135671193506958 
555	 0.136019951747404 
556	 0.136355691748238 
557	 0.136693149119698 
558	 0.137055726963364 
559	 0.137446717472851 
560	 0.137833192341488 
561	 0.138213957326984 
562	 0.13866770323835 
563	 0.139287122198632 
564	 0.140082619246318 
565	 0.140903333517031 
566	 0.14165056018382 
567	 0.142297992460072 
568	 0.142865939170252 
569	 0.143407244650232 
570	 0.143967085597322 
571	 0.144530402977488 
572	 0.145155309964105 
573	 0.145846476993538 
574	 0.146576274440137 
575	 0.147426297234037 
576	 0.148445437438222 
577	 0.149613048280223 
578	 0.150786713374788 
579	 0.15195265387789 
580	 0.152972282253236 
581	 0.153730581903408 
582	 0.154586736157683 
583	 0.155447949034005 
584	 0.156334664597662 
585	 0.157487733874644 
586	 0.15890387068379 
587	 0.16043425760981 
588	 0.16190067151818 
589	 0.163254330585422 
590	 0.164562906011902 
591	 0.165854020612596 
592	 0.167109295716331 
593	 0.168123626094898 
594	 0.168940956857466 
595	 0.169696569604248 
596	 0.170586690303534 
597	 0.171741555703198 
598	 0.173013355945863 
599	 0.174146341878868 
600	 0.175456965941132 
601	 0.17675997614566 
602	 0.177934469760481 
603	 0.179075180509796 
604	 0.180238999433658 
605	 0.181384112208367 
606	 0.182441656421855 
607	 0.18342943447633 
608	 0.184371372221348 
609	 0.185304174958067 
610	 0.186276799319817 
611	 0.187144968448791 
612	 0.187950099958042 
613	 0.188725975445331 
614	 0.189306383015472 
615	 0.189943212455276 
616	 0.190662912588358 
617	 0.191329207574698 
618	 0.191973399232797 
619	 0.19256340118662 
620	 0.193085289050681 
621	 0.193566845643934 
622	 0.194067186359457 
623	 0.194561588342545 
624	 0.195000567876415 
625	 0.195425866123512 
626	 0.195889343425082 
627	 0.196382276494659 
628	 0.196816141023517 
629	 0.197246787161517 
630	 0.197640491362585 
631	 0.197979785492488 
632	 0.198392838603634 
633	 0.198817288847672 
634	 0.199219157452782 
635	 0.199594730979143 
636	 0.199985529810106 
637	 0.200348798289685 
638	 0.200663636597683 
639	 0.200992691207463 
640	 0.201372022270429 
641	 0.201753218694718 
642	 0.202072050294555 
643	 0.202497732693731 
644	 0.202923186032255 
645	 0.203298942521411 
646	 0.203697250852413 
647	 0.204054400238673 
648	 0.204420279835695 
649	 0.204854211987379 
650	 0.205314748730239 
651	 0.20577183722591 
652	 0.206208075637803 
653	 0.206622215670058 
654	 0.207075047171092 
655	 0.20750534793517 
656	 0.20789421631755 
657	 0.208382626915986 
658	 0.208899899935065 
659	 0.209421705501992 
660	 0.209938234400827 
661	 0.210395173614024 
662	 0.210885658879607 
663	 0.211434474936841 
664	 0.211945337535293 
665	 0.212548018684878 
666	 0.213136821502994 
667	 0.213616548741588 
668	 0.214220852966395 
669	 0.214844094752174 
670	 0.215470937679148 
671	 0.216158726406934 
672	 0.216787026088616 
673	 0.217406908443173 
674	 0.218055845728274 
675	 0.218654523098567 
676	 0.219329138327533 
677	 0.220067136599924 
678	 0.2207951478141 
679	 0.221488608655035 
680	 0.222211107299059 
681	 0.222983191392092 
682	 0.223759559322131 
683	 0.224521033248216 
684	 0.225259814001802 
685	 0.226005933706027 
686	 0.226917839055363 
687	 0.227768402318662 
688	 0.228545411282358 
689	 0.229387354441364 
690	 0.230231021426519 
691	 0.231108019441534 
692	 0.232018497758587 
693	 0.232875986552141 
694	 0.233743692100965 
695	 0.234643323540148 
696	 0.235571263938434 
697	 0.236467705199397 
698	 0.237359981101533 
699	 0.238282320428726 
700	 0.239265015637065 
701	 0.240221412164264 
702	 0.241162132349107 
703	 0.242113934723876 
704	 0.243091114318681 
705	 0.244021350311641 
706	 0.244933920204512 
707	 0.245900643038194 
708	 0.246867112349804 
709	 0.247831239169006 
710	 0.248789735110249 
711	 0.249732892324905 
712	 0.250658717871492 
713	 0.251572999706393 
714	 0.252493384726793 
715	 0.253479018844977 
716	 0.254379175189554 
717	 0.255199948439682 
718	 0.256064814902178 
719	 0.256997357557694 
720	 0.257869913231276 
721	 0.258638425842801 
722	 0.259468435481269 
723	 0.260268062388771 
724	 0.260986180436346 
725	 0.261625239908864 
726	 0.262378537920681 
727	 0.263103804118266 
728	 0.263761801663227 
729	 0.264420806885222 
730	 0.265021837749775 
731	 0.265551592493616 
732	 0.266031243186724 
733	 0.266541863987986 
734	 0.267051783048067 
735	 0.267483370505676 
736	 0.267778266141568 
737	 0.268120311283727 
738	 0.26846125485057 
739	 0.268754361355111 
740	 0.268976732317156 
741	 0.269191702479524 
742	 0.269334114303082 
743	 0.269381699346901 
744	 0.269507525886346 
745	 0.269572810622817 
746	 0.269567141246481 
747	 0.269543153366635 
748	 0.269534511870886 
749	 0.269425312752572 
750	 0.269241028280196 
751	 0.269186212818976 
752	 0.269050695647245 
753	 0.268791844069312 
754	 0.26845718089774 
755	 0.268237852832725 
756	 0.267955094455225 
757	 0.267561464117211 
758	 0.267100962117872 
759	 0.266722330234848 
760	 0.266319513810142 
761	 0.265860158337314 
762	 0.265434458362444 
763	 0.265025661602215 
764	 0.264544487786793 
765	 0.263964668853181 
766	 0.263493855491418 
767	 0.262987295727297 
768	 0.262448663394945 
769	 0.261934918700872 
770	 0.261308238341384 
771	 0.260695431424563 
772	 0.260122978965907 
773	 0.259473163114658 
774	 0.258841190228563 
775	 0.258232663978869 
776	 0.257620143933519 
777	 0.256935385226255 
778	 0.256291263051783 
779	 0.255700621826914 
780	 0.25511873924422 
781	 0.254480858706606 
782	 0.25381161765719 
783	 0.253144678541621 
784	 0.252511627706428 
785	 0.251814799619972 
786	 0.251160333558928 
787	 0.250602003066109 
788	 0.249971484854858 
789	 0.249389928093904 
790	 0.248806895371165 
791	 0.248136598451796 
792	 0.247446614974621 
793	 0.246801826481763 
794	 0.246214948589229 
795	 0.245648840950653 
796	 0.24505305778098 
797	 0.244451805085424 
798	 0.243860639927602 
799	 0.243252641635677 
800	 0.242710367759435 
801	 0.242155733329159 
802	 0.241521983859426 
803	 0.240985227232061 
804	 0.240471794702607 
805	 0.239930634530825 
806	 0.239348756282817 
807	 0.238860239019466 
808	 0.238413790478158 
809	 0.237937271520006 
810	 0.237365256920447 
811	 0.236847302636445 
812	 0.236347079719678 
813	 0.235836415590304 
814	 0.235433524921864 
815	 0.235063247489276 
816	 0.234658469880615 
817	 0.234177233385593 
818	 0.233679516228395 
819	 0.23323673126739 
820	 0.232854873449313 
821	 0.232483433343289 
822	 0.23212880173699 
823	 0.231707381207531 
824	 0.231241971433378 
825	 0.230941935603125 
826	 0.230640667839101 
827	 0.230315574757795 
828	 0.229987285228131 
829	 0.229689406414875 
830	 0.229324744443094 
831	 0.22893103677044 
832	 0.22861427290654 
833	 0.228453851812227 
834	 0.228213763263407 
835	 0.227864718504713 
836	 0.227589036186737 
837	 0.227364275049959 
838	 0.227170044700679 
839	 0.226980861738686 
840	 0.226770291172634 
841	 0.226508909995399 
842	 0.226249454108508 
843	 0.226042656014693 
844	 0.225853720718165 
845	 0.225715244963239 
846	 0.22558402356561 
847	 0.225417068616342 
848	 0.225393056934547 
849	 0.22527164021707 
850	 0.225044590772613 
851	 0.224910972102353 
852	 0.224812595659295 
853	 0.22471265897895 
854	 0.224613762299614 
855	 0.224572621341555 
856	 0.22453533414794 
857	 0.224482907678374 
858	 0.224419382805026 
859	 0.224376954545344 
860	 0.224413130842706 
861	 0.224423486324842 
862	 0.224312619705071 
863	 0.224286342716208 
864	 0.22430725464155 
865	 0.224333025137645 
866	 0.224336823596299 
867	 0.224408571551617 
868	 0.224438734603439 
869	 0.224426445202945 
870	 0.224488694401503 
871	 0.224528045818882 
872	 0.224664291646068 
873	 0.224885825781551 
874	 0.224926869055789 
875	 0.224983353473768 
876	 0.225066429232119 
877	 0.225171353899998 
878	 0.225373560445756 
879	 0.225616063403371 
880	 0.225812302905832 
881	 0.225912838701773 
882	 0.226046834279333 
883	 0.226220737213024 
884	 0.226429161194342 
885	 0.226652944565226 
886	 0.22684458591226 
887	 0.227075869282489 
888	 0.227328687031047 
889	 0.227522075150409 
890	 0.227816964342354 
891	 0.228128905558402 
892	 0.228410222818817 
893	 0.228701074366119 
894	 0.229029324716762 
895	 0.229343953446248 
896	 0.229630512078725 
897	 0.22996674304641 
898	 0.230356639659447 
899	 0.230739492847864 
900	 0.231073313732558 
901	 0.23140878154443 
902	 0.231808765161912 
903	 0.232204244365416 
904	 0.232537373471177 
905	 0.23297375568916 
906	 0.23348517741128 
907	 0.23400598109639 
908	 0.234481125320034 
909	 0.235020454929784 
910	 0.235425798131296 
911	 0.235767404755782 
912	 0.236265942994017 
913	 0.236795305725959 
914	 0.237383854732821 
915	 0.238010666695307 
916	 0.238602097214322 
917	 0.2390870753896 
918	 0.239596475963334 
919	 0.240192872151756 
920	 0.240823231730266 
921	 0.241475745512982 
922	 0.242075357699981 
923	 0.242639014842429 
924	 0.243320653244432 
925	 0.244031216275602 
926	 0.244703602961282 
927	 0.245328762043883 
928	 0.24599029302451 
929	 0.246722222324734 
930	 0.24750958177271 
931	 0.248307603438694 
932	 0.249048370779854 
933	 0.249837650437285 
934	 0.25068268830793 
935	 0.251545667632295 
936	 0.252361222460887 
937	 0.253111300691144 
938	 0.25385352538772 
939	 0.254662155742109 
940	 0.255553315093182 
941	 0.256572998195494 
942	 0.257584904895047 
943	 0.258448035315615 
944	 0.259284587005832 
945	 0.26018350761844 
946	 0.26114105180422 
947	 0.262102821380398 
948	 0.263021079898679 
949	 0.264079800254692 
950	 0.265171926287673 
951	 0.266117763059544 
952	 0.267188670344101 
953	 0.26819911859682 
954	 0.26916634407932 
955	 0.270226088041921 
956	 0.271417640137609 
957	 0.272561594479336 
958	 0.273662004052869 
959	 0.274832887130855 
960	 0.276066135486225 
961	 0.277191900663913 
962	 0.278287181561233 
963	 0.279519779641591 
964	 0.28055817411955 
965	 0.281702265005194 
966	 0.282972052443297 
967	 0.284203244075094 
968	 0.285541042877543 
969	 0.286838258870997 
970	 0.288043815996672 
971	 0.289204195480677 
972	 0.290421965330236 
973	 0.29174515997518 
974	 0.293096719592697 
975	 0.294373726045475 
976	 0.29583544534139 
977	 0.297177548784458 
978	 0.298455640149402 
979	 0.29990300577116 
980	 0.301193303574559 
981	 0.30252265518465 
982	 0.303898549184986 
983	 0.30520582017398 
984	 0.306445005504939 
985	 0.307807930239152 
986	 0.309242710864292 
987	 0.310580894493487 
988	 0.311897654495016 
989	 0.313067807857149 
990	 0.314287299989031 
991	 0.315810065922017 
992	 0.31736770866628 
993	 0.318861863071385 
994	 0.320278804619703 
995	 0.321638412215157 
996	 0.322890089642849 
997	 0.324248936974857 
998	 0.325673386556136 
999	 0.327040399586485 
1000	 0.328342622901258 
1001	 0.328944715019656 
1002	 0.330211906589734 
1003	 0.331394714422021 
1004	 0.332626402245898 
1005	 0.333936698669034 
1006	 0.335191685500702 
1007	 0.336410063223471 
1008	 0.33765800953178 
1009	 0.338904637696305 
1010	 0.340070426728234 
1011	 0.341199275336256 
1012	 0.342332969512129 
1013	 0.343515526566743 
1014	 0.344670075081492 
1015	 0.345768022417021 
1016	 0.346905723220409 
1017	 0.348037058576605 
1018	 0.34912315563432 
1019	 0.350212848754065 
1020	 0.351359834635422 
1021	 0.352437636689062 
1022	 0.353410929194645 
1023	 0.354331576202353 
1024	 0.35532582170074 
1025	 0.356343454234451 
1026	 0.357398048592815 
1027	 0.35848023042484 
1028	 0.359445853907845 
1029	 0.360419554413481 
1030	 0.361419018071993 
1031	 0.36235006152206 
1032	 0.363234759777408 
1033	 0.364130517311267 
1034	 0.365050488656841 
1035	 0.36594602377951 
1036	 0.366911240676773 
1037	 0.367934018976656 
1038	 0.368857170450273 
1039	 0.369726021714627 
1040	 0.370625161693838 
1041	 0.371547870940113 
1042	 0.372486342091376 
1043	 0.37339334168193 
1044	 0.374281736917428 
1045	 0.375136030223077 
1046	 0.375993689872541 
1047	 0.376881513816059 
1048	 0.377804641628811 
1049	 0.378755420760454 
1050	 0.379657934879222 
1051	 0.3804962136937 
1052	 0.38129590170233 
1053	 0.382076146101994 
1054	 0.382912268485735 
1055	 0.383761928586103 
1056	 0.384610973105461 
1057	 0.38549513116379 
1058	 0.386456616618422 
1059	 0.387313878725049 
1060	 0.388127279493123 
1061	 0.388983983448442 
1062	 0.389773648794705 
1063	 0.3905166670116 
1064	 0.391315845438268 
1065	 0.392106757730544 
1066	 0.392910732168043 
1067	 0.393755579541117 
1068	 0.394566638457657 
1069	 0.39537832975572 
1070	 0.3961704519303 
1071	 0.396914512042274 
1072	 0.397687017176322 
1073	 0.398495858522749 
1074	 0.399236688218039 
1075	 0.399951715014788 
1076	 0.400663888285706 
1077	 0.401289564150359 
1078	 0.401904117241054 
1079	 0.402646406176424 
1080	 0.403369526869718 
1081	 0.404052741511264 
1082	 0.404808183546921 
1083	 0.40551659165181 
1084	 0.406133661212475 
1085	 0.406827048138606 
1086	 0.407595064729068 
1087	 0.408286849711545 
1088	 0.408954246771549 
1089	 0.409628921627319 
1090	 0.410261404654563 
1091	 0.410852798532148 
1092	 0.411454898472409 
1093	 0.412049200818883 
1094	 0.412590805235871 
1095	 0.413156139074121 
1096	 0.413797963313284 
1097	 0.414411972925033 
1098	 0.415015028321172 
1099	 0.415679103165572 
1100	 0.41626785682606 
1101	 0.416752675323454 
1102	 0.417316981420461 
1103	 0.417911751876492 
1104	 0.41848583153403 
1105	 0.419065379961092 
1106	 0.419662830568818 
1107	 0.420254200550946 
1108	 0.420846893971729 
1109	 0.42143440294025 
1110	 0.422002056496288 
1111	 0.42256420578182 
1112	 0.42309937844391 
1113	 0.423641930207955 
1114	 0.424199444219386 
1115	 0.424727810193333 
1116	 0.425232122531921 
1117	 0.425749910642009 
1118	 0.426247496849012 
1119	 0.426759225981127 
1120	 0.427327325916026 
1121	 0.427868945785043 
1122	 0.428378396984281 
1123	 0.428908163486391 
1124	 0.429440085389481 
1125	 0.429965905799907 
1126	 0.430470539417423 
1127	 0.430984919435801 
1128	 0.431478955039604 
1129	 0.431918647577325 
1130	 0.432405495671232 
1131	 0.4329307095735 
1132	 0.433431716825502 
1133	 0.433921554265213 
1134	 0.434423934581047 
1135	 0.434932538317125 
1136	 0.435425289655071 
1137	 0.435915533041012 
1138	 0.436412186917267 
1139	 0.436897075664886 
1140	 0.437363397489868 
1141	 0.437834286355195 
1142	 0.438313555840658 
1143	 0.438774968542319 
1144	 0.439227455081624 
1145	 0.43966175659675 
1146	 0.440082450570033 
1147	 0.440504414571424 
1148	 0.440906393948503 
1149	 0.441316176119391 
1150	 0.441728470380502 
1151	 0.442150160121816 
1152	 0.442547433727988 
1153	 0.442935554917066 
1154	 0.443328276331933 
1155	 0.443708268197583 
1156	 0.444098787438576 
1157	 0.444503008777807 
1158	 0.444893483263679 
1159	 0.445283659632546 
1160	 0.445665867508668 
1161	 0.446028821241871 
1162	 0.446407962780195 
1163	 0.446826012860371 
1164	 0.447187194791238 
1165	 0.447508022191027 
1166	 0.447857864010946 
1167	 0.448190962015539 
1168	 0.448482587009482 
1169	 0.448807272726089 
1170	 0.449157208897643 
1171	 0.449497563162105 
1172	 0.449838368471399 
1173	 0.450167235557703 
1174	 0.450499198987082 
1175	 0.450823828851266 
1176	 0.451128971385269 
1177	 0.451445001455777 
1178	 0.451770529097323 
1179	 0.452093451220552 
1180	 0.452423876829484 
1181	 0.452736221769133 
1182	 0.453043537948992 
1183	 0.453341325005888 
1184	 0.453636941002687 
1185	 0.453914171191042 
1186	 0.454209629014244 
1187	 0.454520378690705 
1188	 0.454808664835184 
1189	 0.455092839175355 
1190	 0.455371973218939 
1191	 0.45563921803639 
1192	 0.455904641136716 
1193	 0.456169581133403 
1194	 0.456428632824484 
1195	 0.456690776139613 
1196	 0.456930630062152 
1197	 0.457143809948506 
1198	 0.457375124011037 
1199	 0.457606144773644 
1200	 0.457815717027694 
1201	 0.458062959066736 
1202	 0.458336850029144 
1203	 0.458603967427542 
1204	 0.458891894523874 
1205	 0.459152775490001 
1206	 0.459403519988928 
1207	 0.459658958845805 
1208	 0.459912438709656 
1209	 0.460151172676753 
1210	 0.460390250013376 
1211	 0.460620447684832 
1212	 0.460815653940687 
1213	 0.461035386875083 
1214	 0.461271728460333 
1215	 0.461502292613773 
1216	 0.461735022533587 
1217	 0.461977734032064 
1218	 0.462209993391685 
1219	 0.462440014501091 
1220	 0.462660471366729 
1221	 0.462885391147083 
1222	 0.463086283186613 
1223	 0.463261983266197 
1224	 0.463450677523516 
1225	 0.463623397969132 
1226	 0.463812646955414 
1227	 0.464008348658276 
1228	 0.464215596413091 
1229	 0.464448281129324 
1230	 0.464658392875636 
1231	 0.464876481498483 
1232	 0.465077926836633 
1233	 0.465265835202255 
1234	 0.465427986456442 
1235	 0.465607924979527 
1236	 0.465789078256182 
1237	 0.465961996446646 
1238	 0.46614445422804 
1239	 0.466299136272924 
1240	 0.46641839092846 
1241	 0.466571758118696 
1242	 0.466722628525289 
1243	 0.466882919659916 
1244	 0.467074454438555 
1245	 0.467248490936773 
1246	 0.467409788299578 
1247	 0.467579496130656 
1248	 0.467743214029885 
1249	 0.467926950131926 
1250	 0.468117791143967 
1251	 0.468273506735324 
1252	 0.468427614128142 
1253	 0.468561197629678 
1254	 0.468719030643027 
1255	 0.468878958964318 
1256	 0.469034969819856 
1257	 0.469221032491532 
1258	 0.469360621366082 
1259	 0.469469748903563 
1260	 0.46957862007969 
1261	 0.469660744050761 
1262	 0.469753330854195 
1263	 0.469831503342869 
1264	 0.469934204556218 
1265	 0.470047859966634 
1266	 0.470167234148836 
1267	 0.470307543849765 
1268	 0.470444817898302 
1269	 0.470585769179051 
1270	 0.470723702024358 
1271	 0.470880849421797 
1272	 0.471049169476164 
1273	 0.471218765978697 
1274	 0.471401975804907 
1275	 0.471579068229628 
1276	 0.471745556929286 
1277	 0.471938175447651 
1278	 0.472144208947998 
1279	 0.472352632265206 
1280	 0.472574242354286 
1281	 0.472802582398226 
1282	 0.473040866624812 
1283	 0.473274029700756 
1284	 0.473524697829993 
1285	 0.473755327813434 
1286	 0.473990384154579 
1287	 0.474211435849655 
1288	 0.474424663384824 
1289	 0.47464027041215 
1290	 0.474836509678792 
1291	 0.475010746421701 
1292	 0.475188915586997 
1293	 0.475375285097917 
1294	 0.475516965938324 
1295	 0.475626189488904 
1296	 0.475748696372241 
1297	 0.475840112280397 
1298	 0.475950997836209 
1299	 0.476091936864222 
1300	 0.476207086445978 
1301	 0.476318678508581 
1302	 0.476405361296995 
1303	 0.476476342472225 
1304	 0.476527088149929 
1305	 0.476574079202715 
1306	 0.476616841300526 
1307	 0.476629752118641 
1308	 0.476635724011159 
1309	 0.476650271047969 
1310	 0.476652366317682 
1311	 0.476650694488951 
1312	 0.476669788751895 
1313	 0.476655759809749 
1314	 0.476605367413352 
1315	 0.476568941013954 
1316	 0.476526021670735 
1317	 0.476487038381046 
1318	 0.476455557779043 
1319	 0.476415623792006 
1320	 0.476380224145103 
1321	 0.476327598953019 
1322	 0.476266226763048 
1323	 0.476191130415699 
1324	 0.476105911533966 
1325	 0.476019167421312 
1326	 0.475935887640098 
1327	 0.475858106348041 
1328	 0.475786483317607 
1329	 0.475719059659637 
1330	 0.475637006132765 
1331	 0.475557678549748 
1332	 0.475456893690255 
1333	 0.475333364899796 
1334	 0.475223448254755 
1335	 0.475091636409951 
1336	 0.474994946730244 
1337	 0.474921664558862 
1338	 0.474841641474144 
1339	 0.474785513501284 
1340	 0.474710047703255 
1341	 0.474626844106626 
1342	 0.474539369419312 
1343	 0.474441175737942 
1344	 0.474347419887257 
1345	 0.474258128691883 
1346	 0.474148074370982 
1347	 0.474049058447117 
1348	 0.473964008934619 
1349	 0.473843801531476 
1350	 0.473712978799352 
1351	 0.473598873533134 
1352	 0.473469859942868 
1353	 0.473364132869519 
1354	 0.473282614913188 
1355	 0.473198269973791 
1356	 0.473118218803703 
1357	 0.473032920168759 
1358	 0.472953557973617 
1359	 0.472872538256406 
1360	 0.472787755829506 
1361	 0.472704612415381 
1362	 0.472626452167634 
1363	 0.472540746884835 
1364	 0.472438084614886 
1365	 0.472355778721991 
1366	 0.472274301510136 
1367	 0.472214736118262 
1368	 0.472175222724195 
1369	 0.472122645606488 
1370	 0.472015097642814 
1371	 0.471885085614111 
1372	 0.471737601011781 
1373	 0.471550283575214 
1374	 0.471376345918161 
1375	 0.471216437526319 
1376	 0.471016593461676 
1377	 0.470808446988577 
1378	 0.470561329701801 
1379	 0.470271922714134 
1380	 0.469992203895929 
1381	 0.469681253786843 
1382	 0.46937432656662 
1383	 0.469095591473201 
1384	 0.468766052883048 
1385	 0.468438956329987 
1386	 0.468047331393777 
1387	 0.467606146559108 
1388	 0.467130263243508 
1389	 0.466615452852805 
1390	 0.466051379636788 
1391	 0.465460614763246 
1392	 0.464825403087926 
1393	 0.464099507632179 
1394	 0.46332386406525 
1395	 0.46246197708315 
1396	 0.461569822200201 
1397	 0.460712977041884 
1398	 0.459840980949719 
1399	 0.458971134476493 
1400	 0.458132235972261 
1401	 0.457253525068481 
1402	 0.456329240182196 
1403	 0.455454229206475 
1404	 0.454570408820617 
1405	 0.453729835077781 
1406	 0.452928510045818 
1407	 0.452121453985008 
1408	 0.451313343315315 
1409	 0.450557699555605 
1410	 0.449776540224609 
1411	 0.449111378245012 
1412	 0.448517434829898 
1413	 0.447985628725217 
1414	 0.447548258197898 
1415	 0.447173514387966 
1416	 0.446822710754462 
1417	 0.446514492130552 
1418	 0.446216067137681 
1419	 0.445931657816872 
1420	 0.445681377042089 
1421	 0.445430879489271 
1422	 0.44520841026688 
1423	 0.444985336613669 
1424	 0.444736713879956 
1425	 0.444478526142151 
1426	 0.44422732684618 
1427	 0.443929034112389 
1428	 0.443710216867864 
1429	 0.443535652522417 
1430	 0.443359757178619 
1431	 0.443237676799276 
1432	 0.4430724445407 
1433	 0.442883168985076 
1434	 0.442715341630659 
1435	 0.442515916920243 
1436	 0.442381909511456 
1437	 0.442288374226588 
1438	 0.442203207092345 
1439	 0.442164934561939 
1440	 0.4421217773771 
1441	 0.442046411976798 
1442	 0.441974944041062 
1443	 0.441870992007992 
1444	 0.441771405915598 
1445	 0.441711481419437 
1446	 0.441654805738632 
1447	 0.441622457290436 
1448	 0.441588993794599 
1449	 0.441501432520947 
1450	 0.441409179791206 
1451	 0.441315359870888 
1452	 0.441185864295702 
1453	 0.441100632273831 
1454	 0.441037604107373 
1455	 0.440967131200598 
1456	 0.440921235897914 
1457	 0.440847063192693 
1458	 0.440762722810165 
1459	 0.44067263092698 
1460	 0.440555606546926 
1461	 0.440461934820155 
1462	 0.440360306609044 
1463	 0.440292731538675 
1464	 0.44026018047769 
1465	 0.440212894826099 
1466	 0.440173782897065 
1467	 0.440140574907798 
1468	 0.440062554854316 
1469	 0.440067842461061 
1470	 0.440122624297754 
1471	 0.440194089828505 
1472	 0.440329911748255 
1473	 0.44048922825277 
1474	 0.440635089885777 
1475	 0.440807420617015 
1476	 0.440965096452407 
1477	 0.441138042010071 
1478	 0.441350392985065 
1479	 0.441574967841566 
1480	 0.441842097301785 
1481	 0.442118783319097 
1482	 0.442380435722449 
1483	 0.442650167667541 
1484	 0.442896732020999 
1485	 0.443115060405525 
1486	 0.443367106659483 
1487	 0.443618603693104 
1488	 0.443879927565643 
1489	 0.444181276032076 
1490	 0.444442003265314 
1491	 0.44468929162035 
1492	 0.444922330987595 
1493	 0.445130633233446 
1494	 0.445344753953737 
1495	 0.445552000804735 
1496	 0.44575506707885 
1497	 0.445957613321589 
1498	 0.446149803647353 
1499	 0.446344319182066 
1500	 0.446514921126367 
1501	 0.446663795953512 
1502	 0.446812417165557 
1503	 0.446942067867546 
1504	 0.447063772268793 
1505	 0.447218683372818 
1506	 0.447401611949795 
1507	 0.447574367715696 
1508	 0.447742727078072 
1509	 0.447896865886338 
1510	 0.448028841819288 
1511	 0.448162177436553 
1512	 0.448310809632707 
1513	 0.448468718322421 
1514	 0.44862841616585 
1515	 0.448789145509438 
1516	 0.448943355522426 
1517	 0.44910394915228 
1518	 0.449271196167179 
1519	 0.449409931214821 
1520	 0.449557606508122 
1521	 0.449665054845005 
1522	 0.449703563442489 
1523	 0.449807132263676 
1524	 0.449925187080327 
1525	 0.450038134311932 
1526	 0.450190247468322 
1527	 0.450310230847004 
1528	 0.450401958440275 
1529	 0.450504949902814 
1530	 0.450613043258801 
1531	 0.450707495669764 
1532	 0.450798597645832 
1533	 0.450873541484877 
1534	 0.450926256804722 
1535	 0.450994089213873 
1536	 0.4510468066649 
1537	 0.451126315818235 
1538	 0.451226656616796 
1539	 0.451327900771543 
1540	 0.451440320440847 
1541	 0.45155271793072 
1542	 0.451680021130989 
1543	 0.451792118908156 
1544	 0.451917860973281 
1545	 0.452016094140506 
1546	 0.452099953211843 
1547	 0.452148979862261 
1548	 0.452202958879409 
1549	 0.45225452255791 
1550	 0.452322843666017 
1551	 0.452402027058219 
1552	 0.452470700068969 
1553	 0.452547622918759 
1554	 0.452628443760751 
1555	 0.452683806175144 
1556	 0.452718844067177 
1557	 0.452750555242325 
1558	 0.452772973893558 
1559	 0.452801065022435 
1560	 0.45284896112992 
1561	 0.4529183088631 
1562	 0.452985200462999 
1563	 0.453061048009159 
1564	 0.45313762918226 
1565	 0.453228784673817 
1566	 0.453298583644177 
1567	 0.45335790258606 
1568	 0.453421249353343 
1569	 0.453476147266378 
1570	 0.453530913463941 
1571	 0.453603963760773 
1572	 0.453640827256501 
1573	 0.453652593365949 
1574	 0.453672286877659 
1575	 0.453671572609347 
1576	 0.453682584098923 
1577	 0.453694213167091 
1578	 0.453715247094107 
1579	 0.453728647692109 
1580	 0.453771600853057 
1581	 0.453844450176946 
1582	 0.453906637921115 
1583	 0.453995907692822 
1584	 0.454050638185371 
1585	 0.454092290486778 
1586	 0.454123793499857 
1587	 0.454127543523113 
1588	 0.454139374565099 
1589	 0.454143694806743 
1590	 0.454149686665996 
1591	 0.454167349466433 
1592	 0.454167796130778 
1593	 0.454143266093373 
1594	 0.454144369778087 
1595	 0.454143288121781 
1596	 0.454152372869176 
1597	 0.454198344111738 
1598	 0.454216347481908 
1599	 0.454239598677809 
1600	 0.454232077375034 
1601	 0.454170316016199 
1602	 0.454151054410876 
1603	 0.454121443999588 
1604	 0.454111496492437 
1605	 0.454142396113051 
1606	 0.454174573765688 
1607	 0.454208225020921 
1608	 0.45425906686273 
1609	 0.45432603908771 
1610	 0.454343991246767 
1611	 0.454332555184365 
1612	 0.454305730959836 
1613	 0.454241261215593 
1614	 0.454206252715674 
1615	 0.454208404078173 
1616	 0.454218962967762 
1617	 0.45425004195194 
1618	 0.454271761446508 
1619	 0.454281039415449 
1620	 0.454268197750893 
1621	 0.454251437397996 
1622	 0.454234306351011 
1623	 0.454189650049957 
1624	 0.454115121385092 
1625	 0.454065456974709 
1626	 0.454002912311177 
1627	 0.453969182815309 
1628	 0.453953641256426 
1629	 0.453945842026209 
1630	 0.453953722031695 
1631	 0.453952731805963 
1632	 0.453967867001697 
1633	 0.453956806212961 
1634	 0.453931715620823 
1635	 0.453907282581445 
1636	 0.453875184993816 
1637	 0.453834187409941 
1638	 0.453785830605571 
1639	 0.453741532685462 
1640	 0.453681973455828 
1641	 0.453643469498648 
1642	 0.453617235681145 
1643	 0.453590414999245 
1644	 0.453573653914371 
1645	 0.453549247994451 
1646	 0.453520326701269 
1647	 0.453501986798493 
1648	 0.453492815399181 
1649	 0.453467823398974 
1650	 0.453443902732664 
1651	 0.45341528702463 
1652	 0.453373964305856 
1653	 0.453330358757656 
1654	 0.453281781605493 
1655	 0.45324675475688 
1656	 0.453208687537238 
1657	 0.45317487949935 
1658	 0.453170396662473 
1659	 0.453125214487866 
1660	 0.453063756135263 
1661	 0.45298563710995 
1662	 0.452870608095944 
1663	 0.452783720794873 
1664	 0.452684541140732 
1665	 0.452613877937451 
1666	 0.45255957164759 
1667	 0.452525599611343 
1668	 0.452524194699202 
1669	 0.452501247326284 
1670	 0.45250536965187 
1671	 0.452464791733145 
1672	 0.45238272235098 
1673	 0.452323002682965 
1674	 0.452252879882865 
1675	 0.452189132074646 
1676	 0.452146588996015 
1677	 0.452075276369814 
1678	 0.451976641668573 
1679	 0.451901146430573 
1680	 0.451819721980255 
1681	 0.451751939314509 
1682	 0.451705430166238 
1683	 0.451650507197624 
1684	 0.451595388981242 
1685	 0.451539325895228 
1686	 0.451486286953438 
1687	 0.451429438929395 
1688	 0.451361627615291 
1689	 0.451311788917454 
1690	 0.451275167899037 
1691	 0.451226827310119 
1692	 0.451181881076283 
1693	 0.451138614200721 
1694	 0.451082442908171 
1695	 0.451042222309907 
1696	 0.451010572637083 
1697	 0.450990206619614 
1698	 0.450990585726559 
1699	 0.450967157302407 
1700	 0.45097475561541 
1701	 0.450906221823768 
1702	 0.450782112589948 
1703	 0.450665071335213 
1704	 0.450500259249361 
1705	 0.450358634111165 
1706	 0.450217718995423 
1707	 0.450090113839599 
1708	 0.449957390747721 
1709	 0.449851478222601 
1710	 0.44977700009692 
1711	 0.44968984476492 
1712	 0.449622586476093 
1713	 0.449521894210141 
1714	 0.449395413504611 
1715	 0.449286850000205 
1716	 0.449157612468357 
1717	 0.449064650467933 
1718	 0.449002104509671 
1719	 0.448932756805445 
1720	 0.44889111353079 
1721	 0.448807487831261 
1722	 0.448693873236189 
1723	 0.448609015678754 
1724	 0.448518044502423 
1725	 0.448426837918727 
1726	 0.448377217918683 
1727	 0.448260131668362 
1728	 0.448090374905457 
1729	 0.447951819917177 
1730	 0.447790265714474 
1731	 0.447654874513181 
1732	 0.447536881697403 
1733	 0.447427535129193 
1734	 0.447341616583092 
1735	 0.447214724255384 
1736	 0.447091302041556 
1737	 0.44694365948616 
1738	 0.446753374037523 
1739	 0.446576043568314 
1740	 0.446386045216613 
1741	 0.446238835346922 
1742	 0.44609651121678 
1743	 0.445980691520567 
1744	 0.445930757834501 
1745	 0.445787331213259 
1746	 0.445600458333327 
1747	 0.445431644335874 
1748	 0.445277129248108 
1749	 0.445143057938698 
1750	 0.445003797513764 
1751	 0.444854824386878 
1752	 0.44466858606249 
1753	 0.444482763092361 
1754	 0.444334334220535 
1755	 0.44416958478324 
1756	 0.44400879014284 
1757	 0.443866511811776 
1758	 0.443728476116984 
1759	 0.443608032937467 
1760	 0.443471624925405 
1761	 0.443327616370671 
1762	 0.443174394154855 
1763	 0.44298128277956 
1764	 0.442803120204692 
1765	 0.442679992247556 
1766	 0.442540230366186 
1767	 0.442401529432603 
1768	 0.442294788268052 
1769	 0.442148925865238 
1770	 0.442018625535333 
1771	 0.441943892670616 
1772	 0.441858560672333 
1773	 0.441774201166161 
1774	 0.441689269841248 
1775	 0.441552830245051 
1776	 0.441389283038988 
1777	 0.441219684812403 
1778	 0.441068071870873 
1779	 0.440956247547472 
1780	 0.440850932955535 
1781	 0.440766329185128 
1782	 0.440705711477095 
1783	 0.440671673232296 
1784	 0.4406403377411 
1785	 0.440653170903338 
1786	 0.440613556985904 
1787	 0.440543985968672 
1788	 0.440463376577191 
1789	 0.440376836400304 
1790	 0.440272766391462 
1791	 0.440118419933095 
1792	 0.440011869142207 
1793	 0.439906119231517 
1794	 0.439824002791597 
1795	 0.439777157992151 
1796	 0.439723221671263 
1797	 0.439679292149118 
1798	 0.439624015639026 
1799	 0.439582109828829 
1800	 0.439543257846909 
1801	 0.44454709399276 
1802	 0.444815753188063 
1803	 0.445148542895989 
1804	 0.445510114884329 
1805	 0.445903531791043 
1806	 0.44631405953309 
1807	 0.446695106160366 
1808	 0.447019279544379 
1809	 0.447339289111864 
1810	 0.447578490530932 
1811	 0.447741592098604 
1812	 0.447907087945561 
1813	 0.448006897419968 
1814	 0.448050337818692 
1815	 0.44807420112541 
1816	 0.44804653117389 
1817	 0.448007954578236 
1818	 0.447907968419149 
1819	 0.447855671665149 
1820	 0.447798869863644 
1821	 0.447766782610008 
1822	 0.447742770772753 
1823	 0.447715243405239 
1824	 0.447680527513112 
1825	 0.447582249345197 
1826	 0.447482772320283 
1827	 0.447413951892386 
1828	 0.447281169321948 
1829	 0.447128343311365 
1830	 0.446928779903235 
1831	 0.446666786898892 
1832	 0.446397255052714 
1833	 0.446130694762229 
1834	 0.445888500293666 
1835	 0.44573456898133 
1836	 0.445590341257777 
1837	 0.445447950004215 
1838	 0.445309731679069 
1839	 0.445153915163067 
1840	 0.444982505814508 
1841	 0.444796556121887 
1842	 0.444604192245247 
1843	 0.444445169812624 
1844	 0.444288235387111 
1845	 0.444113746605804 
1846	 0.443985061873783 
1847	 0.443884574103503 
1848	 0.443790433998505 
1849	 0.443724738190539 
1850	 0.443666071995118 
1851	 0.443629043894195 
1852	 0.443572341280797 
1853	 0.443520719674136 
1854	 0.443442778632483 
1855	 0.443319707956919 
1856	 0.443192905527183 
1857	 0.443040477965814 
1858	 0.442863303359432 
1859	 0.44267171566082 
1860	 0.442438792599026 
1861	 0.442162648997142 
1862	 0.441856808248834 
1863	 0.441547526555439 
1864	 0.441210559527472 
1865	 0.440850363434707 
1866	 0.440484134986927 
1867	 0.440087432137243 
1868	 0.439622873587074 
1869	 0.439134266405195 
1870	 0.438625075577708 
1871	 0.438055658984097 
1872	 0.437426265760198 
1873	 0.436799239282253 
1874	 0.436129444523314 
1875	 0.435371871946482 
1876	 0.434579731611003 
1877	 0.433699903852846 
1878	 0.432688332258966 
1879	 0.431571778324925 
1880	 0.430347291862247 
1881	 0.429000266574202 
1882	 0.427558894815925 
1883	 0.426028273361393 
1884	 0.424355044564153 
1885	 0.42260312864126 
1886	 0.42071882022998 
1887	 0.418675238273914 
1888	 0.416557136154251 
1889	 0.414296360642417 
1890	 0.411949232927065 
1891	 0.40957479711575 
1892	 0.407119748091933 
1893	 0.404619510526668 
1894	 0.402064158767143 
1895	 0.399485272333372 
1896	 0.396816147180295 
1897	 0.394200336065077 
1898	 0.391587975654277 
1899	 0.388983384956352 
1900	 0.38646792177754 
1901	 0.383962100737397 
1902	 0.38154443666721 
1903	 0.379207690060216 
1904	 0.376936074123557 
1905	 0.37470330190509 
1906	 0.372595779454502 
1907	 0.370588958199082 
1908	 0.368650000846987 
1909	 0.366814956856884 
1910	 0.365069319438732 
1911	 0.36339794494668 
1912	 0.36179434744412 
1913	 0.360284174126644 
1914	 0.358856042226445 
1915	 0.357514833831306 
1916	 0.356253744864158 
1917	 0.355090231516428 
1918	 0.354028479673198 
1919	 0.353024708282774 
1920	 0.352108019962286 
1921	 0.351279911604877 
1922	 0.350514716808808 
1923	 0.349850326706429 
1924	 0.349252212096559 
1925	 0.348754488536569 
1926	 0.348295598857059 
1927	 0.347898133277172 
1928	 0.347554459044265 
1929	 0.347287069670898 
1930	 0.3470635988427 
1931	 0.346882614510069 
1932	 0.346746207597973 
1933	 0.346616017926849 
1934	 0.34652648106872 
1935	 0.346503609993126 
1936	 0.346533997456471 
1937	 0.346607460181798 
1938	 0.34674897729767 
1939	 0.34691740326691 
1940	 0.347140915889093 
1941	 0.347364483956494 
1942	 0.347621076510359 
1943	 0.347896533861633 
1944	 0.348154654411281 
1945	 0.34846030471369 
1946	 0.348780190386802 
1947	 0.34910717174083 
1948	 0.349477384185564 
1949	 0.349901590965932 
1950	 0.350305270398794 
1951	 0.350710409502494 
1952	 0.351172915993669 
1953	 0.35159664846111 
1954	 0.352027058688982 
1955	 0.352505593245505 
1956	 0.352976088138969 
1957	 0.353489353115079 
1958	 0.354053691302778 
1959	 0.354590926379431 
1960	 0.355141026371329 
1961	 0.355696653253756 
1962	 0.35624826250276 
1963	 0.356805615678461 
1964	 0.357368237427201 
1965	 0.357943743036464 
1966	 0.358538708929233 
1967	 0.359139115666451 
1968	 0.359750351556764 
1969	 0.36040085325714 
1970	 0.361020299484879 
1971	 0.361633111029182 
1972	 0.362238918575644 
1973	 0.362828010020139 
1974	 0.363430123119226 
1975	 0.364032630147283 
1976	 0.364637055904754 
1977	 0.365242451386791 
1978	 0.365839026036344 
1979	 0.366435124201213 
1980	 0.367043036107644 
1981	 0.367652157230372 
1982	 0.368267921556212 
1983	 0.368895071608502 
1984	 0.369534296559609 
1985	 0.370158967855925 
1986	 0.370789772008229 
1987	 0.371416851741883 
1988	 0.372041243615962 
1989	 0.372658696794495 
1990	 0.373255982210997 
1991	 0.37385389632902 
1992	 0.374440481351822 
1993	 0.374991086038999 
1994	 0.375576032131953 
1995	 0.376185186318417 
1996	 0.376768323245115 
1997	 0.377352745081501 
1998	 0.377932443087976 
1999	 0.378481942441347 
2000	 0.37905850577381 
2001	 0.379655051813691 
2002	 0.380239442922643 
2003	 0.38085750781291 
2004	 0.381453899426895 
2005	 0.382010958067192 
2006	 0.382533157256405 
2007	 0.383077054611956 
2008	 0.383577788714499 
2009	 0.384120827032784 
2010	 0.384712846950804 
2011	 0.385270928139199 
2012	 0.385831877686154 
2013	 0.38637521211249 
2014	 0.386903421034444 
2015	 0.387417219775506 
2016	 0.387921327449778 
2017	 0.388436200083947 
2018	 0.388959672254976 
2019	 0.389488337257465 
2020	 0.390021500153505 
2021	 0.390569010964911 
2022	 0.391107507048488 
2023	 0.391649990232511 
2024	 0.392185757751465 
2025	 0.392727558435218 
2026	 0.393249070211376 
2027	 0.39375657945239 
2028	 0.394258517433126 
2029	 0.394757675772339 
2030	 0.395258491975528 
2031	 0.395720528381343 
2032	 0.396169635048435 
2033	 0.39659993600813 
2034	 0.39698409906074 
2035	 0.397384296264734 
2036	 0.397787696666311 
2037	 0.398179467409505 
2038	 0.398552208850782 
2039	 0.398936145617288 
2040	 0.399321710446321 
2041	 0.399706996136508 
2042	 0.400071250164901 
2043	 0.400445108562859 
2044	 0.400828100064976 
2045	 0.401209993043885 
2046	 0.401586317152688 
2047	 0.401985910378282 
2048	 0.402357853943482 
2049	 0.402717780588879 
2050	 0.403055285254846 
2051	 0.403379496444687 
2052	 0.403690690496725 
2053	 0.403958885152514 
2054	 0.404245914870035 
2055	 0.404547261197132 
2056	 0.404831542182761 
2057	 0.405104832562099 
2058	 0.405366212113137 
2059	 0.4056472484807 
2060	 0.40592332213549 
2061	 0.406198215365205 
2062	 0.406498210552607 
2063	 0.406770575945409 
2064	 0.407012449594758 
2065	 0.407269798007628 
2066	 0.407543132070362 
2067	 0.407791280783022 
2068	 0.408030043295364 
2069	 0.408256657869637 
2070	 0.408489297718923 
2071	 0.408699404215407 
2072	 0.408938379877043 
2073	 0.409199375921597 
2074	 0.409445916929485 
2075	 0.409700842562543 
2076	 0.409939654823783 
2077	 0.410163199654031 
2078	 0.410395627362324 
2079	 0.410619471741832 
2080	 0.410852091942956 
2081	 0.411084844767413 
2082	 0.411331401153615 
2083	 0.411581812551015 
2084	 0.411855616493357 
2085	 0.412108521595925 
2086	 0.412379382206961 
2087	 0.412611458038848 
2088	 0.412811126482867 
2089	 0.413026526046244 
2090	 0.41323285711383 
2091	 0.413433966019725 
2092	 0.413628475962996 
2093	 0.413834790671207 
2094	 0.414035839011943 
2095	 0.414244323533379 
2096	 0.414470667148607 
2097	 0.41469199240369 
2098	 0.414916762229607 
2099	 0.415122560536606 
2100	 0.415347392360189 
2101	 0.415590506927053 
2102	 0.415799871863109 
2103	 0.415996759605253 
2104	 0.416201973955543 
2105	 0.416375341410227 
2106	 0.416588054281471 
2107	 0.416820000273233 
2108	 0.417065507492619 
2109	 0.417340006364455 
2110	 0.417602786356482 
2111	 0.417895355079636 
2112	 0.418153059225931 
2113	 0.418375104970321 
2114	 0.418620823072971 
2115	 0.418844835353207 
2116	 0.419034366435523 
2117	 0.419274889037244 
2118	 0.41952212461969 
2119	 0.419794064654109 
2120	 0.420117929926221 
2121	 0.42040012103041 
2122	 0.420689566140781 
2123	 0.420954374343129 
2124	 0.421201061585685 
2125	 0.421430926519545 
2126	 0.42166223848662 
2127	 0.421852788663325 
2128	 0.42199221327605 
2129	 0.422141065664018 
2130	 0.422281047668103 
2131	 0.422394939896344 
2132	 0.422498417191367 
2133	 0.422611060666773 
2134	 0.422678917012236 
2135	 0.422702095720446 
2136	 0.422735179733094 
2137	 0.422762299155508 
2138	 0.422760039399786 
2139	 0.422746483184293 
2140	 0.422708231966053 
2141	 0.422645744629504 
2142	 0.422558763461884 
2143	 0.42244528859281 
2144	 0.422320735290325 
2145	 0.422163682232428 
2146	 0.422003524171143 
2147	 0.421817246061189 
2148	 0.421653489312397 
2149	 0.421479718481688 
2150	 0.421296588742218 
2151	 0.421117813631056 
2152	 0.420962518711029 
2153	 0.420758278565401 
2154	 0.420538759284409 
2155	 0.420295239954256 
2156	 0.420031617556095 
2157	 0.419730368475939 
2158	 0.41940867693754 
2159	 0.41905452060542 
2160	 0.418632960065144 
2161	 0.41823281403569 
2162	 0.417822147809467 
2163	 0.41740445378302 
2164	 0.41698560520127 
2165	 0.416561427108393 
2166	 0.41613702127793 
2167	 0.415704876130959 
2168	 0.415265830419282 
2169	 0.414814871837432 
2170	 0.414390141405067 
2171	 0.413948145709444 
2172	 0.413552604674678 
2173	 0.413219915201212 
2174	 0.412841018829079 
2175	 0.412480175593823 
2176	 0.412080120375605 
2177	 0.411648373288535 
2178	 0.411202162501241 
2179	 0.41073254442095 
2180	 0.410253399529751 
2181	 0.409752446566523 
2182	 0.409246023277335 
2183	 0.408700333531322 
2184	 0.408192913220807 
2185	 0.407692087702028 
2186	 0.407195023986527 
2187	 0.40670329530194 
2188	 0.406226472216038 
2189	 0.405757573664163 
2190	 0.405270270254913 
2191	 0.404831856606734 
2192	 0.40443006965252 
2193	 0.40403713697798 
2194	 0.4036735032422 
2195	 0.403312527528069 
2196	 0.402967635928363 
2197	 0.402626412360088 
2198	 0.402268842318613 
2199	 0.401961654664594 
2200	 0.401665615289582 
2201	 0.401415097904627 
2202	 0.401218331058359 
2203	 0.401054542247284 
2204	 0.400889317826843 
2205	 0.400739566313205 
2206	 0.400631855523406 
2207	 0.400551522005728 
2208	 0.4004749426063 
2209	 0.400435299339246 
2210	 0.400398457253187 
2211	 0.400351604176133 
2212	 0.400342054186768 
2213	 0.400386446589432 
2214	 0.400404664329841 
2215	 0.400434807920116 
2216	 0.400447565626885 
2217	 0.40044276949451 
2218	 0.400442812145341 
2219	 0.400443788681597 
2220	 0.400438113787513 
2221	 0.400429842471987 
2222	 0.400428925026379 
2223	 0.400386581225385 
2224	 0.400330998966289 
2225	 0.400253679651368 
2226	 0.400140630620337 
2227	 0.400042244625887 
2228	 0.399936811934439 
2229	 0.399821497427879 
2230	 0.399707138537283 
2231	 0.399571532065505 
2232	 0.399416585548673 
2233	 0.399264565224115 
2234	 0.399109058688929 
2235	 0.398934555163614 
2236	 0.39878059039106 
2237	 0.39855325294715 
2238	 0.398255843322953 
2239	 0.3979844192125 
2240	 0.397665324620368 
2241	 0.397370527520425 
2242	 0.397111393086043 
2243	 0.396830767752478 
2244	 0.396532390252184 
2245	 0.396251291361123 
2246	 0.395941058086663 
2247	 0.395615841833687 
2248	 0.395277530151934 
2249	 0.394921271591197 
2250	 0.394549987888447 
2251	 0.394158616782388 
2252	 0.393770678065453 
2253	 0.393349110423054 
2254	 0.392969223517182 
2255	 0.392590986824339 
2256	 0.392259926442569 
2257	 0.391948108181691 
2258	 0.391691651901641 
2259	 0.391470564240837 
2260	 0.391294171202342 
2261	 0.391186090756637 
2262	 0.391076358440954 
2263	 0.391027861398145 
2264	 0.390946867046003 
2265	 0.390811611693243 
2266	 0.390766117672614 
2267	 0.390745098367242 
2268	 0.390764729995705 
2269	 0.390849033415792 
2270	 0.390992764789923 
2271	 0.391116493354647 
2272	 0.391254189944381 
2273	 0.391421596072512 
2274	 0.391550614507976 
2275	 0.391684894951919 
2276	 0.39180598527476 
2277	 0.39193701866251 
2278	 0.392048586940207 
2279	 0.392221884012645 
2280	 0.39243140982059 
2281	 0.39263362911152 
2282	 0.392873034256344 
2283	 0.393093331213666 
2284	 0.393314187223415 
2285	 0.393516721490461 
2286	 0.393730312420774 
2287	 0.393907872499501 
2288	 0.394044385423472 
2289	 0.394183310792565 
2290	 0.394308306848573 
2291	 0.394431807128232 
2292	 0.394539046131487 
2293	 0.394653721355598 
2294	 0.394784087401218 
2295	 0.394880533248453 
2296	 0.394937578275385 
2297	 0.395051722137404 
2298	 0.395123071324322 
2299	 0.395159171406485 
2300	 0.39523648213305 
2301	 0.395293754681838 
2302	 0.395321311805665 
2303	 0.395340174675282 
2304	 0.395329507694946 
2305	 0.395282107065537 
2306	 0.395263281391348 
2307	 0.395230044601647 
2308	 0.3952443276749 
2309	 0.395304746756576 
2310	 0.395316596904053 
2311	 0.395361253036537 
2312	 0.395310450380532 
2313	 0.395156053709027 
2314	 0.395095355637629 
2315	 0.395035665211852 
2316	 0.394968703657004 
2317	 0.394973155443205 
2318	 0.39489508586738 
2319	 0.394730902331401 
2320	 0.39461463411387 
2321	 0.394482975035134 
2322	 0.394381119717315 
2323	 0.394284394824228 
2324	 0.394224404964879 
2325	 0.394230381468607 
2326	 0.394194139619371 
2327	 0.394158982787874 
2328	 0.394134945035081 
2329	 0.394074415837524 
2330	 0.39401127840134 
2331	 0.393971712492679 
2332	 0.393889284221344 
2333	 0.393791088712331 
2334	 0.393657885364992 
2335	 0.393518811503141 
2336	 0.393400471749507 
2337	 0.393233149111668 
2338	 0.393090203943197 
2339	 0.39293977029777 
2340	 0.392715841172799 
2341	 0.392546586383071 
2342	 0.392370700226903 
2343	 0.392159541380097 
2344	 0.391984364003719 
2345	 0.391771977198925 
2346	 0.391532158094567 
2347	 0.391279442628104 
2348	 0.391025386651195 
2349	 0.390734155912791 
2350	 0.390416269103823 
2351	 0.390075338918144 
2352	 0.389675590065641 
2353	 0.389317480123973 
2354	 0.38896175070358 
2355	 0.388583854678995 
2356	 0.388229133331304 
2357	 0.387861873797632 
2358	 0.38743945669174 
2359	 0.38706825371876 
2360	 0.386724016624247 
2361	 0.386371013915208 
2362	 0.386059883825243 
2363	 0.385710778186136 
2364	 0.385353660399304 
2365	 0.384969712373311 
2366	 0.384557916133597 
2367	 0.384122051835 
2368	 0.383655132180741 
2369	 0.383177688982993 
2370	 0.382663075541107 
2371	 0.382155581016193 
2372	 0.381685984626169 
2373	 0.381208640067627 
2374	 0.380780711438449 
2375	 0.380367906257038 
2376	 0.379886210924584 
2377	 0.379465636625324 
2378	 0.378995100860116 
2379	 0.378510603946745 
2380	 0.378052818982846 
2381	 0.377570273875655 
2382	 0.377184971824858 
2383	 0.376727652386468 
2384	 0.376210157045776 
2385	 0.375703936268338 
2386	 0.375073878888552 
2387	 0.374403052629082 
2388	 0.373753509359899 
2389	 0.373148053645423 
2390	 0.372521663455975 
2391	 0.37186814046008 
2392	 0.371305377895447 
2393	 0.37065462977996 
2394	 0.370012763170366 
2395	 0.369470050602927 
2396	 0.36881029975037 
2397	 0.368245813167586 
2398	 0.367760434082771 
2399	 0.367214841296234 
2400	 0.366811315444331 
2401	 0.366336682785104 
2402	 0.365732288009074 
2403	 0.365239450217652 
2404	 0.364704635357937 
2405	 0.364069682671327 
2406	 0.363445560541591 
2407	 0.36283595409519 
2408	 0.362169777862166 
2409	 0.361478509919142 
2410	 0.36088563015648 
2411	 0.360242444620321 
2412	 0.35952308793299 
2413	 0.358871854316538 
2414	 0.358243316743237 
2415	 0.357704819358621 
2416	 0.357171197004904 
2417	 0.356741269127641 
2418	 0.356206199861418 
2419	 0.355606288915589 
2420	 0.355036370189886 
2421	 0.354473233463475 
2422	 0.353900305736427 
2423	 0.353339533147513 
2424	 0.352758267147523 
2425	 0.352100825975972 
2426	 0.3515354671806 
2427	 0.351079381905114 
2428	 0.350540953691937 
2429	 0.349990507821058 
2430	 0.349413442012383 
2431	 0.348757773379347 
2432	 0.348109959723893 
2433	 0.347522379575547 
2434	 0.346854498620734 
2435	 0.346048683728522 
2436	 0.345407643842591 
2437	 0.344797971657555 
2438	 0.344238610303316 
2439	 0.343868476464138 
2440	 0.343351458484031 
2441	 0.34276213494665 
2442	 0.342198966505959 
2443	 0.341603679754881 
2444	 0.340944387092219 
2445	 0.340251086862391 
2446	 0.339610273038323 
2447	 0.338908483093227 
2448	 0.338360999928295 
2449	 0.337946321081058 
2450	 0.337476496489066 
2451	 0.337032208869263 
2452	 0.336513338297833 
2453	 0.336002603584235 
2454	 0.335431119173532 
2455	 0.334789650925481 
2456	 0.33422933895645 
2457	 0.333672599420409 
2458	 0.33304874000253 
2459	 0.332447758198834 
2460	 0.331819285247239 
2461	 0.331077853240966 
2462	 0.33049291093346 
2463	 0.329966959077255 
2464	 0.329418891167767 
2465	 0.328926390236952 
2466	 0.328397079431925 
2467	 0.327893806140263 
2468	 0.327378188974463 
2469	 0.326815932943191 
2470	 0.326404961820981 
2471	 0.325974365567316 
2472	 0.325663951089133 
2473	 0.325375870692472 
2474	 0.324892457682001 
2475	 0.324567405789021 
2476	 0.324289476225296 
2477	 0.323758531299519 
2478	 0.323326131812126 
2479	 0.322823839217344 
2480	 0.322204532179897 
2481	 0.321706005054866 
2482	 0.321290165073296 
2483	 0.320859900976498 
2484	 0.320341135194649 
2485	 0.319788057170667 
2486	 0.319268388563839 
2487	 0.318876782517615 
2488	 0.318446855482809 
2489	 0.3180188024975 
2490	 0.317586160226005 
2491	 0.316889035586765 
2492	 0.31618573209879 
2493	 0.315601896450631 
2494	 0.315129255137342 
2495	 0.314797511842331 
2496	 0.314527285630079 
2497	 0.314246277090996 
2498	 0.313846916824434 
2499	 0.313307875175358 
2500	 0.312946471542084 
