Wavelength	mm23-100008.asd
350	 6.48580381585274E-02 
351	 6.92661130804719E-02 
352	 6.72352161825375E-02 
353	 5.51786434890884E-02 
354	 5.13529312107024E-02 
355	 5.76012613349734E-02 
356	 6.32798872496093E-02 
357	 6.10176056909201E-02 
358	 6.89025772619581E-02 
359	 6.80286527977365E-02 
360	 6.06307617418332E-02 
361	 6.16250328195318E-02 
362	 6.08009485537576E-02 
363	 6.01081414333439E-02 
364	 6.04858270217637E-02 
365	 5.89135744537334E-02 
366	 5.90119040085947E-02 
367	 6.07803338683811E-02 
368	 6.30607513073477E-02 
369	 6.51341465721428E-02 
370	 6.40227313506852E-02 
371	 6.16493457702487E-02 
372	 0.062921611061418 
373	 0.066468753806104 
374	 6.79489762950343E-02 
375	 0.066132212532371 
376	 6.56486868763964E-02 
377	 6.30510840810953E-02 
378	 6.28329814733169E-02 
379	 6.82241112154641E-02 
380	 6.73916286767723E-02 
381	 6.70765447824463E-02 
382	 6.90616082073855E-02 
383	 7.07563343127278E-02 
384	 6.96726932527408E-02 
385	 6.90291499090383E-02 
386	 7.07364419556134E-02 
387	 7.27714810076602E-02 
388	 7.37264374632839E-02 
389	 7.47430211174072E-02 
390	 7.68630331717212E-02 
391	 7.60859896367226E-02 
392	 7.61223515644679E-02 
393	 7.84571518564522E-02 
394	 0.082102889890697 
395	 8.23037408929725E-02 
396	 8.21998981909805E-02 
397	 8.41410404440045E-02 
398	 8.61284561112707E-02 
399	 8.66455468600538E-02 
400	 8.73004720941394E-02 
401	 9.01202481204249E-02 
402	 0.092367999719354 
403	 9.36237939924402E-02 
404	 9.44381901727513E-02 
405	 9.60971314549815E-02 
406	 9.69557858614621E-02 
407	 9.77141341940812E-02 
408	 9.89049980372929E-02 
409	 9.94820426125019E-02 
410	 9.94567748779323E-02 
411	 9.97753211843688E-02 
412	 0.101430592597075 
413	 0.10257242068056 
414	 0.103016193112346 
415	 0.103294028905474 
416	 0.104626376450623 
417	 0.104964332639085 
418	 0.105046123908756 
419	 0.105681729204333 
420	 0.105463129300584 
421	 0.105294276987215 
422	 0.105527431529618 
423	 0.106034942174115 
424	 0.105947310462002 
425	 0.10530556001246 
426	 0.104463765014896 
427	 0.104092182400374 
428	 0.103657941912384 
429	 0.102967014828254 
430	 0.102078668062592 
431	 0.101693890476504 
432	 0.101434478784949 
433	 0.101166680625216 
434	 0.101034465561476 
435	 0.100636659036028 
436	 0.100519052066315 
437	 0.100955586991427 
438	 0.101026935629006 
439	 0.101318428177918 
440	 0.102042658479978 
441	 0.103131212276856 
442	 0.103963369663542 
443	 0.104474904576606 
444	 0.104916549686815 
445	 0.105897606755643 
446	 0.106967409263543 
447	 0.107892695504817 
448	 0.108587916180993 
449	 0.109256163418865 
450	 0.110277149618888 
451	 0.111444691799537 
452	 0.112103135239603 
453	 0.112663351471174 
454	 0.113356774300673 
455	 0.114232063537757 
456	 0.11500994455189 
457	 0.115563150824711 
458	 0.115985645814518 
459	 0.116482236212342 
460	 0.11718735162744 
461	 0.117557223280825 
462	 0.117600013013285 
463	 0.118161307616717 
464	 0.11879917875421 
465	 0.119330647264137 
466	 0.119679894166674 
467	 0.119919566820518 
468	 0.12019098337079 
469	 0.1204717826975 
470	 0.120622395559528 
471	 0.120876795649146 
472	 0.121133837987887 
473	 0.121321386908892 
474	 0.121568186629157 
475	 0.121856357911969 
476	 0.122078417002887 
477	 0.122149023056872 
478	 0.12245479407774 
479	 0.122760551693223 
480	 0.122969290037323 
481	 0.123253663535196 
482	 0.123445834687628 
483	 0.123588372586973 
484	 0.123787165401281 
485	 0.124189913155378 
486	 0.124337860363691 
487	 0.124305895383902 
488	 0.124590888266681 
489	 0.124811746675535 
490	 0.125029638403279 
491	 0.125293436297667 
492	 0.125442099158522 
493	 0.12548729944063 
494	 0.125536206762159 
495	 0.125730721945737 
496	 0.126074784861314 
497	 0.126346038157808 
498	 0.126506145238878 
499	 0.126825601062792 
500	 0.126930930467186 
501	 0.126987772858507 
502	 0.127227995734793 
503	 0.127441328873905 
504	 0.127604412077464 
505	 0.127730644166064 
506	 0.127861474681103 
507	 0.128032589735819 
508	 0.128174887417772 
509	 0.128243947181198 
510	 0.128299585129119 
511	 0.128461006790511 
512	 0.128672850894416 
513	 0.128794251513923 
514	 0.128860814979758 
515	 0.128936494906813 
516	 0.129081045803343 
517	 0.129361194705294 
518	 0.129483284115672 
519	 0.129540998481099 
520	 0.129722328688084 
521	 0.129964469672909 
522	 0.130172737338935 
523	 0.130301958752442 
524	 0.130362950599642 
525	 0.130445633021717 
526	 0.130589390278337 
527	 0.130776144860013 
528	 0.130847963177213 
529	 0.131015995832509 
530	 0.131247294481009 
531	 0.131362796270792 
532	 0.131499451022585 
533	 0.131676113941042 
534	 0.13185411409413 
535	 0.131895641567378 
536	 0.131992391422039 
537	 0.132204832610671 
538	 0.132502356378644 
539	 0.13265255490119 
540	 0.132769822767483 
541	 0.132930836254467 
542	 0.133122519665571 
543	 0.133322906369613 
544	 0.133522353615017 
545	 0.133725901337341 
546	 0.13398861300855 
547	 0.134190643229822 
548	 0.134379099051742 
549	 0.134731247836563 
550	 0.135045164619838 
551	 0.135324545873004 
552	 0.135594333428484 
553	 0.135823836042322 
554	 0.136063263601914 
555	 0.13635225160222 
556	 0.136721344022132 
557	 0.137204973936036 
558	 0.137558626206967 
559	 0.137774467675802 
560	 0.138319372429311 
561	 0.138730078351887 
562	 0.139131965729519 
563	 0.139793162053416 
564	 0.140597669519461 
565	 0.141387241629349 
566	 0.14210607978065 
567	 0.142816087074904 
568	 0.143409049856252 
569	 0.143907925497915 
570	 0.144384053582203 
571	 0.144934249404454 
572	 0.145624165060864 
573	 0.146394380816841 
574	 0.14710854224802 
575	 0.14786005194954 
576	 0.148830493027994 
577	 0.15005841596292 
578	 0.151274386480775 
579	 0.152377512059015 
580	 0.153347156011192 
581	 0.154227384260746 
582	 0.155104562255944 
583	 0.155927986610243 
584	 0.156781082449704 
585	 0.157958554649732 
586	 0.159308592265084 
587	 0.160768440450667 
588	 0.162270509290517 
589	 0.163670253723068 
590	 0.164963803298671 
591	 0.166207062051639 
592	 0.167494093861731 
593	 0.168536307937153 
594	 0.169379853473854 
595	 0.17017249519108 
596	 0.171121614257067 
597	 0.172211776466389 
598	 0.173385276416809 
599	 0.174574198003443 
600	 0.175881471035906 
601	 0.177191921938538 
602	 0.178411435277586 
603	 0.179526430549018 
604	 0.18061445166321 
605	 0.181721802941363 
606	 0.182852734129132 
607	 0.183868427077396 
608	 0.184804402865433 
609	 0.185713248775087 
610	 0.186653096459043 
611	 0.187512691576299 
612	 0.188322851881383 
613	 0.189107054920597 
614	 0.189737621324946 
615	 0.190401529692819 
616	 0.191102403748083 
617	 0.191719941962712 
618	 0.192375155929078 
619	 0.192978336186597 
620	 0.193492998179239 
621	 0.19406466328319 
622	 0.194567789730434 
623	 0.195030986849043 
624	 0.195523461487827 
625	 0.195936504713124 
626	 0.196358875993673 
627	 0.196817914738186 
628	 0.197239353594491 
629	 0.197684723063921 
630	 0.198131564710064 
631	 0.198542923826607 
632	 0.198909045204046 
633	 0.199279865485105 
634	 0.199682543664484 
635	 0.200116883469153 
636	 0.200486021652629 
637	 0.200807653981294 
638	 0.201125789314636 
639	 0.201497339502647 
640	 0.201853415527897 
641	 0.202214886196508 
642	 0.202631515872731 
643	 0.203041545315093 
644	 0.203425202711782 
645	 0.203785284225499 
646	 0.204148490703296 
647	 0.204534364334297 
648	 0.204946348405695 
649	 0.205375380859636 
650	 0.205790318313004 
651	 0.206216024204945 
652	 0.206665185588165 
653	 0.207136588512118 
654	 0.207594728603427 
655	 0.208009894547187 
656	 0.208398107227089 
657	 0.208879019474046 
658	 0.209385979427725 
659	 0.209899899690579 
660	 0.210417905149259 
661	 0.210898458518455 
662	 0.211402444575301 
663	 0.211943324929511 
664	 0.212450209661069 
665	 0.213012444227392 
666	 0.213588939856298 
667	 0.214136747610464 
668	 0.214770322517858 
669	 0.215403081603365 
670	 0.216023059860877 
671	 0.216679099392095 
672	 0.217305389556906 
673	 0.217926895516101 
674	 0.218573606293353 
675	 0.219252023394316 
676	 0.219923702224669 
677	 0.220597138366624 
678	 0.221299225722604 
679	 0.222014952206831 
680	 0.222762311734622 
681	 0.223531918799383 
682	 0.224276156202179 
683	 0.225050773739173 
684	 0.225841636546322 
685	 0.226632781577431 
686	 0.227478492889356 
687	 0.228308269536156 
688	 0.229108546989037 
689	 0.229913066943086 
690	 0.230795814824921 
691	 0.231690230758223 
692	 0.232545579399375 
693	 0.233380971171306 
694	 0.234266202489058 
695	 0.235184675420081 
696	 0.236092296866879 
697	 0.23699116366112 
698	 0.237936071305497 
699	 0.238916884870888 
700	 0.239853428614403 
701	 0.24076674016168 
702	 0.241692552592526 
703	 0.242649478252864 
704	 0.24359690096876 
705	 0.24456266311607 
706	 0.245533206758761 
707	 0.246478453522501 
708	 0.247431456604485 
709	 0.248402827842632 
710	 0.249370700521781 
711	 0.250271858647979 
712	 0.251208667848991 
713	 0.252153974212305 
714	 0.253066013108228 
715	 0.25399422332894 
716	 0.254895769222481 
717	 0.25576839665743 
718	 0.256646570194876 
719	 0.257615511097779 
720	 0.258525543462336 
721	 0.259300380935194 
722	 0.260070626727219 
723	 0.260821369520847 
724	 0.261553388202316 
725	 0.262272079276357 
726	 0.263001390885139 
727	 0.263683867728216 
728	 0.264329069172983 
729	 0.26500449023088 
730	 0.265594337453621 
731	 0.266125920496648 
732	 0.266639651713777 
733	 0.267140400025944 
734	 0.267637275506053 
735	 0.268071061530806 
736	 0.268382682997797 
737	 0.268689687005999 
738	 0.269029363183776 
739	 0.269363137019882 
740	 0.269582203444466 
741	 0.269776936145738 
742	 0.269916101518534 
743	 0.269990691729063 
744	 0.27012919169052 
745	 0.270174902591431 
746	 0.27016459414696 
747	 0.270202840391121 
748	 0.270167609867095 
749	 0.270031693721601 
750	 0.269855380137317 
751	 0.269786998129819 
752	 0.26964096915482 
753	 0.269382661310966 
754	 0.269053637184499 
755	 0.268799566751121 
756	 0.268557831193411 
757	 0.268233591163292 
758	 0.267757381530757 
759	 0.267364390540187 
760	 0.266969632020015 
761	 0.26653205488429 
762	 0.266104260980227 
763	 0.265657398525769 
764	 0.265175829169587 
765	 0.26465613919327 
766	 0.264112672706677 
767	 0.263586030404102 
768	 0.263074018546323 
769	 0.262541423749749 
770	 0.261903070590783 
771	 0.261284249203925 
772	 0.260723693051276 
773	 0.260134545662778 
774	 0.259520357224034 
775	 0.258902558021139 
776	 0.25828012227103 
777	 0.257564915366079 
778	 0.256890484806033 
779	 0.256285163560527 
780	 0.255712396177176 
781	 0.255090060077656 
782	 0.25444881214369 
783	 0.253794722715955 
784	 0.253104051030055 
785	 0.252463328960303 
786	 0.25186046191608 
787	 0.25125544052152 
788	 0.250583818558533 
789	 0.249990406470193 
790	 0.249406723632469 
791	 0.248723104108304 
792	 0.248070859329146 
793	 0.247436004188073 
794	 0.246834418906664 
795	 0.246297807938488 
796	 0.245640096425018 
797	 0.244990210763124 
798	 0.244433928764965 
799	 0.24388590765183 
800	 0.24336980877379 
801	 0.242798879522199 
802	 0.242130691460288 
803	 0.241603977782737 
804	 0.241125309284482 
805	 0.240609008630646 
806	 0.240006836361114 
807	 0.239481157258501 
808	 0.239028958304651 
809	 0.238580834432145 
810	 0.238013971613167 
811	 0.237485913615204 
812	 0.236960124362874 
813	 0.236427267929333 
814	 0.236084420742409 
815	 0.235715922513907 
816	 0.235280059265936 
817	 0.234813313472178 
818	 0.234322102696712 
819	 0.233896651271641 
820	 0.233532061049462 
821	 0.233144474290368 
822	 0.232783860055799 
823	 0.232370874278893 
824	 0.231914549638087 
825	 0.231592024411015 
826	 0.231274060957167 
827	 0.230950010004625 
828	 0.230636238368815 
829	 0.23033867288509 
830	 0.229955101990636 
831	 0.229546825623515 
832	 0.229248499792677 
833	 0.229107950618613 
834	 0.228870537229159 
835	 0.228501842737037 
836	 0.228195461847744 
837	 0.22798355306095 
838	 0.227834424996425 
839	 0.227679273768805 
840	 0.227416285774085 
841	 0.227136860164853 
842	 0.226893584182419 
843	 0.22670210558313 
844	 0.22650059257158 
845	 0.226345655220304 
846	 0.226208224821125 
847	 0.226047925736232 
848	 0.226006473774745 
849	 0.225930647375628 
850	 0.225757176234079 
851	 0.225532089404984 
852	 0.225400941722742 
853	 0.225324167370008 
854	 0.225248008106399 
855	 0.225145357779006 
856	 0.225133383903431 
857	 0.225107494087659 
858	 0.225005434454087 
859	 0.22500987986261 
860	 0.225026591730285 
861	 0.225014628383029 
862	 0.224958720887353 
863	 0.22486140525823 
864	 0.224860447746908 
865	 0.22493277702513 
866	 0.224963055765016 
867	 0.224988125838626 
868	 0.225011591381776 
869	 0.225036201413664 
870	 0.225068375227227 
871	 0.225151375962391 
872	 0.225301383801637 
873	 0.225480834148518 
874	 0.225581706946486 
875	 0.225675027624925 
876	 0.225744519019443 
877	 0.225807861924555 
878	 0.226029155220031 
879	 0.226238517975227 
880	 0.226410704742303 
881	 0.226566102203529 
882	 0.226673021916145 
883	 0.226838403583486 
884	 0.227073647712915 
885	 0.227328684923177 
886	 0.227572970466711 
887	 0.227835023756332 
888	 0.228075425143556 
889	 0.228221449095811 
890	 0.228479612553046 
891	 0.228789167335482 
892	 0.229097371584664 
893	 0.229408489327322 
894	 0.229708661420537 
895	 0.230006332169127 
896	 0.230312264759735 
897	 0.230630874543659 
898	 0.23104198522414 
899	 0.231445497262807 
900	 0.231758436307095 
901	 0.232064028808237 
902	 0.232463594381963 
903	 0.232880811551376 
904	 0.233233158748517 
905	 0.233677905125416 
906	 0.234144897477135 
907	 0.234624286491426 
908	 0.235121525919691 
909	 0.235561765817532 
910	 0.2360218494597 
911	 0.236471929502316 
912	 0.23685252948681 
913	 0.237433075588562 
914	 0.238061681850645 
915	 0.238657917064286 
916	 0.239239130050756 
917	 0.239755214436603 
918	 0.24025770926557 
919	 0.240811755447065 
920	 0.241465537299865 
921	 0.242108780146197 
922	 0.242736049165152 
923	 0.243369837281294 
924	 0.244043639598092 
925	 0.244719742079305 
926	 0.245375526528747 
927	 0.246005033877818 
928	 0.246622040309196 
929	 0.247381588729479 
930	 0.248205080583999 
931	 0.248990794779717 
932	 0.249739200764622 
933	 0.25060131629288 
934	 0.251459829398647 
935	 0.252197152399809 
936	 0.252928596668852 
937	 0.253702120569751 
938	 0.254545081355123 
939	 0.255456750444345 
940	 0.256401368930903 
941	 0.257301708049348 
942	 0.258236847814875 
943	 0.259251817547767 
944	 0.259987675158757 
945	 0.260841361462066 
946	 0.261830199807463 
947	 0.262809510204256 
948	 0.263826584831861 
949	 0.264869406487799 
950	 0.265853484579043 
951	 0.266740922843476 
952	 0.267875200170379 
953	 0.268915300414899 
954	 0.269914091697361 
955	 0.27109481138039 
956	 0.272205654994563 
957	 0.273340333256828 
958	 0.274450871009402 
959	 0.275458547516304 
960	 0.276646592825071 
961	 0.277974289828001 
962	 0.279262498432407 
963	 0.280316924311406 
964	 0.28128438716772 
965	 0.282496013734247 
966	 0.283853904067086 
967	 0.285043385279717 
968	 0.286390673367606 
969	 0.287680338012316 
970	 0.288853893902737 
971	 0.290000141161978 
972	 0.291220734232932 
973	 0.292595367524711 
974	 0.293996969743549 
975	 0.295235418782934 
976	 0.296589745805097 
977	 0.297951062276977 
978	 0.299311422551734 
979	 0.300712091709373 
980	 0.301993174891968 
981	 0.303266723205743 
982	 0.304601288614423 
983	 0.305997407587536 
984	 0.307340889749789 
985	 0.308681104117827 
986	 0.310016135140234 
987	 0.311332201687383 
988	 0.312748738030814 
989	 0.314056943654381 
990	 0.315347151302773 
991	 0.316819280042734 
992	 0.318378043479185 
993	 0.319798893144763 
994	 0.321087523669416 
995	 0.322379260122488 
996	 0.323805359109019 
997	 0.325255186406291 
998	 0.326660888685318 
999	 0.328014449317531 
1000	 0.329415608414861 
1001	 0.329850238202369 
1002	 0.331073050978532 
1003	 0.332261487127154 
1004	 0.333499606914904 
1005	 0.334809355002845 
1006	 0.336082545899694 
1007	 0.33735243579817 
1008	 0.338607409628815 
1009	 0.339899496191711 
1010	 0.341112705063861 
1011	 0.342246643712365 
1012	 0.343405704019558 
1013	 0.344510032082841 
1014	 0.345614638916201 
1015	 0.346765224024731 
1016	 0.347906050453318 
1017	 0.349027848717852 
1018	 0.350152251042102 
1019	 0.351213718568783 
1020	 0.352283208219823 
1021	 0.353352938048324 
1022	 0.354367960325487 
1023	 0.355397128294136 
1024	 0.356355227504326 
1025	 0.357328550728067 
1026	 0.358405952176926 
1027	 0.359433166920575 
1028	 0.36045332424951 
1029	 0.361494227431911 
1030	 0.36244427125637 
1031	 0.363360769585021 
1032	 0.364217290876979 
1033	 0.365148922606051 
1034	 0.366059055790669 
1035	 0.366943753617888 
1036	 0.367929508093176 
1037	 0.368886613057257 
1038	 0.369842307224799 
1039	 0.370801763691384 
1040	 0.371715547985831 
1041	 0.372642776717965 
1042	 0.373530006601847 
1043	 0.374426958707286 
1044	 0.37530297870109 
1045	 0.376175521152168 
1046	 0.377032190642998 
1047	 0.377894381659139 
1048	 0.378743126731367 
1049	 0.379660836760567 
1050	 0.3805927753333 
1051	 0.38150167997525 
1052	 0.382368911684686 
1053	 0.383212340491185 
1054	 0.384031208514298 
1055	 0.384867814169459 
1056	 0.385780965899973 
1057	 0.386664240278488 
1058	 0.387582531519893 
1059	 0.388451799682387 
1060	 0.389302285971199 
1061	 0.390099877562176 
1062	 0.390892607674759 
1063	 0.39171839505461 
1064	 0.39254573748598 
1065	 0.393370077601994 
1066	 0.394187216470877 
1067	 0.394946967856235 
1068	 0.39571115125383 
1069	 0.396484254232393 
1070	 0.397271218132593 
1071	 0.398091547226554 
1072	 0.398887620990207 
1073	 0.399707526561064 
1074	 0.400463535153945 
1075	 0.401178152446167 
1076	 0.401853747376569 
1077	 0.402569894759383 
1078	 0.403262307305452 
1079	 0.403968273981553 
1080	 0.404700635096583 
1081	 0.405363968305973 
1082	 0.406065380581029 
1083	 0.406768705678277 
1084	 0.407491487839727 
1085	 0.408169094057638 
1086	 0.408830226639587 
1087	 0.40948157480926 
1088	 0.410084969808296 
1089	 0.410745232102437 
1090	 0.411401954844443 
1091	 0.412032668131733 
1092	 0.412672641585087 
1093	 0.413270934295864 
1094	 0.413882402682347 
1095	 0.414525456889252 
1096	 0.41515144853664 
1097	 0.415768909550036 
1098	 0.416377018470016 
1099	 0.416984169257838 
1100	 0.417578264447781 
1101	 0.418148466869241 
1102	 0.418729722159768 
1103	 0.419328206498808 
1104	 0.419869781745395 
1105	 0.420427867641544 
1106	 0.421058481844274 
1107	 0.421683891786366 
1108	 0.422283349504709 
1109	 0.42288734291184 
1110	 0.42345864043968 
1111	 0.424021260975049 
1112	 0.424570394752641 
1113	 0.425114713960508 
1114	 0.425632108534271 
1115	 0.426168917124639 
1116	 0.426695119555097 
1117	 0.42723542875348 
1118	 0.427790951155891 
1119	 0.428352460312172 
1120	 0.428919767929505 
1121	 0.429481894606202 
1122	 0.429984473933595 
1123	 0.430502482019185 
1124	 0.431017829062533 
1125	 0.431507457486184 
1126	 0.43200396694092 
1127	 0.432514317381973 
1128	 0.433008474259221 
1129	 0.433480469694933 
1130	 0.433971702396902 
1131	 0.434474926654873 
1132	 0.434970701304561 
1133	 0.435457010545538 
1134	 0.435962339495032 
1135	 0.436472954443491 
1136	 0.43699799952377 
1137	 0.437523911795975 
1138	 0.437973422478639 
1139	 0.438453890624745 
1140	 0.438915969173656 
1141	 0.43937999322449 
1142	 0.439862858096414 
1143	 0.440324137951352 
1144	 0.440760505230601 
1145	 0.441195313292686 
1146	 0.441633827713755 
1147	 0.44205419754713 
1148	 0.442447833412291 
1149	 0.44285743762138 
1150	 0.443263313574176 
1151	 0.443677819245949 
1152	 0.444085023246653 
1153	 0.444491205511091 
1154	 0.444890072588032 
1155	 0.44526387012075 
1156	 0.445670454839426 
1157	 0.446107840410452 
1158	 0.446502838494093 
1159	 0.446897286238557 
1160	 0.447283776412717 
1161	 0.447637656758908 
1162	 0.448004496765433 
1163	 0.448399232428577 
1164	 0.448756881776627 
1165	 0.449085027131563 
1166	 0.449416361565029 
1167	 0.449747620126099 
1168	 0.450084865114052 
1169	 0.450434017392106 
1170	 0.450813332864034 
1171	 0.451158054359577 
1172	 0.451499803141605 
1173	 0.451825075480252 
1174	 0.45212248726158 
1175	 0.452438149658911 
1176	 0.45274995765971 
1177	 0.45306617103662 
1178	 0.453401752121054 
1179	 0.45372155332497 
1180	 0.454025277358539 
1181	 0.454339610507424 
1182	 0.454663211851149 
1183	 0.454968251383673 
1184	 0.455276181516522 
1185	 0.455590206548651 
1186	 0.455893737766765 
1187	 0.456190372088226 
1188	 0.456479212634673 
1189	 0.456762592286866 
1190	 0.45704528668192 
1191	 0.457321615075163 
1192	 0.457592710365073 
1193	 0.457864951425276 
1194	 0.458130481183125 
1195	 0.458385775250505 
1196	 0.458637485059007 
1197	 0.458874957839421 
1198	 0.459128130315028 
1199	 0.459385969689988 
1200	 0.459650610660098 
1201	 0.45989717903671 
1202	 0.460144227424689 
1203	 0.46039416429341 
1204	 0.46063546512217 
1205	 0.460870744898243 
1206	 0.461098120192805 
1207	 0.461351775208124 
1208	 0.461607994636515 
1209	 0.461862070396438 
1210	 0.462165965978406 
1211	 0.462418341266114 
1212	 0.462615619763584 
1213	 0.462841108469578 
1214	 0.463057355897722 
1215	 0.463282039310425 
1216	 0.463515182572576 
1217	 0.463775321027882 
1218	 0.46400129469456 
1219	 0.464211812017725 
1220	 0.464434266474972 
1221	 0.464647865065837 
1222	 0.464869150121048 
1223	 0.465111538447639 
1224	 0.465328050553934 
1225	 0.46553168712736 
1226	 0.465733976501292 
1227	 0.465921442434522 
1228	 0.466114938328178 
1229	 0.466304675873033 
1230	 0.466501347871892 
1231	 0.466709278644957 
1232	 0.466906359480104 
1233	 0.467100834226335 
1234	 0.467303325708261 
1235	 0.467484411871118 
1236	 0.467648805059344 
1237	 0.467818290627695 
1238	 0.467981803457054 
1239	 0.468140106142798 
1240	 0.468294273011479 
1241	 0.468449549326974 
1242	 0.468604874700624 
1243	 0.4687491520907 
1244	 0.468868758121983 
1245	 0.469023305791401 
1246	 0.469180942263444 
1247	 0.469353177281773 
1248	 0.469557818953085 
1249	 0.469772517163529 
1250	 0.469972974959694 
1251	 0.470144056338164 
1252	 0.470312956945685 
1253	 0.470468197868358 
1254	 0.470621805100571 
1255	 0.470767532345125 
1256	 0.470906692528502 
1257	 0.471046124883512 
1258	 0.471166954057858 
1259	 0.471265021955507 
1260	 0.471373997964949 
1261	 0.471466543329223 
1262	 0.471576406766375 
1263	 0.471708235459893 
1264	 0.471825993254788 
1265	 0.471927661456474 
1266	 0.472053543437864 
1267	 0.472191425205953 
1268	 0.472316822925751 
1269	 0.472468791990472 
1270	 0.472655290826183 
1271	 0.472811227641939 
1272	 0.472954298774077 
1273	 0.473120266817497 
1274	 0.473287840180543 
1275	 0.473462534531625 
1276	 0.473648318287319 
1277	 0.473845390692016 
1278	 0.474035347358579 
1279	 0.474251377890521 
1280	 0.474507547328799 
1281	 0.474745604365388 
1282	 0.474993511896136 
1283	 0.475232627799171 
1284	 0.475458657562663 
1285	 0.47568798714657 
1286	 0.475937127973728 
1287	 0.476164255088661 
1288	 0.47638818838975 
1289	 0.476620584589385 
1290	 0.4768187606091 
1291	 0.476985672056286 
1292	 0.477174690066995 
1293	 0.477364260436639 
1294	 0.477534005145662 
1295	 0.477707894315447 
1296	 0.477858915200526 
1297	 0.477980904862243 
1298	 0.478106469694365 
1299	 0.478240419859928 
1300	 0.478344001537445 
1301	 0.478418773995358 
1302	 0.478494147606053 
1303	 0.478557112337384 
1304	 0.478606296969136 
1305	 0.478639843365874 
1306	 0.478693985724185 
1307	 0.478731456330382 
1308	 0.478753995660512 
1309	 0.478766894803253 
1310	 0.478777970938082 
1311	 0.478764613857882 
1312	 0.478722274374154 
1313	 0.478700436724078 
1314	 0.478674791958896 
1315	 0.478651802214092 
1316	 0.478632377607075 
1317	 0.478608724506418 
1318	 0.478592620210365 
1319	 0.478560478881402 
1320	 0.478526698619523 
1321	 0.478482879115467 
1322	 0.478430583313498 
1323	 0.478355181876501 
1324	 0.47828245335202 
1325	 0.478207304913777 
1326	 0.478137846290319 
1327	 0.47806122005265 
1328	 0.477982254944142 
1329	 0.4779097071041 
1330	 0.477817993629418 
1331	 0.477708090725374 
1332	 0.477610219504299 
1333	 0.477509828497022 
1334	 0.477400758135148 
1335	 0.477289715386249 
1336	 0.47718405628721 
1337	 0.477064674683598 
1338	 0.47696635753673 
1339	 0.476894599587793 
1340	 0.476795349400818 
1341	 0.476696964981194 
1342	 0.476593308019292 
1343	 0.476474368090018 
1344	 0.476344214796641 
1345	 0.476260849203608 
1346	 0.476153068224314 
1347	 0.476044985336647 
1348	 0.475985481767139 
1349	 0.475881259254701 
1350	 0.475754918042084 
1351	 0.475657170662956 
1352	 0.475566568857965 
1353	 0.47546072993419 
1354	 0.475365288630991 
1355	 0.475265889694616 
1356	 0.47514630798247 
1357	 0.475043461341169 
1358	 0.474953604507713 
1359	 0.474858556126695 
1360	 0.474751100489287 
1361	 0.474664027718579 
1362	 0.474607222228053 
1363	 0.474525871988088 
1364	 0.47443612341668 
1365	 0.474356535249015 
1366	 0.474277892662873 
1367	 0.474173416597248 
1368	 0.474099988429624 
1369	 0.474035450357623 
1370	 0.473926534094114 
1371	 0.473814181140112 
1372	 0.473685637462603 
1373	 0.473522438344345 
1374	 0.473352541073731 
1375	 0.473170570179458 
1376	 0.472969983276135 
1377	 0.472762360118722 
1378	 0.472512005434263 
1379	 0.472231378469551 
1380	 0.471942490289965 
1381	 0.471611817709531 
1382	 0.471288962498497 
1383	 0.470982927784349 
1384	 0.470629670696863 
1385	 0.470285688816026 
1386	 0.469869070887281 
1387	 0.469401601274604 
1388	 0.468897602644029 
1389	 0.468353605530497 
1390	 0.467747065238569 
1391	 0.467115498393074 
1392	 0.466442237963541 
1393	 0.465677815126535 
1394	 0.464871727696115 
1395	 0.463993236775783 
1396	 0.463087684447079 
1397	 0.462221743829148 
1398	 0.461357036862428 
1399	 0.46047456239167 
1400	 0.459613513304626 
1401	 0.458719608498813 
1402	 0.457782665180051 
1403	 0.456873161727162 
1404	 0.455946287927991 
1405	 0.455072280019515 
1406	 0.45420929712635 
1407	 0.453382271908881 
1408	 0.45258821112122 
1409	 0.451828328544007 
1410	 0.451059320789514 
1411	 0.450392296599763 
1412	 0.449775230377032 
1413	 0.44923988433275 
1414	 0.448824498532815 
1415	 0.448432054660756 
1416	 0.448077802222464 
1417	 0.447774797382268 
1418	 0.447451449206875 
1419	 0.447165854170966 
1420	 0.446910755417458 
1421	 0.446652401535929 
1422	 0.446432655948951 
1423	 0.4462100699623 
1424	 0.445959784955424 
1425	 0.445700544431036 
1426	 0.44544061560511 
1427	 0.445132184123064 
1428	 0.444898240171795 
1429	 0.444697367817851 
1430	 0.44450147955385 
1431	 0.444358350668346 
1432	 0.444175358401708 
1433	 0.443964730687842 
1434	 0.443790913500955 
1435	 0.443596149562909 
1436	 0.443464958048058 
1437	 0.443387877738328 
1438	 0.443310184298074 
1439	 0.443275342779274 
1440	 0.44322907192829 
1441	 0.443172747535399 
1442	 0.443119956124552 
1443	 0.443041209253486 
1444	 0.442970466940629 
1445	 0.442912516320426 
1446	 0.442859337833577 
1447	 0.442837388723151 
1448	 0.442809986234673 
1449	 0.442723067682829 
1450	 0.442618674327681 
1451	 0.442525808065156 
1452	 0.442396616036703 
1453	 0.442303527048386 
1454	 0.44224294664801 
1455	 0.442169460665693 
1456	 0.442106042036567 
1457	 0.442018730559128 
1458	 0.441916569261665 
1459	 0.441825116995098 
1460	 0.441703192956874 
1461	 0.441624916792201 
1462	 0.441583533184232 
1463	 0.441530235679441 
1464	 0.44149653558904 
1465	 0.441449647737463 
1466	 0.441367728102252 
1467	 0.441338145757986 
1468	 0.441296162759639 
1469	 0.44132523486287 
1470	 0.44141614558969 
1471	 0.441536993716574 
1472	 0.441683522975574 
1473	 0.44185592048625 
1474	 0.44200870823989 
1475	 0.442176697587029 
1476	 0.442345702289876 
1477	 0.4425300981049 
1478	 0.442741216341289 
1479	 0.442958459270515 
1480	 0.443224876103446 
1481	 0.443503936183907 
1482	 0.443773479026371 
1483	 0.444067510211371 
1484	 0.444326855838192 
1485	 0.444555160682475 
1486	 0.444816379111681 
1487	 0.445078147825576 
1488	 0.445344276302855 
1489	 0.445643385435035 
1490	 0.445902399191119 
1491	 0.446148007654463 
1492	 0.446382164881807 
1493	 0.446586733507926 
1494	 0.446802662361669 
1495	 0.447008625780999 
1496	 0.447218969682042 
1497	 0.447451893270321 
1498	 0.447655115795093 
1499	 0.447850747055559 
1500	 0.448029523505361 
1501	 0.448175815950193 
1502	 0.448324947511593 
1503	 0.448460994763001 
1504	 0.448597902518156 
1505	 0.448751346483924 
1506	 0.448928429141402 
1507	 0.449109974021567 
1508	 0.449288470967381 
1509	 0.449453392645489 
1510	 0.449588710061305 
1511	 0.449724613058014 
1512	 0.449858113781657 
1513	 0.449998904323039 
1514	 0.450187236607026 
1515	 0.450373557698486 
1516	 0.450557599564133 
1517	 0.450719577178858 
1518	 0.450869107248795 
1519	 0.451003315655436 
1520	 0.451122016440182 
1521	 0.451234438712113 
1522	 0.451317415840739 
1523	 0.451435262279803 
1524	 0.451559629885804 
1525	 0.451683639500035 
1526	 0.451838129357142 
1527	 0.451967220286796 
1528	 0.452080661110332 
1529	 0.452191792595948 
1530	 0.452296531667855 
1531	 0.452399622977231 
1532	 0.452496453664129 
1533	 0.452585375590683 
1534	 0.452673027700986 
1535	 0.452749989081096 
1536	 0.452804162036529 
1537	 0.452880716370815 
1538	 0.452954137314271 
1539	 0.453047202241427 
1540	 0.453164734005215 
1541	 0.453275272361698 
1542	 0.453396355443246 
1543	 0.453508715644323 
1544	 0.453625411634766 
1545	 0.453728172386796 
1546	 0.453825353417943 
1547	 0.453912342640135 
1548	 0.453978542851328 
1549	 0.45404035319856 
1550	 0.454103110761032 
1551	 0.454166115241994 
1552	 0.454234603819277 
1553	 0.45431170390691 
1554	 0.454392192343133 
1555	 0.454462144897053 
1556	 0.454516696682188 
1557	 0.454569211639645 
1558	 0.454612776852466 
1559	 0.454647818970398 
1560	 0.454694273830462 
1561	 0.454750836330317 
1562	 0.45479726532364 
1563	 0.454833739060071 
1564	 0.454896625580599 
1565	 0.454975019953265 
1566	 0.455043814357569 
1567	 0.455122840242972 
1568	 0.455193273197949 
1569	 0.455248245063827 
1570	 0.455312894600214 
1571	 0.45539817298539 
1572	 0.455459266372185 
1573	 0.455517351139569 
1574	 0.45555159918813 
1575	 0.455554919213838 
1576	 0.455570823259727 
1577	 0.45557748258339 
1578	 0.455588479707289 
1579	 0.455590559576655 
1580	 0.455623286135994 
1581	 0.455665800870878 
1582	 0.455713134803083 
1583	 0.455800145756404 
1584	 0.455856736882136 
1585	 0.455896201193142 
1586	 0.4559405678829 
1587	 0.455986030132739 
1588	 0.456015502885561 
1589	 0.456033040183136 
1590	 0.456055533211749 
1591	 0.456070425025965 
1592	 0.456084147756506 
1593	 0.456090355200263 
1594	 0.456112021922943 
1595	 0.456132939467733 
1596	 0.456162283973048 
1597	 0.45623591182429 
1598	 0.456265002470266 
1599	 0.456276341217428 
1600	 0.456271439434054 
1601	 0.456211109391876 
1602	 0.456189036116695 
1603	 0.456171534954712 
1604	 0.45616673027594 
1605	 0.456190846652377 
1606	 0.456209629105817 
1607	 0.456227656459209 
1608	 0.456255600278447 
1609	 0.456299180861618 
1610	 0.456334139368396 
1611	 0.456325870540896 
1612	 0.45631921736262 
1613	 0.456294138344419 
1614	 0.456253260041177 
1615	 0.456243337217918 
1616	 0.456254357401345 
1617	 0.456252115292495 
1618	 0.456251633607032 
1619	 0.456266542386549 
1620	 0.456256479402499 
1621	 0.456256616934322 
1622	 0.45627225255117 
1623	 0.45623856538412 
1624	 0.456184206754728 
1625	 0.456128529313106 
1626	 0.456031662175497 
1627	 0.455979063019245 
1628	 0.455937198325479 
1629	 0.455913840065985 
1630	 0.455906707077845 
1631	 0.455910671688968 
1632	 0.45594748534473 
1633	 0.455945858923375 
1634	 0.455948169045472 
1635	 0.455918250925815 
1636	 0.455849594059569 
1637	 0.455805691075222 
1638	 0.455752456478307 
1639	 0.4557146412846 
1640	 0.455686013037676 
1641	 0.455664228423175 
1642	 0.455651223766738 
1643	 0.455634060359504 
1644	 0.455630746107547 
1645	 0.455607626004238 
1646	 0.455571203407677 
1647	 0.455542230914586 
1648	 0.455511863665525 
1649	 0.455473176255377 
1650	 0.455430236826333 
1651	 0.455392672361222 
1652	 0.455339616396604 
1653	 0.455312839668281 
1654	 0.455303063158028 
1655	 0.45529628837085 
1656	 0.455321671547387 
1657	 0.455297239862146 
1658	 0.45525915670305 
1659	 0.455209983830386 
1660	 0.45512935209349 
1661	 0.455047539727637 
1662	 0.45494654159475 
1663	 0.454876966930898 
1664	 0.454808787904364 
1665	 0.454741468648496 
1666	 0.454686389717602 
1667	 0.454654262176917 
1668	 0.454634133236754 
1669	 0.454597543740047 
1670	 0.454595790305495 
1671	 0.454555181031164 
1672	 0.454466053594231 
1673	 0.454402808201876 
1674	 0.45434639657151 
1675	 0.45428669418766 
1676	 0.454229361759984 
1677	 0.454164981552287 
1678	 0.45409547824507 
1679	 0.454028778708784 
1680	 0.453960775071353 
1681	 0.453888341088649 
1682	 0.453809029080171 
1683	 0.453745422125522 
1684	 0.453689125457946 
1685	 0.453622280479933 
1686	 0.453574096731917 
1687	 0.453496088434197 
1688	 0.453378372047768 
1689	 0.453294616805662 
1690	 0.453202692472166 
1691	 0.453144528303174 
1692	 0.45312455911141 
1693	 0.453089263367846 
1694	 0.453055770990436 
1695	 0.453039336778794 
1696	 0.453033824739416 
1697	 0.453021775373624 
1698	 0.453041466064125 
1699	 0.45301701675793 
1700	 0.452977846034621 
1701	 0.452903605546865 
1702	 0.452793065169948 
1703	 0.45268008643374 
1704	 0.452531666275922 
1705	 0.452393180704847 
1706	 0.452238450244685 
1707	 0.452118505563026 
1708	 0.452014966990188 
1709	 0.45190968368339 
1710	 0.45182677319018 
1711	 0.451736738058212 
1712	 0.451637779337913 
1713	 0.451539498426906 
1714	 0.451456805270142 
1715	 0.451355816520046 
1716	 0.45122843620441 
1717	 0.451129017793025 
1718	 0.451035298752749 
1719	 0.450947673884899 
1720	 0.45087720259823 
1721	 0.450807966487052 
1722	 0.450754924548267 
1723	 0.45066604023591 
1724	 0.450572628503145 
1725	 0.450456192278199 
1726	 0.450302415277925 
1727	 0.450165351275989 
1728	 0.450020715852294 
1729	 0.449892042581519 
1730	 0.449767172709677 
1731	 0.449639116057597 
1732	 0.449526234323485 
1733	 0.449401912335453 
1734	 0.449275482663188 
1735	 0.449131647823269 
1736	 0.448972725887153 
1737	 0.448815784604308 
1738	 0.448650578464369 
1739	 0.448482350769289 
1740	 0.448299925082895 
1741	 0.448158756644693 
1742	 0.448022223101805 
1743	 0.447904525182928 
1744	 0.447843298047002 
1745	 0.447718914522061 
1746	 0.447568229486805 
1747	 0.447396191028484 
1748	 0.447251780301119 
1749	 0.447116684844551 
1750	 0.446943930105982 
1751	 0.446775369913567 
1752	 0.446595978168842 
1753	 0.44640569325057 
1754	 0.446257597934657 
1755	 0.446126323143776 
1756	 0.44599216114558 
1757	 0.445852269048618 
1758	 0.445692445004914 
1759	 0.44554591202343 
1760	 0.445413725815357 
1761	 0.445287084310436 
1762	 0.445185591032791 
1763	 0.445054135268846 
1764	 0.44488289669587 
1765	 0.444707765274167 
1766	 0.444518078518757 
1767	 0.444334929030169 
1768	 0.444180587514679 
1769	 0.444045712646502 
1770	 0.44391817312898 
1771	 0.443823093701644 
1772	 0.443751170159603 
1773	 0.443670714722458 
1774	 0.443598857381892 
1775	 0.443501054200535 
1776	 0.443323524444353 
1777	 0.443138433572746 
1778	 0.442974780335006 
1779	 0.442795262627386 
1780	 0.442653490027828 
1781	 0.442513661465551 
1782	 0.442400612665696 
1783	 0.442355373543688 
1784	 0.442330339179592 
1785	 0.442409793682744 
1786	 0.44239964872556 
1787	 0.442360797432568 
1788	 0.442309179339372 
1789	 0.442214174770932 
1790	 0.44212819690101 
1791	 0.442023910959791 
1792	 0.441931847880789 
1793	 0.44182118304444 
1794	 0.441735718568668 
1795	 0.441677741704703 
1796	 0.44162250559064 
1797	 0.441601682680133 
1798	 0.441533761869507 
1799	 0.44144441045025 
1800	 0.441375497883354 
1801	 0.445995645601951 
1802	 0.446251149891604 
1803	 0.446559297294765 
1804	 0.446916422106676 
1805	 0.447350899310675 
1806	 0.447752562604779 
1807	 0.448112513972029 
1808	 0.448426023526437 
1809	 0.448716111562246 
1810	 0.448946214609743 
1811	 0.449124157335624 
1812	 0.449284316410056 
1813	 0.449384389122495 
1814	 0.449421324015247 
1815	 0.449411746655491 
1816	 0.449394064551062 
1817	 0.449363829871728 
1818	 0.449289986989271 
1819	 0.449251885390821 
1820	 0.449212878109342 
1821	 0.44918660077371 
1822	 0.449188685532587 
1823	 0.449180324809473 
1824	 0.449138431744351 
1825	 0.449028763588837 
1826	 0.448917421370736 
1827	 0.448800703882498 
1828	 0.4486564901272 
1829	 0.448524591652682 
1830	 0.448350795068574 
1831	 0.448117279155832 
1832	 0.44789909994953 
1833	 0.447700673090879 
1834	 0.447480243897972 
1835	 0.447342496680905 
1836	 0.44718830686457 
1837	 0.447021503904098 
1838	 0.446886936986714 
1839	 0.446717828988959 
1840	 0.446523240188925 
1841	 0.446322313321869 
1842	 0.446120967173118 
1843	 0.445930720247655 
1844	 0.445767551997005 
1845	 0.445627027721102 
1846	 0.445520839678353 
1847	 0.44541013410824 
1848	 0.445309560813949 
1849	 0.445226853613984 
1850	 0.445162859998509 
1851	 0.445121090216957 
1852	 0.445092512920933 
1853	 0.445054540082135 
1854	 0.444985634918783 
1855	 0.44487592096725 
1856	 0.444721340287658 
1857	 0.444515080995454 
1858	 0.444297650815505 
1859	 0.444038092769511 
1860	 0.443765639363431 
1861	 0.443467804298432 
1862	 0.443167846362999 
1863	 0.442838102568556 
1864	 0.442531127234063 
1865	 0.442204167395867 
1866	 0.441819455512897 
1867	 0.441410421046287 
1868	 0.440907433518033 
1869	 0.4403247800675 
1870	 0.439754703023486 
1871	 0.439132106484048 
1872	 0.438465457280333 
1873	 0.437769175660237 
1874	 0.437068407514677 
1875	 0.436271208691742 
1876	 0.435413728935377 
1877	 0.434501766656911 
1878	 0.433440396722639 
1879	 0.432268695021797 
1880	 0.43098272415526 
1881	 0.429559950607502 
1882	 0.428057802925305 
1883	 0.426477139057561 
1884	 0.424726017648945 
1885	 0.422896738763727 
1886	 0.420952706974122 
1887	 0.41882905779251 
1888	 0.416634627216105 
1889	 0.414315975491867 
1890	 0.411885586220996 
1891	 0.409433513739887 
1892	 0.406898526715009 
1893	 0.404330252866843 
1894	 0.401720802327501 
1895	 0.399051301749154 
1896	 0.396324487236797 
1897	 0.393614367601828 
1898	 0.390888149962369 
1899	 0.388205585404446 
1900	 0.385608078704027 
1901	 0.383044169169813 
1902	 0.380576888949502 
1903	 0.378220956311968 
1904	 0.375914037852611 
1905	 0.373653272206047 
1906	 0.371503808070308 
1907	 0.369446926048811 
1908	 0.367478332046189 
1909	 0.365647933412017 
1910	 0.363882557460356 
1911	 0.362179036804604 
1912	 0.36056611208585 
1913	 0.35903414948848 
1914	 0.357567341708937 
1915	 0.356194691082386 
1916	 0.354911473942568 
1917	 0.353709876104305 
1918	 0.352608144539419 
1919	 0.351590815489679 
1920	 0.350667930360912 
1921	 0.34982775663259 
1922	 0.349061381819217 
1923	 0.348402496570471 
1924	 0.347810552778591 
1925	 0.347335512851901 
1926	 0.346884835893688 
1927	 0.346498870329469 
1928	 0.346143884362772 
1929	 0.345850480932839 
1930	 0.345596822366087 
1931	 0.345422308891418 
1932	 0.345307372330121 
1933	 0.345208265778995 
1934	 0.345169618516612 
1935	 0.345174373672874 
1936	 0.345203325019459 
1937	 0.345299213121941 
1938	 0.3454867575813 
1939	 0.345665590924093 
1940	 0.345882967525088 
1941	 0.346114467334124 
1942	 0.346352440267647 
1943	 0.346624655802913 
1944	 0.346899596635483 
1945	 0.347208764031818 
1946	 0.34753911819699 
1947	 0.34787604574376 
1948	 0.348253348845202 
1949	 0.348679187887578 
1950	 0.349103585281133 
1951	 0.349544954946562 
1952	 0.350020365186471 
1953	 0.350474832323331 
1954	 0.350941933406986 
1955	 0.351442041368292 
1956	 0.351953317810675 
1957	 0.352487508267055 
1958	 0.353067808282747 
1959	 0.353625111962489 
1960	 0.354182457996546 
1961	 0.354749372005051 
1962	 0.355317899965338 
1963	 0.355893122241594 
1964	 0.356467946154452 
1965	 0.357066637844445 
1966	 0.357683849050095 
1967	 0.358312194271184 
1968	 0.358932471396472 
1969	 0.359567352622327 
1970	 0.360202792501186 
1971	 0.360829976124701 
1972	 0.361457049822325 
1973	 0.362105575792785 
1974	 0.362738409294891 
1975	 0.363347263005126 
1976	 0.363970702716916 
1977	 0.364626858489048 
1978	 0.365245490260621 
1979	 0.365863409919137 
1980	 0.366528775611618 
1981	 0.367169737630131 
1982	 0.367797879548156 
1983	 0.368443775200839 
1984	 0.369095015530606 
1985	 0.369745369929317 
1986	 0.37042390632113 
1987	 0.371069250875618 
1988	 0.371697863565289 
1989	 0.372330531009019 
1990	 0.372930191250871 
1991	 0.373521534679779 
1992	 0.374126210154189 
1993	 0.374744841873014 
1994	 0.375328093935962 
1995	 0.375892912041209 
1996	 0.376471271822424 
1997	 0.377022348816715 
1998	 0.377598737305914 
1999	 0.378209176634311 
2000	 0.378802927153298 
2001	 0.379393493862909 
2002	 0.379979126903935 
2003	 0.380576139702854 
2004	 0.381163689243753 
2005	 0.381745956724459 
2006	 0.382322560891085 
2007	 0.382910152695451 
2008	 0.383490555002833 
2009	 0.384076563227775 
2010	 0.384687190392494 
2011	 0.385273774849119 
2012	 0.385854671747895 
2013	 0.386423765817572 
2014	 0.386982914958349 
2015	 0.387521698922784 
2016	 0.388058634634989 
2017	 0.388608447084338 
2018	 0.389165780732682 
2019	 0.389742926522146 
2020	 0.390292956893168 
2021	 0.390836558158879 
2022	 0.391384314022751 
2023	 0.391919288149494 
2024	 0.392462486468837 
2025	 0.393032947263456 
2026	 0.393568726406993 
2027	 0.394096275299011 
2028	 0.394594063242361 
2029	 0.395089179606156 
2030	 0.395569148107793 
2031	 0.396033333596019 
2032	 0.396488380323823 
2033	 0.396924730079861 
2034	 0.397325555149298 
2035	 0.397746947892272 
2036	 0.398162983888841 
2037	 0.398581760157384 
2038	 0.399022979658912 
2039	 0.399434017642526 
2040	 0.399821179024533 
2041	 0.40021612607311 
2042	 0.400595196725276 
2043	 0.400961578036861 
2044	 0.401359737917267 
2045	 0.401781959065439 
2046	 0.402183659768804 
2047	 0.40261254756626 
2048	 0.402994945619487 
2049	 0.403358975480129 
2050	 0.403696651463271 
2051	 0.403997016405999 
2052	 0.404296967997277 
2053	 0.40455709150423 
2054	 0.404840344440287 
2055	 0.405130280293693 
2056	 0.405427106763989 
2057	 0.405705028686711 
2058	 0.405973346983856 
2059	 0.406265311046878 
2060	 0.406549506404026 
2061	 0.406846594938652 
2062	 0.40719013924513 
2063	 0.407490479342493 
2064	 0.40776427366453 
2065	 0.408044614974777 
2066	 0.408322579169942 
2067	 0.408584006064581 
2068	 0.408826211336204 
2069	 0.40908291785651 
2070	 0.409337864025146 
2071	 0.409582573079949 
2072	 0.409830378733025 
2073	 0.410093049582365 
2074	 0.410336931394098 
2075	 0.410562873400728 
2076	 0.410797307848078 
2077	 0.411021000801442 
2078	 0.411264776959805 
2079	 0.411520761682824 
2080	 0.411772280829446 
2081	 0.412029896248877 
2082	 0.412295349588165 
2083	 0.41256898754569 
2084	 0.412834427226392 
2085	 0.413095012848149 
2086	 0.413374704630835 
2087	 0.413612581424845 
2088	 0.413813867592837 
2089	 0.414036347226662 
2090	 0.414245941783969 
2091	 0.414464259906076 
2092	 0.414693554496096 
2093	 0.414918082404797 
2094	 0.415144014007534 
2095	 0.415362759710973 
2096	 0.41558532295847 
2097	 0.41579701757881 
2098	 0.416006468960316 
2099	 0.416185687209865 
2100	 0.416390856134824 
2101	 0.416594717971946 
2102	 0.416805264410436 
2103	 0.417024692986522 
2104	 0.417248699268969 
2105	 0.417476287096636 
2106	 0.417708367794739 
2107	 0.417953791414724 
2108	 0.418190838995995 
2109	 0.41841853937935 
2110	 0.418656706889098 
2111	 0.418900666856643 
2112	 0.419145209634611 
2113	 0.419395676074023 
2114	 0.419647163012963 
2115	 0.419904384154601 
2116	 0.420155819151522 
2117	 0.420432472066586 
2118	 0.420721220478993 
2119	 0.421022370723657 
2120	 0.421359980665285 
2121	 0.421658840789279 
2122	 0.421966782165217 
2123	 0.422239792962792 
2124	 0.42249162848628 
2125	 0.422716044209986 
2126	 0.422907551082904 
2127	 0.423095025150566 
2128	 0.423261599042101 
2129	 0.423410612942522 
2130	 0.423547717130277 
2131	 0.423669528493352 
2132	 0.423784552356849 
2133	 0.423890459248571 
2134	 0.423961135923492 
2135	 0.424007520655835 
2136	 0.424059664969807 
2137	 0.424099649417708 
2138	 0.424103422261753 
2139	 0.424107986254814 
2140	 0.424078965994292 
2141	 0.42399777152772 
2142	 0.423908491600074 
2143	 0.423814918065692 
2144	 0.423693176730334 
2145	 0.423517853195532 
2146	 0.423359118374854 
2147	 0.423189617324087 
2148	 0.423028326459417 
2149	 0.422854666661873 
2150	 0.4226874762034 
2151	 0.42249898319866 
2152	 0.422306121589215 
2153	 0.422077277071549 
2154	 0.421825506278144 
2155	 0.421563801187827 
2156	 0.421286855317176 
2157	 0.420977120564094 
2158	 0.42065492271919 
2159	 0.420301192065312 
2160	 0.419888344660027 
2161	 0.419489253202084 
2162	 0.419073847317007 
2163	 0.418663958193811 
2164	 0.418256632780196 
2165	 0.417842619073175 
2166	 0.417427508724875 
2167	 0.417009696392742 
2168	 0.416590675652728 
2169	 0.416159773675516 
2170	 0.415751591918395 
2171	 0.415355457100799 
2172	 0.414953449062472 
2173	 0.414564881167842 
2174	 0.414166364867987 
2175	 0.413766983958497 
2176	 0.413354216504993 
2177	 0.412957075290889 
2178	 0.412513176414969 
2179	 0.412037214600898 
2180	 0.411547887936108 
2181	 0.411010437498498 
2182	 0.410487328814707 
2183	 0.409939953669613 
2184	 0.409415584771573 
2185	 0.408920955950115 
2186	 0.408444076712798 
2187	 0.407974962861043 
2188	 0.407545508969506 
2189	 0.407089973059827 
2190	 0.40661549520772 
2191	 0.406171693801066 
2192	 0.405718370297089 
2193	 0.405312588705656 
2194	 0.404951990990366 
2195	 0.404583590439839 
2196	 0.404242940114504 
2197	 0.403899752749522 
2198	 0.403516577556798 
2199	 0.403207043409142 
2200	 0.40293689122601 
2201	 0.40269651940628 
2202	 0.402519827647807 
2203	 0.402358213961088 
2204	 0.402191443556966 
2205	 0.402021072866324 
2206	 0.401903988099513 
2207	 0.401810441202927 
2208	 0.401733297958765 
2209	 0.401695972341583 
2210	 0.40167299049719 
2211	 0.401657259833354 
2212	 0.401666610212607 
2213	 0.401717273242068 
2214	 0.401767984506525 
2215	 0.401854362434733 
2216	 0.401901788772355 
2217	 0.401958763945329 
2218	 0.401984398035323 
2219	 0.401973066699648 
2220	 0.401952838078271 
2221	 0.40192446736065 
2222	 0.401875500577427 
2223	 0.401781847530517 
2224	 0.401687722686966 
2225	 0.401610053507012 
2226	 0.401531065058717 
2227	 0.401433469033153 
2228	 0.401349558522516 
2229	 0.401239833501589 
2230	 0.401097657777561 
2231	 0.400955650364889 
2232	 0.400811288325062 
2233	 0.400660488067832 
2234	 0.400503123299978 
2235	 0.400326766389519 
2236	 0.400158661993517 
2237	 0.399943788027996 
2238	 0.399685930273171 
2239	 0.399416604391384 
2240	 0.399110021553482 
2241	 0.398814063037906 
2242	 0.398499175030024 
2243	 0.398198408071206 
2244	 0.397922965291039 
2245	 0.397611346518377 
2246	 0.397299150786655 
2247	 0.396977282255177 
2248	 0.396645809027943 
2249	 0.39629825626313 
2250	 0.395940064868797 
2251	 0.395574848665071 
2252	 0.395196640407077 
2253	 0.394782699841887 
2254	 0.394406803385934 
2255	 0.394022514140711 
2256	 0.393686547708374 
2257	 0.39337065034987 
2258	 0.393097552741747 
2259	 0.392861111951 
2260	 0.3926525362654 
2261	 0.392469470445743 
2262	 0.392338412797477 
2263	 0.392283834903707 
2264	 0.392197576883307 
2265	 0.39210440674279 
2266	 0.392075983480249 
2267	 0.392045162039362 
2268	 0.392070121991514 
2269	 0.392185276079553 
2270	 0.392319999345922 
2271	 0.392430725594574 
2272	 0.392577008812781 
2273	 0.392738836310034 
2274	 0.392857087710777 
2275	 0.392975544813542 
2276	 0.393084263269739 
2277	 0.393195150695981 
2278	 0.393264942519887 
2279	 0.393423139427301 
2280	 0.393623134209067 
2281	 0.39382548298462 
2282	 0.394082519037458 
2283	 0.39431884500954 
2284	 0.394570759579057 
2285	 0.394784128539939 
2286	 0.395004408817977 
2287	 0.395187250713758 
2288	 0.395319663718148 
2289	 0.395449444597575 
2290	 0.395571031492038 
2291	 0.395665170572292 
2292	 0.395716193788583 
2293	 0.395787321696636 
2294	 0.395839261518809 
2295	 0.395908684855449 
2296	 0.395975216704608 
2297	 0.396086797969998 
2298	 0.396221434391029 
2299	 0.39631196671278 
2300	 0.396395436333516 
2301	 0.396435611078827 
2302	 0.396409175456324 
2303	 0.396421450173527 
2304	 0.396446093488112 
2305	 0.396446649330721 
2306	 0.396438711722688 
2307	 0.396421290484562 
2308	 0.396404464498576 
2309	 0.396369290624991 
2310	 0.396358421241348 
2311	 0.39638008130351 
2312	 0.396332886196978 
2313	 0.39625654414078 
2314	 0.396192413637491 
2315	 0.396093950650823 
2316	 0.396014177763979 
2317	 0.395959569878231 
2318	 0.395875408639258 
2319	 0.395753925672175 
2320	 0.395652610232323 
2321	 0.395545483957443 
2322	 0.395469122316019 
2323	 0.395407843598903 
2324	 0.395366620351084 
2325	 0.395394750316692 
2326	 0.395356909426255 
2327	 0.395299298659283 
2328	 0.395218890490624 
2329	 0.395108537397801 
2330	 0.394993573481874 
2331	 0.394940796542136 
2332	 0.39489708790089 
2333	 0.39486108069937 
2334	 0.394763848631347 
2335	 0.39462482030001 
2336	 0.394471716915623 
2337	 0.394285830399781 
2338	 0.394102449031681 
2339	 0.393950321596753 
2340	 0.393787058454868 
2341	 0.393555495252787 
2342	 0.39339899707154 
2343	 0.393202184355634 
2344	 0.392925733993234 
2345	 0.39267685528423 
2346	 0.39245843273866 
2347	 0.392157360023087 
2348	 0.391800458519478 
2349	 0.3914451673178 
2350	 0.391039800977275 
2351	 0.390670861902906 
2352	 0.390298090091086 
2353	 0.389962758794987 
2354	 0.389659072993417 
2355	 0.389343548605789 
2356	 0.389071471618196 
2357	 0.388720941100642 
2358	 0.388334357729867 
2359	 0.387924837975977 
2360	 0.387452247160955 
2361	 0.387013376558351 
2362	 0.38657088173304 
2363	 0.386153529612179 
2364	 0.385736785733557 
2365	 0.385331861724451 
2366	 0.384943607640109 
2367	 0.384532581676493 
2368	 0.384157220794257 
2369	 0.383741786847746 
2370	 0.383265778719522 
2371	 0.382877014617466 
2372	 0.382458313260886 
2373	 0.381916612175121 
2374	 0.381485306603482 
2375	 0.381083305027492 
2376	 0.380632158100509 
2377	 0.380189911929998 
2378	 0.379685659039262 
2379	 0.379131568322264 
2380	 0.378602351513928 
2381	 0.378156920249747 
2382	 0.377712782128949 
2383	 0.377181213937901 
2384	 0.376638677756125 
2385	 0.37605951501416 
2386	 0.37540746064999 
2387	 0.374838007628498 
2388	 0.374300382044305 
2389	 0.373728031015122 
2390	 0.373196775311876 
2391	 0.37257236483979 
2392	 0.371914023912438 
2393	 0.371283125690307 
2394	 0.370623615603361 
2395	 0.369990894769211 
2396	 0.369440844627742 
2397	 0.36888232894554 
2398	 0.368251870001276 
2399	 0.367725990632345 
2400	 0.367144963273547 
2401	 0.366442067883901 
2402	 0.365891547258298 
2403	 0.365467823144299 
2404	 0.364955728715995 
2405	 0.364383550584051 
2406	 0.363847684835332 
2407	 0.363196898306158 
2408	 0.362470769450898 
2409	 0.361813035994731 
2410	 0.361161241088627 
2411	 0.360472641041181 
2412	 0.359853344506569 
2413	 0.359307468400899 
2414	 0.358632310495042 
2415	 0.357945057467002 
2416	 0.357337568603464 
2417	 0.35670095375984 
2418	 0.356184254981874 
2419	 0.355847988219519 
2420	 0.355344255219722 
2421	 0.354868540290644 
2422	 0.354322849468778 
2423	 0.35365399306322 
2424	 0.353057667891503 
2425	 0.352456672515316 
2426	 0.351857965221765 
2427	 0.351288379336688 
2428	 0.350666174312935 
2429	 0.349995870170133 
2430	 0.349351834623261 
2431	 0.34869545056125 
2432	 0.348074648264003 
2433	 0.347538691172779 
2434	 0.346878391544361 
2435	 0.346070263278109 
2436	 0.345453494701965 
2437	 0.344907617246918 
2438	 0.344333049378658 
2439	 0.343859008813991 
2440	 0.343313424421838 
2441	 0.342659453862272 
2442	 0.342098786875148 
2443	 0.341672210587114 
2444	 0.341203313350317 
2445	 0.34071128983963 
2446	 0.340142836001141 
2447	 0.339540176975585 
2448	 0.338915776691744 
2449	 0.338217323651185 
2450	 0.337610875098665 
2451	 0.337045215569746 
2452	 0.336409953432074 
2453	 0.335755276046063 
2454	 0.335155729380022 
2455	 0.334564626446177 
2456	 0.333984439724614 
2457	 0.333434966493354 
2458	 0.332856877028733 
2459	 0.332242947302355 
2460	 0.331686447266206 
2461	 0.331162374641216 
2462	 0.330691924889514 
2463	 0.330286765376555 
2464	 0.329722964538185 
2465	 0.329152376964721 
2466	 0.328572616830575 
2467	 0.327883316986192 
2468	 0.327320547609098 
2469	 0.326792440572223 
2470	 0.326354332959812 
2471	 0.32588862695779 
2472	 0.325457832088008 
2473	 0.325138599836717 
2474	 0.324797188300205 
2475	 0.324380031150203 
2476	 0.323896998853422 
2477	 0.323360740405156 
2478	 0.322858760874847 
2479	 0.322321917723784 
2480	 0.321920999804968 
2481	 0.321613552896075 
2482	 0.320955514839785 
2483	 0.320302266097794 
2484	 0.319810459078212 
2485	 0.319022888350375 
2486	 0.318381315998478 
2487	 0.317999267591134 
2488	 0.317342564954322 
2489	 0.316861046093195 
2490	 0.316611631163531 
2491	 0.316034832391604 
2492	 0.315513355530203 
2493	 0.315035064354472 
2494	 0.314519056394831 
2495	 0.314225916967159 
2496	 0.313869576655198 
2497	 0.313545051492374 
2498	 0.313107748165731 
2499	 0.312599634415778 
2500	 0.312307171092972 
