Wavelength	mm2400017.asd
350	 4.14609025442196E-02 
351	 5.26504674387593E-02 
352	 4.88426271384913E-02 
353	 3.23042836545489E-02 
354	 3.54444041833152E-02 
355	 4.10357164310643E-02 
356	 0.043322814123179 
357	 4.21473056211321E-02 
358	 4.59640466444162E-02 
359	 4.54904612812802E-02 
360	 4.17604949317182E-02 
361	 4.19872480641046E-02 
362	 4.07971225238302E-02 
363	 4.03522895228577E-02 
364	 4.10975567932907E-02 
365	 3.91414534949007E-02 
366	 4.20624159396178E-02 
367	 4.64949029073978E-02 
368	 0.047254356165773 
369	 4.44684474949485E-02 
370	 4.19163292856392E-02 
371	 4.16385268768296E-02 
372	 4.38208689351021E-02 
373	 4.38718360605934E-02 
374	 4.32777895876439E-02 
375	 4.34350889464427E-02 
376	 4.41582195334363E-02 
377	 4.41371510654022E-02 
378	 4.51666375901299E-02 
379	 4.84805983393142E-02 
380	 4.93239019977432E-02 
381	 4.79278868390508E-02 
382	 4.71321366145157E-02 
383	 5.06971616065248E-02 
384	 5.06313258039589E-02 
385	 0.049264952447087 
386	 4.89477795583113E-02 
387	 4.88591894397474E-02 
388	 5.16510285809572E-02 
389	 5.40425118885458E-02 
390	 5.23985997251824E-02 
391	 5.05842788096273E-02 
392	 5.07703455041897E-02 
393	 5.30596660888565E-02 
394	 5.57533210551411E-02 
395	 5.58640265282142E-02 
396	 5.60034286410491E-02 
397	 0.057975986478384 
398	 6.00114133436892E-02 
399	 6.11972443759525E-02 
400	 6.12794621383311E-02 
401	 6.08866473336572E-02 
402	 6.34785139404241E-02 
403	 6.48312594263219E-02 
404	 6.42093113291171E-02 
405	 6.47584948233295E-02 
406	 6.59397034197047E-02 
407	 6.73043505702123E-02 
408	 6.81953058362343E-02 
409	 6.72673963693228E-02 
410	 6.71001566458018E-02 
411	 6.80755952966893E-02 
412	 6.93775754865268E-02 
413	 7.02711048082865E-02 
414	 0.070012015263188 
415	 6.91890413218452E-02 
416	 6.99894250720505E-02 
417	 7.05613170362153E-02 
418	 7.06155961987132E-02 
419	 7.04832886178428E-02 
420	 7.13819632307561E-02 
421	 7.07233542378485E-02 
422	 6.94204732973184E-02 
423	 7.02744356620935E-02 
424	 7.02103572351084E-02 
425	 6.95991511371681E-02 
426	 6.91154207030842E-02 
427	 6.92196779553425E-02 
428	 6.86141516945474E-02 
429	 6.79320544154882E-02 
430	 6.80126119583325E-02 
431	 6.73360104738665E-02 
432	 6.69168805806023E-02 
433	 6.68948832019401E-02 
434	 6.65050255373143E-02 
435	 6.66883177063827E-02 
436	 6.69578961001115E-02 
437	 6.68786728717142E-02 
438	 6.67973953810872E-02 
439	 6.72891838952396E-02 
440	 6.80285421266543E-02 
441	 6.83146005834338E-02 
442	 6.85330640246279E-02 
443	 0.068738430662302 
444	 6.90268697762656E-02 
445	 6.96132898600426E-02 
446	 7.01780595936398E-02 
447	 7.05327291132145E-02 
448	 7.07040512353631E-02 
449	 7.14127477918503E-02 
450	 7.20362683569567E-02 
451	 7.24629230019661E-02 
452	 0.073026643948314 
453	 7.33291683143694E-02 
454	 7.33863053254561E-02 
455	 7.34600882850241E-02 
456	 7.42954908952275E-02 
457	 7.47967904774481E-02 
458	 7.48826501128263E-02 
459	 0.074958886671411 
460	 7.52178381037057E-02 
461	 7.54004599341489E-02 
462	 7.54790426450572E-02 
463	 7.58135924350387E-02 
464	 7.59731384282566E-02 
465	 7.61061385935611E-02 
466	 7.63890341452652E-02 
467	 7.64269826552935E-02 
468	 7.65339889013501E-02 
469	 7.66973223837653E-02 
470	 7.66490483807867E-02 
471	 7.66305326578389E-02 
472	 7.66241198601599E-02 
473	 7.66476612822768E-02 
474	 7.69151040185345E-02 
475	 7.73068754462681E-02 
476	 7.75059005626633E-02 
477	 7.72454959110565E-02 
478	 7.72670202004921E-02 
479	 7.73284559285453E-02 
480	 7.73282740707053E-02 
481	 7.74813535585887E-02 
482	 0.077763478577048 
483	 7.79237058962622E-02 
484	 7.78235269242997E-02 
485	 0.078046216100683 
486	 7.81481200503382E-02 
487	 7.80759996570142E-02 
488	 7.81134283616962E-02 
489	 7.82051484600604E-02 
490	 0.078225934043953 
491	 7.81526758667896E-02 
492	 7.82598342914226E-02 
493	 7.82615400728073E-02 
494	 7.82051835231752E-02 
495	 7.82826916646384E-02 
496	 7.85107152544343E-02 
497	 0.078625916675265 
498	 7.85708144122976E-02 
499	 0.078629594799954 
500	 7.85465675009465E-02 
501	 7.85325649334053E-02 
502	 7.87699006211747E-02 
503	 7.87105211066547E-02 
504	 7.86909837023395E-02 
505	 7.88128825918058E-02 
506	 7.89330898462738E-02 
507	 7.89299513386728E-02 
508	 7.89406094150259E-02 
509	 7.90502433730998E-02 
510	 7.90685334410154E-02 
511	 7.89934319831998E-02 
512	 7.89823787272252E-02 
513	 7.92117185017836E-02 
514	 7.91842080889419E-02 
515	 7.91094630614819E-02 
516	 7.91574255103828E-02 
517	 7.92977444193562E-02 
518	 7.94454634166576E-02 
519	 7.94950610617894E-02 
520	 7.94134299861487E-02 
521	 0.079533377260875 
522	 7.96682006853603E-02 
523	 7.97082896380581E-02 
524	 7.96591554844137E-02 
525	 7.96493305966803E-02 
526	 0.079678413059872 
527	 7.97158430055472E-02 
528	 7.97538020397679E-02 
529	 7.97250648281875E-02 
530	 7.96983004610185E-02 
531	 7.98086747214853E-02 
532	 7.98332353247171E-02 
533	 7.99047986729658E-02 
534	 8.00813407227956E-02 
535	 0.0801644949315 
536	 8.02159432939329E-02 
537	 8.02621109922124E-02 
538	 8.03115434350778E-02 
539	 8.02983066730181E-02 
540	 8.03652863997798E-02 
541	 8.05043900562264E-02 
542	 8.04861208275488E-02 
543	 0.080609394451451 
544	 8.07904468337941E-02 
545	 8.08864733857588E-02 
546	 8.09738418053307E-02 
547	 8.10027442324341E-02 
548	 8.10193994216956E-02 
549	 8.11433018775231E-02 
550	 0.081254384420988 
551	 8.13329233611395E-02 
552	 0.08140634346085 
553	 8.15892564218061E-02 
554	 8.16563100026381E-02 
555	 8.17081429849994E-02 
556	 8.19724136350267E-02 
557	 8.21314975492906E-02 
558	 8.22718009908704E-02 
559	 8.24727199228739E-02 
560	 8.27307492628746E-02 
561	 8.28739780766161E-02 
562	 8.30136216089492E-02 
563	 8.33100729442873E-02 
564	 8.35948539323246E-02 
565	 8.38594590186149E-02 
566	 8.41168259301498E-02 
567	 8.43934583242705E-02 
568	 8.47391725539927E-02 
569	 8.51056633419632E-02 
570	 8.54473205580261E-02 
571	 8.58141961968179E-02 
572	 8.61932716079598E-02 
573	 8.66063623849532E-02 
574	 8.70877063892843E-02 
575	 8.74973804369032E-02 
576	 8.79263554321783E-02 
577	 0.088428371103223 
578	 8.88943508049366E-02 
579	 8.93523090047631E-02 
580	 0.089858949420538 
581	 9.04653199487793E-02 
582	 9.10708914870124E-02 
583	 9.16395476942675E-02 
584	 9.21781457521559E-02 
585	 9.27443382523478E-02 
586	 0.093385461454815 
587	 9.40481999144304E-02 
588	 9.46730061263608E-02 
589	 9.53266233718254E-02 
590	 9.59917524697541E-02 
591	 9.66654926862159E-02 
592	 9.73618043263682E-02 
593	 9.80754779212469E-02 
594	 9.87816106258487E-02 
595	 9.94612302774541E-02 
596	 0.100123762895446 
597	 0.100761229262519 
598	 0.101375844764543 
599	 0.10198271333858 
600	 0.102633063133478 
601	 0.103287578394825 
602	 0.103919012159444 
603	 0.104546991944405 
604	 0.105141451797419 
605	 0.105699396750837 
606	 0.106238608290062 
607	 0.106827868399079 
608	 0.107382916596096 
609	 0.107887152887588 
610	 0.108410921633631 
611	 0.108890169836891 
612	 0.109350099260901 
613	 0.109807378200999 
614	 0.110182119035299 
615	 0.110521502140335 
616	 0.110868441365805 
617	 0.111252327931219 
618	 0.111616816434122 
619	 0.111913708804459 
620	 0.112148930490404 
621	 0.11243716138893 
622	 0.112718336886058 
623	 0.112965122857769 
624	 0.113173483428341 
625	 0.11341156797671 
626	 0.113660011353308 
627	 0.113897061523285 
628	 0.114107598235643 
629	 0.114309597771243 
630	 0.114515962396308 
631	 0.114734166444982 
632	 0.114962191817601 
633	 0.115141523084988 
634	 0.115284969211995 
635	 0.115462898297821 
636	 0.11566232660547 
637	 0.115872970844097 
638	 0.116076025035433 
639	 0.116231483542452 
640	 0.11638528568088 
641	 0.116569181413422 
642	 0.116795404634552 
643	 0.116991448681932 
644	 0.117166316108232 
645	 0.117345795179814 
646	 0.117568999444738 
647	 0.117723694658311 
648	 0.117904347631539 
649	 0.118200205045041 
650	 0.118415096900978 
651	 0.118598950522673 
652	 0.118798702141227 
653	 0.119047731092999 
654	 0.11927873309231 
655	 0.119514730638861 
656	 0.119771749516572 
657	 0.11999549857762 
658	 0.120293536623345 
659	 0.120620117186911 
660	 0.120872547989484 
661	 0.121133471431269 
662	 0.121418251926217 
663	 0.121725208764372 
664	 0.12203847262051 
665	 0.122326361984925 
666	 0.122605618820523 
667	 0.12290507769624 
668	 0.123234441219369 
669	 0.12357600424641 
670	 0.1239210453083 
671	 0.124269315493165 
672	 0.124620604277946 
673	 0.125023226610051 
674	 0.125473250746083 
675	 0.125821701358108 
676	 0.126183923880699 
677	 0.126569519490045 
678	 0.126949630867446 
679	 0.127356752974567 
680	 0.127784256809376 
681	 0.128224260846107 
682	 0.12867185582232 
683	 0.129132653371691 
684	 0.129602706554238 
685	 0.130075623790719 
686	 0.130544644418091 
687	 0.131039937706148 
688	 0.131553463995751 
689	 0.132049801372636 
690	 0.132522839049834 
691	 0.133023611114165 
692	 0.133569291636217 
693	 0.134099774923859 
694	 0.134576162948362 
695	 0.135075831769049 
696	 0.135679360135723 
697	 0.136221529836253 
698	 0.136742298289805 
699	 0.137282431030891 
700	 0.137866757121881 
701	 0.138438447138455 
702	 0.139008838254904 
703	 0.139593218874121 
704	 0.140178482940895 
705	 0.14073580759092 
706	 0.141275061786075 
707	 0.141824498859978 
708	 0.142374838454513 
709	 0.142934481913708 
710	 0.1435122098266 
711	 0.144118299706633 
712	 0.144690746013416 
713	 0.14523098813622 
714	 0.145766563090143 
715	 0.146342904390877 
716	 0.146900770680152 
717	 0.14742127002247 
718	 0.147921722772347 
719	 0.148447148260981 
720	 0.148965291002995 
721	 0.149454255573794 
722	 0.149939707189061 
723	 0.150393604421261 
724	 0.150809741885107 
725	 0.151204724908913 
726	 0.151665510172108 
727	 0.152079922115338 
728	 0.152424647131729 
729	 0.152768631059833 
730	 0.153144208410387 
731	 0.153497351952687 
732	 0.153791649493163 
733	 0.154070114272428 
734	 0.154358887738787 
735	 0.154607117973626 
736	 0.154761790254832 
737	 0.154976777042249 
738	 0.155163960933676 
739	 0.155297211652712 
740	 0.155435757999636 
741	 0.15553985610125 
742	 0.155601588839818 
743	 0.155632974803678 
744	 0.155685885722704 
745	 0.155680891657817 
746	 0.15563319293273 
747	 0.155596943657061 
748	 0.155549856810828 
749	 0.155446101920588 
750	 0.155313412287497 
751	 0.155265885744402 
752	 0.155142118013922 
753	 0.154962026818504 
754	 0.154775011990207 
755	 0.154582148016141 
756	 0.154392576555871 
757	 0.15417131618509 
758	 0.153880318971926 
759	 0.153632070729827 
760	 0.15337821633968 
761	 0.153080841256507 
762	 0.152736440184565 
763	 0.15244321859921 
764	 0.152142823361173 
765	 0.151785415526556 
766	 0.151461730391692 
767	 0.151131134113105 
768	 0.150780014472596 
769	 0.150409658622127 
770	 0.150025939365325 
771	 0.149641624590107 
772	 0.14924740837357 
773	 0.148810050641678 
774	 0.148432254060276 
775	 0.148063946662377 
776	 0.147650967805246 
777	 0.147219867655509 
778	 0.146848900959242 
779	 0.146484266836825 
780	 0.146034621241436 
781	 0.145603970101939 
782	 0.145184384857825 
783	 0.144765181660814 
784	 0.144344284077908 
785	 0.143956807015867 
786	 0.143578009889165 
787	 0.143182266497209 
788	 0.142764618400582 
789	 0.142404779070272 
790	 0.142026533419811 
791	 0.141544427472401 
792	 0.141150412532436 
793	 0.140801586355214 
794	 0.14044733506 
795	 0.140043678677136 
796	 0.139566117076819 
797	 0.139167297221455 
798	 0.138897769637475 
799	 0.138580866646356 
800	 0.138190293936318 
801	 0.137783710085975 
802	 0.137425389861319 
803	 0.137070359685242 
804	 0.136745143062397 
805	 0.136434590460885 
806	 0.136101264919091 
807	 0.135760211595523 
808	 0.135416636172797 
809	 0.135089411285973 
810	 0.134812293197395 
811	 0.134519094355997 
812	 0.134195579853994 
813	 0.13386384207284 
814	 0.133608187004863 
815	 0.1333495843519 
816	 0.133060140684962 
817	 0.132751236956063 
818	 0.132510384999004 
819	 0.132278611307917 
820	 0.132025673395463 
821	 0.131757292190432 
822	 0.131495476592772 
823	 0.131251192226873 
824	 0.13102839336917 
825	 0.130822281112316 
826	 0.130655773387214 
827	 0.130465712617745 
828	 0.130210603058272 
829	 0.129988061664452 
830	 0.12977279443654 
831	 0.129577878357374 
832	 0.129426334970098 
833	 0.129302307114439 
834	 0.129135603631105 
835	 0.128926085171849 
836	 0.128743739802887 
837	 0.128630729239531 
838	 0.12849873630609 
839	 0.128315143103911 
840	 0.128179581999447 
841	 0.128024556584561 
842	 0.127883212547657 
843	 0.127793117009264 
844	 0.127729222246404 
845	 0.127616447870022 
846	 0.127470207960078 
847	 0.127354341625889 
848	 0.127317271628661 
849	 0.127290209422691 
850	 0.12720995837826 
851	 0.127048967879039 
852	 0.1270036562122 
853	 0.126967016909988 
854	 0.126884982004355 
855	 0.126844526430673 
856	 0.126822541298256 
857	 0.12677401336054 
858	 0.126699883726183 
859	 0.126739014670381 
860	 0.126722591296735 
861	 0.126682660839655 
862	 0.126692495020635 
863	 0.126663943943778 
864	 0.126642566649882 
865	 0.126650027807372 
866	 0.12668365105779 
867	 0.126706354575041 
868	 0.126716364511844 
869	 0.126743912905594 
870	 0.126836664222865 
871	 0.126886961791475 
872	 0.126939166382188 
873	 0.127008516648318 
874	 0.1270236518528 
875	 0.127062101110707 
876	 0.127118326318473 
877	 0.127187216876033 
878	 0.127321405975001 
879	 0.127499673651096 
880	 0.127628259959766 
881	 0.127656593257575 
882	 0.127811704843266 
883	 0.127927836428763 
884	 0.127995919511366 
885	 0.128097221497837 
886	 0.128243267793966 
887	 0.128409522966964 
888	 0.128566841501502 
889	 0.128693401283946 
890	 0.128832484766895 
891	 0.128983184904491 
892	 0.129165493498721 
893	 0.129422130036597 
894	 0.129586563620425 
895	 0.129729944116375 
896	 0.12992307072329 
897	 0.130145850467329 
898	 0.130364754857319 
899	 0.130594082432592 
900	 0.130840474662724 
901	 0.13105198900978 
902	 0.131281699249159 
903	 0.13151922256275 
904	 0.131747653133972 
905	 0.132016209821627 
906	 0.13226037183011 
907	 0.132505457445093 
908	 0.132806377794836 
909	 0.133125435433243 
910	 0.133462474924577 
911	 0.133767984606314 
912	 0.133990724194905 
913	 0.134283963371932 
914	 0.13459273319246 
915	 0.134906401392637 
916	 0.135262571273223 
917	 0.135610247011913 
918	 0.135941038131923 
919	 0.136272935572352 
920	 0.136642147424709 
921	 0.137027121886701 
922	 0.137444160459974 
923	 0.137869058901243 
924	 0.138220846084086 
925	 0.138609933120415 
926	 0.139084641328367 
927	 0.139582352409261 
928	 0.139876697803908 
929	 0.140347843892477 
930	 0.140875746184983 
931	 0.141296633702986 
932	 0.141655620196609 
933	 0.142150116087695 
934	 0.142703544796829 
935	 0.143207200661479 
936	 0.143734641013776 
937	 0.144146466872826 
938	 0.144540463187967 
939	 0.14505948207395 
940	 0.145709229458569 
941	 0.146299935905307 
942	 0.146813110941957 
943	 0.147319445133717 
944	 0.147902652348012 
945	 0.148466310833531 
946	 0.149067072503877 
947	 0.149757242422224 
948	 0.150242659462595 
949	 0.150842239704251 
950	 0.151526405719241 
951	 0.152115172627765 
952	 0.152706611178544 
953	 0.153342879632493 
954	 0.154014349053815 
955	 0.154685729340568 
956	 0.155365767897154 
957	 0.156034033192347 
958	 0.15670336370722 
959	 0.157395667544389 
960	 0.15805578292637 
961	 0.158748310071491 
962	 0.159478059212553 
963	 0.160197678194714 
964	 0.160839041624691 
965	 0.161614661063505 
966	 0.162426865152744 
967	 0.163035243779187 
968	 0.163734546993948 
969	 0.164483967984117 
970	 0.165217051340775 
971	 0.165900828865157 
972	 0.166715022793999 
973	 0.167587472891642 
974	 0.168444832568408 
975	 0.16924708109981 
976	 0.170075593307745 
977	 0.170786298509893 
978	 0.171425926312472 
979	 0.172166793770779 
980	 0.173082249193738 
981	 0.173893315018344 
982	 0.17464549300157 
983	 0.175540366694445 
984	 0.176361583262413 
985	 0.177179797497493 
986	 0.177980807101019 
987	 0.178729354680501 
988	 0.179580061156335 
989	 0.180333359188421 
990	 0.181123127763618 
991	 0.182130020549097 
992	 0.18290398905469 
993	 0.183667495206504 
994	 0.184462013340996 
995	 0.185247442130464 
996	 0.186067114351238 
997	 0.186908412325396 
998	 0.187688477646715 
999	 0.188375296472339 
1000	 0.189176303188251 
1001	 0.189771005455033 
1002	 0.190530041402135 
1003	 0.191281750595607 
1004	 0.192022378681568 
1005	 0.192765135282064 
1006	 0.193528191240527 
1007	 0.194319513757876 
1008	 0.195037942507741 
1009	 0.195733883464549 
1010	 0.196406789265669 
1011	 0.197011958608307 
1012	 0.197661928639384 
1013	 0.19837710156251 
1014	 0.199022979717559 
1015	 0.199676824675806 
1016	 0.200364692341382 
1017	 0.201008033210604 
1018	 0.201593621220836 
1019	 0.202231726018974 
1020	 0.202907349179218 
1021	 0.203465223648845 
1022	 0.204047077575896 
1023	 0.204688142949367 
1024	 0.205266548156289 
1025	 0.205853601443004 
1026	 0.206420899546024 
1027	 0.206934306567859 
1028	 0.207459896325691 
1029	 0.208005691633394 
1030	 0.208553710506617 
1031	 0.209089088845559 
1032	 0.209627234666708 
1033	 0.210139689669788 
1034	 0.21065163819767 
1035	 0.211168944876972 
1036	 0.21165973045987 
1037	 0.212178146798999 
1038	 0.21270787228653 
1039	 0.213192730038613 
1040	 0.213710230413274 
1041	 0.214236899787738 
1042	 0.214707012478322 
1043	 0.215200428006862 
1044	 0.215676472964769 
1045	 0.216140446148728 
1046	 0.21658374763053 
1047	 0.217075282376933 
1048	 0.217517493372289 
1049	 0.217970988163199 
1050	 0.218458332353211 
1051	 0.218893906698461 
1052	 0.219364430069503 
1053	 0.219855098750329 
1054	 0.220336617997699 
1055	 0.22081593228452 
1056	 0.22124037303318 
1057	 0.221711447160211 
1058	 0.222227064903387 
1059	 0.222686318637181 
1060	 0.223125354257415 
1061	 0.22360185359715 
1062	 0.224015416490778 
1063	 0.224367958854664 
1064	 0.224776206595313 
1065	 0.225233075912126 
1066	 0.2257119086238 
1067	 0.226183672534216 
1068	 0.226630226901075 
1069	 0.227029135797748 
1070	 0.227438171174944 
1071	 0.227802893452284 
1072	 0.228227265370428 
1073	 0.228684680740179 
1074	 0.22913058795252 
1075	 0.229608345596784 
1076	 0.230040330364144 
1077	 0.230432467658619 
1078	 0.230831287240167 
1079	 0.231208288360064 
1080	 0.231557187401428 
1081	 0.231931930135352 
1082	 0.232319469368971 
1083	 0.232694817906033 
1084	 0.233073949922306 
1085	 0.233451069504679 
1086	 0.233822741442323 
1087	 0.234173803336686 
1088	 0.234507160708931 
1089	 0.234856809457467 
1090	 0.235204487754405 
1091	 0.235563531837089 
1092	 0.235956207859842 
1093	 0.236307419678799 
1094	 0.236616321794691 
1095	 0.236967187150812 
1096	 0.237304240154843 
1097	 0.237629777574305 
1098	 0.237969215618762 
1099	 0.238352670828022 
1100	 0.238661399096956 
1101	 0.238926945638983 
1102	 0.239208850006527 
1103	 0.239461662226109 
1104	 0.239718077598486 
1105	 0.240006565451433 
1106	 0.240336760313679 
1107	 0.240663607568146 
1108	 0.240985443877696 
1109	 0.241310284929012 
1110	 0.241595393125987 
1111	 0.241875738427588 
1112	 0.242136843701008 
1113	 0.242408315623182 
1114	 0.242669051267196 
1115	 0.242940617974185 
1116	 0.243219245037964 
1117	 0.243488507203319 
1118	 0.243750918447734 
1119	 0.244018004810288 
1120	 0.244295787021448 
1121	 0.244578541239369 
1122	 0.244853088047934 
1123	 0.245133746281274 
1124	 0.245399936300985 
1125	 0.245657838754022 
1126	 0.24590903690512 
1127	 0.246138382270796 
1128	 0.246389842524377 
1129	 0.246646176740646 
1130	 0.246904043343193 
1131	 0.247192323780955 
1132	 0.247446472879056 
1133	 0.247675730341333 
1134	 0.247910540347631 
1135	 0.248130132437822 
1136	 0.248357839493419 
1137	 0.248597648610174 
1138	 0.248799866326967 
1139	 0.249005808075475 
1140	 0.249189807666583 
1141	 0.249403447812248 
1142	 0.249625726276915 
1143	 0.249846289786062 
1144	 0.250089167015031 
1145	 0.250305876403716 
1146	 0.25050250859965 
1147	 0.250707442095096 
1148	 0.250905471549122 
1149	 0.251109253075067 
1150	 0.251324433543601 
1151	 0.251539422647602 
1152	 0.251701048323152 
1153	 0.251856406830534 
1154	 0.252040527102708 
1155	 0.252201245902052 
1156	 0.252396906338194 
1157	 0.252658447763651 
1158	 0.252854013014423 
1159	 0.253018882725855 
1160	 0.2531996439617 
1161	 0.253358564105821 
1162	 0.253537751001864 
1163	 0.253745359750323 
1164	 0.253928425887269 
1165	 0.254101918342352 
1166	 0.254275746839546 
1167	 0.25444523302916 
1168	 0.254613960083676 
1169	 0.254782871138843 
1170	 0.254958762820753 
1171	 0.255125925255469 
1172	 0.255296643145846 
1173	 0.25544391538953 
1174	 0.25556466753556 
1175	 0.255717336116258 
1176	 0.255870784417304 
1177	 0.256021060068696 
1178	 0.256206447144798 
1179	 0.256360476554944 
1180	 0.256479799532457 
1181	 0.256612742979618 
1182	 0.256746206035682 
1183	 0.256875403346401 
1184	 0.257007338405635 
1185	 0.257137371001073 
1186	 0.257280304041547 
1187	 0.25742468919391 
1188	 0.257576711353418 
1189	 0.257753402004898 
1190	 0.257902802882819 
1191	 0.258050578532546 
1192	 0.258183269424985 
1193	 0.258287530329957 
1194	 0.25840937828975 
1195	 0.258535468510553 
1196	 0.258653959685291 
1197	 0.258773726695005 
1198	 0.258894383062339 
1199	 0.259012597406706 
1200	 0.259119127073907 
1201	 0.25923870420758 
1202	 0.259368827959252 
1203	 0.259489815649065 
1204	 0.259611006410856 
1205	 0.259728182805579 
1206	 0.259841219662407 
1207	 0.259955095753943 
1208	 0.26007182013818 
1209	 0.260179022546582 
1210	 0.260275455155411 
1211	 0.260381048625941 
1212	 0.260489359131508 
1213	 0.260590771698816 
1214	 0.260695296955428 
1215	 0.260797779435378 
1216	 0.260896470426126 
1217	 0.260988255741238 
1218	 0.261075050168234 
1219	 0.261153060551726 
1220	 0.261248967613493 
1221	 0.261347356602363 
1222	 0.261441655015148 
1223	 0.261551793620447 
1224	 0.26164936971795 
1225	 0.261728717666556 
1226	 0.261818913382092 
1227	 0.261923570026232 
1228	 0.262012416759408 
1229	 0.262094297359434 
1230	 0.262174084568074 
1231	 0.262236326393491 
1232	 0.262310998838234 
1233	 0.262390195176962 
1234	 0.262474733627964 
1235	 0.262556509020862 
1236	 0.262645502739407 
1237	 0.262728418419318 
1238	 0.262803335403295 
1239	 0.262887737083399 
1240	 0.262980896963437 
1241	 0.263063117121662 
1242	 0.26315413168093 
1243	 0.263226129104971 
1244	 0.263275324325872 
1245	 0.263335835494484 
1246	 0.263394399421903 
1247	 0.263448307357823 
1248	 0.263495019040406 
1249	 0.263557143936273 
1250	 0.263617021048271 
1251	 0.263667734052799 
1252	 0.263746826801711 
1253	 0.263856937527846 
1254	 0.263934241601614 
1255	 0.264016477188781 
1256	 0.264085729322409 
1257	 0.264135942609271 
1258	 0.264185547674528 
1259	 0.264226787999323 
1260	 0.264273883955892 
1261	 0.264317852890951 
1262	 0.264358717048893 
1263	 0.264415300495087 
1264	 0.264450556776023 
1265	 0.264442526443972 
1266	 0.26447254075184 
1267	 0.264520729271284 
1268	 0.264561091588787 
1269	 0.264607527051995 
1270	 0.264679197327414 
1271	 0.264732263644565 
1272	 0.26477163849525 
1273	 0.264818175761577 
1274	 0.264867138079826 
1275	 0.264920991995436 
1276	 0.264961392773252 
1277	 0.265027456428611 
1278	 0.265116078819491 
1279	 0.265201312177694 
1280	 0.265303059706799 
1281	 0.265397084951563 
1282	 0.265491473520409 
1283	 0.265580896955769 
1284	 0.26567478923732 
1285	 0.265743873545145 
1286	 0.265823105314719 
1287	 0.265925438086312 
1288	 0.266047251455131 
1289	 0.266200958830903 
1290	 0.266330117932574 
1291	 0.266476670954368 
1292	 0.266590714085153 
1293	 0.266683781798176 
1294	 0.266774516283541 
1295	 0.266852583908567 
1296	 0.266927187553294 
1297	 0.266976918100759 
1298	 0.26705654302516 
1299	 0.267157230235256 
1300	 0.26723783625563 
1301	 0.267333970040346 
1302	 0.267408420391928 
1303	 0.267458291412701 
1304	 0.26750398197581 
1305	 0.267539310718449 
1306	 0.26756910865781 
1307	 0.267610899770446 
1308	 0.267640949540453 
1309	 0.267655451285118 
1310	 0.267671951591427 
1311	 0.267673634008576 
1312	 0.26764235472823 
1313	 0.267630048944142 
1314	 0.267622483593838 
1315	 0.267616014731697 
1316	 0.267611438413117 
1317	 0.267602172164035 
1318	 0.267590127435348 
1319	 0.267587645061848 
1320	 0.267588311531246 
1321	 0.267587473486855 
1322	 0.267610336371927 
1323	 0.267598955886845 
1324	 0.267561415091348 
1325	 0.267535918115735 
1326	 0.267519857346305 
1327	 0.26748775585432 
1328	 0.267460876399504 
1329	 0.267442109328799 
1330	 0.267401172765224 
1331	 0.267340494606755 
1332	 0.267282849937798 
1333	 0.267212912894555 
1334	 0.267150850743126 
1335	 0.267072721956642 
1336	 0.267030333350548 
1337	 0.267022145226996 
1338	 0.266990111949039 
1339	 0.266966997227307 
1340	 0.26693056346697 
1341	 0.266879768977648 
1342	 0.266825558330622 
1343	 0.266759633542723 
1344	 0.266711575094504 
1345	 0.266656936077893 
1346	 0.266598135610347 
1347	 0.266562511607536 
1348	 0.266517098975389 
1349	 0.266446190478959 
1350	 0.266369844912848 
1351	 0.266308550523984 
1352	 0.266238554606189 
1353	 0.266188551185432 
1354	 0.266168878545872 
1355	 0.266120918582148 
1356	 0.266065496021527 
1357	 0.266005402764777 
1358	 0.265926811778474 
1359	 0.265864875317986 
1360	 0.265799123036876 
1361	 0.2657524193973 
1362	 0.265727546678443 
1363	 0.265693559439252 
1364	 0.265669110420028 
1365	 0.265639081227916 
1366	 0.265602102769203 
1367	 0.265565625358686 
1368	 0.265539438177217 
1369	 0.265507861349566 
1370	 0.265457962940277 
1371	 0.265412879692366 
1372	 0.265362351864726 
1373	 0.265292479531574 
1374	 0.265210459090769 
1375	 0.265123641241796 
1376	 0.265018153895025 
1377	 0.264895541073674 
1378	 0.264752589915831 
1379	 0.264591671337302 
1380	 0.264427140213972 
1381	 0.264224775360892 
1382	 0.264056014629829 
1383	 0.263922257267648 
1384	 0.263742123014305 
1385	 0.263565631723389 
1386	 0.2633597214214 
1387	 0.263119780253675 
1388	 0.262863845436668 
1389	 0.262596265975119 
1390	 0.262302496787404 
1391	 0.261991470576856 
1392	 0.261660180278982 
1393	 0.261288402198867 
1394	 0.260905093098645 
1395	 0.260481019351314 
1396	 0.260039628489376 
1397	 0.259614444558403 
1398	 0.259191068781613 
1399	 0.258753666284901 
1400	 0.258323180366421 
1401	 0.257864098665698 
1402	 0.257367721942687 
1403	 0.256908523408817 
1404	 0.256440001940136 
1405	 0.256005322197977 
1406	 0.255604687204292 
1407	 0.2551973984683 
1408	 0.254794766044386 
1409	 0.254405702850623 
1410	 0.254010211805046 
1411	 0.253654930900111 
1412	 0.253323005443684 
1413	 0.253010191413951 
1414	 0.252746860091586 
1415	 0.25248754521931 
1416	 0.252226555922773 
1417	 0.251990319371107 
1418	 0.251739803317109 
1419	 0.251504491785565 
1420	 0.251306999963662 
1421	 0.251117189329905 
1422	 0.250953031110683 
1423	 0.250800831361268 
1424	 0.250642133234512 
1425	 0.250484406016258 
1426	 0.25033505839169 
1427	 0.250174386059573 
1428	 0.250050482329402 
1429	 0.249949058585755 
1430	 0.249852751982984 
1431	 0.249790049925714 
1432	 0.249707573791185 
1433	 0.249618329501943 
1434	 0.249535303840489 
1435	 0.24943560835393 
1436	 0.249365398967614 
1437	 0.249316855197032 
1438	 0.249266984314896 
1439	 0.249236316317658 
1440	 0.24920621066587 
1441	 0.249145911016151 
1442	 0.249085546539499 
1443	 0.249019258017021 
1444	 0.248959725169547 
1445	 0.24893140714742 
1446	 0.248900927273121 
1447	 0.248876862427506 
1448	 0.248856543966158 
1449	 0.248809018046831 
1450	 0.248762656441569 
1451	 0.248717878343747 
1452	 0.248658353045592 
1453	 0.248618729247697 
1454	 0.248590919221388 
1455	 0.248562375832335 
1456	 0.248550611920765 
1457	 0.248518605111836 
1458	 0.248477502654513 
1459	 0.248439949945823 
1460	 0.248386804542413 
1461	 0.248349738423779 
1462	 0.248315282242255 
1463	 0.24829826073699 
1464	 0.248299050215888 
1465	 0.248291089459133 
1466	 0.248271488103277 
1467	 0.248291331722461 
1468	 0.248308166805936 
1469	 0.248369607745231 
1470	 0.248479551762873 
1471	 0.248609202754772 
1472	 0.248743788647063 
1473	 0.248890268440272 
1474	 0.249040740438545 
1475	 0.249193664466809 
1476	 0.249350992636532 
1477	 0.24950296016281 
1478	 0.249644806728616 
1479	 0.249794829698553 
1480	 0.249945158279982 
1481	 0.250090361116749 
1482	 0.250233897094535 
1483	 0.250381632862356 
1484	 0.250509838108278 
1485	 0.250614785263087 
1486	 0.25075173489332 
1487	 0.250889254778864 
1488	 0.251037332116182 
1489	 0.251223078499435 
1490	 0.251373006953702 
1491	 0.251508162339603 
1492	 0.25164103358018 
1493	 0.251755875532063 
1494	 0.251879178763683 
1495	 0.252002178078015 
1496	 0.252125227881992 
1497	 0.252259274861764 
1498	 0.252377920027182 
1499	 0.252493409615483 
1500	 0.252594315139577 
1501	 0.252670271042997 
1502	 0.252755751221377 
1503	 0.252826046609203 
1504	 0.252921350912032 
1505	 0.253032123028938 
1506	 0.253136717184248 
1507	 0.253259346139045 
1508	 0.253371117671302 
1509	 0.25345370682684 
1510	 0.253558945477405 
1511	 0.253653859882341 
1512	 0.253728967738145 
1513	 0.253825563856942 
1514	 0.253921824695507 
1515	 0.253994977568137 
1516	 0.254080366109053 
1517	 0.254173478909109 
1518	 0.25426377832416 
1519	 0.254359584427875 
1520	 0.254478740537556 
1521	 0.254570364252411 
1522	 0.254640449394447 
1523	 0.254730100098752 
1524	 0.254817328321374 
1525	 0.254915788800899 
1526	 0.255037891203386 
1527	 0.255136444553242 
1528	 0.255226929120467 
1529	 0.255315559611423 
1530	 0.255397217076485 
1531	 0.255473159500057 
1532	 0.255541668540557 
1533	 0.255610686273529 
1534	 0.255668383701622 
1535	 0.2557369533407 
1536	 0.255815651843357 
1537	 0.255891814420085 
1538	 0.255970854900758 
1539	 0.256047635932803 
1540	 0.256119441897722 
1541	 0.25619678114983 
1542	 0.256279829083627 
1543	 0.256354321313054 
1544	 0.256426223173771 
1545	 0.256500405905418 
1546	 0.256578894936335 
1547	 0.256645315461521 
1548	 0.256695469305536 
1549	 0.256749448063443 
1550	 0.256792541106234 
1551	 0.256828511981418 
1552	 0.25688237474665 
1553	 0.256950657220024 
1554	 0.257011368789656 
1555	 0.25708430645772 
1556	 0.257164759189238 
1557	 0.257221249108431 
1558	 0.257276136764801 
1559	 0.257316775879685 
1560	 0.257346052614204 
1561	 0.257352777784178 
1562	 0.257382408084689 
1563	 0.257407966837538 
1564	 0.257442030880863 
1565	 0.257494606646801 
1566	 0.257527657460241 
1567	 0.257552509577499 
1568	 0.257582797576095 
1569	 0.257604912323169 
1570	 0.257636748192008 
1571	 0.257680342017327 
1572	 0.257713917198936 
1573	 0.257740628891397 
1574	 0.257779909064475 
1575	 0.257820884245664 
1576	 0.257859001858159 
1577	 0.257914575315068 
1578	 0.25794875557635 
1579	 0.257958056743262 
1580	 0.257991107243568 
1581	 0.258021953555864 
1582	 0.258063276606252 
1583	 0.258139582041045 
1584	 0.258179047469152 
1585	 0.258202823595032 
1586	 0.258226356581662 
1587	 0.258219964195312 
1588	 0.258237354469015 
1589	 0.258278382912409 
1590	 0.258299471621462 
1591	 0.258316006278845 
1592	 0.258333522167134 
1593	 0.258334834193063 
1594	 0.258347148958931 
1595	 0.258374643263032 
1596	 0.258392631107448 
1597	 0.258408100773541 
1598	 0.258421014889425 
1599	 0.258434254513562 
1600	 0.258437890427917 
1601	 0.258434904981315 
1602	 0.258431427863576 
1603	 0.258406862700084 
1604	 0.258404100107596 
1605	 0.258407477408041 
1606	 0.258421337653446 
1607	 0.258454601395245 
1608	 0.258492142429672 
1609	 0.258524148457126 
1610	 0.258553745340322 
1611	 0.258559675787155 
1612	 0.258560175765138 
1613	 0.25855702172778 
1614	 0.258553434997485 
1615	 0.258552073491769 
1616	 0.258550727706641 
1617	 0.258560972937724 
1618	 0.258574340561076 
1619	 0.258597135178591 
1620	 0.258628135585697 
1621	 0.258644454663444 
1622	 0.258656426383419 
1623	 0.258664042244299 
1624	 0.258663367144334 
1625	 0.258665625211351 
1626	 0.258670264944093 
1627	 0.258659631204948 
1628	 0.258636961427877 
1629	 0.258628597646677 
1630	 0.258612851316272 
1631	 0.258611587556613 
1632	 0.258628711256346 
1633	 0.258633774038292 
1634	 0.258643463400322 
1635	 0.258632243466847 
1636	 0.258611093265468 
1637	 0.258590007411561 
1638	 0.258539590032085 
1639	 0.258537124494008 
1640	 0.258561493116474 
1641	 0.258570690887543 
1642	 0.258600149284823 
1643	 0.258613850364349 
1644	 0.258611359046712 
1645	 0.2586159559287 
1646	 0.258624877869806 
1647	 0.258633333095789 
1648	 0.258646282875857 
1649	 0.258639014712481 
1650	 0.25862670810451 
1651	 0.258608424190177 
1652	 0.258567170011987 
1653	 0.258540999722556 
1654	 0.258524469579276 
1655	 0.258498602076562 
1656	 0.258470849139932 
1657	 0.258436955439303 
1658	 0.258392854244847 
1659	 0.258360132542645 
1660	 0.258331487375515 
1661	 0.258295484080783 
1662	 0.258253649701364 
1663	 0.258230708590007 
1664	 0.258213770388178 
1665	 0.258190881570281 
1666	 0.258171754653078 
1667	 0.258171790211366 
1668	 0.258185556325797 
1669	 0.25817205759904 
1670	 0.258174481472907 
1671	 0.258153259425125 
1672	 0.258082304267835 
1673	 0.258046538923078 
1674	 0.258027493040418 
1675	 0.258005189823644 
1676	 0.257988797657515 
1677	 0.257967841675599 
1678	 0.25794614603554 
1679	 0.25792818617202 
1680	 0.257913024851375 
1681	 0.257890163911484 
1682	 0.257860291381149 
1683	 0.257846057838481 
1684	 0.257832442452182 
1685	 0.257823556628796 
1686	 0.257845924454824 
1687	 0.257826701787577 
1688	 0.257776516183116 
1689	 0.257746657751782 
1690	 0.257703165666576 
1691	 0.257673723011631 
1692	 0.25767034196061 
1693	 0.25764289700467 
1694	 0.257599600631292 
1695	 0.257567568827457 
1696	 0.257531037417335 
1697	 0.257503565143584 
1698	 0.257482225666802 
1699	 0.257466041060784 
1700	 0.257458240395452 
1701	 0.257442698094037 
1702	 0.25744511923215 
1703	 0.257412922816669 
1704	 0.25736058947435 
1705	 0.257303882227618 
1706	 0.257207293216391 
1707	 0.257154529653547 
1708	 0.257123143828233 
1709	 0.257079796209115 
1710	 0.257053574926591 
1711	 0.257018714925028 
1712	 0.256969003169771 
1713	 0.256927829976571 
1714	 0.256900606664155 
1715	 0.256857484739006 
1716	 0.256808707814752 
1717	 0.256752840150454 
1718	 0.256684696956572 
1719	 0.256620745456952 
1720	 0.256547835897872 
1721	 0.256489057078582 
1722	 0.256441100161952 
1723	 0.256386714221343 
1724	 0.256343373224299 
1725	 0.256276237879756 
1726	 0.256195108726231 
1727	 0.256113463108725 
1728	 0.256009625475943 
1729	 0.255929159164099 
1730	 0.255862916203299 
1731	 0.255789368367962 
1732	 0.255725763842161 
1733	 0.255649357072823 
1734	 0.255555524012454 
1735	 0.255475929316603 
1736	 0.255396732868197 
1737	 0.255330956371189 
1738	 0.25528854682293 
1739	 0.255214936543619 
1740	 0.255116841772373 
1741	 0.255062926618907 
1742	 0.255026697749846 
1743	 0.254952288571041 
1744	 0.254902560054166 
1745	 0.254815683935663 
1746	 0.254665457217521 
1747	 0.254565121528357 
1748	 0.254472786737438 
1749	 0.254369346759374 
1750	 0.254290749540812 
1751	 0.254231328407388 
1752	 0.254152416067042 
1753	 0.254084057766956 
1754	 0.254008057030449 
1755	 0.253910737162043 
1756	 0.253823643853312 
1757	 0.253723864849535 
1758	 0.25362422801422 
1759	 0.253538397290731 
1760	 0.253466803345927 
1761	 0.253413199762128 
1762	 0.253356646430662 
1763	 0.253259563310968 
1764	 0.253151762140075 
1765	 0.253038712611807 
1766	 0.252874867014653 
1767	 0.252750089615781 
1768	 0.252657381798233 
1769	 0.252552109268944 
1770	 0.252496753503207 
1771	 0.252465307685306 
1772	 0.252396483429669 
1773	 0.252318310812603 
1774	 0.252277042831959 
1775	 0.252230580993668 
1776	 0.252176270440322 
1777	 0.252139473202742 
1778	 0.252082883855393 
1779	 0.251992531586233 
1780	 0.25190809962976 
1781	 0.251841984562705 
1782	 0.251773693980493 
1783	 0.251739627549713 
1784	 0.251704744446612 
1785	 0.251690872433159 
1786	 0.251650370520507 
1787	 0.251581605828796 
1788	 0.25154652460996 
1789	 0.251528779953641 
1790	 0.251492430048489 
1791	 0.251461929758081 
1792	 0.251430063564231 
1793	 0.251380632583714 
1794	 0.251337522506478 
1795	 0.251313271839788 
1796	 0.251268038589282 
1797	 0.251199276115965 
1798	 0.251145687135027 
1799	 0.251090494089289 
1800	 0.251061691042444 
1801	 0.246911859788681 
1802	 0.247061358330413 
1803	 0.247252479711071 
1804	 0.247478753664001 
1805	 0.247725886738137 
1806	 0.247968469551223 
1807	 0.248207169102435 
1808	 0.248401731207493 
1809	 0.248570128997947 
1810	 0.248707573749769 
1811	 0.248810933595272 
1812	 0.248905314507626 
1813	 0.248966444374552 
1814	 0.249013182270568 
1815	 0.249066596299977 
1816	 0.249089605220388 
1817	 0.249099281811816 
1818	 0.249085720919202 
1819	 0.249082408453033 
1820	 0.249049269797999 
1821	 0.249059639205214 
1822	 0.249097516271426 
1823	 0.249113211379996 
1824	 0.24914684682344 
1825	 0.249156019992617 
1826	 0.249136353129591 
1827	 0.249130272615947 
1828	 0.249096472711421 
1829	 0.24903975365554 
1830	 0.248975230539636 
1831	 0.2488910372616 
1832	 0.24880286597153 
1833	 0.248718401972162 
1834	 0.248649300208786 
1835	 0.248585046485502 
1836	 0.248522401890752 
1837	 0.248452660491364 
1838	 0.248353785873444 
1839	 0.248268648243777 
1840	 0.248177288297827 
1841	 0.248100043389992 
1842	 0.248025554622305 
1843	 0.247971692976196 
1844	 0.247927822151019 
1845	 0.247844435621199 
1846	 0.247760522257051 
1847	 0.247705353941841 
1848	 0.24763996364159 
1849	 0.247585578974386 
1850	 0.247537891751577 
1851	 0.247511605562145 
1852	 0.247454665921247 
1853	 0.247391957283315 
1854	 0.247334022079581 
1855	 0.247261322326211 
1856	 0.247172875383877 
1857	 0.24706006051053 
1858	 0.246954665519354 
1859	 0.24684729509008 
1860	 0.246712168360879 
1861	 0.24655861803476 
1862	 0.246415414994834 
1863	 0.246252038775591 
1864	 0.246041294112622 
1865	 0.245825002413337 
1866	 0.245594214080279 
1867	 0.245335542193419 
1868	 0.24505738113335 
1869	 0.244759980060132 
1870	 0.244446035793541 
1871	 0.244098440797058 
1872	 0.243720328475524 
1873	 0.243318640286893 
1874	 0.242892307134529 
1875	 0.242428496673346 
1876	 0.241928525403853 
1877	 0.241382070879236 
1878	 0.240748269340424 
1879	 0.240065418244006 
1880	 0.239328468254449 
1881	 0.238530855169264 
1882	 0.237658165830309 
1883	 0.236746303687832 
1884	 0.235720596986188 
1885	 0.23462101460691 
1886	 0.233483261860657 
1887	 0.232271511093177 
1888	 0.231035262291606 
1889	 0.229731225394976 
1890	 0.228359105552821 
1891	 0.226973119945524 
1892	 0.225533091324162 
1893	 0.22407795060305 
1894	 0.22260161056609 
1895	 0.221101274414966 
1896	 0.219535692963212 
1897	 0.217983628030473 
1898	 0.216417639515374 
1899	 0.214866161863617 
1900	 0.21338610717295 
1901	 0.211910479742438 
1902	 0.210492777112583 
1903	 0.209131940526465 
1904	 0.207808583459894 
1905	 0.206507434879344 
1906	 0.205294094178388 
1907	 0.204135085235508 
1908	 0.202995713378829 
1909	 0.201939874307781 
1910	 0.200940653485072 
1911	 0.199985111072958 
1912	 0.199114428905283 
1913	 0.198270899455428 
1914	 0.197466150330679 
1915	 0.196708657854133 
1916	 0.195999255521017 
1917	 0.195322470871319 
1918	 0.194701173696281 
1919	 0.194148741649404 
1920	 0.193632040299979 
1921	 0.193149136235706 
1922	 0.192696621703515 
1923	 0.192270297805614 
1924	 0.191903267698329 
1925	 0.191585893338478 
1926	 0.191308399419276 
1927	 0.191076903027494 
1928	 0.190890841880523 
1929	 0.190751109972878 
1930	 0.190632278452441 
1931	 0.190551353280599 
1932	 0.190514688700387 
1933	 0.190495444970878 
1934	 0.190483053471981 
1935	 0.190496817655742 
1936	 0.190533337909159 
1937	 0.190592133454571 
1938	 0.190666846721057 
1939	 0.190774509835137 
1940	 0.190924786371446 
1941	 0.191066060932508 
1942	 0.191225728680203 
1943	 0.191412348083341 
1944	 0.191580812381239 
1945	 0.191783043411335 
1946	 0.191988797966313 
1947	 0.192202812813085 
1948	 0.192426503291261 
1949	 0.192656788296617 
1950	 0.192899977930929 
1951	 0.193145142116799 
1952	 0.193430455147417 
1953	 0.193718472057977 
1954	 0.194037521349076 
1955	 0.194372753009043 
1956	 0.194698126479484 
1957	 0.195027512548852 
1958	 0.195360470848011 
1959	 0.19569971081008 
1960	 0.196029421895526 
1961	 0.19638358016432 
1962	 0.196762857540637 
1963	 0.197133246636072 
1964	 0.197505576375821 
1965	 0.197897784926687 
1966	 0.19828365721303 
1967	 0.198660375472629 
1968	 0.19905016185078 
1969	 0.199446957717423 
1970	 0.199850293769761 
1971	 0.200273935593957 
1972	 0.200672638175289 
1973	 0.201065969248073 
1974	 0.201457241182538 
1975	 0.201832231114566 
1976	 0.202211481956426 
1977	 0.202601146158928 
1978	 0.20298622679755 
1979	 0.203346494894853 
1980	 0.20371605681702 
1981	 0.204093098681253 
1982	 0.204462879214859 
1983	 0.204847543180622 
1984	 0.20525644032276 
1985	 0.205650062281718 
1986	 0.206038699888933 
1987	 0.206432818535183 
1988	 0.206827843182456 
1989	 0.207221159191715 
1990	 0.207617720278963 
1991	 0.208040266521578 
1992	 0.208441705942069 
1993	 0.208848335023132 
1994	 0.209234845305171 
1995	 0.209601210213078 
1996	 0.209973136265166 
1997	 0.210332775559942 
1998	 0.21070722391336 
1999	 0.211090786580939 
2000	 0.211469852940509 
2001	 0.211860347941131 
2002	 0.212231195750106 
2003	 0.212614462610269 
2004	 0.212992695908574 
2005	 0.213363455762442 
2006	 0.213739998642999 
2007	 0.214100336418734 
2008	 0.214431697172302 
2009	 0.214787325671735 
2010	 0.215152075981961 
2011	 0.215508869878854 
2012	 0.21587323199646 
2013	 0.216235613436097 
2014	 0.216596314415198 
2015	 0.216942962347819 
2016	 0.217304627562788 
2017	 0.217649475375979 
2018	 0.217998212091617 
2019	 0.21834849105258 
2020	 0.218682009429088 
2021	 0.219006708571012 
2022	 0.219333061211156 
2023	 0.219638301727079 
2024	 0.219960744713743 
2025	 0.220308294307431 
2026	 0.220630076804631 
2027	 0.220948961028278 
2028	 0.221251663722871 
2029	 0.221554073891281 
2030	 0.221833264466116 
2031	 0.22213896464086 
2032	 0.222463414324783 
2033	 0.222763670751576 
2034	 0.223061556214229 
2035	 0.223354618150374 
2036	 0.223640323143964 
2037	 0.223914162219572 
2038	 0.2241919092555 
2039	 0.224450165504638 
2040	 0.224682398513237 
2041	 0.224909334711137 
2042	 0.225142576306043 
2043	 0.225369904557918 
2044	 0.225609107346585 
2045	 0.225856517889481 
2046	 0.226100078094718 
2047	 0.226352680434039 
2048	 0.226594021060787 
2049	 0.226839618217458 
2050	 0.227065953830136 
2051	 0.227275135175262 
2052	 0.227486982350305 
2053	 0.227683497200708 
2054	 0.227884268850046 
2055	 0.228090263913076 
2056	 0.228288978146864 
2057	 0.228492434154735 
2058	 0.228695827942355 
2059	 0.22889816163624 
2060	 0.229099545530574 
2061	 0.229305518078808 
2062	 0.229532411233789 
2063	 0.229718113653213 
2064	 0.22988518014349 
2065	 0.230054875739733 
2066	 0.230183497361646 
2067	 0.230337082106822 
2068	 0.230512806679172 
2069	 0.23067785182033 
2070	 0.230856077504822 
2071	 0.231038805712707 
2072	 0.231226222813457 
2073	 0.231425475026503 
2074	 0.231623036693948 
2075	 0.231831201051722 
2076	 0.232022550438616 
2077	 0.232212074631172 
2078	 0.232391214942534 
2079	 0.232551631727104 
2080	 0.232718660616594 
2081	 0.232870791224377 
2082	 0.233045524791297 
2083	 0.233239481684274 
2084	 0.233428774365045 
2085	 0.233605305939271 
2086	 0.233791702364483 
2087	 0.233961080800988 
2088	 0.23410132765989 
2089	 0.234263460604754 
2090	 0.234439879663665 
2091	 0.234600247279724 
2092	 0.234763138525956 
2093	 0.23491136196038 
2094	 0.23503447892028 
2095	 0.235175411569123 
2096	 0.23532003129606 
2097	 0.235460450511084 
2098	 0.235597527462483 
2099	 0.235751085941974 
2100	 0.235901544482875 
2101	 0.236040274208264 
2102	 0.236204369255754 
2103	 0.236388932900752 
2104	 0.236564891811087 
2105	 0.236753170371519 
2106	 0.236929772339327 
2107	 0.23709412888866 
2108	 0.237273806326573 
2109	 0.237456917029575 
2110	 0.237641067335434 
2111	 0.23784809282859 
2112	 0.238032056719542 
2113	 0.238202423829977 
2114	 0.238369759315698 
2115	 0.238537118210898 
2116	 0.23869585039655 
2117	 0.238852831236836 
2118	 0.239008746743475 
2119	 0.239166173041908 
2120	 0.239312358422747 
2121	 0.239472776857031 
2122	 0.239656878032193 
2123	 0.239811922327772 
2124	 0.239973919988864 
2125	 0.240101654288975 
2126	 0.240189138853084 
2127	 0.240287755704641 
2128	 0.240355787751491 
2129	 0.240446161050592 
2130	 0.240546031566517 
2131	 0.240664043783984 
2132	 0.240760892830239 
2133	 0.24087754124043 
2134	 0.240940134165633 
2135	 0.240965940715685 
2136	 0.240999799037764 
2137	 0.24102489161539 
2138	 0.241016805408882 
2139	 0.240987856068938 
2140	 0.240958578771765 
2141	 0.240887103031573 
2142	 0.240834985392351 
2143	 0.240811500543813 
2144	 0.240761082636087 
2145	 0.240689165373847 
2146	 0.240619398733986 
2147	 0.240550181021448 
2148	 0.24046265517078 
2149	 0.240365227722401 
2150	 0.240259461591578 
2151	 0.240155226665967 
2152	 0.240027424560543 
2153	 0.239922866399119 
2154	 0.23985377776695 
2155	 0.239730933238533 
2156	 0.239604672935449 
2157	 0.239443854499376 
2158	 0.239230028275851 
2159	 0.23902723489519 
2160	 0.238793482452662 
2161	 0.23858413093268 
2162	 0.238384988688188 
2163	 0.238184111814723 
2164	 0.237998595187103 
2165	 0.237801115541192 
2166	 0.237617268095721 
2167	 0.237447902631431 
2168	 0.237232789679449 
2169	 0.237005535851781 
2170	 0.236781969230643 
2171	 0.236504871540405 
2172	 0.236288774261213 
2173	 0.236107651708007 
2174	 0.235929090853781 
2175	 0.235796855645403 
2176	 0.235614331806305 
2177	 0.235426203375496 
2178	 0.235220410467773 
2179	 0.234972330571554 
2180	 0.234733569417275 
2181	 0.234492090767744 
2182	 0.23424886236987 
2183	 0.233995896030955 
2184	 0.233745042429927 
2185	 0.233502242841133 
2186	 0.233255223115498 
2187	 0.233034840193976 
2188	 0.232831563580542 
2189	 0.232627162483311 
2190	 0.232436680336323 
2191	 0.232248853717751 
2192	 0.232061290382494 
2193	 0.231881763958528 
2194	 0.231709690884178 
2195	 0.23154746990593 
2196	 0.231389814732355 
2197	 0.231242064850432 
2198	 0.231118015798878 
2199	 0.230985545044349 
2200	 0.230837610923451 
2201	 0.230717074789671 
2202	 0.230625354986263 
2203	 0.230502031315894 
2204	 0.23041429474645 
2205	 0.23035258049571 
2206	 0.230291399407271 
2207	 0.230237562652626 
2208	 0.230194182789061 
2209	 0.230163701134212 
2210	 0.230139097614618 
2211	 0.230114324717017 
2212	 0.230113694878132 
2213	 0.230149432117885 
2214	 0.230155719781424 
2215	 0.230164256433182 
2216	 0.230167872423292 
2217	 0.23014502461999 
2218	 0.230141512723745 
2219	 0.230159852347082 
2220	 0.230165557326549 
2221	 0.230159556472357 
2222	 0.230167712607966 
2223	 0.230184421031428 
2224	 0.230194714643093 
2225	 0.230195021601526 
2226	 0.230200752011726 
2227	 0.230187915698267 
2228	 0.230146803040206 
2229	 0.230131785154274 
2230	 0.230141687918582 
2231	 0.230104523748223 
2232	 0.230051244259749 
2233	 0.229998930528001 
2234	 0.229913668785082 
2235	 0.229845916239904 
2236	 0.229819204033902 
2237	 0.229727742956122 
2238	 0.229580648664741 
2239	 0.22945992353602 
2240	 0.229309620344536 
2241	 0.229182899452732 
2242	 0.229127463884183 
2243	 0.228998039484903 
2244	 0.228838098398473 
2245	 0.228652858915109 
2246	 0.228414944383423 
2247	 0.228152986185152 
2248	 0.22792910998246 
2249	 0.22772667274731 
2250	 0.227466216632298 
2251	 0.227186705519663 
2252	 0.226927504273232 
2253	 0.226620618954591 
2254	 0.226370402222528 
2255	 0.226155894447264 
2256	 0.225966367380552 
2257	 0.22579493253567 
2258	 0.225641452536202 
2259	 0.22551447698237 
2260	 0.225421116702936 
2261	 0.225341415001726 
2262	 0.225294277194481 
2263	 0.225320804663202 
2264	 0.225316534159711 
2265	 0.225317439423018 
2266	 0.225316302786846 
2267	 0.225281896935007 
2268	 0.225299206363973 
2269	 0.225335857318868 
2270	 0.22540163706085 
2271	 0.225499892687619 
2272	 0.225598395997093 
2273	 0.225716384449695 
2274	 0.225834168240963 
2275	 0.225988772949078 
2276	 0.226194501347878 
2277	 0.226352920539353 
2278	 0.226496987796361 
2279	 0.226678416749584 
2280	 0.226859970348051 
2281	 0.227037632536847 
2282	 0.227255285664849 
2283	 0.227449082003982 
2284	 0.227611844891101 
2285	 0.227786325179086 
2286	 0.227997348728567 
2287	 0.228149115286207 
2288	 0.228256865538971 
2289	 0.228374051248974 
2290	 0.228467993165915 
2291	 0.228564439501626 
2292	 0.228686447614316 
2293	 0.228757792858605 
2294	 0.228802039112997 
2295	 0.228819727617186 
2296	 0.228758593507265 
2297	 0.228745118128833 
2298	 0.228818502490504 
2299	 0.228824704097351 
2300	 0.228913843895947 
2301	 0.229017522402523 
2302	 0.228991142202053 
2303	 0.229035618210281 
2304	 0.229081207715985 
2305	 0.229081427503518 
2306	 0.229126525286162 
2307	 0.229217263771205 
2308	 0.229266505410813 
2309	 0.229314118399517 
2310	 0.229338055712026 
2311	 0.229338146905408 
2312	 0.229335513438121 
2313	 0.229326324899402 
2314	 0.229303801920644 
2315	 0.229262547973587 
2316	 0.229218543603867 
2317	 0.229155189838817 
2318	 0.229103574852398 
2319	 0.229045774434573 
2320	 0.2290089565457 
2321	 0.228995668896264 
2322	 0.228959390445561 
2323	 0.228954538644722 
2324	 0.228891183446844 
2325	 0.228732682286618 
2326	 0.228662055418221 
2327	 0.228605961784447 
2328	 0.228554441124047 
2329	 0.228577785269516 
2330	 0.228593285732539 
2331	 0.228564890015488 
2332	 0.228543169489693 
2333	 0.228510366128376 
2334	 0.228440691350479 
2335	 0.228361267884432 
2336	 0.228335327114059 
2337	 0.228288236865369 
2338	 0.228217567752105 
2339	 0.228140245622025 
2340	 0.227939753676099 
2341	 0.227756373464865 
2342	 0.227661717593756 
2343	 0.227528093976641 
2344	 0.227425770484487 
2345	 0.227324506235393 
2346	 0.227226437992976 
2347	 0.22709358195944 
2348	 0.226985230740204 
2349	 0.226836181924866 
2350	 0.226639159732999 
2351	 0.226451683564407 
2352	 0.226228321765438 
2353	 0.226020413873878 
2354	 0.225824059583188 
2355	 0.225611175496624 
2356	 0.225399912875366 
2357	 0.225190194418859 
2358	 0.224970971158441 
2359	 0.224749878058163 
2360	 0.224515781617463 
2361	 0.224326582504319 
2362	 0.224142516510385 
2363	 0.223958469893889 
2364	 0.22383359580838 
2365	 0.223649582786767 
2366	 0.223440977494406 
2367	 0.223230231391054 
2368	 0.223005107073539 
2369	 0.222750183275457 
2370	 0.222467367906751 
2371	 0.222190207687964 
2372	 0.221873198730859 
2373	 0.221564423527875 
2374	 0.221320169204444 
2375	 0.221027318204653 
2376	 0.22076069433233 
2377	 0.220537618997319 
2378	 0.220352570579151 
2379	 0.220124230658324 
2380	 0.219778201139382 
2381	 0.219458780225181 
2382	 0.219177833526302 
2383	 0.218912082030664 
2384	 0.218691697007554 
2385	 0.218493176637016 
2386	 0.218136739587837 
2387	 0.217710141464233 
2388	 0.217384477077399 
2389	 0.217044733752982 
2390	 0.216749138972125 
2391	 0.21647917045597 
2392	 0.216110648105729 
2393	 0.21572329276085 
2394	 0.215381707520112 
2395	 0.215035757433299 
2396	 0.214795092374576 
2397	 0.214644002157352 
2398	 0.214386816254567 
2399	 0.214096039424892 
2400	 0.213805100072073 
2401	 0.213468606700475 
2402	 0.213113101546277 
2403	 0.212862453755177 
2404	 0.212608401438183 
2405	 0.212211104756811 
2406	 0.21191348542462 
2407	 0.211588791434255 
2408	 0.211192781560463 
2409	 0.210933999722828 
2410	 0.210615347265849 
2411	 0.210258102619315 
2412	 0.209972636304347 
2413	 0.209669065718081 
2414	 0.209402273729128 
2415	 0.209196096958275 
2416	 0.208944258798557 
2417	 0.208664102987403 
2418	 0.208389183102614 
2419	 0.20809727797138 
2420	 0.207819570616515 
2421	 0.207579201819563 
2422	 0.207293522181703 
2423	 0.206991941852912 
2424	 0.206679502304293 
2425	 0.206368780910089 
2426	 0.20598810220606 
2427	 0.205542661946787 
2428	 0.205129071407485 
2429	 0.204650989111004 
2430	 0.204174416422973 
2431	 0.203727960166319 
2432	 0.203345047748752 
2433	 0.202906418369489 
2434	 0.202571954493623 
2435	 0.20242696712337 
2436	 0.202107920392275 
2437	 0.201765624646522 
2438	 0.201469653114074 
2439	 0.201092394338194 
2440	 0.200695717973321 
2441	 0.200308099750238 
2442	 0.199931113788063 
2443	 0.199570758269197 
2444	 0.199204871210143 
2445	 0.198841448501274 
2446	 0.198423224826184 
2447	 0.197902236291364 
2448	 0.197475790057139 
2449	 0.197065637603456 
2450	 0.19677877931539 
2451	 0.196671625923371 
2452	 0.196369087824391 
2453	 0.196013019670598 
2454	 0.195728787160386 
2455	 0.195389619927555 
2456	 0.195029755714179 
2457	 0.194764736350315 
2458	 0.194463094514846 
2459	 0.193997677811774 
2460	 0.193640515086967 
2461	 0.193399805429739 
2462	 0.193078015566947 
2463	 0.19272483549562 
2464	 0.192443115094704 
2465	 0.192157316185818 
2466	 0.191918804922007 
2467	 0.191824654418759 
2468	 0.191428438082956 
2469	 0.19088152264804 
2470	 0.190426859239445 
2471	 0.189946728146866 
2472	 0.189779538099578 
2473	 0.189630126371447 
2474	 0.189364083782255 
2475	 0.189307768510895 
2476	 0.189192173344404 
2477	 0.188957623207762 
2478	 0.188655387940583 
2479	 0.188172919695177 
2480	 0.187807773164032 
2481	 0.187515890949178 
2482	 0.18727770391277 
2483	 0.187017966105828 
2484	 0.186575283012462 
2485	 0.186254427938534 
2486	 0.185849845653282 
2487	 0.185456727482612 
2488	 0.185307754592244 
2489	 0.185016121363183 
2490	 0.184774031093542 
2491	 0.184473845259668 
2492	 0.184095746084328 
2493	 0.18385811519918 
2494	 0.183671760312631 
2495	 0.183604743610336 
2496	 0.183385982424364 
2497	 0.183173322611279 
2498	 0.183067937667221 
2499	 0.18290390397837 
2500	 0.182841187425825 
