Wavelength	mm2500003.asd
350	 0.048333585974837 
351	 5.47312251210771E-02 
352	 5.12841496402647E-02 
353	 3.98179475808995E-02 
354	 0.042857697469219 
355	 4.52954109684273E-02 
356	 4.72258947664492E-02 
357	 5.07412917585345E-02 
358	 5.00641974701825E-02 
359	 4.59774301238371E-02 
360	 4.24363909986702E-02 
361	 0.044150697709174 
362	 4.22293121518012E-02 
363	 4.13918987487255E-02 
364	 4.32549133015888E-02 
365	 4.19918885659455E-02 
366	 0.041825499471062 
367	 4.39616369218666E-02 
368	 4.81482477406737E-02 
369	 5.34718328161016E-02 
370	 5.03049392035398E-02 
371	 4.31031399014593E-02 
372	 4.46704476931331E-02 
373	 4.47508468019385E-02 
374	 4.45805251545811E-02 
375	 4.58607568973597E-02 
376	 4.88699074927803E-02 
377	 0.04722551111689 
378	 4.56732061237251E-02 
379	 4.93063321771675E-02 
380	 4.98121648487787E-02 
381	 4.69167042732107E-02 
382	 0.044827566550746 
383	 4.96094820575999E-02 
384	 5.02344754311038E-02 
385	 4.85991072607476E-02 
386	 4.77812210119909E-02 
387	 0.049500108597926 
388	 4.92373196445103E-02 
389	 4.89248428458468E-02 
390	 5.11544253492164E-02 
391	 5.11440330071867E-02 
392	 5.13202854086228E-02 
393	 5.21601933598124E-02 
394	 5.22904711474814E-02 
395	 5.22406916273716E-02 
396	 5.28245267575814E-02 
397	 5.39369454094113E-02 
398	 5.33632428043548E-02 
399	 5.29355740978503E-02 
400	 5.39471386643604E-02 
401	 5.64491729100143E-02 
402	 5.51718739987842E-02 
403	 5.40442715587112E-02 
404	 5.45802389509397E-02 
405	 0.055265924045833 
406	 5.54048476953053E-02 
407	 5.60700979006429E-02 
408	 5.71967073497907E-02 
409	 5.44522771724688E-02 
410	 5.38730817797147E-02 
411	 5.51250834423785E-02 
412	 5.52856024214398E-02 
413	 5.68269621116606E-02 
414	 5.71271051810957E-02 
415	 5.60464774341554E-02 
416	 5.70718438339832E-02 
417	 5.72039855039716E-02 
418	 5.67834911342725E-02 
419	 5.66646724633703E-02 
420	 5.65456978785333E-02 
421	 5.64900113738494E-02 
422	 5.67408713313977E-02 
423	 0.057490590898558 
424	 5.70036432885189E-02 
425	 5.68283010824636E-02 
426	 0.057449636972138 
427	 5.65741954690238E-02 
428	 5.68831823208294E-02 
429	 0.057235091818452 
430	 5.60398758808115E-02 
431	 5.58647700127873E-02 
432	 0.055880004825151 
433	 5.59214741397422E-02 
434	 5.65704146741176E-02 
435	 5.63350718821775E-02 
436	 5.61000568600694E-02 
437	 5.64989013298606E-02 
438	 5.62451740146631E-02 
439	 0.056028629391544 
440	 5.61643062576293E-02 
441	 5.66859412096154E-02 
442	 5.70188175799179E-02 
443	 0.057113844028238 
444	 5.70217654138709E-02 
445	 5.68331724853163E-02 
446	 5.65545642562404E-02 
447	 0.056664825261325 
448	 5.73732669810434E-02 
449	 5.72296152168213E-02 
450	 5.74227149956749E-02 
451	 0.057911874306516 
452	 5.76290074845323E-02 
453	 5.75740873037953E-02 
454	 5.75396537466216E-02 
455	 0.05739345228919 
456	 5.77375221803754E-02 
457	 5.80642011047134E-02 
458	 5.81124433749209E-02 
459	 5.78162697111166E-02 
460	 5.75932691686488E-02 
461	 5.76466359713511E-02 
462	 5.78525160027231E-02 
463	 5.76685397817691E-02 
464	 5.78771683389423E-02 
465	 5.81548447029657E-02 
466	 5.80846305103801E-02 
467	 0.058163390995072 
468	 5.83267181042504E-02 
469	 5.83477519089423E-02 
470	 5.79418453316573E-02 
471	 0.057888815557138 
472	 5.79813432611953E-02 
473	 5.79871386751993E-02 
474	 5.80450012452874E-02 
475	 5.80713863912513E-02 
476	 5.80219831601193E-02 
477	 5.79108596090617E-02 
478	 0.05802005547068 
479	 0.058164387452803 
480	 5.81941299571253E-02 
481	 5.80588196646179E-02 
482	 5.82283942363421E-02 
483	 5.84418073354188E-02 
484	 0.058380433276415 
485	 5.83877574831208E-02 
486	 5.83898997517482E-02 
487	 5.84270248148057E-02 
488	 5.86022890787615E-02 
489	 5.82457919432387E-02 
490	 5.80178017426132E-02 
491	 5.83330942893349E-02 
492	 5.84675196428311E-02 
493	 0.058483386832435 
494	 5.84359122686263E-02 
495	 5.84030345053293E-02 
496	 5.84713677946699E-02 
497	 0.058533676502443 
498	 5.85344055655451E-02 
499	 5.85255955709351E-02 
500	 5.84153684151573E-02 
501	 5.83387482961563E-02 
502	 5.84187335502219E-02 
503	 5.84319683285829E-02 
504	 5.84042335980303E-02 
505	 5.84204977780748E-02 
506	 5.85905265044562E-02 
507	 0.058482356185327 
508	 5.84309462423547E-02 
509	 5.86388697810259E-02 
510	 5.85436744533815E-02 
511	 5.84654821506393E-02 
512	 0.058505530852469 
513	 5.86220943030882E-02 
514	 5.85830913931574E-02 
515	 5.85603870219271E-02 
516	 5.86482834310059E-02 
517	 5.87394626077302E-02 
518	 5.87601308339814E-02 
519	 5.87242111237125E-02 
520	 5.86853581805371E-02 
521	 5.86973482148529E-02 
522	 5.87173093616428E-02 
523	 5.87669031528902E-02 
524	 5.89356075969205E-02 
525	 5.88501737487351E-02 
526	 5.86912842324644E-02 
527	 5.86943066539868E-02 
528	 5.88663545214971E-02 
529	 0.058948293382785 
530	 5.89363937335908E-02 
531	 5.89859583144697E-02 
532	 5.89355445547576E-02 
533	 5.89924760775277E-02 
534	 5.91881753517375E-02 
535	 5.90623204155412E-02 
536	 5.90604148056871E-02 
537	 5.92191441470728E-02 
538	 5.93918428835325E-02 
539	 5.93798413649391E-02 
540	 5.93310877039248E-02 
541	 5.93450517237896E-02 
542	 5.94169452907801E-02 
543	 5.95295258454352E-02 
544	 5.96387113645892E-02 
545	 5.97080783473781E-02 
546	 5.97627140627398E-02 
547	 0.059762978046066 
548	 5.97918188253766E-02 
549	 6.00135701402523E-02 
550	 6.00699815809768E-02 
551	 6.00574384415069E-02 
552	 6.01237064347899E-02 
553	 6.03430363114238E-02 
554	 6.04198666563541E-02 
555	 0.060451571740393 
556	 6.06990424233289E-02 
557	 6.08334875436098E-02 
558	 6.09680884263645E-02 
559	 6.11739239094122E-02 
560	 6.13624310740563E-02 
561	 0.061550343345456 
562	 6.17532008164646E-02 
563	 6.19769219533337E-02 
564	 0.062164326398552 
565	 6.23452107864125E-02 
566	 6.25803495572974E-02 
567	 6.29544040260409E-02 
568	 0.063233639208117 
569	 6.35379200055598E-02 
570	 6.39648697441072E-02 
571	 6.42282617403678E-02 
572	 6.45553334092703E-02 
573	 6.49939515800834E-02 
574	 6.54521348466801E-02 
575	 6.58250964004104E-02 
576	 6.62005422966868E-02 
577	 6.66361064098301E-02 
578	 6.70477408859681E-02 
579	 6.74929507309626E-02 
580	 6.79715495563611E-02 
581	 6.84638176754293E-02 
582	 6.89835820040609E-02 
583	 6.95580925553791E-02 
584	 7.01664212238241E-02 
585	 7.07217155958865E-02 
586	 7.12972472613424E-02 
587	 7.18789144116109E-02 
588	 7.24478296584972E-02 
589	 7.30755158182136E-02 
590	 7.37376353215139E-02 
591	 7.43959247465841E-02 
592	 7.50085874803389E-02 
593	 0.075615952915458 
594	 7.62210531823724E-02 
595	 7.68186032346131E-02 
596	 7.73939851415292E-02 
597	 7.80364156560516E-02 
598	 7.87199734003626E-02 
599	 7.93617174543206E-02 
600	 7.99764829349939E-02 
601	 0.080567891002051 
602	 8.11389628972406E-02 
603	 8.16969031952335E-02 
604	 8.22138095576214E-02 
605	 8.27129585200981E-02 
606	 8.32301064013659E-02 
607	 8.37600298918767E-02 
608	 8.42563637149388E-02 
609	 8.47192168304172E-02 
610	 8.52037283994454E-02 
611	 8.56426376235296E-02 
612	 8.60644395730875E-02 
613	 8.64940877896543E-02 
614	 0.086875440569163 
615	 8.71828233323704E-02 
616	 8.74720029592454E-02 
617	 8.78421492508166E-02 
618	 8.82075900189777E-02 
619	 0.088491949401036 
620	 8.86907504338403E-02 
621	 8.89448186528634E-02 
622	 8.91900779631606E-02 
623	 8.94225471019795E-02 
624	 8.96536079384571E-02 
625	 8.98455859319433E-02 
626	 9.00566993478354E-02 
627	 9.03006318103585E-02 
628	 9.05236161953475E-02 
629	 9.07084542667943E-02 
630	 9.08727575695744E-02 
631	 9.10422836966927E-02 
632	 9.12265181054261E-02 
633	 9.13747488841253E-02 
634	 9.15236358629846E-02 
635	 9.17691699776476E-02 
636	 0.091946216316266 
637	 9.20983059540249E-02 
638	 9.22696554575887E-02 
639	 9.24090238667039E-02 
640	 9.25733060826979E-02 
641	 9.27670461159937E-02 
642	 9.29677883095425E-02 
643	 9.31576839169117E-02 
644	 9.33443663244696E-02 
645	 9.35344198360434E-02 
646	 0.09372856158911 
647	 9.39131199652053E-02 
648	 9.40937611711269E-02 
649	 9.42871990047235E-02 
650	 9.45364937868815E-02 
651	 9.47350967421092E-02 
652	 9.48891610085357E-02 
653	 9.51032954765269E-02 
654	 9.53580042659158E-02 
655	 9.56019955406713E-02 
656	 9.58116390299564E-02 
657	 0.09604747271992 
658	 9.62809375745665E-02 
659	 9.65224500891169E-02 
660	 9.67931146642687E-02 
661	 0.097057352894159 
662	 9.73140601734918E-02 
663	 9.75711563011524E-02 
664	 0.097843431099541 
665	 9.81369810719233E-02 
666	 9.84229469291896E-02 
667	 9.86840054149297E-02 
668	 9.89926126231772E-02 
669	 9.93156559707644E-02 
670	 9.96348596426097E-02 
671	 0.099945546531864 
672	 0.10021312959289 
673	 0.100547378500685 
674	 0.10098361179518 
675	 0.101329469785575 
676	 0.101642571483395 
677	 0.101962504518541 
678	 0.102319794076464 
679	 0.102695016492267 
680	 0.103083372772402 
681	 0.103472464893147 
682	 0.103838569327729 
683	 0.104261479504071 
684	 0.104671130252377 
685	 0.105017791689743 
686	 0.105474036116493 
687	 0.105937457173557 
688	 0.106377889331823 
689	 0.106820041221924 
690	 0.107269761818727 
691	 0.107719804129141 
692	 0.108158789046016 
693	 0.108567672242037 
694	 0.109007656758189 
695	 0.109484158090358 
696	 0.10997607582983 
697	 0.110449677592628 
698	 0.110915744954062 
699	 0.111401673126978 
700	 0.111944312080134 
701	 0.11245480455643 
702	 0.112955415338378 
703	 0.113463354874353 
704	 0.113900270540283 
705	 0.114394719513678 
706	 0.114936860991463 
707	 0.115445927435804 
708	 0.115931204227459 
709	 0.116417469130804 
710	 0.11692441848985 
711	 0.117464124281902 
712	 0.117945164931428 
713	 0.118397522741972 
714	 0.118875414508998 
715	 0.119377037506419 
716	 0.119874028722283 
717	 0.120361100000413 
718	 0.120847987123915 
719	 0.121300675106697 
720	 0.121707482061426 
721	 0.122090477640706 
722	 0.12253029720375 
723	 0.122984328261589 
724	 0.123415396848218 
725	 0.123801491928796 
726	 0.124193131044206 
727	 0.124554706116192 
728	 0.124883052102161 
729	 0.125207344345751 
730	 0.125506213294451 
731	 0.125813832878684 
732	 0.126137481160259 
733	 0.126397603443255 
734	 0.126652394854658 
735	 0.126886619542164 
736	 0.127066075146585 
737	 0.127230157239929 
738	 0.127396349782278 
739	 0.127573936106886 
740	 0.127762323580815 
741	 0.127863706911219 
742	 0.127938666439856 
743	 0.128038368300212 
744	 0.128092101497775 
745	 0.128096694615943 
746	 0.12810211488516 
747	 0.128159926299031 
748	 0.12813689344581 
749	 0.12807351144321 
750	 0.128012269351693 
751	 0.127976589003611 
752	 0.127919230435827 
753	 0.12780100858201 
754	 0.127626785824139 
755	 0.127517140113031 
756	 0.127408015214739 
757	 0.127254193874974 
758	 0.127039639015849 
759	 0.126880705883164 
760	 0.126722654159026 
761	 0.126513788501352 
762	 0.126230335684105 
763	 0.126003966775962 
764	 0.125781088486059 
765	 0.125511321446553 
766	 0.125295425989777 
767	 0.12505826260604 
768	 0.124786938626924 
769	 0.124501540117903 
770	 0.1242087427207 
771	 0.123908635026768 
772	 0.123604358011902 
773	 0.123303666011213 
774	 0.123015798884261 
775	 0.122710436511927 
776	 0.122376773317293 
777	 0.122084180885052 
778	 0.12176294870825 
779	 0.121443972740522 
780	 0.121178414103107 
781	 0.120833722702462 
782	 0.120501566628601 
783	 0.120202399851351 
784	 0.119867854426607 
785	 0.119557225059615 
786	 0.119274246429546 
787	 0.119001019590418 
788	 0.11869650486905 
789	 0.118377223439189 
790	 0.11804647073874 
791	 0.117712583427365 
792	 0.117422751822893 
793	 0.11714821230165 
794	 0.1168720989425 
795	 0.11659010930057 
796	 0.116261684824808 
797	 0.115963338798263 
798	 0.115720315333895 
799	 0.115432706897198 
800	 0.115147218112736 
801	 0.114862080822828 
802	 0.114573612323956 
803	 0.114320643501008 
804	 0.114096995135205 
805	 0.113875385142281 
806	 0.113621950854528 
807	 0.113361192148128 
808	 0.113093118346204 
809	 0.112826179436105 
810	 0.112581087020607 
811	 0.112357611936826 
812	 0.112135243098618 
813	 0.111911632314017 
814	 0.111754884061466 
815	 0.11154023419799 
816	 0.111299735212064 
817	 0.11111361940803 
818	 0.110925471123819 
819	 0.110755297309358 
820	 0.110583271683729 
821	 0.110363964312046 
822	 0.11019515339548 
823	 0.1100385389719 
824	 0.109860660502313 
825	 0.109669863501794 
826	 0.109518502924959 
827	 0.109390990254251 
828	 0.10925806019456 
829	 0.109121428534417 
830	 0.108926210952603 
831	 0.108732182229309 
832	 0.108630541490025 
833	 0.108531660490397 
834	 0.108432429101937 
835	 0.108331251575331 
836	 0.108224358258189 
837	 0.108122609863191 
838	 0.108025943462322 
839	 0.107937997065463 
840	 0.107872965367129 
841	 0.107758963932455 
842	 0.107648555799105 
843	 0.107593839364935 
844	 0.107529534680599 
845	 0.107487219461568 
846	 0.107455367605294 
847	 0.107412004282702 
848	 0.107401631147057 
849	 0.107342261461136 
850	 0.107250016225595 
851	 0.107221381626685 
852	 0.107204479686755 
853	 0.107192422667354 
854	 0.107181693875761 
855	 0.107166490279736 
856	 0.107175463674704 
857	 0.107193106289816 
858	 0.107208022009168 
859	 0.107253817060047 
860	 0.107249352235486 
861	 0.107224682447243 
862	 0.107231013756116 
863	 0.107209100242814 
864	 0.107253925992351 
865	 0.107338283564739 
866	 0.107373035947261 
867	 0.107434211178753 
868	 0.107482548879423 
869	 0.107516359977419 
870	 0.107579209456281 
871	 0.10765861318874 
872	 0.107758994182149 
873	 0.107860446928873 
874	 0.107903722730701 
875	 0.10798768369502 
876	 0.108078687875394 
877	 0.10814271198404 
878	 0.108231550639571 
879	 0.108364480853807 
880	 0.108513593480562 
881	 0.108638600190464 
882	 0.108733511527973 
883	 0.108836716099996 
884	 0.108951044053022 
885	 0.109066490016958 
886	 0.10923568450665 
887	 0.109416174342541 
888	 0.109568796060949 
889	 0.109680465863897 
890	 0.1098854686787 
891	 0.110077217118293 
892	 0.110236971484747 
893	 0.110484068464161 
894	 0.110657381159452 
895	 0.11080667273298 
896	 0.110991484355741 
897	 0.111211034577155 
898	 0.111421927676289 
899	 0.11163666801015 
900	 0.111865140352102 
901	 0.112064579982709 
902	 0.112296142193811 
903	 0.112562312125134 
904	 0.112831172513213 
905	 0.113023571328904 
906	 0.113322385856607 
907	 0.113646559511689 
908	 0.113845446415718 
909	 0.114128178723119 
910	 0.114400828474247 
911	 0.114678345527763 
912	 0.115026337231323 
913	 0.1152772905564 
914	 0.115597032117201 
915	 0.11596559634094 
916	 0.116202282811708 
917	 0.116461814643874 
918	 0.116781799092409 
919	 0.117150022826979 
920	 0.117514356815726 
921	 0.117862202323471 
922	 0.118225301398478 
923	 0.118597365884316 
924	 0.118913353092517 
925	 0.119339930201499 
926	 0.11980250447486 
927	 0.120208457139966 
928	 0.120535519939649 
929	 0.120948195622872 
930	 0.121419237230384 
931	 0.121872517085214 
932	 0.122250568676292 
933	 0.122677803184013 
934	 0.12314325000263 
935	 0.123594701267839 
936	 0.123984283334705 
937	 0.124440669630242 
938	 0.124903313502841 
939	 0.125322448195417 
940	 0.125923101662811 
941	 0.126464699993192 
942	 0.126955419552633 
943	 0.12748110013375 
944	 0.127999365370048 
945	 0.128427687554631 
946	 0.128894952503711 
947	 0.12953571970768 
948	 0.130078345557247 
949	 0.130547381150144 
950	 0.131035200633025 
951	 0.131636259943125 
952	 0.132300284252729 
953	 0.132869501658626 
954	 0.133393648483081 
955	 0.134021331038736 
956	 0.134720796702075 
957	 0.135337342121756 
958	 0.135882114594422 
959	 0.13646040516734 
960	 0.137030042827552 
961	 0.137623662698141 
962	 0.138280376978544 
963	 0.139002789883273 
964	 0.13960866853609 
965	 0.140233591574347 
966	 0.140903418911706 
967	 0.141567805706326 
968	 0.14230167620025 
969	 0.142986850232355 
970	 0.143612352685008 
971	 0.144252501785321 
972	 0.144957577707168 
973	 0.145688981798032 
974	 0.146414900298004 
975	 0.147122231172841 
976	 0.147844069416359 
977	 0.148537714641171 
978	 0.149221556776684 
979	 0.149946548863959 
980	 0.150689595888752 
981	 0.151461153069786 
982	 0.152178073785092 
983	 0.152768526810875 
984	 0.153490335143928 
985	 0.154386930415753 
986	 0.155254302578802 
987	 0.155865023733238 
988	 0.156551873691565 
989	 0.157243938647948 
990	 0.157979585858314 
991	 0.158815738026866 
992	 0.159622375352061 
993	 0.160296658826173 
994	 0.160980829639156 
995	 0.161812998810513 
996	 0.16244653735312 
997	 0.163162564555292 
998	 0.16396119064395 
999	 0.164752561568137 
1000	 0.165593329034887 
1001	 0.166693187232768 
1002	 0.16735103001107 
1003	 0.168001368342703 
1004	 0.168662762063119 
1005	 0.169330445935346 
1006	 0.170004155148678 
1007	 0.170691891183338 
1008	 0.171361118696184 
1009	 0.172002167952467 
1010	 0.172674725032978 
1011	 0.173361745350573 
1012	 0.173987266377224 
1013	 0.17459498735753 
1014	 0.175203446191124 
1015	 0.175821265295561 
1016	 0.176448251076397 
1017	 0.17707133415465 
1018	 0.177733392050905 
1019	 0.178353546829185 
1020	 0.178893383688152 
1021	 0.179395637058907 
1022	 0.179866479992735 
1023	 0.180309989118682 
1024	 0.180810230041049 
1025	 0.1814039535015 
1026	 0.181964886715998 
1027	 0.182484916837176 
1028	 0.183000804620372 
1029	 0.183472726811779 
1030	 0.183934860107901 
1031	 0.184412573183627 
1032	 0.184922345743477 
1033	 0.185420202592628 
1034	 0.185843428925527 
1035	 0.186278366447599 
1036	 0.186763908618218 
1037	 0.187206818705354 
1038	 0.187688816255565 
1039	 0.188243166410475 
1040	 0.188732055935883 
1041	 0.189133288972494 
1042	 0.18955764180764 
1043	 0.189942719356984 
1044	 0.190345396558345 
1045	 0.190728833999885 
1046	 0.191207284758511 
1047	 0.191657576936321 
1048	 0.192143382916664 
1049	 0.192646756038776 
1050	 0.19309183130991 
1051	 0.193538641547344 
1052	 0.193925617104109 
1053	 0.19431296371515 
1054	 0.194746691433499 
1055	 0.195171326095358 
1056	 0.195595214192225 
1057	 0.196029731137187 
1058	 0.196477365364607 
1059	 0.196915394324688 
1060	 0.197358240005844 
1061	 0.197786993698709 
1062	 0.19822382821447 
1063	 0.198595169590148 
1064	 0.198965356166037 
1065	 0.199372761462022 
1066	 0.199762730573948 
1067	 0.200156579978863 
1068	 0.200542713136481 
1069	 0.200931320134223 
1070	 0.201336438702198 
1071	 0.201747924206963 
1072	 0.202159389623318 
1073	 0.20259713065456 
1074	 0.202997381603964 
1075	 0.20336887779229 
1076	 0.203757885714249 
1077	 0.204152325825332 
1078	 0.204528639836951 
1079	 0.204918690940496 
1080	 0.205312803862092 
1081	 0.205668498947639 
1082	 0.206055882224654 
1083	 0.206429929786132 
1084	 0.206797746291527 
1085	 0.207165095167216 
1086	 0.207534665601945 
1087	 0.207889810678835 
1088	 0.208237529367674 
1089	 0.20859028928537 
1090	 0.208947470378237 
1091	 0.209252681933131 
1092	 0.209547180559049 
1093	 0.209885421855337 
1094	 0.210211046883582 
1095	 0.210547632342758 
1096	 0.210943423067464 
1097	 0.211313904475921 
1098	 0.211661058157546 
1099	 0.212007985026167 
1100	 0.212334096787006 
1101	 0.212622874638013 
1102	 0.21291790511776 
1103	 0.213208178019138 
1104	 0.213485897376749 
1105	 0.213771915094508 
1106	 0.214061902193649 
1107	 0.214343566109009 
1108	 0.21466892566719 
1109	 0.215013918603371 
1110	 0.215372047441699 
1111	 0.215709334566378 
1112	 0.216065490861901 
1113	 0.21637651890377 
1114	 0.216647931591309 
1115	 0.216937762043514 
1116	 0.21720696844101 
1117	 0.217509277062332 
1118	 0.217835930554015 
1119	 0.218140445255881 
1120	 0.218471916491355 
1121	 0.21880904236641 
1122	 0.219089050298981 
1123	 0.219371415309074 
1124	 0.219664220935261 
1125	 0.219941470592575 
1126	 0.220231186376976 
1127	 0.220546494235418 
1128	 0.22083396472979 
1129	 0.221097284000752 
1130	 0.221379815645159 
1131	 0.22167281517328 
1132	 0.221954110596949 
1133	 0.22222822249498 
1134	 0.222511904818787 
1135	 0.222806342086884 
1136	 0.223085517011204 
1137	 0.22333344513422 
1138	 0.223568960058793 
1139	 0.223794778729233 
1140	 0.223966255582373 
1141	 0.224189220861597 
1142	 0.224438596914089 
1143	 0.224677876541086 
1144	 0.224935073916916 
1145	 0.225163503454539 
1146	 0.225384166302723 
1147	 0.22559563546409 
1148	 0.225772315150135 
1149	 0.22597483326587 
1150	 0.226181205059738 
1151	 0.22640005647609 
1152	 0.226617558047949 
1153	 0.226841167030127 
1154	 0.227059187541842 
1155	 0.227271486210438 
1156	 0.227483019016965 
1157	 0.227692572489868 
1158	 0.227907131896329 
1159	 0.228133427614368 
1160	 0.228337245436659 
1161	 0.228534546111622 
1162	 0.228730755200601 
1163	 0.228896417445474 
1164	 0.229087141069283 
1165	 0.229291177881262 
1166	 0.229508837090736 
1167	 0.229704360982792 
1168	 0.22990206975217 
1169	 0.230091848623049 
1170	 0.230260746640628 
1171	 0.230447324177577 
1172	 0.230651444536396 
1173	 0.230831613906537 
1174	 0.231005372100261 
1175	 0.231175786749263 
1176	 0.231328533564316 
1177	 0.231491837812936 
1178	 0.231655613254081 
1179	 0.231826020216909 
1180	 0.232014292958329 
1181	 0.232180784159576 
1182	 0.232336559912183 
1183	 0.232500021604961 
1184	 0.232647942213956 
1185	 0.232779068158302 
1186	 0.23291078748948 
1187	 0.233030563399842 
1188	 0.233169552331199 
1189	 0.2333046284093 
1190	 0.233454098669031 
1191	 0.23363297860017 
1192	 0.233790164209279 
1193	 0.233951611794803 
1194	 0.234093121576752 
1195	 0.234212386878424 
1196	 0.234340661981193 
1197	 0.234459247048737 
1198	 0.234580779509461 
1199	 0.234704371329971 
1200	 0.234833054919676 
1201	 0.234962571727317 
1202	 0.235089218011722 
1203	 0.235222395281462 
1204	 0.235369827338417 
1205	 0.235500080372513 
1206	 0.235630422722082 
1207	 0.235747589306856 
1208	 0.235850941694438 
1209	 0.235954481815672 
1210	 0.236045620231225 
1211	 0.236144440163106 
1212	 0.236241889342559 
1213	 0.23634328686973 
1214	 0.236456374773839 
1215	 0.236559084158757 
1216	 0.236658195182599 
1217	 0.236751492665473 
1218	 0.236855414107109 
1219	 0.236963672702167 
1220	 0.237057770433583 
1221	 0.237156808189014 
1222	 0.237244676035559 
1223	 0.237306144440712 
1224	 0.237389802013133 
1225	 0.23748892664404 
1226	 0.237574851737236 
1227	 0.237660138008536 
1228	 0.237745012621733 
1229	 0.23782774501522 
1230	 0.23790352386177 
1231	 0.237970510657979 
1232	 0.238046990381807 
1233	 0.238124618624798 
1234	 0.238198305503135 
1235	 0.238272569691058 
1236	 0.238355648010919 
1237	 0.238431765623131 
1238	 0.238501005357303 
1239	 0.238569306377099 
1240	 0.238639831456887 
1241	 0.238707720080794 
1242	 0.238772243011823 
1243	 0.238831246049561 
1244	 0.238882610906444 
1245	 0.238943198351344 
1246	 0.238998414257531 
1247	 0.239060974512136 
1248	 0.239133773248931 
1249	 0.239210587440547 
1250	 0.239290137407268 
1251	 0.239368767072509 
1252	 0.239426696713242 
1253	 0.239477408044035 
1254	 0.239522218441562 
1255	 0.239538348213213 
1256	 0.239582297514257 
1257	 0.23964849816048 
1258	 0.239689913544257 
1259	 0.23972577739448 
1260	 0.239762653807751 
1261	 0.239778428849999 
1262	 0.239811344915236 
1263	 0.23986668855753 
1264	 0.239906155313568 
1265	 0.239931252245865 
1266	 0.239971465753455 
1267	 0.240023815908812 
1268	 0.240056978970991 
1269	 0.240098300223931 
1270	 0.240155694554661 
1271	 0.240189028957591 
1272	 0.240196095084367 
1273	 0.240238404641308 
1274	 0.240284469450261 
1275	 0.240341477119079 
1276	 0.240429653331795 
1277	 0.240494499037813 
1278	 0.240549902434293 
1279	 0.240611940678351 
1280	 0.240658635064963 
1281	 0.24072857275803 
1282	 0.240820465692095 
1283	 0.240903626852325 
1284	 0.240993585379112 
1285	 0.241090653322115 
1286	 0.241164784015038 
1287	 0.241240794154362 
1288	 0.241311282981203 
1289	 0.241375817098796 
1290	 0.241440743552144 
1291	 0.24149669950054 
1292	 0.241564354765289 
1293	 0.241651670988074 
1294	 0.241702975349283 
1295	 0.241736424539984 
1296	 0.241783434761627 
1297	 0.241809915195779 
1298	 0.241848695566917 
1299	 0.241914742810174 
1300	 0.241960075481912 
1301	 0.241988835157294 
1302	 0.242020845918711 
1303	 0.242056223197645 
1304	 0.242081427208884 
1305	 0.242092516212763 
1306	 0.242089951445061 
1307	 0.242104161851877 
1308	 0.242123957122434 
1309	 0.242135369883676 
1310	 0.242166752355647 
1311	 0.242166974087764 
1312	 0.242141297707447 
1313	 0.242124219815508 
1314	 0.242094109086956 
1315	 0.24207904093268 
1316	 0.242076179812815 
1317	 0.242055319608979 
1318	 0.242040404567856 
1319	 0.242011014176209 
1320	 0.241954024011013 
1321	 0.241911989064267 
1322	 0.241870582421372 
1323	 0.241833477965402 
1324	 0.241795925877596 
1325	 0.241761992785914 
1326	 0.241727051153597 
1327	 0.241679828558269 
1328	 0.241626313656234 
1329	 0.241587496544307 
1330	 0.241533979366823 
1331	 0.241474850747481 
1332	 0.241405855744849 
1333	 0.241324845102705 
1334	 0.241250611112515 
1335	 0.241164113066128 
1336	 0.241100262187596 
1337	 0.241051454453006 
1338	 0.240996252107407 
1339	 0.240953917335979 
1340	 0.2408991556682 
1341	 0.240825911509772 
1342	 0.240773561008255 
1343	 0.240726178230783 
1344	 0.240685365735925 
1345	 0.240657366791617 
1346	 0.240623010943204 
1347	 0.240569321733481 
1348	 0.240501597556659 
1349	 0.240403688208613 
1350	 0.240301072897069 
1351	 0.240220345858588 
1352	 0.240135156216381 
1353	 0.240069623399677 
1354	 0.24004491080466 
1355	 0.239974495482389 
1356	 0.239879536117982 
1357	 0.23980537133865 
1358	 0.239710857511987 
1359	 0.239644306972503 
1360	 0.239614986253277 
1361	 0.239564782631639 
1362	 0.239514371759266 
1363	 0.239460473748644 
1364	 0.239397562489898 
1365	 0.239338156758535 
1366	 0.239278621280312 
1367	 0.239219851014824 
1368	 0.23917776787246 
1369	 0.239126348767888 
1370	 0.239023045395375 
1371	 0.238906662409693 
1372	 0.238776640560357 
1373	 0.238610730007494 
1374	 0.238456430335092 
1375	 0.238327214227923 
1376	 0.238144779634746 
1377	 0.23794474655425 
1378	 0.23770198592248 
1379	 0.237418068147939 
1380	 0.237126591199019 
1381	 0.236801356582357 
1382	 0.236467381945222 
1383	 0.236134445202256 
1384	 0.23576120354739 
1385	 0.235372169622697 
1386	 0.234942829965732 
1387	 0.234481883065036 
1388	 0.233988087259267 
1389	 0.233468664322939 
1390	 0.232902833144395 
1391	 0.23229035257668 
1392	 0.23164923085299 
1393	 0.230946903373051 
1394	 0.230205457279058 
1395	 0.229432235278387 
1396	 0.228634587008133 
1397	 0.227838095574943 
1398	 0.227012804456629 
1399	 0.226212502977535 
1400	 0.225423491065558 
1401	 0.224620395483839 
1402	 0.223802830554816 
1403	 0.223016508132781 
1404	 0.222214161389949 
1405	 0.221466311328356 
1406	 0.220771092126262 
1407	 0.220070064009678 
1408	 0.21936785113513 
1409	 0.218712476735335 
1410	 0.218049606956231 
1411	 0.217466717946719 
1412	 0.216933638947094 
1413	 0.21646942422033 
1414	 0.216062350038915 
1415	 0.215682902902273 
1416	 0.215337329646666 
1417	 0.215017382287019 
1418	 0.214705515654324 
1419	 0.214421435865328 
1420	 0.214166786210192 
1421	 0.213935182432626 
1422	 0.213720535878626 
1423	 0.213508305414728 
1424	 0.213296221730979 
1425	 0.213079235423985 
1426	 0.212885782707812 
1427	 0.212693934507641 
1428	 0.21253445667662 
1429	 0.212401929025439 
1430	 0.212272883259696 
1431	 0.212170549938237 
1432	 0.212056213202108 
1433	 0.211939824072722 
1434	 0.211837847667136 
1435	 0.211719401245438 
1436	 0.2116453434669 
1437	 0.211610229455584 
1438	 0.211568225051578 
1439	 0.211543833737355 
1440	 0.211536261735237 
1441	 0.211509453586197 
1442	 0.211478480912407 
1443	 0.211446107326771 
1444	 0.211414423670377 
1445	 0.211401920417425 
1446	 0.211396549023045 
1447	 0.211402990151136 
1448	 0.211423436448228 
1449	 0.211422005761842 
1450	 0.211415649005063 
1451	 0.211421363979454 
1452	 0.211422304668634 
1453	 0.211438833098062 
1454	 0.211473907566201 
1455	 0.211503809457904 
1456	 0.211539958235217 
1457	 0.211572794484464 
1458	 0.211603714562559 
1459	 0.211635111897605 
1460	 0.211653445332163 
1461	 0.211704887342152 
1462	 0.211763837523954 
1463	 0.211843370967051 
1464	 0.211959800240749 
1465	 0.21206444202906 
1466	 0.212172111738041 
1467	 0.212290637730061 
1468	 0.212393397845911 
1469	 0.21253403119237 
1470	 0.212696943603462 
1471	 0.212883358351495 
1472	 0.213089393559153 
1473	 0.213313404707027 
1474	 0.213534098534123 
1475	 0.213748093672817 
1476	 0.21395147690623 
1477	 0.21415350450282 
1478	 0.214367819752998 
1479	 0.214587039510912 
1480	 0.214808485730401 
1481	 0.215049044298906 
1482	 0.21527892222169 
1483	 0.215503421359699 
1484	 0.215726203208645 
1485	 0.215945307964409 
1486	 0.216176333872131 
1487	 0.216409212989863 
1488	 0.216646341314806 
1489	 0.216892058404126 
1490	 0.21714064604237 
1491	 0.217399377232278 
1492	 0.21764230061962 
1493	 0.217894492610708 
1494	 0.218123052737739 
1495	 0.21831768203247 
1496	 0.218529882111477 
1497	 0.218749487445461 
1498	 0.218954393865847 
1499	 0.219152630474778 
1500	 0.219358218547213 
1501	 0.21955431763823 
1502	 0.219748565438009 
1503	 0.219947509251868 
1504	 0.220152339813152 
1505	 0.220337454862911 
1506	 0.220522212084468 
1507	 0.220733679575416 
1508	 0.220942388761125 
1509	 0.221124082335063 
1510	 0.22132229509683 
1511	 0.221504381475803 
1512	 0.22165972742476 
1513	 0.22184304639292 
1514	 0.222026177357532 
1515	 0.222205584175641 
1516	 0.222405497691218 
1517	 0.222588148547662 
1518	 0.222771619854571 
1519	 0.222946433962488 
1520	 0.223107301400717 
1521	 0.223272106216942 
1522	 0.223430460195392 
1523	 0.223600969351623 
1524	 0.223782159672393 
1525	 0.223947414713737 
1526	 0.224118449795516 
1527	 0.224278321160505 
1528	 0.224420956404681 
1529	 0.22456403639001 
1530	 0.224703640590057 
1531	 0.224840231810475 
1532	 0.224970950497633 
1533	 0.225103108552989 
1534	 0.22523420759395 
1535	 0.22536455597341 
1536	 0.225491531918182 
1537	 0.225616850182371 
1538	 0.225747579897527 
1539	 0.225870628888541 
1540	 0.225981471407007 
1541	 0.22610314944987 
1542	 0.226221725034992 
1543	 0.226342371355084 
1544	 0.226479583550642 
1545	 0.226604938525361 
1546	 0.226720573722485 
1547	 0.226845531897115 
1548	 0.226961550985528 
1549	 0.227055422298291 
1550	 0.227133411270924 
1551	 0.227225463089696 
1552	 0.227332606180358 
1553	 0.227430707917962 
1554	 0.227540787359324 
1555	 0.227646733148589 
1556	 0.22772444480489 
1557	 0.227809161509208 
1558	 0.227901448033761 
1559	 0.227985138769493 
1560	 0.228072848327105 
1561	 0.228170773396569 
1562	 0.228248598394614 
1563	 0.228313368940433 
1564	 0.228389292783439 
1565	 0.228460575450282 
1566	 0.228532910455325 
1567	 0.228606560598572 
1568	 0.228689685819788 
1569	 0.228776912591001 
1570	 0.228860271823755 
1571	 0.228960746300864 
1572	 0.229036290048649 
1573	 0.229095423927313 
1574	 0.229150424822573 
1575	 0.2291895590835 
1576	 0.229238549184246 
1577	 0.229284435066899 
1578	 0.229333151391343 
1579	 0.229382067530941 
1580	 0.229439414071204 
1581	 0.229494721869207 
1582	 0.229565327888574 
1583	 0.229665712155475 
1584	 0.229737047194675 
1585	 0.229799234567128 
1586	 0.229864232956359 
1587	 0.229922948209072 
1588	 0.229969132816474 
1589	 0.230011398676353 
1590	 0.230051253052075 
1591	 0.230065551750122 
1592	 0.230099210263331 
1593	 0.230148536933153 
1594	 0.23019575129622 
1595	 0.230250689230542 
1596	 0.230297455963313 
1597	 0.23034482268655 
1598	 0.230387302562184 
1599	 0.230419683442468 
1600	 0.230455845701834 
1601	 0.230495049494108 
1602	 0.230529247979624 
1603	 0.23055330264239 
1604	 0.230587335072021 
1605	 0.230623758748056 
1606	 0.230660804370007 
1607	 0.230696829845373 
1608	 0.230757028281577 
1609	 0.230803076201734 
1610	 0.230825770526474 
1611	 0.230859885326832 
1612	 0.23088181914792 
1613	 0.230887103121356 
1614	 0.23091598067907 
1615	 0.230948292611996 
1616	 0.230973763788499 
1617	 0.231006584848059 
1618	 0.231038845796432 
1619	 0.231063410991004 
1620	 0.231079388985232 
1621	 0.23109979170999 
1622	 0.231123600929626 
1623	 0.231145283690431 
1624	 0.23116972897527 
1625	 0.23117402071855 
1626	 0.23117171401269 
1627	 0.231164152547736 
1628	 0.23112988306935 
1629	 0.231131539466698 
1630	 0.231141667716769 
1631	 0.231172079604581 
1632	 0.231231634346647 
1633	 0.23126719277448 
1634	 0.2313172796459 
1635	 0.231333057315621 
1636	 0.231318185250346 
1637	 0.231324927367797 
1638	 0.231322290153208 
1639	 0.231331482587212 
1640	 0.231357897955599 
1641	 0.231369246010778 
1642	 0.231372020145096 
1643	 0.231384942464963 
1644	 0.231394658630589 
1645	 0.231415000350176 
1646	 0.231449348889963 
1647	 0.231472833078695 
1648	 0.231504643841061 
1649	 0.231514510569377 
1650	 0.231505456320892 
1651	 0.231508317669423 
1652	 0.23150520808394 
1653	 0.231502370953632 
1654	 0.231506825585692 
1655	 0.231505167204366 
1656	 0.231498622129744 
1657	 0.231484634471021 
1658	 0.231469761053669 
1659	 0.231448933042636 
1660	 0.231411371690612 
1661	 0.231387377544099 
1662	 0.231371215720909 
1663	 0.231347364429065 
1664	 0.23131472979821 
1665	 0.231302145984179 
1666	 0.231302031251207 
1667	 0.231288001073997 
1668	 0.231285818923414 
1669	 0.231269732951181 
1670	 0.231228489301541 
1671	 0.231205925815465 
1672	 0.231193320518109 
1673	 0.23117596288627 
1674	 0.231158270543047 
1675	 0.231144810959379 
1676	 0.231133825367948 
1677	 0.231120831008626 
1678	 0.231110238431959 
1679	 0.231099232548999 
1680	 0.23109447506774 
1681	 0.231070885634371 
1682	 0.231039335659757 
1683	 0.231005760058357 
1684	 0.230945762462349 
1685	 0.230916192703296 
1686	 0.230908859584447 
1687	 0.230886779095878 
1688	 0.230870395359052 
1689	 0.230849288877719 
1690	 0.230818253844449 
1691	 0.230790282719385 
1692	 0.230766877152385 
1693	 0.230740741498634 
1694	 0.230710037401589 
1695	 0.230679145679999 
1696	 0.230650167015388 
1697	 0.230617960771519 
1698	 0.230576109918678 
1699	 0.230549341286531 
1700	 0.23053361498017 
1701	 0.230510044066738 
1702	 0.230490069619172 
1703	 0.230466607148393 
1704	 0.230450495688716 
1705	 0.230402207730537 
1706	 0.230341174001556 
1707	 0.23027570376511 
1708	 0.23016876479234 
1709	 0.230102788875976 
1710	 0.230052532377657 
1711	 0.230008182651002 
1712	 0.229996553235939 
1713	 0.229944892021594 
1714	 0.22988049323671 
1715	 0.229819684527672 
1716	 0.229725135749578 
1717	 0.229668511104077 
1718	 0.229644485069703 
1719	 0.229595413243583 
1720	 0.229559684019047 
1721	 0.229494006583001 
1722	 0.229383709558586 
1723	 0.229320612233399 
1724	 0.229282575166047 
1725	 0.229212328451949 
1726	 0.229155854626804 
1727	 0.229073131156837 
1728	 0.228937097465151 
1729	 0.228846834156427 
1730	 0.228779853907035 
1731	 0.228695971627436 
1732	 0.22862393223936 
1733	 0.228537369702137 
1734	 0.228440122921995 
1735	 0.228340783322441 
1736	 0.228232852943887 
1737	 0.228120314238308 
1738	 0.227995827381121 
1739	 0.227884251685221 
1740	 0.227771442833838 
1741	 0.227679119601499 
1742	 0.227603561217941 
1743	 0.227516213105059 
1744	 0.227446689345651 
1745	 0.227339495572047 
1746	 0.227213335206537 
1747	 0.227061084442616 
1748	 0.22692131010056 
1749	 0.226829693523975 
1750	 0.22672669270276 
1751	 0.226628386637759 
1752	 0.226521059011842 
1753	 0.226408561185202 
1754	 0.226279243899436 
1755	 0.226140090907223 
1756	 0.226034028999887 
1757	 0.225915107940169 
1758	 0.225781613082733 
1759	 0.225686738106738 
1760	 0.225602843686154 
1761	 0.225502752313944 
1762	 0.225418875771369 
1763	 0.225334240041854 
1764	 0.22522456176417 
1765	 0.225107000491613 
1766	 0.224981679461095 
1767	 0.224845035757994 
1768	 0.224733508955575 
1769	 0.224637562966772 
1770	 0.224538086009051 
1771	 0.224483167037937 
1772	 0.224415265573794 
1773	 0.22431983971494 
1774	 0.224266350174309 
1775	 0.224201884820012 
1776	 0.224108361411323 
1777	 0.224044526943638 
1778	 0.223983384073556 
1779	 0.223887778781544 
1780	 0.223808732189418 
1781	 0.223750763783713 
1782	 0.223688842182154 
1783	 0.223629738556125 
1784	 0.223576390939871 
1785	 0.223525241680931 
1786	 0.22348122332485 
1787	 0.223460435759179 
1788	 0.223421769076274 
1789	 0.223362837345302 
1790	 0.223322397167871 
1791	 0.223284925191422 
1792	 0.223237487205608 
1793	 0.223197197152085 
1794	 0.22316213886981 
1795	 0.223124679160022 
1796	 0.223083705263767 
1797	 0.223057243063691 
1798	 0.223017144463146 
1799	 0.222943948356615 
1800	 0.222900668078541 
1801	 0.217582115330223 
1802	 0.217764927172316 
1803	 0.217962894340216 
1804	 0.218185177288734 
1805	 0.218428165295103 
1806	 0.218657119013492 
1807	 0.218864326984891 
1808	 0.219046290380782 
1809	 0.219215176072484 
1810	 0.219348492219345 
1811	 0.219448226724501 
1812	 0.219542524536352 
1813	 0.21962880326542 
1814	 0.219686699709597 
1815	 0.219739097139405 
1816	 0.219768418832583 
1817	 0.219786181617342 
1818	 0.219756073376463 
1819	 0.219774892563929 
1820	 0.219808930203613 
1821	 0.219835180263168 
1822	 0.219882440044866 
1823	 0.219902949537866 
1824	 0.219894010572711 
1825	 0.219898559215039 
1826	 0.219928414678901 
1827	 0.219983877508356 
1828	 0.220004107920556 
1829	 0.220044235599653 
1830	 0.220030506876786 
1831	 0.219977456150569 
1832	 0.219898587458176 
1833	 0.219811779501828 
1834	 0.219757345953088 
1835	 0.219720129795074 
1836	 0.21965417085692 
1837	 0.219600300340732 
1838	 0.219549570868051 
1839	 0.219492936738725 
1840	 0.219427030690135 
1841	 0.219376750327012 
1842	 0.219336149400955 
1843	 0.21928266241477 
1844	 0.219215879333877 
1845	 0.219131407636097 
1846	 0.219015808333459 
1847	 0.218892564852687 
1848	 0.218782395796093 
1849	 0.218669222709052 
1850	 0.21855117845443 
1851	 0.218441889627007 
1852	 0.218316153112487 
1853	 0.21815926184926 
1854	 0.217997177871581 
1855	 0.217816563007148 
1856	 0.217617238385215 
1857	 0.217405786192891 
1858	 0.217172813115032 
1859	 0.216888695177859 
1860	 0.216557802802769 
1861	 0.216180132277355 
1862	 0.215771178349854 
1863	 0.215313757053523 
1864	 0.214846831113099 
1865	 0.214373605863048 
1866	 0.213837352139673 
1867	 0.2132518030482 
1868	 0.212619850222033 
1869	 0.211937286005053 
1870	 0.211196941147588 
1871	 0.21040520234226 
1872	 0.209574538235947 
1873	 0.208693970254215 
1874	 0.20772649948098 
1875	 0.206718738373632 
1876	 0.205674845009262 
1877	 0.204552107422773 
1878	 0.203327949584258 
1879	 0.202026627548422 
1880	 0.200636501946134 
1881	 0.199126830433265 
1882	 0.197560761592942 
1883	 0.195936489232805 
1884	 0.194194946816668 
1885	 0.192382615763884 
1886	 0.190490134774202 
1887	 0.188493807115641 
1888	 0.186452000210632 
1889	 0.184316971155785 
1890	 0.182138640546783 
1891	 0.179995237111699 
1892	 0.177814466648707 
1893	 0.175660704252859 
1894	 0.173529341686964 
1895	 0.171407271787194 
1896	 0.169249391341575 
1897	 0.167154865049879 
1898	 0.165087096731166 
1899	 0.163085853813903 
1900	 0.16119248981038 
1901	 0.159349906610266 
1902	 0.157601880024461 
1903	 0.155956794122479 
1904	 0.15438905107414 
1905	 0.152891457921696 
1906	 0.151491277789721 
1907	 0.150195949756845 
1908	 0.148970386507375 
1909	 0.14784183714754 
1910	 0.146814869396467 
1911	 0.145860158803105 
1912	 0.144975085481863 
1913	 0.144140188074726 
1914	 0.143362533866658 
1915	 0.142637623671954 
1916	 0.141965574528276 
1917	 0.141361115143683 
1918	 0.140808012374823 
1919	 0.140299205515264 
1920	 0.139864835167156 
1921	 0.139476693872537 
1922	 0.139118606762131 
1923	 0.138815740240858 
1924	 0.138547152976394 
1925	 0.138304214749536 
1926	 0.138116954132282 
1927	 0.137973110305209 
1928	 0.137893709986575 
1929	 0.137834339156792 
1930	 0.137787013362539 
1931	 0.137780138148425 
1932	 0.137774164557239 
1933	 0.137799563247927 
1934	 0.137874822872666 
1935	 0.137962851333279 
1936	 0.138063641555734 
1937	 0.13820327503194 
1938	 0.138378173048112 
1939	 0.13857493698975 
1940	 0.138802174744759 
1941	 0.139055542971853 
1942	 0.139327109846551 
1943	 0.139585729433468 
1944	 0.139870082769891 
1945	 0.140185656883327 
1946	 0.140490191248516 
1947	 0.140795926228364 
1948	 0.141125026664932 
1949	 0.141447219094029 
1950	 0.141800178602044 
1951	 0.142179714343751 
1952	 0.142592381199685 
1953	 0.142981585945719 
1954	 0.143386331032877 
1955	 0.143811277385566 
1956	 0.144237838969592 
1957	 0.144679093972505 
1958	 0.145145097802337 
1959	 0.145610599126561 
1960	 0.146085431807255 
1961	 0.146561065991317 
1962	 0.14704647001801 
1963	 0.147536508517548 
1964	 0.14803137251671 
1965	 0.148511531236126 
1966	 0.149028190236873 
1967	 0.14955666473702 
1968	 0.150058203689331 
1969	 0.150552874673191 
1970	 0.151052764473049 
1971	 0.151527925049592 
1972	 0.152026263166193 
1973	 0.152549139487973 
1974	 0.153066251985284 
1975	 0.153583099825937 
1976	 0.154103920987176 
1977	 0.154630771835547 
1978	 0.1551367571634 
1979	 0.155679405589046 
1980	 0.156232829252949 
1981	 0.156757828266688 
1982	 0.157280558478035 
1983	 0.157807961858967 
1984	 0.158296073450389 
1985	 0.158826264446509 
1986	 0.159407309531358 
1987	 0.159950836156513 
1988	 0.160495571005301 
1989	 0.161032179357632 
1990	 0.161520790538933 
1991	 0.162019730176813 
1992	 0.162534210453736 
1993	 0.16305141400494 
1994	 0.163564149928143 
1995	 0.164100042735381 
1996	 0.164609760356305 
1997	 0.165085566937901 
1998	 0.165592019030107 
1999	 0.166108298893732 
2000	 0.16662256259543 
2001	 0.1671613832642 
2002	 0.167680185874885 
2003	 0.168187876271819 
2004	 0.168677989909712 
2005	 0.169151440466992 
2006	 0.169595358563196 
2007	 0.170059868513572 
2008	 0.170513711131914 
2009	 0.170972492642313 
2010	 0.1714408311378 
2011	 0.171910530792943 
2012	 0.172392114104975 
2013	 0.172849732004537 
2014	 0.173307423374895 
2015	 0.173741451513041 
2016	 0.174166248628465 
2017	 0.174607749857547 
2018	 0.175049532352006 
2019	 0.1755083104134 
2020	 0.1759560713196 
2021	 0.176396550829081 
2022	 0.176840629897644 
2023	 0.17729079765658 
2024	 0.177734216765343 
2025	 0.178186111585623 
2026	 0.178616559966209 
2027	 0.17903202593961 
2028	 0.179444215895266 
2029	 0.17985477563123 
2030	 0.180253558240113 
2031	 0.180650169736322 
2032	 0.181047581231514 
2033	 0.181440191118318 
2034	 0.18182990745785 
2035	 0.182202021774411 
2036	 0.182568125768127 
2037	 0.182928387795359 
2038	 0.183269967332317 
2039	 0.183610666083951 
2040	 0.183959746510865 
2041	 0.184281385394673 
2042	 0.184612003483572 
2043	 0.184932217665361 
2044	 0.185259537585315 
2045	 0.185589573728436 
2046	 0.185925546326052 
2047	 0.186267794449351 
2048	 0.186599754255381 
2049	 0.186938392611896 
2050	 0.187264297039069 
2051	 0.187578861383336 
2052	 0.187890923656086 
2053	 0.188204666496602 
2054	 0.188500268148279 
2055	 0.188773841934762 
2056	 0.189051146464859 
2057	 0.189337596001553 
2058	 0.189619129538752 
2059	 0.189910116298927 
2060	 0.19022603047387 
2061	 0.190508506382948 
2062	 0.19076213168512 
2063	 0.191043105545134 
2064	 0.191326066817085 
2065	 0.191609161643043 
2066	 0.191922056917884 
2067	 0.192206776451685 
2068	 0.192460087178929 
2069	 0.192730513421953 
2070	 0.192998769883682 
2071	 0.193267049377934 
2072	 0.193520445143866 
2073	 0.193771291907374 
2074	 0.194019447929853 
2075	 0.19424785799347 
2076	 0.19448925760593 
2077	 0.194737359889338 
2078	 0.19498817531953 
2079	 0.195239090589979 
2080	 0.195494085910256 
2081	 0.195769236799029 
2082	 0.196022776505773 
2083	 0.196263691018616 
2084	 0.196503011254441 
2085	 0.19674568140094 
2086	 0.196976063405679 
2087	 0.197221837080974 
2088	 0.197487558581697 
2089	 0.19772842351268 
2090	 0.197962618177784 
2091	 0.198192514839247 
2092	 0.19839725234434 
2093	 0.198626405070147 
2094	 0.198872379696849 
2095	 0.199106219943994 
2096	 0.199359905088264 
2097	 0.199588533549397 
2098	 0.199806585525011 
2099	 0.199997129971663 
2100	 0.20019216446884 
2101	 0.200364016574108 
2102	 0.20056488829474 
2103	 0.200772712730938 
2104	 0.200982231366027 
2105	 0.201215115461841 
2106	 0.201423369861833 
2107	 0.201608930971847 
2108	 0.201815281505042 
2109	 0.202015600856972 
2110	 0.202232327965123 
2111	 0.202469494242474 
2112	 0.202706126873163 
2113	 0.202953165530817 
2114	 0.203196427708914 
2115	 0.203441405779779 
2116	 0.203692771163434 
2117	 0.203935470128609 
2118	 0.204187948127437 
2119	 0.204402518077237 
2120	 0.20459609995469 
2121	 0.204792368008836 
2122	 0.204958286711866 
2123	 0.205142239864976 
2124	 0.205333431947601 
2125	 0.205523220951078 
2126	 0.205738019873301 
2127	 0.205909654432114 
2128	 0.206070250683473 
2129	 0.206212883427939 
2130	 0.206318416090498 
2131	 0.206401716677713 
2132	 0.206511674375533 
2133	 0.2066295463399 
2134	 0.206730860688615 
2135	 0.20684042016892 
2136	 0.20692722125772 
2137	 0.206993355063484 
2138	 0.207058093698297 
2139	 0.207109612888526 
2140	 0.207166581504635 
2141	 0.20723113831911 
2142	 0.207269876272049 
2143	 0.207312778778409 
2144	 0.207324708816491 
2145	 0.207287750083333 
2146	 0.207266447763083 
2147	 0.207236956488578 
2148	 0.207203977271372 
2149	 0.207171033187096 
2150	 0.207150430425958 
2151	 0.207103389810728 
2152	 0.207039482449206 
2153	 0.206975710127782 
2154	 0.206901259586951 
2155	 0.206825093217205 
2156	 0.206762904463758 
2157	 0.206662270077549 
2158	 0.206531476007889 
2159	 0.206405868781204 
2160	 0.206245601813111 
2161	 0.206108360941447 
2162	 0.205989495112543 
2163	 0.205863887310237 
2164	 0.205741737784353 
2165	 0.205612359795274 
2166	 0.205496312131373 
2167	 0.205394272161955 
2168	 0.205258755287062 
2169	 0.205121382233384 
2170	 0.204970256375769 
2171	 0.204787412961548 
2172	 0.204616337264847 
2173	 0.20443751051009 
2174	 0.204276365478402 
2175	 0.204133544631578 
2176	 0.2039639611004 
2177	 0.203807016086648 
2178	 0.203622840514919 
2179	 0.203384878462315 
2180	 0.203174602721995 
2181	 0.202968274479353 
2182	 0.202766210605738 
2183	 0.202569117782596 
2184	 0.20239264659788 
2185	 0.202192197583022 
2186	 0.201983564449527 
2187	 0.201773373047509 
2188	 0.201542243815511 
2189	 0.201341512258514 
2190	 0.201154498796197 
2191	 0.2009653481311 
2192	 0.200789544795518 
2193	 0.20061418148198 
2194	 0.200410883663163 
2195	 0.200260853979136 
2196	 0.200153509096728 
2197	 0.200034965563737 
2198	 0.199937348857549 
2199	 0.199849277082947 
2200	 0.199743443278148 
2201	 0.199674539441588 
2202	 0.199645803285083 
2203	 0.199620547829286 
2204	 0.199604558573698 
2205	 0.19960444261101 
2206	 0.199615282458088 
2207	 0.199636083267778 
2208	 0.199663841119192 
2209	 0.199705970455844 
2210	 0.199755786143736 
2211	 0.199815776526604 
2212	 0.199874121175415 
2213	 0.199946214547547 
2214	 0.200012299446293 
2215	 0.200091373199036 
2216	 0.200140052261174 
2217	 0.200162098778035 
2218	 0.200203214463247 
2219	 0.200216644610793 
2220	 0.200257706677138 
2221	 0.200327679069012 
2222	 0.200410550272592 
2223	 0.200489623815267 
2224	 0.200531711849684 
2225	 0.200559864316097 
2226	 0.200557918693565 
2227	 0.20057889397897 
2228	 0.200591014700522 
2229	 0.200608526461665 
2230	 0.200636653434942 
2231	 0.200660365056147 
2232	 0.200679631065918 
2233	 0.200692674922478 
2234	 0.200726220273461 
2235	 0.200716692172899 
2236	 0.200669186721602 
2237	 0.200636838993071 
2238	 0.200590443731895 
2239	 0.200540468937199 
2240	 0.200487622636234 
2241	 0.20044370037516 
2242	 0.200384293135618 
2243	 0.200342845599308 
2244	 0.200344271633562 
2245	 0.200311319339374 
2246	 0.200250483263081 
2247	 0.20017740955819 
2248	 0.200108406171661 
2249	 0.200007472652249 
2250	 0.199941292695552 
2251	 0.199906855538492 
2252	 0.199837515774879 
2253	 0.199751915497761 
2254	 0.199678538258754 
2255	 0.199590687580144 
2256	 0.199526094618426 
2257	 0.199484136447399 
2258	 0.199431299472839 
2259	 0.199376053347568 
2260	 0.199334670868459 
2261	 0.199300493931673 
2262	 0.199262278474957 
2263	 0.199250641757867 
2264	 0.199202354517492 
2265	 0.199106908721604 
2266	 0.199055306986183 
2267	 0.198990817126829 
2268	 0.198960872674434 
2269	 0.198965042925732 
2270	 0.199013124264152 
2271	 0.199033133876281 
2272	 0.198997443940761 
2273	 0.19899569436701 
2274	 0.198962850596388 
2275	 0.198916910841555 
2276	 0.198856888898459 
2277	 0.19882713150527 
2278	 0.198770230784616 
2279	 0.198754171578819 
2280	 0.198799406256937 
2281	 0.198795658412714 
2282	 0.198781955332869 
2283	 0.19876506188823 
2284	 0.198730147294004 
2285	 0.198706623651393 
2286	 0.198689685539429 
2287	 0.198657603696335 
2288	 0.198607420268112 
2289	 0.198581679377123 
2290	 0.198574066208502 
2291	 0.198543584047912 
2292	 0.198539049716986 
2293	 0.198488439281874 
2294	 0.198372440718517 
2295	 0.198284978037633 
2296	 0.198183001590205 
2297	 0.198096210312745 
2298	 0.198052697626859 
2299	 0.197997720195149 
2300	 0.197935633928468 
2301	 0.1978886267153 
2302	 0.197776209017946 
2303	 0.19769107653234 
2304	 0.197652445560306 
2305	 0.197546162302731 
2306	 0.197452955741736 
2307	 0.19737581094419 
2308	 0.197280613929119 
2309	 0.197160515158167 
2310	 0.197037932471933 
2311	 0.196916508174323 
2312	 0.196772497803701 
2313	 0.196592394285801 
2314	 0.196450607543389 
2315	 0.196297743109869 
2316	 0.196195720410235 
2317	 0.196163890245938 
2318	 0.196054258146018 
2319	 0.195938071930608 
2320	 0.195813254056355 
2321	 0.195643316690617 
2322	 0.195484448088119 
2323	 0.195343426395545 
2324	 0.195190176060288 
2325	 0.19498040433154 
2326	 0.194819205902339 
2327	 0.19469486305094 
2328	 0.194567628303 
2329	 0.194418587801409 
2330	 0.194277267524151 
2331	 0.194140385446853 
2332	 0.194009524717259 
2333	 0.193899110711811 
2334	 0.193833946361451 
2335	 0.193725927876274 
2336	 0.193564960035265 
2337	 0.193401762273265 
2338	 0.193209259841306 
2339	 0.193062600827171 
2340	 0.192925228797544 
2341	 0.192812152179357 
2342	 0.192753630394882 
2343	 0.19260722643852 
2344	 0.192456177247917 
2345	 0.192279942490645 
2346	 0.192051786654256 
2347	 0.191824709795006 
2348	 0.191580359087338 
2349	 0.191344723958954 
2350	 0.191102921737142 
2351	 0.190871647478376 
2352	 0.190639625032326 
2353	 0.190428238252071 
2354	 0.190204817795835 
2355	 0.190013318292153 
2356	 0.189896213260628 
2357	 0.18970525733096 
2358	 0.189487086520397 
2359	 0.189283374627412 
2360	 0.189038457301282 
2361	 0.188810720953377 
2362	 0.188632786312653 
2363	 0.18841265103591 
2364	 0.188119431668582 
2365	 0.187894813657107 
2366	 0.1877244535357 
2367	 0.187499498446806 
2368	 0.187282871980898 
2369	 0.187064111234577 
2370	 0.186844254435628 
2371	 0.186536657030941 
2372	 0.186213123714342 
2373	 0.185951896178817 
2374	 0.185626807879477 
2375	 0.185280894510373 
2376	 0.1849730403869 
2377	 0.184704113127968 
2378	 0.18447983811591 
2379	 0.184261851705708 
2380	 0.184061696525563 
2381	 0.183853571795936 
2382	 0.183581741824031 
2383	 0.183257232550207 
2384	 0.182946250882381 
2385	 0.182635161727177 
2386	 0.182323293068058 
2387	 0.182044395816847 
2388	 0.181787798660267 
2389	 0.181522485707606 
2390	 0.181187503579819 
2391	 0.180830149362396 
2392	 0.180453924930411 
2393	 0.179959778737981 
2394	 0.179535651257588 
2395	 0.179166348499884 
2396	 0.178793124679211 
2397	 0.178569892138722 
2398	 0.178287608908144 
2399	 0.177940353742378 
2400	 0.177622142076269 
2401	 0.177243734979612 
2402	 0.176861795103689 
2403	 0.176571396383974 
2404	 0.176298588574365 
2405	 0.176011370913279 
2406	 0.175773024226683 
2407	 0.175439357361904 
2408	 0.175052124757523 
2409	 0.174644538438112 
2410	 0.17417439850998 
2411	 0.173796548237442 
2412	 0.173462625449077 
2413	 0.173112270751146 
2414	 0.172818849986976 
2415	 0.17252941186906 
2416	 0.172188939388662 
2417	 0.171786832129996 
2418	 0.171441920669556 
2419	 0.171108035458895 
2420	 0.170738941499536 
2421	 0.170357882575754 
2422	 0.170026795711834 
2423	 0.169718974865774 
2424	 0.169376437909736 
2425	 0.169097494020308 
2426	 0.168764635506312 
2427	 0.168360810545827 
2428	 0.167921273300146 
2429	 0.167403020943822 
2430	 0.166966600054603 
2431	 0.166502804612507 
2432	 0.166088805235706 
2433	 0.165798936996354 
2434	 0.165519700524311 
2435	 0.165262509598147 
2436	 0.164885754215304 
2437	 0.164505995343623 
2438	 0.164116838521957 
2439	 0.16358164751749 
2440	 0.163158854438684 
2441	 0.162872081142669 
2442	 0.162424102083349 
2443	 0.161893911840183 
2444	 0.161511612124464 
2445	 0.161113843619502 
2446	 0.160729256598877 
2447	 0.1604335252261 
2448	 0.16009154896881 
2449	 0.159733550618638 
2450	 0.159373719844591 
2451	 0.159029828141835 
2452	 0.158696279213714 
2453	 0.158304876710618 
2454	 0.157975726626002 
2455	 0.157701510602744 
2456	 0.157359119740433 
2457	 0.157014372386998 
2458	 0.156704382194315 
2459	 0.156461133761001 
2460	 0.156139490904398 
2461	 0.155787539999073 
2462	 0.155381529960814 
2463	 0.154795261680904 
2464	 0.154399108678994 
2465	 0.154168734863058 
2466	 0.15381067087909 
2467	 0.153468947127759 
2468	 0.153065029189292 
2469	 0.152441198601236 
2470	 0.152295772233232 
2471	 0.152063715766252 
2472	 0.15159598258904 
2473	 0.151186790888412 
2474	 0.150674642900167 
2475	 0.150313829112047 
2476	 0.150265415529517 
2477	 0.150079932414971 
2478	 0.149638463161424 
2479	 0.149305296184245 
2480	 0.148997663095828 
2481	 0.14857634593886 
2482	 0.148295265221414 
2483	 0.148003051672696 
2484	 0.147669033710507 
2485	 0.147420590346028 
2486	 0.147251481691993 
2487	 0.147046527928382 
2488	 0.146699785611209 
2489	 0.146373613534723 
2490	 0.145984730785993 
2491	 0.145645598458603 
2492	 0.145427715873211 
2493	 0.145125198031481 
2494	 0.144895649889579 
2495	 0.144636651523433 
2496	 0.144326936906497 
2497	 0.144145960412209 
2498	 0.144082185759841 
2499	 0.143950578074585 
2500	 0.143831913086966 
