Wavelength	mm2500002.asd
350	 2.99824634326621E-02 
351	 3.37207246431421E-02 
352	 3.69835225324807E-02 
353	 3.72443845802755E-02 
354	 4.86316320101732E-02 
355	 4.81972170544523E-02 
356	 4.11973333589493E-02 
357	 3.90972236536245E-02 
358	 4.78244133653653E-02 
359	 0.04691533199502 
360	 3.96437015349663E-02 
361	 4.29562786448636E-02 
362	 4.21111767896451E-02 
363	 4.01938685814002E-02 
364	 4.06694371937859E-02 
365	 4.46415256445355E-02 
366	 4.36309882613163E-02 
367	 4.10253484365122E-02 
368	 4.19006901235723E-02 
369	 4.41534460225724E-02 
370	 4.36501032118709E-02 
371	 4.10066330460359E-02 
372	 4.01212713505587E-02 
373	 4.20160024560916E-02 
374	 4.41416280159169E-02 
375	 4.55113075793938E-02 
376	 4.90742433575953E-02 
377	 4.58223083857025E-02 
378	 4.22076200732063E-02 
379	 4.54371608579814E-02 
380	 4.47914078074662E-02 
381	 4.35750916021606E-02 
382	 4.44994315946569E-02 
383	 4.87050347604557E-02 
384	 4.82173098902908E-02 
385	 4.76393199542428E-02 
386	 4.95904366420848E-02 
387	 4.93842110750858E-02 
388	 4.87807731142612E-02 
389	 4.79151196914227E-02 
390	 4.66697941691666E-02 
391	 4.55510471807681E-02 
392	 4.64337573500013E-02 
393	 4.85594870660641E-02 
394	 4.91191480647634E-02 
395	 4.96163464802341E-02 
396	 5.03140141781809E-02 
397	 5.11473546581786E-02 
398	 0.051774407815312 
399	 5.23916803383247E-02 
400	 5.36823190998731E-02 
401	 5.57627387747581E-02 
402	 5.47512525841986E-02 
403	 5.37751916398935E-02 
404	 5.38238645198326E-02 
405	 5.33463838854589E-02 
406	 5.41546420195818E-02 
407	 5.52401212550593E-02 
408	 5.55693453590552E-02 
409	 5.53940203068831E-02 
410	 5.52704679992023E-02 
411	 0.055229252951579 
412	 5.51315282820065E-02 
413	 5.57803258606589E-02 
414	 5.58038759736956E-02 
415	 5.49866678931997E-02 
416	 5.47531442780148E-02 
417	 5.51908784186756E-02 
418	 5.59097361727669E-02 
419	 5.63393362115514E-02 
420	 0.055748771010616 
421	 5.55527853546044E-02 
422	 5.59735688550941E-02 
423	 5.64055333740034E-02 
424	 0.056588489007543 
425	 0.056203695449261 
426	 5.54218441822136E-02 
427	 5.52046604043547E-02 
428	 5.55475154369639E-02 
429	 5.56822565241869E-02 
430	 5.50172034246978E-02 
431	 5.52030734193478E-02 
432	 5.53562529124706E-02 
433	 5.52809010684317E-02 
434	 5.55330588363838E-02 
435	 5.57191970386032E-02 
436	 5.57665912736037E-02 
437	 5.56394823111057E-02 
438	 5.51177406702833E-02 
439	 5.51827711040019E-02 
440	 0.055707736882383 
441	 5.60008040481114E-02 
442	 0.055846778248788 
443	 5.57356916301051E-02 
444	 5.58964762421718E-02 
445	 5.60695551200651E-02 
446	 5.61750221847715E-02 
447	 5.63036931327418E-02 
448	 5.65017289991714E-02 
449	 5.63385589715932E-02 
450	 5.64053027464572E-02 
451	 5.67493868547585E-02 
452	 5.69336645694969E-02 
453	 5.68162413772463E-02 
454	 5.67335469288164E-02 
455	 5.68528527405986E-02 
456	 5.66767182438445E-02 
457	 0.056750468040886 
458	 5.69632062665366E-02 
459	 0.056959188349289 
460	 5.69806656954692E-02 
461	 0.05707134754699 
462	 0.057173833782788 
463	 5.71138304633755E-02 
464	 5.71128337795863E-02 
465	 5.72011215273339E-02 
466	 5.72776043550365E-02 
467	 5.68999035693015E-02 
468	 5.69573313211135E-02 
469	 5.72930927068626E-02 
470	 5.69681108121712E-02 
471	 5.70220934707716E-02 
472	 5.72438718785599E-02 
473	 5.73306338101875E-02 
474	 5.72577718049726E-02 
475	 5.72090836786087E-02 
476	 5.72541157565578E-02 
477	 5.73712578590581E-02 
478	 0.057315494567227 
479	 5.73218350923522E-02 
480	 0.057420820861144 
481	 5.73009877874649E-02 
482	 5.73358564706804E-02 
483	 5.74057789196459E-02 
484	 5.73564458973951E-02 
485	 5.74924499855801E-02 
486	 5.74986431414942E-02 
487	 5.74063805990782E-02 
488	 5.75236332256911E-02 
489	 5.75731556662041E-02 
490	 5.76613975273749E-02 
491	 5.77841583237602E-02 
492	 5.74678742586898E-02 
493	 5.72771158714617E-02 
494	 5.73029306819583E-02 
495	 5.73935523248174E-02 
496	 5.74395152868017E-02 
497	 5.74088989925991E-02 
498	 5.73769654432697E-02 
499	 5.75637519593173E-02 
500	 5.76966251923926E-02 
501	 5.76726687114484E-02 
502	 5.75165522707954E-02 
503	 5.75492325771812E-02 
504	 0.057527745731539 
505	 5.74296549485788E-02 
506	 5.74477430174251E-02 
507	 5.76521023721169E-02 
508	 5.77946875892509E-02 
509	 5.77254494990387E-02 
510	 5.77110501774047E-02 
511	 5.77166118373762E-02 
512	 5.77233240777181E-02 
513	 5.77231362448088E-02 
514	 5.77641880309221E-02 
515	 5.78745330130191E-02 
516	 5.80094078769344E-02 
517	 5.80091615888421E-02 
518	 5.79364289166707E-02 
519	 5.78622322965388E-02 
520	 5.78560306818952E-02 
521	 0.057952907202122 
522	 5.79946002382307E-02 
523	 5.79671697067637E-02 
524	 5.80138954073251E-02 
525	 0.057933539577812 
526	 5.78774169778853E-02 
527	 5.79677356635057E-02 
528	 5.79843576293453E-02 
529	 5.80259753366679E-02 
530	 5.81076743501174E-02 
531	 5.81817627736745E-02 
532	 5.81355291513413E-02 
533	 0.058149078529099 
534	 5.82894290195227E-02 
535	 5.82991665387855E-02 
536	 0.058351610316371 
537	 5.84389407811592E-02 
538	 5.84900776585201E-02 
539	 5.85004705474858E-02 
540	 5.85065262130337E-02 
541	 5.85455444595544E-02 
542	 5.86520064664164E-02 
543	 0.058757323808171 
544	 5.88428849080413E-02 
545	 5.89070650747142E-02 
546	 5.89517207959426E-02 
547	 5.89754022257483E-02 
548	 5.90314337098554E-02 
549	 0.059204542482065 
550	 5.92527387288311E-02 
551	 5.93022075279438E-02 
552	 5.94512423253021E-02 
553	 0.059544724228561 
554	 5.96224750967383E-02 
555	 5.97360530762619E-02 
556	 5.99285659972242E-02 
557	 6.00857239077381E-02 
558	 6.02127054837486E-02 
559	 6.03508868372131E-02 
560	 6.05851074452714E-02 
561	 6.07704540136302E-02 
562	 6.09547354908095E-02 
563	 6.12147357705674E-02 
564	 0.061385487734649 
565	 6.16028048489005E-02 
566	 6.18972374100038E-02 
567	 6.21648090073848E-02 
568	 6.25107393457214E-02 
569	 6.28332926258699E-02 
570	 6.30663456105202E-02 
571	 6.34236341805073E-02 
572	 6.38124237257465E-02 
573	 6.42061535253507E-02 
574	 6.46231345307224E-02 
575	 6.50134334173905E-02 
576	 6.54185308006557E-02 
577	 6.58663863933716E-02 
578	 6.63266679951535E-02 
579	 6.67737436463653E-02 
580	 6.72538833436203E-02 
581	 6.78255919277099E-02 
582	 6.83892281116391E-02 
583	 0.068909983619447 
584	 6.94235779197171E-02 
585	 7.00606124769116E-02 
586	 0.070650253451223 
587	 7.12268799551642E-02 
588	 7.18546380140528E-02 
589	 7.24474074020062E-02 
590	 7.30643612860025E-02 
591	 7.37194798344357E-02 
592	 7.43791719625872E-02 
593	 7.49205694482777E-02 
594	 7.54828962073377E-02 
595	 7.61603485175461E-02 
596	 7.67853763750806E-02 
597	 7.74540531691239E-02 
598	 7.81364464984363E-02 
599	 7.87502074901312E-02 
600	 7.93661837188392E-02 
601	 7.99767298200354E-02 
602	 8.05689506252424E-02 
603	 8.11446317529344E-02 
604	 8.16344517908494E-02 
605	 8.21231431616887E-02 
606	 8.27042583197982E-02 
607	 8.31858627946521E-02 
608	 8.36782921480225E-02 
609	 8.41992005053765E-02 
610	 8.46439791650274E-02 
611	 8.50862582861583E-02 
612	 8.55295528429018E-02 
613	 8.59533375883921E-02 
614	 8.63237861126521E-02 
615	 8.66282942646825E-02 
616	 8.69272398087039E-02 
617	 8.73119928304391E-02 
618	 8.76123811658504E-02 
619	 0.087873536848805 
620	 8.81416690245819E-02 
621	 8.83929817105419E-02 
622	 8.86150590118095E-02 
623	 8.88313555608121E-02 
624	 8.90709326759465E-02 
625	 8.92828971727937E-02 
626	 8.94930591993452E-02 
627	 8.97255179026317E-02 
628	 8.99951686435264E-02 
629	 9.01660897697107E-02 
630	 9.03227127168661E-02 
631	 9.05529168611296E-02 
632	 0.090692505135339 
633	 0.090870999339967 
634	 9.10914961933294E-02 
635	 9.12544258353893E-02 
636	 9.14192678134287E-02 
637	 9.15819042088264E-02 
638	 0.091732776509754 
639	 0.091869292787655 
640	 9.20429865741187E-02 
641	 9.22459073983972E-02 
642	 9.24414885933302E-02 
643	 9.26268936942416E-02 
644	 0.092795390643601 
645	 9.29683830875058E-02 
646	 9.32087146611728E-02 
647	 0.093409765221363 
648	 9.35809930847248E-02 
649	 9.37616075205004E-02 
650	 9.39523828818089E-02 
651	 9.41711135787283E-02 
652	 9.43957369991362E-02 
653	 0.094576044573017 
654	 9.47903847752167E-02 
655	 9.50216712519614E-02 
656	 9.52523079197441E-02 
657	 9.55066758114076E-02 
658	 9.57926740637871E-02 
659	 9.60675596062028E-02 
660	 9.62809922978569E-02 
661	 9.65294906763853E-02 
662	 9.67895488225754E-02 
663	 9.70529903692761E-02 
664	 9.73509248233161E-02 
665	 9.76672701677177E-02 
666	 9.79622215618903E-02 
667	 9.82100986336038E-02 
668	 0.09846178354424 
669	 9.87619559234927E-02 
670	 9.91054717589816E-02 
671	 0.099443951250242 
672	 9.97436802077777E-02 
673	 0.100057161804355 
674	 0.100418854016604 
675	 0.100789361483907 
676	 0.101118088864621 
677	 0.101446752970738 
678	 0.101842186562713 
679	 0.102219961667761 
680	 0.102579847246833 
681	 0.10295148962904 
682	 0.103393020640144 
683	 0.103809803213188 
684	 0.104212603661962 
685	 0.104632292705907 
686	 0.105065403723846 
687	 0.105501627298463 
688	 0.105937063772027 
689	 0.106371974588966 
690	 0.10679805780515 
691	 0.107240979745732 
692	 0.1077120912188 
693	 0.108191116128265 
694	 0.108626373149179 
695	 0.109063552716641 
696	 0.109564391378865 
697	 0.110055342981084 
698	 0.110536856951174 
699	 0.111023728635997 
700	 0.111538209487358 
701	 0.112016465284182 
702	 0.11250874708023 
703	 0.11304164190522 
704	 0.113499308066004 
705	 0.114003767393293 
706	 0.114534848136261 
707	 0.115010640485333 
708	 0.115514053461163 
709	 0.116022631456877 
710	 0.116522964679736 
711	 0.117031505361134 
712	 0.117553758026696 
713	 0.11804699633261 
714	 0.118491161764897 
715	 0.119000522187206 
716	 0.119501862427413 
717	 0.119977173391749 
718	 0.120452479498337 
719	 0.120936163061194 
720	 0.121397343734386 
721	 0.121819447793011 
722	 0.122223775164472 
723	 0.12263894405931 
724	 0.123052576295504 
725	 0.123444285276868 
726	 0.123843070641501 
727	 0.124192168386772 
728	 0.124511799175783 
729	 0.124888220005108 
730	 0.125199696718271 
731	 0.125483842185807 
732	 0.125784250980407 
733	 0.126093376764095 
734	 0.126356557881116 
735	 0.126568659931552 
736	 0.126750797888038 
737	 0.126927940749599 
738	 0.127100663497021 
739	 0.127272382174798 
740	 0.127450283330149 
741	 0.127581523639759 
742	 0.127648670571611 
743	 0.127674534600041 
744	 0.127770225029266 
745	 0.127797210890535 
746	 0.127788964762091 
747	 0.1278359720035 
748	 0.127798952499392 
749	 0.127737952018724 
750	 0.127697387677928 
751	 0.127679363298931 
752	 0.12758967319159 
753	 0.127451371172505 
754	 0.127312959816406 
755	 0.127207109974317 
756	 0.127100059912158 
757	 0.126954080310234 
758	 0.126743860254589 
759	 0.12653676848603 
760	 0.126346492705705 
761	 0.126158143918006 
762	 0.125929890748679 
763	 0.125698875204832 
764	 0.125462730607955 
765	 0.125211274811398 
766	 0.124931622911894 
767	 0.124697298277747 
768	 0.124457141633032 
769	 0.124127241474618 
770	 0.123888829460359 
771	 0.123616055835143 
772	 0.123277088225266 
773	 0.122983022241633 
774	 0.122702221770924 
775	 0.122393431151608 
776	 0.122045025479125 
777	 0.121736476536863 
778	 0.121405256793229 
779	 0.1210781592545 
780	 0.120801699943214 
781	 0.120474984777662 
782	 0.120153076103549 
783	 0.119843401685199 
784	 0.119495738681992 
785	 0.119183609832578 
786	 0.118907809304612 
787	 0.118639034545143 
788	 0.118309210254396 
789	 0.118012570396502 
790	 0.117705920362628 
791	 0.117333233936251 
792	 0.117055940227471 
793	 0.116772426021464 
794	 0.116461593997946 
795	 0.116176657435627 
796	 0.115819447693444 
797	 0.115512683096138 
798	 0.11529624679158 
799	 0.114998455791334 
800	 0.114721223914729 
801	 0.114452873782411 
802	 0.114167888348332 
803	 0.113920181622385 
804	 0.113668898005682 
805	 0.113412276446839 
806	 0.113170955116145 
807	 0.11291801181574 
808	 0.112659107180961 
809	 0.112403590936999 
810	 0.11215965071305 
811	 0.111937066710602 
812	 0.111699973295095 
813	 0.111445288777315 
814	 0.111291319876752 
815	 0.11111068474203 
816	 0.110886351869015 
817	 0.110656916021261 
818	 0.110477718018042 
819	 0.110311134496307 
820	 0.110124425385508 
821	 0.109904476100695 
822	 0.109748550691657 
823	 0.109588724408421 
824	 0.109394903293607 
825	 0.10924001770229 
826	 0.109079963440636 
827	 0.108932783735241 
828	 0.108811219385398 
829	 0.108661982934308 
830	 0.108480194109478 
831	 0.108313888241392 
832	 0.108217655501019 
833	 0.108118061559246 
834	 0.108019002577223 
835	 0.10791024939656 
836	 0.107769580612359 
837	 0.107650106360606 
838	 0.107574510530858 
839	 0.107523489077945 
840	 0.107419291534094 
841	 0.107300666406723 
842	 0.107211306701553 
843	 0.107168130112483 
844	 0.107103224959183 
845	 0.10702780369056 
846	 0.106962568530489 
847	 0.106928598131952 
848	 0.10691805420592 
849	 0.106898027614363 
850	 0.10684954297196 
851	 0.106773046693765 
852	 0.106706202129054 
853	 0.1066893924242 
854	 0.106709503014687 
855	 0.106681473922645 
856	 0.106688242705397 
857	 0.106706125274922 
858	 0.106712092920893 
859	 0.106752199744612 
860	 0.106781020120411 
861	 0.106782170081511 
862	 0.106765830936442 
863	 0.106797402660133 
864	 0.106853323137401 
865	 0.106894981371075 
866	 0.106894854783031 
867	 0.106950247841845 
868	 0.107032800844691 
869	 0.107101591857711 
870	 0.107125054948701 
871	 0.107194319511563 
872	 0.107275373471265 
873	 0.107352743207482 
874	 0.107474262368691 
875	 0.107577656666285 
876	 0.107644761206929 
877	 0.107688525615148 
878	 0.107761171302911 
879	 0.107908677074946 
880	 0.10806237269597 
881	 0.108153919113382 
882	 0.108306204694947 
883	 0.108443604386241 
884	 0.108552456203571 
885	 0.108663637841942 
886	 0.108825243234161 
887	 0.109025539959338 
888	 0.10920225948469 
889	 0.109280078012632 
890	 0.109416409809297 
891	 0.109621617479539 
892	 0.109848919737417 
893	 0.110013882118839 
894	 0.110157505323567 
895	 0.110320645008268 
896	 0.110527581202356 
897	 0.11077140482285 
898	 0.111026954081289 
899	 0.11125978623197 
900	 0.11145428006757 
901	 0.111641957148034 
902	 0.111845655429787 
903	 0.112080382621798 
904	 0.11234581826252 
905	 0.112607767626586 
906	 0.112902471547835 
907	 0.113196929956459 
908	 0.113445189049046 
909	 0.113716679083458 
910	 0.113971527377808 
911	 0.114223576500772 
912	 0.114518709214293 
913	 0.114847203146976 
914	 0.115167309106473 
915	 0.115465105340142 
916	 0.115757289006788 
917	 0.116056311631423 
918	 0.11637549609508 
919	 0.116722603210294 
920	 0.117095218555012 
921	 0.117453925691833 
922	 0.11782907357051 
923	 0.118219947617618 
924	 0.118569577570658 
925	 0.118982875976393 
926	 0.119425376392963 
927	 0.119836022007228 
928	 0.120165820321479 
929	 0.120580378428493 
930	 0.121060059360717 
931	 0.121525182552999 
932	 0.121883409852687 
933	 0.122333210984114 
934	 0.122800513953631 
935	 0.123207580167405 
936	 0.123722376702463 
937	 0.12411652742288 
938	 0.124498494327375 
939	 0.125024273286222 
940	 0.125605783339327 
941	 0.126096191624282 
942	 0.126570173245567 
943	 0.127136174318751 
944	 0.127642816948267 
945	 0.128108611579981 
946	 0.128617540864792 
947	 0.12922643015716 
948	 0.129752762831238 
949	 0.13028864010694 
950	 0.130833789937121 
951	 0.131356073512453 
952	 0.13193292109027 
953	 0.132482659424006 
954	 0.133050788411196 
955	 0.133718997944981 
956	 0.134340156817111 
957	 0.134973626238979 
958	 0.135584437739197 
959	 0.136122291770701 
960	 0.136815127071629 
961	 0.137478357366122 
962	 0.138072452141699 
963	 0.138664585079336 
964	 0.139221489386066 
965	 0.139929623841744 
966	 0.140697435848813 
967	 0.14131108014108 
968	 0.142076435648003 
969	 0.142757836062122 
970	 0.143353357310532 
971	 0.144026080203588 
972	 0.144746097619354 
973	 0.145508333296309 
974	 0.146278244265006 
975	 0.147010027044623 
976	 0.147706343939838 
977	 0.148435310761497 
978	 0.149162484921634 
979	 0.149816972600403 
980	 0.150533759094481 
981	 0.151311224902345 
982	 0.152040068985678 
983	 0.152633468783748 
984	 0.153429312036628 
985	 0.154219826732947 
986	 0.154918700571845 
987	 0.155592432811311 
988	 0.156593157576134 
989	 0.157227174490548 
990	 0.157650414694806 
991	 0.15838894530242 
992	 0.159321590361896 
993	 0.160098230934325 
994	 0.160868185540036 
995	 0.161831899309569 
996	 0.162393696464386 
997	 0.162902015803975 
998	 0.163638049536341 
999	 0.164646673744967 
1000	 0.165361548091871 
1001	 0.166543449470924 
1002	 0.167278827015046 
1003	 0.167990289820371 
1004	 0.168662619632167 
1005	 0.169329527114385 
1006	 0.169997184201833 
1007	 0.170630042371631 
1008	 0.171255563062057 
1009	 0.171898903864759 
1010	 0.172497019124044 
1011	 0.173118611829005 
1012	 0.173755002309764 
1013	 0.174370667365927 
1014	 0.175000551691546 
1015	 0.175644550678565 
1016	 0.176250193794592 
1017	 0.176857923737417 
1018	 0.177472037270466 
1019	 0.17806533061833 
1020	 0.178604057116788 
1021	 0.17916523308927 
1022	 0.179677383474013 
1023	 0.180175368063279 
1024	 0.18075521668445 
1025	 0.181301487705177 
1026	 0.181818079144224 
1027	 0.182407490007358 
1028	 0.182930114480786 
1029	 0.183413949645518 
1030	 0.183971622877916 
1031	 0.184462277966306 
1032	 0.184904269234455 
1033	 0.185351277290606 
1034	 0.185829608774982 
1035	 0.186264966181177 
1036	 0.18676588949826 
1037	 0.187279353753086 
1038	 0.187730653114968 
1039	 0.188152445541009 
1040	 0.188590046981654 
1041	 0.189051738100812 
1042	 0.189526107481646 
1043	 0.189988373902129 
1044	 0.190421802006024 
1045	 0.190817736045078 
1046	 0.191219043524924 
1047	 0.191636503799937 
1048	 0.192046017572183 
1049	 0.192462806424395 
1050	 0.192897222828651 
1051	 0.193336230044833 
1052	 0.193754003540748 
1053	 0.194196738119117 
1054	 0.194634383499896 
1055	 0.195070474431897 
1056	 0.195553021487433 
1057	 0.196007113938279 
1058	 0.196494477123012 
1059	 0.196917755439908 
1060	 0.197287055900185 
1061	 0.197652789289662 
1062	 0.198051236214502 
1063	 0.198482036571902 
1064	 0.198931626691867 
1065	 0.199365023614965 
1066	 0.199787726677306 
1067	 0.200174526380121 
1068	 0.200544301898004 
1069	 0.200942045662814 
1070	 0.201349304051747 
1071	 0.201769523246669 
1072	 0.202175097493582 
1073	 0.202597089614951 
1074	 0.202990259991666 
1075	 0.20334909700915 
1076	 0.203719591541216 
1077	 0.204101896520093 
1078	 0.204492592905505 
1079	 0.204921539179229 
1080	 0.205336189407677 
1081	 0.20571613390677 
1082	 0.206102429707565 
1083	 0.206480460939102 
1084	 0.206830597139298 
1085	 0.207188772873702 
1086	 0.207557078678429 
1087	 0.207913659728966 
1088	 0.208251756649393 
1089	 0.208613737130086 
1090	 0.208946712592001 
1091	 0.209270057147459 
1092	 0.209621432391303 
1093	 0.209930995829321 
1094	 0.210288351277108 
1095	 0.210682777843303 
1096	 0.211020017985799 
1097	 0.211359216153361 
1098	 0.211693158024486 
1099	 0.212002735070572 
1100	 0.212325081532906 
1101	 0.212657400379243 
1102	 0.21297721732933 
1103	 0.213299535767712 
1104	 0.21360453345127 
1105	 0.213888557272617 
1106	 0.214206434265786 
1107	 0.214524669366601 
1108	 0.214828194255062 
1109	 0.215164085685246 
1110	 0.215505187436763 
1111	 0.215812789721968 
1112	 0.216101256467506 
1113	 0.216405159085145 
1114	 0.216684405304647 
1115	 0.216983144670828 
1116	 0.217313974384815 
1117	 0.217623023538877 
1118	 0.21791694799741 
1119	 0.218219804029851 
1120	 0.218530503491289 
1121	 0.218829340921693 
1122	 0.219149159036838 
1123	 0.219479343838217 
1124	 0.21978172580092 
1125	 0.220075716440019 
1126	 0.220371280151171 
1127	 0.220642946997158 
1128	 0.220931566350175 
1129	 0.221239537337152 
1130	 0.22152479789658 
1131	 0.22180054073564 
1132	 0.222080136791469 
1133	 0.222350720359556 
1134	 0.222626284295481 
1135	 0.222911268285586 
1136	 0.223183959226929 
1137	 0.223459697011119 
1138	 0.223720672718551 
1139	 0.223973828059499 
1140	 0.224217821691667 
1141	 0.224461879682161 
1142	 0.224698294896917 
1143	 0.22493192809586 
1144	 0.225171692427295 
1145	 0.225389400791772 
1146	 0.225582725087674 
1147	 0.225791023610373 
1148	 0.225992775494444 
1149	 0.226201937846047 
1150	 0.226424278267632 
1151	 0.226642710032379 
1152	 0.226854977590637 
1153	 0.227049264592599 
1154	 0.227260643273233 
1155	 0.227469919335702 
1156	 0.227691270304854 
1157	 0.227934865339446 
1158	 0.22815462069788 
1159	 0.22837832348464 
1160	 0.228580071941628 
1161	 0.22875590619703 
1162	 0.228942919842896 
1163	 0.229120592052619 
1164	 0.229304327715475 
1165	 0.229503231449473 
1166	 0.229678687877068 
1167	 0.229863975792227 
1168	 0.230070504318797 
1169	 0.230264644065413 
1170	 0.23046456358355 
1171	 0.230661185469682 
1172	 0.230851779134817 
1173	 0.23104213527876 
1174	 0.231240818462734 
1175	 0.231423262427833 
1176	 0.231607901086121 
1177	 0.23177059530898 
1178	 0.231888360647142 
1179	 0.23205098256986 
1180	 0.232232398175335 
1181	 0.232398997512831 
1182	 0.232591256265775 
1183	 0.232773972220902 
1184	 0.232931284319181 
1185	 0.233051072201963 
1186	 0.233197891374001 
1187	 0.233352994323141 
1188	 0.233490239581264 
1189	 0.23361296180571 
1190	 0.233758225447243 
1191	 0.233908301706422 
1192	 0.234049580558158 
1193	 0.234203280815305 
1194	 0.234352055258319 
1195	 0.234485737098298 
1196	 0.234622625974284 
1197	 0.234771483564602 
1198	 0.234913357941187 
1199	 0.235050400229119 
1200	 0.235182110036758 
1201	 0.235300151189232 
1202	 0.235411141970605 
1203	 0.235522322549239 
1204	 0.235608080672646 
1205	 0.235727280801079 
1206	 0.235869375455309 
1207	 0.235996670223315 
1208	 0.236143557608899 
1209	 0.236263020569183 
1210	 0.236357901791584 
1211	 0.236461270499089 
1212	 0.236552099366678 
1213	 0.236650896487685 
1214	 0.236762500522703 
1215	 0.236863833456069 
1216	 0.23696160568504 
1217	 0.237059472029596 
1218	 0.237148410002528 
1219	 0.237220809272818 
1220	 0.237313982753535 
1221	 0.237414952866277 
1222	 0.237508235339039 
1223	 0.23761652692135 
1224	 0.237704478722944 
1225	 0.237775196657513 
1226	 0.237849312882866 
1227	 0.237908807620711 
1228	 0.237983805323995 
1229	 0.238057995283589 
1230	 0.238144472703027 
1231	 0.238262355076693 
1232	 0.238356814539062 
1233	 0.238444714085071 
1234	 0.238534248603822 
1235	 0.238609403559864 
1236	 0.238660007937323 
1237	 0.238730292534314 
1238	 0.238807881591295 
1239	 0.238874883754185 
1240	 0.238936876126951 
1241	 0.239007787215898 
1242	 0.239077733143408 
1243	 0.239146210330674 
1244	 0.239235385441051 
1245	 0.239299091577124 
1246	 0.239331295028918 
1247	 0.239385581013917 
1248	 0.239446960964444 
1249	 0.239495312710488 
1250	 0.239556798850647 
1251	 0.239628356918713 
1252	 0.239689882518194 
1253	 0.239745037069143 
1254	 0.239797312150692 
1255	 0.239850679322168 
1256	 0.239899000570453 
1257	 0.239936743049327 
1258	 0.239979864005975 
1259	 0.240021848963205 
1260	 0.240069308963537 
1261	 0.240128599281102 
1262	 0.240171053054024 
1263	 0.240202420990572 
1264	 0.240240569923541 
1265	 0.240273720618176 
1266	 0.240305598400278 
1267	 0.240336377939328 
1268	 0.240384938810851 
1269	 0.240415922258258 
1270	 0.240430385121634 
1271	 0.240462293759036 
1272	 0.240494447526297 
1273	 0.240535630854537 
1274	 0.240589022996195 
1275	 0.240637550097175 
1276	 0.24068115908276 
1277	 0.240745509326609 
1278	 0.240816992923714 
1279	 0.240892658311176 
1280	 0.240995875921881 
1281	 0.241079889282989 
1282	 0.241157804780066 
1283	 0.24123378302881 
1284	 0.241309107607554 
1285	 0.241367451185868 
1286	 0.241427093355642 
1287	 0.241498895885607 
1288	 0.241572828658322 
1289	 0.241649313760111 
1290	 0.241728056305694 
1291	 0.241817219354021 
1292	 0.241893460148335 
1293	 0.241969213246529 
1294	 0.242035230731322 
1295	 0.242098437298084 
1296	 0.242150223298824 
1297	 0.242190387159194 
1298	 0.242228106962497 
1299	 0.242254076692568 
1300	 0.242278765208147 
1301	 0.242291423383649 
1302	 0.24231504380755 
1303	 0.24232986597997 
1304	 0.24237198012806 
1305	 0.242424266830694 
1306	 0.242474017656699 
1307	 0.242499982928092 
1308	 0.242485825688147 
1309	 0.242483216282122 
1310	 0.242452144406386 
1311	 0.242437677172964 
1312	 0.242436276296093 
1313	 0.242427681041928 
1314	 0.242412691562967 
1315	 0.242394430362933 
1316	 0.242377441605585 
1317	 0.24235840688954 
1318	 0.242329459764445 
1319	 0.242304865495008 
1320	 0.242296189867689 
1321	 0.242265331820272 
1322	 0.242217030680278 
1323	 0.242175285058861 
1324	 0.24214111639931 
1325	 0.242087513048646 
1326	 0.242037311761492 
1327	 0.241984675234995 
1328	 0.241916151448636 
1329	 0.241862301695275 
1330	 0.241808960584069 
1331	 0.241772145553948 
1332	 0.241716416375355 
1333	 0.241645657016367 
1334	 0.241588886538997 
1335	 0.24153010950631 
1336	 0.241475312484469 
1337	 0.241430394761383 
1338	 0.241386787543067 
1339	 0.241351120889763 
1340	 0.241301616685061 
1341	 0.241251745851308 
1342	 0.24119600146623 
1343	 0.241129591775299 
1344	 0.241050714775713 
1345	 0.240998272973127 
1346	 0.240963144608416 
1347	 0.240908560327701 
1348	 0.240851541992525 
1349	 0.24076672887371 
1350	 0.240648492599485 
1351	 0.240564280760218 
1352	 0.240482881730074 
1353	 0.24041171468224 
1354	 0.240360079478615 
1355	 0.240301306406328 
1356	 0.240239443138111 
1357	 0.240179828222071 
1358	 0.240119643486436 
1359	 0.240067770080122 
1360	 0.240026249400294 
1361	 0.239977680130649 
1362	 0.239935154578265 
1363	 0.239888230476571 
1364	 0.239835437609019 
1365	 0.239776402026595 
1366	 0.239717021073502 
1367	 0.239649294184174 
1368	 0.239585811963298 
1369	 0.23951758786928 
1370	 0.23943032460463 
1371	 0.239347200079977 
1372	 0.239236259905095 
1373	 0.239094224604821 
1374	 0.238951095240524 
1375	 0.238808038862174 
1376	 0.238621474090203 
1377	 0.23842297439704 
1378	 0.238177998789567 
1379	 0.237873414622643 
1380	 0.237583720004173 
1381	 0.237276352690303 
1382	 0.236955555047197 
1383	 0.236647595944073 
1384	 0.236291108817702 
1385	 0.23592368398552 
1386	 0.235498336162729 
1387	 0.235023224016451 
1388	 0.234526732912049 
1389	 0.233998689809237 
1390	 0.233417174100565 
1391	 0.232821316876095 
1392	 0.232207293758096 
1393	 0.231518289950072 
1394	 0.230807509414079 
1395	 0.230054297114042 
1396	 0.229254955940002 
1397	 0.228473641422611 
1398	 0.227673114684626 
1399	 0.226872852425362 
1400	 0.226071104403121 
1401	 0.225277306663784 
1402	 0.224461287996612 
1403	 0.223691898144168 
1404	 0.222939248454019 
1405	 0.222213635570872 
1406	 0.221516155238385 
1407	 0.220831057740073 
1408	 0.220158613790216 
1409	 0.219521741932888 
1410	 0.218892157059795 
1411	 0.218315830012236 
1412	 0.217770197142457 
1413	 0.217277102190969 
1414	 0.216850032508639 
1415	 0.216459441082204 
1416	 0.216130220845764 
1417	 0.215836818019663 
1418	 0.215538910778879 
1419	 0.215270975840345 
1420	 0.215023170219345 
1421	 0.214776674572411 
1422	 0.214560831797664 
1423	 0.214357997473522 
1424	 0.214147456216617 
1425	 0.213934728386667 
1426	 0.213747632634377 
1427	 0.213561347014191 
1428	 0.21340044020561 
1429	 0.213259771956759 
1430	 0.213134131188479 
1431	 0.213023719984208 
1432	 0.212927678113904 
1433	 0.212873522652364 
1434	 0.212797403044362 
1435	 0.212712882007167 
1436	 0.212637730948085 
1437	 0.212543271875537 
1438	 0.212479432964225 
1439	 0.212441481699859 
1440	 0.212408012173853 
1441	 0.212373420019068 
1442	 0.212341386387646 
1443	 0.212295708662658 
1444	 0.212278451822554 
1445	 0.21228512107462 
1446	 0.212285874919345 
1447	 0.212290145603716 
1448	 0.21228926558622 
1449	 0.212272841544872 
1450	 0.212261325665824 
1451	 0.212262980152931 
1452	 0.212267663828332 
1453	 0.212287923926293 
1454	 0.212328663894602 
1455	 0.212359960266241 
1456	 0.212400644043589 
1457	 0.212432674760693 
1458	 0.21244841111959 
1459	 0.212485451758441 
1460	 0.212526632194861 
1461	 0.212580591921368 
1462	 0.212642516135427 
1463	 0.212727067158587 
1464	 0.212839754751972 
1465	 0.212934395925104 
1466	 0.213033965784873 
1467	 0.213141789336096 
1468	 0.213215080172577 
1469	 0.213344934693365 
1470	 0.213517049379366 
1471	 0.213695221710636 
1472	 0.213896861337773 
1473	 0.214124939625451 
1474	 0.214331372128441 
1475	 0.214536975931478 
1476	 0.214735583093592 
1477	 0.214928497063505 
1478	 0.215142240413549 
1479	 0.215362544425084 
1480	 0.215597673068212 
1481	 0.215825059357727 
1482	 0.216049807278451 
1483	 0.216270460398143 
1484	 0.216495922400769 
1485	 0.216721388223883 
1486	 0.216951513346045 
1487	 0.217181446252395 
1488	 0.217412180905274 
1489	 0.217647103378793 
1490	 0.217877191834914 
1491	 0.218112775308587 
1492	 0.218339581198417 
1493	 0.218553876580725 
1494	 0.218780355526499 
1495	 0.219008842154635 
1496	 0.219232869556733 
1497	 0.219477714397671 
1498	 0.219691245285367 
1499	 0.219882462891369 
1500	 0.220078056235789 
1501	 0.220245062440146 
1502	 0.220431608098182 
1503	 0.220636604075446 
1504	 0.220826840147212 
1505	 0.221015739288844 
1506	 0.221218968868811 
1507	 0.221417803848154 
1508	 0.221609774931208 
1509	 0.221785800588631 
1510	 0.22196190072756 
1511	 0.222136477347475 
1512	 0.222308056842278 
1513	 0.222489914521116 
1514	 0.222676847139285 
1515	 0.222853115759743 
1516	 0.223029425177538 
1517	 0.223207995755968 
1518	 0.223394208806496 
1519	 0.223563290362594 
1520	 0.223728959204439 
1521	 0.223885034120992 
1522	 0.224021771212163 
1523	 0.224174597020336 
1524	 0.224331806558736 
1525	 0.224479865999527 
1526	 0.224630575320369 
1527	 0.224780776091939 
1528	 0.224920360219938 
1529	 0.225066316000085 
1530	 0.225221007047396 
1531	 0.225367293950113 
1532	 0.225516188438978 
1533	 0.225650915121618 
1534	 0.225774456719638 
1535	 0.225898640301973 
1536	 0.2260107179922 
1537	 0.226129119262039 
1538	 0.226244701993077 
1539	 0.226372909141636 
1540	 0.226510682052898 
1541	 0.22664023938342 
1542	 0.22678151655931 
1543	 0.226911368486482 
1544	 0.227023944647617 
1545	 0.227146715765677 
1546	 0.227280659378337 
1547	 0.227398059483776 
1548	 0.227512927715608 
1549	 0.227605980087734 
1550	 0.227671384125568 
1551	 0.227741345752658 
1552	 0.227812937541114 
1553	 0.227910777515364 
1554	 0.22802256394384 
1555	 0.228119126864256 
1556	 0.228223428049508 
1557	 0.228312795602889 
1558	 0.228394097160953 
1559	 0.228490306960161 
1560	 0.228576014801543 
1561	 0.228656155053542 
1562	 0.228738624940961 
1563	 0.228816704503478 
1564	 0.228902010617443 
1565	 0.228993155181513 
1566	 0.229075367401736 
1567	 0.229164966364394 
1568	 0.229234453798755 
1569	 0.229283498419104 
1570	 0.229350639003389 
1571	 0.22941615262413 
1572	 0.229479305394217 
1573	 0.229558348298731 
1574	 0.229614810798952 
1575	 0.229649899271335 
1576	 0.229695928429834 
1577	 0.229735301980438 
1578	 0.22978225390105 
1579	 0.229831364030269 
1580	 0.229890333482934 
1581	 0.229960927101045 
1582	 0.230023372789796 
1583	 0.230093145527272 
1584	 0.230153685706197 
1585	 0.230200299527578 
1586	 0.230256725266542 
1587	 0.23031999791674 
1588	 0.230374802895513 
1589	 0.230433471970341 
1590	 0.230481037687579 
1591	 0.230522610422548 
1592	 0.230554496165566 
1593	 0.230564375285858 
1594	 0.230591349917077 
1595	 0.230609325731405 
1596	 0.230644790522991 
1597	 0.230708247795224 
1598	 0.230762195632845 
1599	 0.230826653395207 
1600	 0.230876714314589 
1601	 0.230912126881542 
1602	 0.230952516103684 
1603	 0.230986689220279 
1604	 0.231022862393283 
1605	 0.231065958631278 
1606	 0.231103572588741 
1607	 0.231134996654133 
1608	 0.231173347164872 
1609	 0.231203426218729 
1610	 0.231215562415986 
1611	 0.231234948924507 
1612	 0.231257536779907 
1613	 0.231269984833868 
1614	 0.231301082961051 
1615	 0.231326779421017 
1616	 0.231331779734242 
1617	 0.231364857706923 
1618	 0.231394083184716 
1619	 0.231412900895807 
1620	 0.231448478085633 
1621	 0.23147716457784 
1622	 0.231503846027304 
1623	 0.231521538065589 
1624	 0.231543560780967 
1625	 0.231547130178923 
1626	 0.23152694806249 
1627	 0.231529505410503 
1628	 0.231532068216203 
1629	 0.231542799918766 
1630	 0.23156304786395 
1631	 0.231588418338268 
1632	 0.231620824697045 
1633	 0.231646643613013 
1634	 0.231681145186135 
1635	 0.231703515077376 
1636	 0.231719282840906 
1637	 0.231725965000485 
1638	 0.231722395299812 
1639	 0.231727035169011 
1640	 0.231722619658142 
1641	 0.23173105220967 
1642	 0.2317510615237 
1643	 0.231767598363053 
1644	 0.231787435850988 
1645	 0.231800493369382 
1646	 0.231809258106158 
1647	 0.23182871880225 
1648	 0.231851075684193 
1649	 0.231867955470649 
1650	 0.231894930802352 
1651	 0.231907859360366 
1652	 0.231906032871881 
1653	 0.231909976251467 
1654	 0.231922843077124 
1655	 0.231910260172038 
1656	 0.231884809824313 
1657	 0.231856539317549 
1658	 0.231804256637467 
1659	 0.231771398405743 
1660	 0.231745374529551 
1661	 0.23171873676244 
1662	 0.23169161670134 
1663	 0.231676224294722 
1664	 0.231672411886824 
1665	 0.231658057231635 
1666	 0.231639601021002 
1667	 0.231639157335972 
1668	 0.231645156386669 
1669	 0.231642925369154 
1670	 0.231664685638277 
1671	 0.231654615926437 
1672	 0.231615355910321 
1673	 0.231585091099133 
1674	 0.231544348502715 
1675	 0.23151426307257 
1676	 0.231481514924708 
1677	 0.23146155923558 
1678	 0.231459322163212 
1679	 0.231441022654382 
1680	 0.23142506767946 
1681	 0.231401864186558 
1682	 0.231358968723993 
1683	 0.231336981517147 
1684	 0.231320910044579 
1685	 0.231310352009311 
1686	 0.231327397616904 
1687	 0.231306692068929 
1688	 0.231267703550242 
1689	 0.231236028579649 
1690	 0.231185730719943 
1691	 0.231142489163475 
1692	 0.231109922918459 
1693	 0.231070149038263 
1694	 0.231007990452488 
1695	 0.230979423944623 
1696	 0.230970716855439 
1697	 0.230960381397459 
1698	 0.230975432253632 
1699	 0.230965098815634 
1700	 0.230944622064939 
1701	 0.230921832243582 
1702	 0.230899777421934 
1703	 0.230852881958153 
1704	 0.230791812414376 
1705	 0.230724171652469 
1706	 0.230618977992792 
1707	 0.230550798902342 
1708	 0.230502052449718 
1709	 0.230441747510488 
1710	 0.230390759848475 
1711	 0.230336989819346 
1712	 0.230271647701365 
1713	 0.230219355883942 
1714	 0.230184030924436 
1715	 0.230131399627873 
1716	 0.230067765575596 
1717	 0.230014190345209 
1718	 0.229955329186604 
1719	 0.229909537362824 
1720	 0.229883354290835 
1721	 0.229838767660065 
1722	 0.229789430601379 
1723	 0.229741887281881 
1724	 0.229697232284144 
1725	 0.229632555622657 
1726	 0.229563242442498 
1727	 0.229477219018332 
1728	 0.229355921160374 
1729	 0.229265410129594 
1730	 0.229189723025763 
1731	 0.229101153839341 
1732	 0.22901379012975 
1733	 0.228926144367085 
1734	 0.228835206991991 
1735	 0.228733001130588 
1736	 0.228635502873327 
1737	 0.228526666184452 
1738	 0.228385385358415 
1739	 0.228282268938724 
1740	 0.228194565620079 
1741	 0.22810464811285 
1742	 0.228039827143179 
1743	 0.227947347420728 
1744	 0.227841424707076 
1745	 0.22773332835091 
1746	 0.227609955163075 
1747	 0.227494088429166 
1748	 0.22740389984989 
1749	 0.227290291390232 
1750	 0.227174190161037 
1751	 0.227079945888189 
1752	 0.226952085132861 
1753	 0.226825201878875 
1754	 0.226717675497405 
1755	 0.226590000242492 
1756	 0.226461459975251 
1757	 0.22635526098039 
1758	 0.226236304381031 
1759	 0.226108455474768 
1760	 0.22602056966563 
1761	 0.225947110011234 
1762	 0.225868539142571 
1763	 0.225791120189531 
1764	 0.225686221741469 
1765	 0.225570183873058 
1766	 0.225426098709356 
1767	 0.225263953567458 
1768	 0.225138635246476 
1769	 0.225002185895703 
1770	 0.224910242606369 
1771	 0.224875150186173 
1772	 0.224811476796027 
1773	 0.224750042524296 
1774	 0.224685093597121 
1775	 0.224614298839852 
1776	 0.224511571500535 
1777	 0.224400793134098 
1778	 0.224309850313203 
1779	 0.224186361048822 
1780	 0.224120161143914 
1781	 0.224101031517299 
1782	 0.224061507738686 
1783	 0.224043479294452 
1784	 0.224013546054332 
1785	 0.223977189646899 
1786	 0.22393868599728 
1787	 0.223904723296865 
1788	 0.223861181794223 
1789	 0.223793318732394 
1790	 0.223746294974951 
1791	 0.223708435061448 
1792	 0.223666302189741 
1793	 0.223627561222056 
1794	 0.223594882443942 
1795	 0.223562428495403 
1796	 0.223535595064055 
1797	 0.22354258135434 
1798	 0.223501911824363 
1799	 0.223409775774566 
1800	 0.223373258670004 
1801	 0.217925400144529 
1802	 0.218127645486884 
1803	 0.218328764734285 
1804	 0.218537550580045 
1805	 0.218794617022243 
1806	 0.219034737368467 
1807	 0.219236189220271 
1808	 0.219416547897732 
1809	 0.21959632233947 
1810	 0.21972907820397 
1811	 0.219806114480956 
1812	 0.219906101582919 
1813	 0.219995844211683 
1814	 0.220041652799633 
1815	 0.220097503205583 
1816	 0.220128363291634 
1817	 0.220157391161884 
1818	 0.220164299155959 
1819	 0.220191456714948 
1820	 0.220222175086779 
1821	 0.220253926408284 
1822	 0.220277737462186 
1823	 0.220307200164343 
1824	 0.220342415434843 
1825	 0.22037053734359 
1826	 0.220432480673321 
1827	 0.220483675368003 
1828	 0.220502182099543 
1829	 0.220512546039097 
1830	 0.22049489522495 
1831	 0.220443400775355 
1832	 0.220385573744808 
1833	 0.220299262897204 
1834	 0.220229408225101 
1835	 0.220163548978629 
1836	 0.220073634427168 
1837	 0.220021473120644 
1838	 0.21997379827507 
1839	 0.219928904725814 
1840	 0.219894736647199 
1841	 0.21986458677 
1842	 0.219808069655402 
1843	 0.219751089147949 
1844	 0.21968843343182 
1845	 0.219610880461904 
1846	 0.219530591404226 
1847	 0.219444460799054 
1848	 0.219346059915046 
1849	 0.219249674304949 
1850	 0.219133163201905 
1851	 0.219008722654641 
1852	 0.21887008680522 
1853	 0.218719363238641 
1854	 0.218542874725359 
1855	 0.218380345545397 
1856	 0.218186845741158 
1857	 0.217940903402851 
1858	 0.217678041653284 
1859	 0.217382282173813 
1860	 0.217065782669897 
1861	 0.216729071376847 
1862	 0.216373958077219 
1863	 0.215983663980113 
1864	 0.215556041422379 
1865	 0.215056543913333 
1866	 0.214493754806639 
1867	 0.21391410236404 
1868	 0.213288174789592 
1869	 0.212607470133004 
1870	 0.211908117107241 
1871	 0.211140760420604 
1872	 0.210309714357545 
1873	 0.209427557605321 
1874	 0.208526325249702 
1875	 0.207561456787529 
1876	 0.206545799542548 
1877	 0.205457779113078 
1878	 0.204278831166572 
1879	 0.203016590824908 
1880	 0.201661929994577 
1881	 0.200222684723909 
1882	 0.198694490527803 
1883	 0.197074098196667 
1884	 0.195335336103369 
1885	 0.193568863456751 
1886	 0.191707400482715 
1887	 0.189737755209493 
1888	 0.18775225803038 
1889	 0.185662821725131 
1890	 0.183516973470321 
1891	 0.181399950494146 
1892	 0.179238049052316 
1893	 0.17710324609277 
1894	 0.174972387336334 
1895	 0.172878973804358 
1896	 0.170742402401394 
1897	 0.168694559762057 
1898	 0.166670999598121 
1899	 0.164672276924754 
1900	 0.162810256048694 
1901	 0.160987427971278 
1902	 0.159260140077303 
1903	 0.157642875413633 
1904	 0.156097064267461 
1905	 0.154610110067565 
1906	 0.153233542379706 
1907	 0.151960742402215 
1908	 0.150750259193231 
1909	 0.149632538204165 
1910	 0.148587809743463 
1911	 0.147615880603827 
1912	 0.146719744594168 
1913	 0.14588217577581 
1914	 0.145118006246715 
1915	 0.144407115175731 
1916	 0.143762673086462 
1917	 0.143163662900646 
1918	 0.142608305645437 
1919	 0.142102159896171 
1920	 0.141658905545094 
1921	 0.141228689559333 
1922	 0.140866754093448 
1923	 0.140581140400375 
1924	 0.140324428851244 
1925	 0.140128308366108 
1926	 0.139955568933083 
1927	 0.139826449624101 
1928	 0.139709278645599 
1929	 0.139624357176504 
1930	 0.139564539380878 
1931	 0.139548766388472 
1932	 0.139571811317309 
1933	 0.139617399923117 
1934	 0.139692635636907 
1935	 0.1397862689213 
1936	 0.139905791981884 
1937	 0.140033503509118 
1938	 0.140171295747308 
1939	 0.140343287700892 
1940	 0.140542678253 
1941	 0.140741434292975 
1942	 0.140976495720166 
1943	 0.141246422480671 
1944	 0.141524753792319 
1945	 0.141832991527927 
1946	 0.142143722896901 
1947	 0.142471770292367 
1948	 0.142809837707619 
1949	 0.143156343306817 
1950	 0.143509864141222 
1951	 0.143867809579895 
1952	 0.144263189462661 
1953	 0.144654301063279 
1954	 0.145046316547834 
1955	 0.1454581401041 
1956	 0.145868854987874 
1957	 0.146297229772444 
1958	 0.14673079871753 
1959	 0.147184485870587 
1960	 0.147667385214415 
1961	 0.148138140069079 
1962	 0.148621461312797 
1963	 0.149101171768905 
1964	 0.149570231359784 
1965	 0.150053698271007 
1966	 0.150553423422754 
1967	 0.151032114485435 
1968	 0.151533339892089 
1969	 0.152059640831324 
1970	 0.152562269522682 
1971	 0.153066144693633 
1972	 0.153564540423276 
1973	 0.154038311241154 
1974	 0.154533380035541 
1975	 0.155031119181056 
1976	 0.155539663673734 
1977	 0.156081335907862 
1978	 0.156618994440912 
1979	 0.15713945823254 
1980	 0.157664717943929 
1981	 0.158166903462658 
1982	 0.158614116466749 
1983	 0.159122183029385 
1984	 0.159650125063599 
1985	 0.160180054450102 
1986	 0.160764623187119 
1987	 0.161302567198598 
1988	 0.161811410425844 
1989	 0.162325347797646 
1990	 0.162844912737965 
1991	 0.163344272975733 
1992	 0.163854953054793 
1993	 0.164384814456795 
1994	 0.164889639935203 
1995	 0.165372562108994 
1996	 0.165872651357843 
1997	 0.166370859476946 
1998	 0.166878132323312 
1999	 0.167410269676353 
2000	 0.16791423794817 
2001	 0.168411051959616 
2002	 0.168895139711751 
2003	 0.169378695457259 
2004	 0.169861332937969 
2005	 0.170337823489962 
2006	 0.170821708057595 
2007	 0.171293881104373 
2008	 0.171738409498908 
2009	 0.172210338292499 
2010	 0.172714058965905 
2011	 0.173181834453636 
2012	 0.173646653501755 
2013	 0.174099222688803 
2014	 0.174519947285631 
2015	 0.174940423025339 
2016	 0.175383594391616 
2017	 0.175823297783765 
2018	 0.176272911256223 
2019	 0.176745951847289 
2020	 0.177191226360526 
2021	 0.177629520075978 
2022	 0.178064282943235 
2023	 0.178474392736203 
2024	 0.178902671669116 
2025	 0.17934946694885 
2026	 0.179779442027477 
2027	 0.180212502703575 
2028	 0.180637325570819 
2029	 0.181042851854396 
2030	 0.181435348855986 
2031	 0.181807887950869 
2032	 0.182144715349249 
2033	 0.18251729762698 
2034	 0.182892749081742 
2035	 0.183260244424014 
2036	 0.183654595999285 
2037	 0.184019463076263 
2038	 0.184353267990412 
2039	 0.184692344102066 
2040	 0.185023598708915 
2041	 0.185356445658696 
2042	 0.18569753474646 
2043	 0.186026713122787 
2044	 0.186353642829139 
2045	 0.18668472371939 
2046	 0.187003654893547 
2047	 0.187306268908762 
2048	 0.187617460166103 
2049	 0.187934706391257 
2050	 0.188239462194498 
2051	 0.188534042385932 
2052	 0.18883324888526 
2053	 0.189128361255591 
2054	 0.189421230658962 
2055	 0.189714330374997 
2056	 0.190010699701196 
2057	 0.190303390769282 
2058	 0.190585666673404 
2059	 0.190880318259697 
2060	 0.191197479292574 
2061	 0.191478616188576 
2062	 0.191740863385201 
2063	 0.192014297183985 
2064	 0.192271948671076 
2065	 0.192531610092023 
2066	 0.192805115098277 
2067	 0.19306983179789 
2068	 0.193309912447025 
2069	 0.193566298377733 
2070	 0.193836724018926 
2071	 0.194130206007705 
2072	 0.194386021535075 
2073	 0.194633330674037 
2074	 0.194889973597973 
2075	 0.195130748179803 
2076	 0.195378363609148 
2077	 0.195647767816629 
2078	 0.195897829386323 
2079	 0.196117408158471 
2080	 0.196358637455061 
2081	 0.196617421528539 
2082	 0.196864388595617 
2083	 0.19711526534623 
2084	 0.197361202932432 
2085	 0.197598827796682 
2086	 0.197818737024631 
2087	 0.198056847979961 
2088	 0.198303164264281 
2089	 0.198539671072699 
2090	 0.198781698158793 
2091	 0.199012393627945 
2092	 0.199236331467977 
2093	 0.199450788853915 
2094	 0.199652830351376 
2095	 0.199860196858049 
2096	 0.200052573195964 
2097	 0.200257670443817 
2098	 0.200463572540243 
2099	 0.200689519475472 
2100	 0.200911032744044 
2101	 0.201141602098062 
2102	 0.201362305979235 
2103	 0.201587850644831 
2104	 0.201799387212625 
2105	 0.201994655396994 
2106	 0.202203013142962 
2107	 0.202404358899652 
2108	 0.202618526982434 
2109	 0.202850162997526 
2110	 0.203072928342102 
2111	 0.203296502876734 
2112	 0.203519616324469 
2113	 0.203737531457324 
2114	 0.203963352343463 
2115	 0.204177741284502 
2116	 0.204383885508247 
2117	 0.204607911263779 
2118	 0.204840263455236 
2119	 0.20505362286005 
2120	 0.20526992085381 
2121	 0.205484677231952 
2122	 0.205683758051141 
2123	 0.205886371838584 
2124	 0.206119584504142 
2125	 0.206307364202118 
2126	 0.206465366972391 
2127	 0.206617608498156 
2128	 0.206726162310073 
2129	 0.206860184968721 
2130	 0.207013609506744 
2131	 0.207146153905987 
2132	 0.207277696899743 
2133	 0.207429395361827 
2134	 0.207532490427087 
2135	 0.207603180112731 
2136	 0.2076756882186 
2137	 0.20772152132106 
2138	 0.207775432616028 
2139	 0.207822681901844 
2140	 0.207877109549562 
2141	 0.207951131556094 
2142	 0.207988778513692 
2143	 0.20801994585325 
2144	 0.208031408902498 
2145	 0.208006345188972 
2146	 0.207980029939015 
2147	 0.207943777265149 
2148	 0.207898094233205 
2149	 0.207861125093801 
2150	 0.207822161484985 
2151	 0.207770312581727 
2152	 0.207729441173235 
2153	 0.207660265239651 
2154	 0.207561228546572 
2155	 0.207469368466558 
2156	 0.207373474502698 
2157	 0.20726559526622 
2158	 0.207151799226432 
2159	 0.207030832473617 
2160	 0.20689208595139 
2161	 0.206757209897572 
2162	 0.206614101689732 
2163	 0.206477034484063 
2164	 0.20632871899526 
2165	 0.206214827968438 
2166	 0.206074063479764 
2167	 0.205929743821337 
2168	 0.205788029849544 
2169	 0.205638100056552 
2170	 0.205490276829424 
2171	 0.205354439141643 
2172	 0.205201806146386 
2173	 0.205032062886794 
2174	 0.204874494638449 
2175	 0.204721822243067 
2176	 0.204557291660609 
2177	 0.204398676845967 
2178	 0.204223109510314 
2179	 0.204028910238622 
2180	 0.203834975642685 
2181	 0.20363884410386 
2182	 0.203431880394842 
2183	 0.203222596593429 
2184	 0.20299244471077 
2185	 0.20276508780057 
2186	 0.202516926414086 
2187	 0.202296432263995 
2188	 0.202078086231182 
2189	 0.201875664801288 
2190	 0.201689597000519 
2191	 0.201512107899411 
2192	 0.201351694230237 
2193	 0.201184577661929 
2194	 0.201018171918706 
2195	 0.200864608811522 
2196	 0.200702480643907 
2197	 0.20056906258411 
2198	 0.200443761048331 
2199	 0.200354188872362 
2200	 0.200311097749291 
2201	 0.200259272912903 
2202	 0.200215977920543 
2203	 0.20020581603284 
2204	 0.200191844136773 
2205	 0.200162901928305 
2206	 0.200180949697696 
2207	 0.200248472298283 
2208	 0.200276255526027 
2209	 0.200305195430146 
2210	 0.200341413894976 
2211	 0.200357853035669 
2212	 0.200398499313575 
2213	 0.200463724922963 
2214	 0.200529487995851 
2215	 0.200616145092062 
2216	 0.200669917655243 
2217	 0.200718800464596 
2218	 0.200764119480491 
2219	 0.200770770158964 
2220	 0.200804523748238 
2221	 0.200885586878023 
2222	 0.200906408215694 
2223	 0.200940907859533 
2224	 0.200973900811286 
2225	 0.201005872532459 
2226	 0.201018969795244 
2227	 0.201068797821422 
2228	 0.201144303227023 
2229	 0.201198705800737 
2230	 0.201272189069367 
2231	 0.201310121153588 
2232	 0.201320201753478 
2233	 0.20133545914067 
2234	 0.201352601413397 
2235	 0.201340119793187 
2236	 0.201307923950849 
2237	 0.201272656024289 
2238	 0.201199539365639 
2239	 0.201151836064001 
2240	 0.201114497217997 
2241	 0.201077069009678 
2242	 0.201056349912344 
2243	 0.201020278463274 
2244	 0.200980571481375 
2245	 0.20093642829238 
2246	 0.200873686340356 
2247	 0.200804817583443 
2248	 0.200734661591712 
2249	 0.200649894553137 
2250	 0.20058910849574 
2251	 0.200544165825773 
2252	 0.200474101155233 
2253	 0.200408338873979 
2254	 0.200321312567565 
2255	 0.200190986545821 
2256	 0.200109564597836 
2257	 0.200030620848956 
2258	 0.199985713250261 
2259	 0.200003364453957 
2260	 0.1999718421226 
2261	 0.199928616486756 
2262	 0.199896663865391 
2263	 0.199846272745868 
2264	 0.199797355682337 
2265	 0.199762947983885 
2266	 0.19973016359332 
2267	 0.199683755693121 
2268	 0.199649338784473 
2269	 0.199633077750155 
2270	 0.199614864978647 
2271	 0.199577908712128 
2272	 0.199562171385412 
2273	 0.199557448420286 
2274	 0.199539294810046 
2275	 0.199518343901904 
2276	 0.199501437719074 
2277	 0.199474648956852 
2278	 0.19941956381135 
2279	 0.19940838568576 
2280	 0.199411809528998 
2281	 0.199422384436644 
2282	 0.199487480218026 
2283	 0.199491468444928 
2284	 0.19947435281802 
2285	 0.199439605840642 
2286	 0.199342064132989 
2287	 0.199293902494432 
2288	 0.199265021998425 
2289	 0.1992313373623 
2290	 0.199240480690301 
2291	 0.199203794770152 
2292	 0.199107407293026 
2293	 0.199057195942672 
2294	 0.199024568550437 
2295	 0.198967092432318 
2296	 0.198916262307961 
2297	 0.198882898028335 
2298	 0.198779640919483 
2299	 0.198704671561699 
2300	 0.198650928718943 
2301	 0.19856090649403 
2302	 0.198484046425629 
2303	 0.198437212195963 
2304	 0.198361247309593 
2305	 0.198306572483103 
2306	 0.198238192125448 
2307	 0.198175878935161 
2308	 0.198054640544732 
2309	 0.197901796466997 
2310	 0.197764700396168 
2311	 0.197584683892033 
2312	 0.197446886714451 
2313	 0.197330561105454 
2314	 0.197226985989037 
2315	 0.197160703464441 
2316	 0.197045716938447 
2317	 0.196947422554972 
2318	 0.196793124814955 
2319	 0.196529951801446 
2320	 0.196359217178379 
2321	 0.196213224086011 
2322	 0.196075237258229 
2323	 0.19600009008344 
2324	 0.195897646488415 
2325	 0.195768533422687 
2326	 0.195647623765202 
2327	 0.195522294988757 
2328	 0.195434509190929 
2329	 0.195302682956582 
2330	 0.195188792000116 
2331	 0.195063946940557 
2332	 0.194865741074176 
2333	 0.194636543571967 
2334	 0.194488165960793 
2335	 0.194403720888682 
2336	 0.194280351670289 
2337	 0.194227769204884 
2338	 0.194158795560206 
2339	 0.193997870222405 
2340	 0.193848221504259 
2341	 0.193648931915279 
2342	 0.193452794360933 
2343	 0.193318252097901 
2344	 0.193162719564249 
2345	 0.193003096028366 
2346	 0.192869278203062 
2347	 0.192704037574602 
2348	 0.192504253938706 
2349	 0.192322592546864 
2350	 0.192156584241193 
2351	 0.19196023734323 
2352	 0.191736990310973 
2353	 0.191519844061302 
2354	 0.191288630081536 
2355	 0.191060654106345 
2356	 0.190842312242052 
2357	 0.19061740750929 
2358	 0.190383691004332 
2359	 0.190158774737599 
2360	 0.189935830590328 
2361	 0.18970626210827 
2362	 0.189450605079782 
2363	 0.189244166663538 
2364	 0.189071983094254 
2365	 0.188883180055637 
2366	 0.188758474204477 
2367	 0.188549112675224 
2368	 0.188260119703763 
2369	 0.188005094281704 
2370	 0.187718410711743 
2371	 0.18747040877427 
2372	 0.187224823373654 
2373	 0.186883165343821 
2374	 0.186553786556421 
2375	 0.18622125497067 
2376	 0.185887160579617 
2377	 0.185670412443604 
2378	 0.18541112177616 
2379	 0.185137647412281 
2380	 0.18489230282157 
2381	 0.18463310518442 
2382	 0.184425492425534 
2383	 0.184194339794273 
2384	 0.183990739273152 
2385	 0.183752457708358 
2386	 0.183391670326057 
2387	 0.183059014424388 
2388	 0.182682706512885 
2389	 0.182322072815754 
2390	 0.182104125210809 
2391	 0.181822239092835 
2392	 0.181473971094192 
2393	 0.18113918026061 
2394	 0.180767020372603 
2395	 0.180390449169143 
2396	 0.180104830435011 
2397	 0.179834874488523 
2398	 0.179521731845516 
2399	 0.179249029676079 
2400	 0.178933200272665 
2401	 0.178562709110105 
2402	 0.178141712305196 
2403	 0.177754505895633 
2404	 0.177480611914335 
2405	 0.17722954375581 
2406	 0.176960018527956 
2407	 0.176634618741685 
2408	 0.176239091065778 
2409	 0.175764408941207 
2410	 0.175337700457493 
2411	 0.175052198809245 
2412	 0.174745160004626 
2413	 0.174432176113571 
2414	 0.174124193441207 
2415	 0.173780820168333 
2416	 0.173471820472363 
2417	 0.173164759302981 
2418	 0.172839585166764 
2419	 0.172539955439706 
2420	 0.17220409570707 
2421	 0.171878413218697 
2422	 0.171510084978374 
2423	 0.17110840721533 
2424	 0.170715133039216 
2425	 0.170218358848972 
2426	 0.169809072365629 
2427	 0.16952599545907 
2428	 0.169120208870211 
2429	 0.168646897266539 
2430	 0.168227280805932 
2431	 0.167731411243522 
2432	 0.167297365196886 
2433	 0.166993370751933 
2434	 0.166633334610829 
2435	 0.166212760317939 
2436	 0.165929302157289 
2437	 0.165726525108083 
2438	 0.165414108673866 
2439	 0.165164183441862 
2440	 0.164828537567823 
2441	 0.164400829621702 
2442	 0.16394172202485 
2443	 0.163386296689153 
2444	 0.162918529379037 
2445	 0.162399725173532 
2446	 0.161966140430521 
2447	 0.161727888873648 
2448	 0.161415173122505 
2449	 0.160984691329267 
2450	 0.16067060060689 
2451	 0.160467998885062 
2452	 0.160137460452242 
2453	 0.15984394692815 
2454	 0.1595261282942 
2455	 0.159088113164259 
2456	 0.158698759172744 
2457	 0.158375172532353 
2458	 0.157956883643808 
2459	 0.157405080066527 
2460	 0.157065653040782 
2461	 0.156840292231496 
2462	 0.156491717024905 
2463	 0.15618735284804 
2464	 0.155847327208639 
2465	 0.155380147474625 
2466	 0.154949151744889 
2467	 0.154629564741246 
2468	 0.154269924606879 
2469	 0.15379464821334 
2470	 0.153529136141941 
2471	 0.153280381018135 
2472	 0.153069369362731 
2473	 0.152997421484383 
2474	 0.152898074650728 
2475	 0.152460582225733 
2476	 0.152180706789746 
2477	 0.151845260090564 
2478	 0.151182788163449 
2479	 0.15089386448128 
2480	 0.150567842947533 
2481	 0.150037818314505 
2482	 0.149839329569115 
2483	 0.14961284691652 
2484	 0.149291612148479 
2485	 0.149028111901579 
2486	 0.148689680260464 
2487	 0.148463976970385 
2488	 0.148356702193179 
2489	 0.148054454407448 
2490	 0.147537131128647 
2491	 0.147132472982889 
2492	 0.146780108492418 
2493	 0.146532750989369 
2494	 0.146584939647285 
2495	 0.146366643316293 
2496	 0.146047857309441 
2497	 0.145817111889638 
2498	 0.145400970546052 
2499	 0.145206159523294 
2500	 0.145085956106324 
