Wavelength	mm2500006.asd
350	 4.41141167240157E-02 
351	 4.42766893327639E-02 
352	 4.53962508089925E-02 
353	 4.12756721068552E-02 
354	 4.36442598813889E-02 
355	 0.043789223202873 
356	 4.18543141062613E-02 
357	 4.10369688177532E-02 
358	 4.76170191150319E-02 
359	 4.79367005420428E-02 
360	 4.43824936937582E-02 
361	 4.81570356158026E-02 
362	 4.37962008405917E-02 
363	 0.0429281080041 
364	 4.81614367605225E-02 
365	 4.31181581501822E-02 
366	 4.04071572031462E-02 
367	 4.20209236975391E-02 
368	 0.045545068331573 
369	 4.42309399639065E-02 
370	 4.40175041622063E-02 
371	 4.40557415869625E-02 
372	 3.99708967765561E-02 
373	 4.62278753779519E-02 
374	 5.02736587541112E-02 
375	 4.63964228859775E-02 
376	 4.63053294374396E-02 
377	 4.65638884080575E-02 
378	 4.70929766943562E-02 
379	 4.81996646330906E-02 
380	 4.88634971678784E-02 
381	 4.71271073171665E-02 
382	 4.56278408231521E-02 
383	 4.94518950259449E-02 
384	 4.99211979106378E-02 
385	 4.76624035164437E-02 
386	 4.59360559698786E-02 
387	 5.08181779891868E-02 
388	 5.00441804817691E-02 
389	 4.75027625438814E-02 
390	 4.98363220913987E-02 
391	 5.01662403906527E-02 
392	 4.99761328812786E-02 
393	 5.05748230112582E-02 
394	 5.26363192643147E-02 
395	 5.47785650166531E-02 
396	 0.054493879835977 
397	 5.21235102045883E-02 
398	 5.45319541157546E-02 
399	 5.53255861680392E-02 
400	 5.52198806882758E-02 
401	 5.66657673598485E-02 
402	 5.62190635866759E-02 
403	 5.60960189935313E-02 
404	 0.056548945506112 
405	 5.56440161583979E-02 
406	 0.05636937843139 
407	 5.76734374731325E-02 
408	 5.81118054935559E-02 
409	 5.72601991221433E-02 
410	 5.62100207570983E-02 
411	 5.60099251582126E-02 
412	 5.72697757519496E-02 
413	 5.82451490160108E-02 
414	 5.82015422167859E-02 
415	 5.74646422460241E-02 
416	 5.75047442628046E-02 
417	 5.69498388444439E-02 
418	 5.69532560247372E-02 
419	 5.83330062397256E-02 
420	 5.90199896473627E-02 
421	 5.82694951103608E-02 
422	 5.72224720564814E-02 
423	 5.79157334489513E-02 
424	 5.83758585022613E-02 
425	 0.05802246382111 
426	 5.71469434353886E-02 
427	 5.72228037395794E-02 
428	 5.72171017812226E-02 
429	 5.70895671363989E-02 
430	 5.70832583717721E-02 
431	 5.72776633292494E-02 
432	 5.72536427385074E-02 
433	 5.70400656280831E-02 
434	 5.70846311399908E-02 
435	 0.056825597557797 
436	 5.67552889759951E-02 
437	 0.05713455819462 
438	 5.70702992961086E-02 
439	 0.05731282392031 
440	 5.77244309016063E-02 
441	 5.77990213301344E-02 
442	 5.79287542427748E-02 
443	 5.80603711598062E-02 
444	 5.81301251436965E-02 
445	 5.81249928802657E-02 
446	 5.80509900456514E-02 
447	 5.79603671655785E-02 
448	 5.79297946739757E-02 
449	 5.80886404115364E-02 
450	 5.81844545289624E-02 
451	 5.82927248262706E-02 
452	 0.058728297784605 
453	 0.058789795111694 
454	 5.85064071329243E-02 
455	 0.058215510615274 
456	 5.87307223733468E-02 
457	 5.88509823435497E-02 
458	 5.86265650177632E-02 
459	 5.86366033936885E-02 
460	 5.87158929967126E-02 
461	 5.86402996596921E-02 
462	 5.84935677519611E-02 
463	 5.87999126473465E-02 
464	 5.89222021041924E-02 
465	 5.89888969946317E-02 
466	 5.91899665693069E-02 
467	 5.90575989788954E-02 
468	 5.89322901342353E-02 
469	 5.88842484332868E-02 
470	 5.87749926930154E-02 
471	 5.90488051963179E-02 
472	 5.93132463071572E-02 
473	 5.92591404041545E-02 
474	 5.90758301470527E-02 
475	 5.89348048824482E-02 
476	 5.89259975592625E-02 
477	 5.90469792719267E-02 
478	 5.90389209235523E-02 
479	 0.058960456558993 
480	 5.89023211999566E-02 
481	 5.89547994781783E-02 
482	 5.90065944585522E-02 
483	 5.91144574216153E-02 
484	 5.93191705309586E-02 
485	 5.94463121224793E-02 
486	 5.93375758804592E-02 
487	 5.90779663686627E-02 
488	 5.89569680471107E-02 
489	 5.92217448726205E-02 
490	 5.94344786655348E-02 
491	 5.93287395900494E-02 
492	 0.059360008224547 
493	 5.92995012817136E-02 
494	 5.92161654696206E-02 
495	 5.92705511960936E-02 
496	 5.92301259432762E-02 
497	 5.91760063188629E-02 
498	 5.91814713763529E-02 
499	 5.92680100565868E-02 
500	 5.92835356345427E-02 
501	 5.92713258042135E-02 
502	 5.93123079044584E-02 
503	 5.93635142235396E-02 
504	 5.94468044546639E-02 
505	 5.95391890131974E-02 
506	 5.95771417897962E-02 
507	 5.95297207038661E-02 
508	 5.94781781550692E-02 
509	 5.94797285905061E-02 
510	 5.94679182533061E-02 
511	 5.94671906537202E-02 
512	 5.94499628333548E-02 
513	 5.93869023848243E-02 
514	 5.94958065158641E-02 
515	 5.95632788209773E-02 
516	 0.059525027909107 
517	 5.96642298224606E-02 
518	 5.96408321133636E-02 
519	 5.95529393544506E-02 
520	 5.95984479771464E-02 
521	 5.96887026201861E-02 
522	 5.97952334871475E-02 
523	 5.98350021552858E-02 
524	 5.96740048851866E-02 
525	 5.96944003894408E-02 
526	 5.97553547336471E-02 
527	 5.97024006668625E-02 
528	 5.97297633689925E-02 
529	 5.98242868613102E-02 
530	 5.99023973330505E-02 
531	 5.98559036286516E-02 
532	 5.98721475587745E-02 
533	 5.99239290456277E-02 
534	 5.99666324561238E-02 
535	 0.059985854243505 
536	 5.99996822287607E-02 
537	 6.00507285212717E-02 
538	 6.01671329054823E-02 
539	 6.02207760726546E-02 
540	 6.02509893296567E-02 
541	 6.02925877505357E-02 
542	 6.03544756284075E-02 
543	 6.04469422378705E-02 
544	 6.05148040078174E-02 
545	 6.05254726153238E-02 
546	 6.06050844582814E-02 
547	 0.060714611985958 
548	 6.08103839380503E-02 
549	 6.08534130117359E-02 
550	 6.08895841056751E-02 
551	 6.09436807364262E-02 
552	 6.10366584852177E-02 
553	 6.12092270752424E-02 
554	 6.12940508436864E-02 
555	 6.13417721050132E-02 
556	 6.14989206233363E-02 
557	 6.16229267023371E-02 
558	 6.17563112116229E-02 
559	 6.19417782962155E-02 
560	 6.21977514858021E-02 
561	 6.23538447821847E-02 
562	 6.24863748640873E-02 
563	 6.27241860296112E-02 
564	 6.29509080882905E-02 
565	 6.32077050357789E-02 
566	 6.34739749253803E-02 
567	 6.36547138374425E-02 
568	 6.39450373747506E-02 
569	 6.42821992673659E-02 
570	 6.45868590973859E-02 
571	 6.49503221829101E-02 
572	 6.53119191336175E-02 
573	 6.56661652425623E-02 
574	 6.60481414317387E-02 
575	 6.64799177482429E-02 
576	 6.68860286513902E-02 
577	 6.72437170005478E-02 
578	 6.76786466421437E-02 
579	 6.81264782345832E-02 
580	 6.86008071804454E-02 
581	 6.91339076557404E-02 
582	 6.96564723420672E-02 
583	 7.02000004355865E-02 
584	 7.07595050846162E-02 
585	 7.12667225733895E-02 
586	 0.07183080575764 
587	 7.24279862008928E-02 
588	 7.30151967080735E-02 
589	 7.36601438787883E-02 
590	 7.42723526859136E-02 
591	 0.074842240509632 
592	 7.54397536811508E-02 
593	 7.60702481761043E-02 
594	 0.076704874499713 
595	 7.73088361649483E-02 
596	 7.78415918447903E-02 
597	 7.84482551824272E-02 
598	 7.91280282029385E-02 
599	 7.97982622113863E-02 
600	 8.04242716548875E-02 
601	 8.10148360997631E-02 
602	 8.15808820839516E-02 
603	 8.21290404693701E-02 
604	 8.26306479227227E-02 
605	 8.31236925102771E-02 
606	 8.36544530937592E-02 
607	 8.41766336860792E-02 
608	 8.46615037062943E-02 
609	 8.51036540834286E-02 
610	 8.55243884218075E-02 
611	 8.60072445398266E-02 
612	 8.64735218415106E-02 
613	 8.68488033188041E-02 
614	 8.72257608961074E-02 
615	 8.75498018610482E-02 
616	 0.087835586586813 
617	 8.81435338239474E-02 
618	 8.84920984184985E-02 
619	 8.87772176224389E-02 
620	 8.89735260952813E-02 
621	 8.92684680146852E-02 
622	 8.95078487027098E-02 
623	 8.97182495478302E-02 
624	 8.99813276957049E-02 
625	 9.02393267589996E-02 
626	 9.04467068611287E-02 
627	 9.06202425574288E-02 
628	 9.08558444893513E-02 
629	 9.10544425788594E-02 
630	 9.12177029098573E-02 
631	 9.13771084169623E-02 
632	 9.15649176296765E-02 
633	 9.17347360451906E-02 
634	 9.18851110547578E-02 
635	 0.092052524662954 
636	 9.22385748117711E-02 
637	 9.24245208860014E-02 
638	 9.25956442074102E-02 
639	 9.27543658616261E-02 
640	 9.29260149256167E-02 
641	 0.09313348222566 
642	 0.093377815802498 
643	 9.35245912503465E-02 
644	 9.36650073225078E-02 
645	 9.38437715819747E-02 
646	 9.40056264810994E-02 
647	 9.41661521016811E-02 
648	 0.094356055538385 
649	 9.45944954117647E-02 
650	 9.48383923417974E-02 
651	 9.50508074891105E-02 
652	 9.52372972225719E-02 
653	 9.54399412670385E-02 
654	 9.56572849210703E-02 
655	 9.58803351883239E-02 
656	 9.61025832877275E-02 
657	 9.63274741634969E-02 
658	 9.65575155153661E-02 
659	 9.68103860932103E-02 
660	 9.70982355171659E-02 
661	 9.73417998276478E-02 
662	 9.75753631152321E-02 
663	 9.78365390774819E-02 
664	 9.81526821153959E-02 
665	 9.84168218274129E-02 
666	 9.86628026986857E-02 
667	 9.89489473779903E-02 
668	 9.92468196066098E-02 
669	 9.95549499180881E-02 
670	 9.98721364323292E-02 
671	 0.100194895785497 
672	 0.100486816839095 
673	 0.100801251989377 
674	 0.101166652347493 
675	 0.101518954561625 
676	 0.101857031632752 
677	 0.102204587836515 
678	 0.102587183570908 
679	 0.10294039117834 
680	 0.103319000409969 
681	 0.103724650599318 
682	 0.104077228112136 
683	 0.10448467245508 
684	 0.1049050865128 
685	 0.105287885941791 
686	 0.105700698545603 
687	 0.106119357657285 
688	 0.106550766000279 
689	 0.107017287809451 
690	 0.107450310332408 
691	 0.107884893931003 
692	 0.108340173503812 
693	 0.10877237443815 
694	 0.109202053291576 
695	 0.109663826576057 
696	 0.110176527902064 
697	 0.110641963754759 
698	 0.111109196185315 
699	 0.111598386803046 
700	 0.112090031755876 
701	 0.112624772548086 
702	 0.113124176307251 
703	 0.11354874580618 
704	 0.114035488155902 
705	 0.114528168939791 
706	 0.115014122598981 
707	 0.115505446303566 
708	 0.116039512469684 
709	 0.116550754181517 
710	 0.11702188220287 
711	 0.117521686293595 
712	 0.118002079563591 
713	 0.118468230022228 
714	 0.118942852060144 
715	 0.119459711681788 
716	 0.119947379460427 
717	 0.120400310406306 
718	 0.120862565337337 
719	 0.121337521964606 
720	 0.121757910376479 
721	 0.122121134547298 
722	 0.122572433111597 
723	 0.122998030190539 
724	 0.12339632800708 
725	 0.123798666273639 
726	 0.124205087746335 
727	 0.124568390750835 
728	 0.124887955709176 
729	 0.125207214547863 
730	 0.125514551940214 
731	 0.125816792077418 
732	 0.126117064293445 
733	 0.126405566227188 
734	 0.126683328340454 
735	 0.126915962733189 
736	 0.127074168227283 
737	 0.127245077737584 
738	 0.127413642936548 
739	 0.127570811734966 
740	 0.127722509741102 
741	 0.127878427448889 
742	 0.127984160359979 
743	 0.128017481514036 
744	 0.128080150536894 
745	 0.128094401417511 
746	 0.128093072519562 
747	 0.128138494110712 
748	 0.128111479232666 
749	 0.128034215601845 
750	 0.127965543737237 
751	 0.12798755053323 
752	 0.127913053275173 
753	 0.127774693923275 
754	 0.127643554608405 
755	 0.127539149051469 
756	 0.127431991127973 
757	 0.127273401835618 
758	 0.127034566622837 
759	 0.126896244813991 
760	 0.126725460896793 
761	 0.12647601347285 
762	 0.126246893496965 
763	 0.126053341356256 
764	 0.125850623159141 
765	 0.125598224873463 
766	 0.12530614981539 
767	 0.125086885813515 
768	 0.124873479585668 
769	 0.12453714680211 
770	 0.124227282884886 
771	 0.123949041915315 
772	 0.12368170377424 
773	 0.123390908278357 
774	 0.123094462087974 
775	 0.12278501962324 
776	 0.122467119208896 
777	 0.122197536552534 
778	 0.121877454067595 
779	 0.121545082199486 
780	 0.121277414090823 
781	 0.120961826610887 
782	 0.120629145182487 
783	 0.120301729386128 
784	 0.119981802365382 
785	 0.119661960601505 
786	 0.119373615338374 
787	 0.119116943976841 
788	 0.118797727752131 
789	 0.118512735211299 
790	 0.118217202622179 
791	 0.117853673673016 
792	 0.117587739344433 
793	 0.117308037282363 
794	 0.116995273582988 
795	 0.116716250208641 
796	 0.11640068098428 
797	 0.116116015621874 
798	 0.115879867510855 
799	 0.115582656475978 
800	 0.115276755339194 
801	 0.114991160143862 
802	 0.11474229128239 
803	 0.114526063783164 
804	 0.114305863841736 
805	 0.11405940670589 
806	 0.113781732579901 
807	 0.113499112885333 
808	 0.113273431509493 
809	 0.113083601583255 
810	 0.112802532791815 
811	 0.112552695085985 
812	 0.11232103044417 
813	 0.112086894182076 
814	 0.111896342875748 
815	 0.111713339054887 
816	 0.111517774490174 
817	 0.111305135935223 
818	 0.111109117843009 
819	 0.110935910015585 
820	 0.110761954798749 
821	 0.110549245473834 
822	 0.110379881707256 
823	 0.110219254781949 
824	 0.110044431196043 
825	 0.109880200575267 
826	 0.109746117707834 
827	 0.109618675947303 
828	 0.109479778123542 
829	 0.109380357009572 
830	 0.109193480775112 
831	 0.108973261104672 
832	 0.108846383583288 
833	 0.108778938588839 
834	 0.108695431459694 
835	 0.108576538978356 
836	 0.108459976447362 
837	 0.108334309907398 
838	 0.108248664893612 
839	 0.108206485351496 
840	 0.10812222417664 
841	 0.1079776278495 
842	 0.107871530613359 
843	 0.107866129769549 
844	 0.107803461775523 
845	 0.107741803363095 
846	 0.107696169697647 
847	 0.10766261941486 
848	 0.107649401063937 
849	 0.107607845047363 
850	 0.107525987735018 
851	 0.107436107241167 
852	 0.10745427911176 
853	 0.107450961821288 
854	 0.107396931570213 
855	 0.107455305277307 
856	 0.107481626043258 
857	 0.10746187461826 
858	 0.107428823645645 
859	 0.107449586966393 
860	 0.107488032083261 
861	 0.107527144822529 
862	 0.107551447811178 
863	 0.107521550308068 
864	 0.107540444832317 
865	 0.107604944135841 
866	 0.107647845110793 
867	 0.107685653874219 
868	 0.10772682054649 
869	 0.107779555741731 
870	 0.107850549900116 
871	 0.107937405522817 
872	 0.108027434996101 
873	 0.108111158399232 
874	 0.108187177765653 
875	 0.108282539151502 
876	 0.108356815588515 
877	 0.10838810158591 
878	 0.108432604170896 
879	 0.108620497753743 
880	 0.108822585698174 
881	 0.108887583583086 
882	 0.108995594070722 
883	 0.109108512631375 
884	 0.109215770413276 
885	 0.109330710635458 
886	 0.109504501897545 
887	 0.109694323347819 
888	 0.109856055788236 
889	 0.109967518019489 
890	 0.11014658557439 
891	 0.110337820015271 
892	 0.110513005284644 
893	 0.110704169451149 
894	 0.11083950526559 
895	 0.110973117133036 
896	 0.111158068336691 
897	 0.111398218115967 
898	 0.111653283264639 
899	 0.111867398166084 
900	 0.112026686092616 
901	 0.112224623287849 
902	 0.112476162659657 
903	 0.112738632135216 
904	 0.112971647366903 
905	 0.113236089758987 
906	 0.1135063032274 
907	 0.113798343036079 
908	 0.114122399285708 
909	 0.114363319288643 
910	 0.11457580633447 
911	 0.11481166863637 
912	 0.115106110739283 
913	 0.115453287151967 
914	 0.115795378615782 
915	 0.116093491429218 
916	 0.116344396814682 
917	 0.116628242596434 
918	 0.116982959028714 
919	 0.117374189224334 
920	 0.117703293652623 
921	 0.11804461236543 
922	 0.118381041693657 
923	 0.118725294465292 
924	 0.119147371054214 
925	 0.11948955934373 
926	 0.119860024625201 
927	 0.12031217325781 
928	 0.120695702932877 
929	 0.12110399626457 
930	 0.121525145357906 
931	 0.121933501660059 
932	 0.122333092353655 
933	 0.122776116292591 
934	 0.12321233090789 
935	 0.123612722177557 
936	 0.124103525720892 
937	 0.124540064839256 
938	 0.124960568620301 
939	 0.125444794014768 
940	 0.125992644945111 
941	 0.12646633656098 
942	 0.126947159701857 
943	 0.127533151756186 
944	 0.128018018654253 
945	 0.128453255083113 
946	 0.128941138664882 
947	 0.129549296201664 
948	 0.130119444220669 
949	 0.130615522696062 
950	 0.131089610610994 
951	 0.13163997123932 
952	 0.132354800133796 
953	 0.132903852894623 
954	 0.133356202580178 
955	 0.133973405174884 
956	 0.134650938150919 
957	 0.135269512840872 
958	 0.135855455247603 
959	 0.136497777649962 
960	 0.137067575533195 
961	 0.137671338242596 
962	 0.138342686048807 
963	 0.139028909517338 
964	 0.139555265172311 
965	 0.140189484771265 
966	 0.140910202302166 
967	 0.141520944327841 
968	 0.142165529069395 
969	 0.142819476953504 
970	 0.143489140341168 
971	 0.144184762405856 
972	 0.14477672494857 
973	 0.145509255018001 
974	 0.146330150368529 
975	 0.147018978583902 
976	 0.147740621673535 
977	 0.148497708946366 
978	 0.149260371187004 
979	 0.14998894780455 
980	 0.150695550281693 
981	 0.151316760023453 
982	 0.151938656808925 
983	 0.152685759775512 
984	 0.153364535723122 
985	 0.154072056750747 
986	 0.154815489464718 
987	 0.155557717008527 
988	 0.15637077839759 
989	 0.157154138466584 
990	 0.157901951022384 
991	 0.158642354361926 
992	 0.159279984787997 
993	 0.159899486878171 
994	 0.160666720888216 
995	 0.161628535764812 
996	 0.16229070291937 
997	 0.163015109652454 
998	 0.163820596541795 
999	 0.16459005928364 
1000	 0.16528577825815 
1001	 0.166377224487585 
1002	 0.167066593883139 
1003	 0.167728213452593 
1004	 0.168367208967368 
1005	 0.169013180404646 
1006	 0.169673086127085 
1007	 0.170294230111161 
1008	 0.17093551102235 
1009	 0.171625912704914 
1010	 0.172209102527714 
1011	 0.172824021752986 
1012	 0.173475360006463 
1013	 0.174083169557459 
1014	 0.174718771737096 
1015	 0.175331957371726 
1016	 0.17588333180621 
1017	 0.176470947014191 
1018	 0.177060793037673 
1019	 0.177682948775344 
1020	 0.178302787825464 
1021	 0.178899480305488 
1022	 0.179404296324413 
1023	 0.179937386641824 
1024	 0.180452744464206 
1025	 0.180895544225931 
1026	 0.181443961706152 
1027	 0.181988607811656 
1028	 0.182489586558311 
1029	 0.183025154022809 
1030	 0.183526550530911 
1031	 0.184020973045317 
1032	 0.184486510485282 
1033	 0.184969078387429 
1034	 0.18546102846494 
1035	 0.185930831085392 
1036	 0.186373111017729 
1037	 0.186819725719531 
1038	 0.187292174515761 
1039	 0.187753362290739 
1040	 0.188170671357284 
1041	 0.188594316747999 
1042	 0.18901824830853 
1043	 0.189427778400698 
1044	 0.189874810783343 
1045	 0.190372375040106 
1046	 0.19088804444063 
1047	 0.191334289690156 
1048	 0.191761001481611 
1049	 0.19219841521326 
1050	 0.192581175983291 
1051	 0.192985171007861 
1052	 0.193434255839999 
1053	 0.193823560812427 
1054	 0.194213131233588 
1055	 0.194635326336725 
1056	 0.195047062436406 
1057	 0.195485813904772 
1058	 0.195999462717549 
1059	 0.19645366178521 
1060	 0.196895894256392 
1061	 0.197306346723888 
1062	 0.197688429172328 
1063	 0.19806704222119 
1064	 0.198458415035717 
1065	 0.198833568318787 
1066	 0.19924788416743 
1067	 0.199644220346443 
1068	 0.199989945915427 
1069	 0.200434923195345 
1070	 0.20085375312178 
1071	 0.20125258426193 
1072	 0.201662352914282 
1073	 0.202103399960189 
1074	 0.202505192247774 
1075	 0.202863429165519 
1076	 0.203290354651638 
1077	 0.20373575234445 
1078	 0.204107073820376 
1079	 0.204479456592176 
1080	 0.204842215712524 
1081	 0.205162769775187 
1082	 0.205523719777402 
1083	 0.205886650320956 
1084	 0.206265621850577 
1085	 0.206643784143226 
1086	 0.207032521329554 
1087	 0.207386328512716 
1088	 0.207705105410041 
1089	 0.208095981708694 
1090	 0.208463852308712 
1091	 0.20881054581553 
1092	 0.209182759640066 
1093	 0.209505949054337 
1094	 0.209837477830296 
1095	 0.210205423483094 
1096	 0.210542515989287 
1097	 0.210881581909254 
1098	 0.211197662012311 
1099	 0.211457009701403 
1100	 0.211749773342485 
1101	 0.212042978867545 
1102	 0.212357624840364 
1103	 0.21269748771449 
1104	 0.213021855296477 
1105	 0.213317874215882 
1106	 0.213644825948322 
1107	 0.213949078083023 
1108	 0.214274177688041 
1109	 0.21463526051029 
1110	 0.214954855548471 
1111	 0.215266834170332 
1112	 0.21555987301031 
1113	 0.215852743849567 
1114	 0.216114474441099 
1115	 0.21641834575919 
1116	 0.216745722071846 
1117	 0.217059134620191 
1118	 0.217380620678778 
1119	 0.217711844176198 
1120	 0.218030416426043 
1121	 0.218336060629587 
1122	 0.21865576705835 
1123	 0.218973197067819 
1124	 0.21927720093846 
1125	 0.219575717843332 
1126	 0.219856897751183 
1127	 0.220114783279542 
1128	 0.220394650868801 
1129	 0.220673469582992 
1130	 0.220949506899216 
1131	 0.221251933875617 
1132	 0.221520154060353 
1133	 0.221743865382882 
1134	 0.222002666284935 
1135	 0.222270820404054 
1136	 0.222530020547326 
1137	 0.222802524904083 
1138	 0.223069727141958 
1139	 0.22332202157279 
1140	 0.223552706325372 
1141	 0.223789756456769 
1142	 0.224033046497596 
1143	 0.224259965686823 
1144	 0.22446873085837 
1145	 0.224682707152316 
1146	 0.22489188537345 
1147	 0.225099247422375 
1148	 0.225298089863976 
1149	 0.225512573568576 
1150	 0.225734767064767 
1151	 0.225957315284768 
1152	 0.226171853976391 
1153	 0.226382287791378 
1154	 0.226593429151483 
1155	 0.226790211284721 
1156	 0.226992832391488 
1157	 0.227206791780235 
1158	 0.227411280941393 
1159	 0.227609995578379 
1160	 0.227805367815012 
1161	 0.227991778077883 
1162	 0.228189086516659 
1163	 0.228386041869553 
1164	 0.228584614620492 
1165	 0.228801299843897 
1166	 0.22900649979632 
1167	 0.229179527359743 
1168	 0.229356355735749 
1169	 0.229543747384218 
1170	 0.229720484944268 
1171	 0.229916150112872 
1172	 0.230143926162584 
1173	 0.230335599134273 
1174	 0.230514922940755 
1175	 0.230695121351508 
1176	 0.230865322731385 
1177	 0.231033031826931 
1178	 0.23120245636891 
1179	 0.231364565717319 
1180	 0.231512410900432 
1181	 0.231665515683291 
1182	 0.231825193973287 
1183	 0.231967808170952 
1184	 0.232127131270868 
1185	 0.232295345977641 
1186	 0.232452079289304 
1187	 0.232614712406086 
1188	 0.23276449892399 
1189	 0.232892288696496 
1190	 0.233041524138179 
1191	 0.233211964703005 
1192	 0.233352693536055 
1193	 0.233484342504619 
1194	 0.233618961279068 
1195	 0.233727919366925 
1196	 0.233851990276198 
1197	 0.233992651099254 
1198	 0.234130485661919 
1199	 0.234268443827719 
1200	 0.234409322053252 
1201	 0.234534792005704 
1202	 0.234656902734402 
1203	 0.234777183768014 
1204	 0.234878566520199 
1205	 0.235000170982227 
1206	 0.23514207062806 
1207	 0.235260278232779 
1208	 0.235376627162547 
1209	 0.235485849915103 
1210	 0.235575669844846 
1211	 0.235672765433033 
1212	 0.235764017872007 
1213	 0.235866858719928 
1214	 0.235979965624569 
1215	 0.236086951993066 
1216	 0.236195057975174 
1217	 0.236317553905326 
1218	 0.23641328936032 
1219	 0.236491857916631 
1220	 0.236578397902841 
1221	 0.236654686484234 
1222	 0.23673884705894 
1223	 0.236824918859565 
1224	 0.236916378726943 
1225	 0.237014498241844 
1226	 0.23710671602774 
1227	 0.237208250167189 
1228	 0.237297039839873 
1229	 0.237368244845429 
1230	 0.237449927685349 
1231	 0.237542030041073 
1232	 0.237618723063846 
1233	 0.237690110283107 
1234	 0.23775537871129 
1235	 0.237834827930387 
1236	 0.237906818157845 
1237	 0.237987694880943 
1238	 0.238099064944368 
1239	 0.238173904599869 
1240	 0.238225662251301 
1241	 0.238286895514908 
1242	 0.238340795388207 
1243	 0.238391925694704 
1244	 0.238434123381462 
1245	 0.238492264782126 
1246	 0.23854946271722 
1247	 0.238614512957846 
1248	 0.238704763204396 
1249	 0.238783931848562 
1250	 0.2388441734658 
1251	 0.238910661854823 
1252	 0.238973031694557 
1253	 0.239031683801274 
1254	 0.239081405600113 
1255	 0.239130623117288 
1256	 0.239168813192795 
1257	 0.239190296516624 
1258	 0.239219686384987 
1259	 0.23923741870536 
1260	 0.239277011178885 
1261	 0.239332183141817 
1262	 0.239375187725332 
1263	 0.239437746652109 
1264	 0.239480851269109 
1265	 0.239492000876034 
1266	 0.239524773970676 
1267	 0.239575490015538 
1268	 0.239600022794801 
1269	 0.239635191373412 
1270	 0.239681741068802 
1271	 0.23971755600909 
1272	 0.239739883395108 
1273	 0.239776198709948 
1274	 0.239814273009917 
1275	 0.239859621027943 
1276	 0.239906536872208 
1277	 0.239965922899743 
1278	 0.240038019964527 
1279	 0.240112373867339 
1280	 0.240197406007617 
1281	 0.240282005656726 
1282	 0.240380541086491 
1283	 0.240459488974683 
1284	 0.24052278372409 
1285	 0.240597993589668 
1286	 0.240670492181118 
1287	 0.240729650971178 
1288	 0.240812498356656 
1289	 0.240929126314764 
1290	 0.240995163799319 
1291	 0.241040250597743 
1292	 0.241105815548246 
1293	 0.241154040671276 
1294	 0.241205980168296 
1295	 0.241285432688527 
1296	 0.241336019590794 
1297	 0.241364473086 
1298	 0.241393530167346 
1299	 0.241407390083679 
1300	 0.241433852713986 
1301	 0.241453769003215 
1302	 0.24148060330508 
1303	 0.241520589136261 
1304	 0.241562063368018 
1305	 0.241595344000975 
1306	 0.241637602422394 
1307	 0.241637253234524 
1308	 0.241631090386288 
1309	 0.241627727593917 
1310	 0.241602353367916 
1311	 0.241585036473992 
1312	 0.241584180039402 
1313	 0.241567184558847 
1314	 0.241531543242883 
1315	 0.241507010137499 
1316	 0.241487235592871 
1317	 0.241462631190009 
1318	 0.241434595005037 
1319	 0.241411377079149 
1320	 0.241394903587447 
1321	 0.241366411414212 
1322	 0.241330837961119 
1323	 0.241304688826762 
1324	 0.241259287492836 
1325	 0.241198558567736 
1326	 0.241158599526415 
1327	 0.241110368819146 
1328	 0.241068560343269 
1329	 0.241037645160898 
1330	 0.240986812082687 
1331	 0.240927138097929 
1332	 0.240862918553397 
1333	 0.240781768365208 
1334	 0.240714367448512 
1335	 0.240640197646294 
1336	 0.240586227688341 
1337	 0.240558345704321 
1338	 0.240506691562883 
1339	 0.240458718360946 
1340	 0.240400348501722 
1341	 0.24031255555 
1342	 0.240247003030676 
1343	 0.240190937038373 
1344	 0.240135617294274 
1345	 0.240090655219915 
1346	 0.240044945959998 
1347	 0.239984194757046 
1348	 0.239913134246364 
1349	 0.239838037814319 
1350	 0.239753424505037 
1351	 0.239670424666828 
1352	 0.239584405391032 
1353	 0.239505787727981 
1354	 0.239425279654721 
1355	 0.239349447189454 
1356	 0.239278001304259 
1357	 0.239212241434077 
1358	 0.239145343358739 
1359	 0.239088232593732 
1360	 0.239050506785193 
1361	 0.238995686407472 
1362	 0.238942333078116 
1363	 0.23887911042959 
1364	 0.238791107933254 
1365	 0.238726526829888 
1366	 0.238670922892769 
1367	 0.238617026211587 
1368	 0.238578178301846 
1369	 0.238512152247716 
1370	 0.238410341619263 
1371	 0.23828750274377 
1372	 0.238125570279445 
1373	 0.237956854843992 
1374	 0.237788547945883 
1375	 0.237618701584118 
1376	 0.237417728688959 
1377	 0.237221032152601 
1378	 0.236970156970563 
1379	 0.236671994528276 
1380	 0.236371299461451 
1381	 0.236043347823509 
1382	 0.23569980326162 
1383	 0.235363646058182 
1384	 0.234973453117181 
1385	 0.234551533403715 
1386	 0.234100468305987 
1387	 0.233620596399019 
1388	 0.233093752554846 
1389	 0.23253270526311 
1390	 0.231941402158671 
1391	 0.231286834098376 
1392	 0.230597391265222 
1393	 0.229878906428159 
1394	 0.229127758917044 
1395	 0.228335090484792 
1396	 0.22752380710295 
1397	 0.226715267492413 
1398	 0.225882148446097 
1399	 0.225048689757866 
1400	 0.224216656438928 
1401	 0.223381878730752 
1402	 0.22251777536626 
1403	 0.221697361405847 
1404	 0.220879755609161 
1405	 0.220106655467775 
1406	 0.219360690645195 
1407	 0.218639875015071 
1408	 0.217947773568213 
1409	 0.217289000977491 
1410	 0.216642219458698 
1411	 0.216053269290285 
1412	 0.21549998097592 
1413	 0.215000187826409 
1414	 0.214564864956371 
1415	 0.214164792734432 
1416	 0.213812110025957 
1417	 0.213492650499793 
1418	 0.213176286446991 
1419	 0.212888327086885 
1420	 0.212631288509161 
1421	 0.212376256740292 
1422	 0.212159404477236 
1423	 0.211956138586445 
1424	 0.211738770141769 
1425	 0.211525746704686 
1426	 0.2113200194988 
1427	 0.211085935532415 
1428	 0.210912410437258 
1429	 0.210770056207382 
1430	 0.21063705415987 
1431	 0.210551229276374 
1432	 0.210445146157079 
1433	 0.210338874517446 
1434	 0.210237355281409 
1435	 0.210120526387259 
1436	 0.210036093337503 
1437	 0.209963511353552 
1438	 0.209911703607782 
1439	 0.209893277327288 
1440	 0.209875876175682 
1441	 0.209847805410291 
1442	 0.209816020147572 
1443	 0.209775771640922 
1444	 0.209753871377141 
1445	 0.209753665287602 
1446	 0.209769821779087 
1447	 0.209797853448127 
1448	 0.209809004740587 
1449	 0.209801968563422 
1450	 0.209792818351943 
1451	 0.20979584190825 
1452	 0.209790023993499 
1453	 0.209808589022294 
1454	 0.209847689920444 
1455	 0.209884656501726 
1456	 0.209930307012161 
1457	 0.209974231610249 
1458	 0.210024221773155 
1459	 0.210074782925478 
1460	 0.21011571339929 
1461	 0.210180330248393 
1462	 0.210252208490329 
1463	 0.210338102532083 
1464	 0.210447922014039 
1465	 0.210555501313817 
1466	 0.210667012429965 
1467	 0.210786309819522 
1468	 0.210891862237427 
1469	 0.211040722109159 
1470	 0.211210889850778 
1471	 0.211407475623281 
1472	 0.211638486586791 
1473	 0.211865124595263 
1474	 0.212072886005586 
1475	 0.212295321089725 
1476	 0.212511801138339 
1477	 0.212731944443779 
1478	 0.212978415265799 
1479	 0.213222528334831 
1480	 0.213468329233137 
1481	 0.213722437475084 
1482	 0.21396935559348 
1483	 0.214217741299144 
1484	 0.214449045144656 
1485	 0.214667364444425 
1486	 0.214900594417746 
1487	 0.215117946196608 
1488	 0.21536314558967 
1489	 0.215639420909915 
1490	 0.215894001942797 
1491	 0.21615877682052 
1492	 0.21640188594044 
1493	 0.216622999268079 
1494	 0.216852475012504 
1495	 0.217073023665356 
1496	 0.217298869293844 
1497	 0.217536196403157 
1498	 0.217761976205926 
1499	 0.217984159022192 
1500	 0.218199495323506 
1501	 0.218398813935195 
1502	 0.218607282130405 
1503	 0.218813545635907 
1504	 0.21902790210548 
1505	 0.219241259948476 
1506	 0.219451381402847 
1507	 0.219657303267257 
1508	 0.21985199226961 
1509	 0.220056166256151 
1510	 0.220258073297062 
1511	 0.220440669618657 
1512	 0.220627119030632 
1513	 0.220812445885292 
1514	 0.22100930245782 
1515	 0.221225593807841 
1516	 0.221431603519905 
1517	 0.221621468462275 
1518	 0.221796914228551 
1519	 0.221975839368497 
1520	 0.222143074951737 
1521	 0.222316877184357 
1522	 0.222496144644162 
1523	 0.222670959449356 
1524	 0.222841165006446 
1525	 0.223010458443735 
1526	 0.223184911808383 
1527	 0.223342945725849 
1528	 0.223490771711858 
1529	 0.223641002279224 
1530	 0.223782442164429 
1531	 0.223924049319246 
1532	 0.224067759228893 
1533	 0.224204599796316 
1534	 0.224332263697599 
1535	 0.224467581638556 
1536	 0.22460307469104 
1537	 0.22473830307583 
1538	 0.224873207981101 
1539	 0.225011207338735 
1540	 0.225155225572907 
1541	 0.225293526389668 
1542	 0.225444677599631 
1543	 0.225573239994075 
1544	 0.225673357836572 
1545	 0.225788716529254 
1546	 0.225907258939102 
1547	 0.226010924874713 
1548	 0.226122558797807 
1549	 0.226219923331958 
1550	 0.226306826841213 
1551	 0.226409516301803 
1552	 0.226520893667684 
1553	 0.226647377049283 
1554	 0.226768092019529 
1555	 0.22687168459688 
1556	 0.226969865456571 
1557	 0.227057633343819 
1558	 0.227155192951315 
1559	 0.227254548001632 
1560	 0.227341898797016 
1561	 0.227431620992274 
1562	 0.227511271779498 
1563	 0.227566245098955 
1564	 0.227652129926068 
1565	 0.227754120544896 
1566	 0.227840991498036 
1567	 0.227935754401051 
1568	 0.228021282523883 
1569	 0.228093862493026 
1570	 0.228168211554212 
1571	 0.228251364417561 
1572	 0.228317253907683 
1573	 0.228356929515798 
1574	 0.228427165087637 
1575	 0.228511539341459 
1576	 0.228578225644391 
1577	 0.228658868558287 
1578	 0.228721789307906 
1579	 0.228749134307349 
1580	 0.228805540022905 
1581	 0.228876796713176 
1582	 0.228941086509567 
1583	 0.229015416619796 
1584	 0.229083700218374 
1585	 0.229147786991739 
1586	 0.229206857549186 
1587	 0.229263094499463 
1588	 0.229317085858291 
1589	 0.229366573974451 
1590	 0.229411361001267 
1591	 0.229453782954151 
1592	 0.229495040328053 
1593	 0.229528547269611 
1594	 0.229566061663304 
1595	 0.22960414338627 
1596	 0.229643348112617 
1597	 0.229675259943138 
1598	 0.229721171346696 
1599	 0.229787354871225 
1600	 0.22983654378266 
1601	 0.229895823972843 
1602	 0.229936011497509 
1603	 0.229930738728814 
1604	 0.229962726554039 
1605	 0.230016978373273 
1606	 0.230057077520125 
1607	 0.230108348243831 
1608	 0.230164627421637 
1609	 0.230203129538632 
1610	 0.230223427522107 
1611	 0.230254300761159 
1612	 0.230283612329921 
1613	 0.230278967225525 
1614	 0.23028144777539 
1615	 0.23030404014853 
1616	 0.230325019602686 
1617	 0.230347104827051 
1618	 0.230383147257207 
1619	 0.230413918725468 
1620	 0.230428921587784 
1621	 0.230458736515959 
1622	 0.230508138559 
1623	 0.230528362514311 
1624	 0.230535640662562 
1625	 0.230547455785321 
1626	 0.230548671089039 
1627	 0.230555395401413 
1628	 0.230559992578655 
1629	 0.230582168027948 
1630	 0.230614040083956 
1631	 0.230634313036097 
1632	 0.230660038239059 
1633	 0.230691473191969 
1634	 0.230720559693661 
1635	 0.230738371519392 
1636	 0.230769847887478 
1637	 0.230777767334595 
1638	 0.23075253793373 
1639	 0.230751628842245 
1640	 0.230754750078241 
1641	 0.230762053951875 
1642	 0.230771693141524 
1643	 0.230790463375614 
1644	 0.230819098416859 
1645	 0.230843740933139 
1646	 0.230875298326566 
1647	 0.23090097156606 
1648	 0.230929489145647 
1649	 0.23094222095296 
1650	 0.230944929194289 
1651	 0.230951252697621 
1652	 0.230948115277653 
1653	 0.230945077650289 
1654	 0.230948820518068 
1655	 0.23094125081657 
1656	 0.230922125732709 
1657	 0.230905058378249 
1658	 0.230884459767135 
1659	 0.230865727017731 
1660	 0.230846843224187 
1661	 0.230823513970306 
1662	 0.230797129051689 
1663	 0.230775065973177 
1664	 0.230746229597905 
1665	 0.230729627705651 
1666	 0.230724687128985 
1667	 0.230714943377697 
1668	 0.230708142552589 
1669	 0.230700924694318 
1670	 0.230698908524802 
1671	 0.230683848692952 
1672	 0.230662027470049 
1673	 0.230642652202512 
1674	 0.230609130912536 
1675	 0.230592500698455 
1676	 0.230587824557817 
1677	 0.230580607578365 
1678	 0.230583550370997 
1679	 0.230572537472106 
1680	 0.230559369618876 
1681	 0.230537948155726 
1682	 0.230499656233352 
1683	 0.230475112763712 
1684	 0.230457596984893 
1685	 0.230427887279689 
1686	 0.230400535008382 
1687	 0.230364993233096 
1688	 0.230308881029584 
1689	 0.230270256435182 
1690	 0.23023521971769 
1691	 0.23020798643746 
1692	 0.230193265896341 
1693	 0.230172037574363 
1694	 0.230161161948108 
1695	 0.230132744295154 
1696	 0.230080149825465 
1697	 0.230058422145026 
1698	 0.23005192896016 
1699	 0.230024839563919 
1700	 0.230015382497103 
1701	 0.229979930843762 
1702	 0.229902076039062 
1703	 0.229858132405704 
1704	 0.229835068845824 
1705	 0.229783100374022 
1706	 0.229726374377775 
1707	 0.229670543766616 
1708	 0.229592008956926 
1709	 0.229535477100123 
1710	 0.229498888467251 
1711	 0.229445953518653 
1712	 0.229386134856046 
1713	 0.229330080989441 
1714	 0.229270393422042 
1715	 0.229219535991738 
1716	 0.229182043704562 
1717	 0.229127161449329 
1718	 0.229066106249888 
1719	 0.229005760446846 
1720	 0.228930866179967 
1721	 0.228867785820675 
1722	 0.228817898010252 
1723	 0.228758690933701 
1724	 0.228701204508918 
1725	 0.228634762907823 
1726	 0.22855537673976 
1727	 0.228483600233811 
1728	 0.228412336941369 
1729	 0.228335736901569 
1730	 0.22826754319649 
1731	 0.228183114129167 
1732	 0.228085997945396 
1733	 0.227985573755753 
1734	 0.227873561051677 
1735	 0.227770355023004 
1736	 0.227666074546161 
1737	 0.22756462605373 
1738	 0.227468481086032 
1739	 0.227365870277947 
1740	 0.227253456462903 
1741	 0.227151836833414 
1742	 0.227055232826042 
1743	 0.226962318357483 
1744	 0.22688379319679 
1745	 0.226792793245308 
1746	 0.226699517122272 
1747	 0.226586582450261 
1748	 0.226459019183093 
1749	 0.226335154662197 
1750	 0.226237696805518 
1751	 0.226134712466587 
1752	 0.226011683085325 
1753	 0.225880696870456 
1754	 0.225723012450437 
1755	 0.225589938833622 
1756	 0.225505854917991 
1757	 0.225398198567768 
1758	 0.225289720182477 
1759	 0.225181180980858 
1760	 0.225034816840091 
1761	 0.224897623339361 
1762	 0.224794717198989 
1763	 0.224721425173522 
1764	 0.224661829699561 
1765	 0.224611437514864 
1766	 0.224517611826224 
1767	 0.224359247578812 
1768	 0.224177938375796 
1769	 0.223972338790704 
1770	 0.223838785433445 
1771	 0.223776505946812 
1772	 0.223710184092415 
1773	 0.223676003062289 
1774	 0.22363047382767 
1775	 0.22354916716916 
1776	 0.223461573737173 
1777	 0.223380014200753 
1778	 0.223309149636914 
1779	 0.22321811593592 
1780	 0.223132210271918 
1781	 0.223063396621253 
1782	 0.222987890744105 
1783	 0.222949170801682 
1784	 0.222911563760712 
1785	 0.22288103071696 
1786	 0.222856527626819 
1787	 0.222850271819316 
1788	 0.222825996785593 
1789	 0.222793634041977 
1790	 0.222760747239274 
1791	 0.22272548308537 
1792	 0.222668152944496 
1793	 0.222595148340365 
1794	 0.222551972120801 
1795	 0.22249179727998 
1796	 0.222458713189289 
1797	 0.222477492437431 
1798	 0.222447791648029 
1799	 0.222397108250853 
1800	 0.222368181125281 
1801	 0.216894384750145 
1802	 0.217058482909124 
1803	 0.217235635773381 
1804	 0.217436068428672 
1805	 0.217629282345179 
1806	 0.217822858454601 
1807	 0.218041785395611 
1808	 0.21821140713707 
1809	 0.218355845882919 
1810	 0.218516870610285 
1811	 0.218669314348244 
1812	 0.218793694541292 
1813	 0.218938152448993 
1814	 0.219084825214701 
1815	 0.219120958109638 
1816	 0.219128172619717 
1817	 0.219154857316683 
1818	 0.219134697944564 
1819	 0.219155101688419 
1820	 0.219208086599475 
1821	 0.219245745228876 
1822	 0.219275347248683 
1823	 0.219304967026795 
1824	 0.219315887622577 
1825	 0.219346968725908 
1826	 0.219375659521861 
1827	 0.219390421555146 
1828	 0.219377989569178 
1829	 0.219332768497404 
1830	 0.219297070126645 
1831	 0.219247869946732 
1832	 0.219197179134868 
1833	 0.219133875075063 
1834	 0.219094533709698 
1835	 0.219012093932467 
1836	 0.218901870914671 
1837	 0.218836829928292 
1838	 0.218771458382232 
1839	 0.218716446989277 
1840	 0.21867584024932 
1841	 0.218664726764544 
1842	 0.218620506218298 
1843	 0.218558068634715 
1844	 0.218496601782548 
1845	 0.218385390065387 
1846	 0.218257301176429 
1847	 0.218143202307568 
1848	 0.21802725196205 
1849	 0.217924217138201 
1850	 0.217806011041694 
1851	 0.217702401119482 
1852	 0.217558567583181 
1853	 0.217388732549388 
1854	 0.217201481037772 
1855	 0.216990805814088 
1856	 0.216773437791798 
1857	 0.216521836177597 
1858	 0.216247334036352 
1859	 0.215955137645782 
1860	 0.215626224289183 
1861	 0.215270553633846 
1862	 0.214892922754672 
1863	 0.214455387267753 
1864	 0.213978300425115 
1865	 0.213451687423132 
1866	 0.21284982192092 
1867	 0.212231634061594 
1868	 0.211572813160047 
1869	 0.210840871017573 
1870	 0.210072467626736 
1871	 0.209248516107622 
1872	 0.208378909997102 
1873	 0.207427180697583 
1874	 0.206430298110018 
1875	 0.205385979087416 
1876	 0.204265584414339 
1877	 0.203088537040042 
1878	 0.20182475823451 
1879	 0.200462441957767 
1880	 0.199005264401514 
1881	 0.197431280977598 
1882	 0.19579463490744 
1883	 0.194079647182853 
1884	 0.192257640177158 
1885	 0.19037159430472 
1886	 0.188409626117702 
1887	 0.186337907455537 
1888	 0.184211870772221 
1889	 0.182020068922243 
1890	 0.179788218438813 
1891	 0.177571402553685 
1892	 0.175306950838052 
1893	 0.173079328514229 
1894	 0.170856262851731 
1895	 0.168651425160924 
1896	 0.166452979357685 
1897	 0.164335764397273 
1898	 0.162232188001362 
1899	 0.160185116650391 
1900	 0.158274976299019 
1901	 0.156418345527118 
1902	 0.154651714273772 
1903	 0.153017162492812 
1904	 0.15143352376803 
1905	 0.149888924970639 
1906	 0.148458826596423 
1907	 0.147155524468346 
1908	 0.145937933512821 
1909	 0.144817722644015 
1910	 0.143773424638564 
1911	 0.14280766503807 
1912	 0.141904838317014 
1913	 0.141055665971606 
1914	 0.140275819914493 
1915	 0.139554164747196 
1916	 0.138894088805361 
1917	 0.138267974692808 
1918	 0.137711464610454 
1919	 0.137215510774749 
1920	 0.136759917130603 
1921	 0.136350796869518 
1922	 0.136006107407333 
1923	 0.135721937939327 
1924	 0.135460318314816 
1925	 0.135243354142531 
1926	 0.135057056371911 
1927	 0.134904858756882 
1928	 0.134772430747923 
1929	 0.134693061355586 
1930	 0.13467628859783 
1931	 0.134701594177449 
1932	 0.134749843507779 
1933	 0.134809708052694 
1934	 0.134882464353479 
1935	 0.134979575229824 
1936	 0.135084990960854 
1937	 0.135228670767894 
1938	 0.135406578198176 
1939	 0.135601995232487 
1940	 0.135830721776657 
1941	 0.136056735623352 
1942	 0.136316971651696 
1943	 0.136606813476958 
1944	 0.136902515536318 
1945	 0.137227744591183 
1946	 0.137550248873305 
1947	 0.13787127936016 
1948	 0.138215918475167 
1949	 0.138568892394986 
1950	 0.138945054862783 
1951	 0.139349042120945 
1952	 0.139759061205202 
1953	 0.140165508647262 
1954	 0.140599715803282 
1955	 0.141045451769856 
1956	 0.14150004529116 
1957	 0.14196357534574 
1958	 0.142454222914498 
1959	 0.142929773286257 
1960	 0.143396434286219 
1961	 0.143876618719633 
1962	 0.144358235738067 
1963	 0.144856702604742 
1964	 0.145368342053673 
1965	 0.145887892360895 
1966	 0.146422899946012 
1967	 0.146949520825596 
1968	 0.147475154597954 
1969	 0.148002605361792 
1970	 0.14852500623297 
1971	 0.149051529091692 
1972	 0.149565539388554 
1973	 0.15004991755408 
1974	 0.150566990612041 
1975	 0.151098190987676 
1976	 0.151620242623273 
1977	 0.152161214550616 
1978	 0.152724371532447 
1979	 0.153258092162454 
1980	 0.153782916930712 
1981	 0.1543052312675 
1982	 0.154807392017954 
1983	 0.155334751424601 
1984	 0.155863615774834 
1985	 0.156407331628828 
1986	 0.156977981540408 
1987	 0.157536454460042 
1988	 0.158107902341168 
1989	 0.158661695778488 
1990	 0.159192567260969 
1991	 0.159737085197907 
1992	 0.160271837453329 
1993	 0.160792499297809 
1994	 0.161320220335495 
1995	 0.161846718540889 
1996	 0.162375273852858 
1997	 0.162905642260795 
1998	 0.163438532042217 
1999	 0.163993236394953 
2000	 0.164520214075642 
2001	 0.165044578493073 
2002	 0.165529403856835 
2003	 0.166039171881071 
2004	 0.166543496575346 
2005	 0.167029291924486 
2006	 0.16751384605866 
2007	 0.167999733319086 
2008	 0.168456416437893 
2009	 0.168930644758245 
2010	 0.169436200489013 
2011	 0.169913415535699 
2012	 0.170376917620263 
2013	 0.170835750296936 
2014	 0.171279488373596 
2015	 0.171719162328815 
2016	 0.172173095118769 
2017	 0.172632369374621 
2018	 0.17309858706869 
2019	 0.173587711427147 
2020	 0.174055263694865 
2021	 0.174526738499896 
2022	 0.174977110259546 
2023	 0.175405312185696 
2024	 0.175843007816618 
2025	 0.176263357288629 
2026	 0.176698534794711 
2027	 0.177148858635387 
2028	 0.177601369197478 
2029	 0.178027613540793 
2030	 0.178454148777092 
2031	 0.178849192295045 
2032	 0.179203811012907 
2033	 0.179585821308219 
2034	 0.179964423876827 
2035	 0.180340985851761 
2036	 0.180719948040435 
2037	 0.181103045410929 
2038	 0.181499881099079 
2039	 0.181867253326139 
2040	 0.182235135261765 
2041	 0.182580577143438 
2042	 0.182901256190674 
2043	 0.183219233316799 
2044	 0.183560383181372 
2045	 0.183921160979569 
2046	 0.18427075152069 
2047	 0.184632132242509 
2048	 0.184977192090009 
2049	 0.185318968456218 
2050	 0.185646202862446 
2051	 0.185955520949806 
2052	 0.186271139384132 
2053	 0.186570315485349 
2054	 0.186881556411525 
2055	 0.187209563979641 
2056	 0.187533942634594 
2057	 0.187833328282985 
2058	 0.188115722938397 
2059	 0.188417243674248 
2060	 0.188706796013384 
2061	 0.189003059777891 
2062	 0.18932381460509 
2063	 0.189621929824137 
2064	 0.189901258603097 
2065	 0.190186169753722 
2066	 0.190476706159453 
2067	 0.190756857568904 
2068	 0.191032055811271 
2069	 0.191294521722137 
2070	 0.191564951713913 
2071	 0.191822070433953 
2072	 0.192102924698316 
2073	 0.192402974234146 
2074	 0.192685322450471 
2075	 0.192985838980272 
2076	 0.193251449275572 
2077	 0.193482837669135 
2078	 0.193734026983506 
2079	 0.193967613438878 
2080	 0.194219456363054 
2081	 0.194501678660158 
2082	 0.194760501451952 
2083	 0.195011322484346 
2084	 0.195265163010627 
2085	 0.195507431813007 
2086	 0.19573200095183 
2087	 0.195971893489235 
2088	 0.196214306276719 
2089	 0.196456396505292 
2090	 0.196703344644132 
2091	 0.196944492102375 
2092	 0.197190047306797 
2093	 0.197420744687593 
2094	 0.197631868893391 
2095	 0.19786019705323 
2096	 0.198087135435008 
2097	 0.198317539396268 
2098	 0.198573301713125 
2099	 0.198804633159205 
2100	 0.199038485213753 
2101	 0.199264954404817 
2102	 0.199492764033762 
2103	 0.19971650849736 
2104	 0.199946341169098 
2105	 0.200179363670041 
2106	 0.200406323237705 
2107	 0.200638778034586 
2108	 0.200859772215531 
2109	 0.201061218497921 
2110	 0.201279919891652 
2111	 0.20150506709636 
2112	 0.201725756736645 
2113	 0.201951615672953 
2114	 0.202180435658422 
2115	 0.202404239872294 
2116	 0.202619537401964 
2117	 0.202842045946477 
2118	 0.203069316331623 
2119	 0.203293578975833 
2120	 0.203531422796391 
2121	 0.203735992569819 
2122	 0.203923900493035 
2123	 0.204112405907314 
2124	 0.204279162655977 
2125	 0.204448648943368 
2126	 0.204630070806798 
2127	 0.204791528348791 
2128	 0.204923723730172 
2129	 0.205070060978559 
2130	 0.205219025390912 
2131	 0.205365934238146 
2132	 0.205499018546555 
2133	 0.205641747552679 
2134	 0.205752224834019 
2135	 0.20582646547517 
2136	 0.205923428591213 
2137	 0.206033792198118 
2138	 0.206104564918274 
2139	 0.206158852204689 
2140	 0.206214765876772 
2141	 0.206236905058902 
2142	 0.206270175411659 
2143	 0.206329708759788 
2144	 0.206360067835249 
2145	 0.206372729052286 
2146	 0.206375791651972 
2147	 0.20636451318355 
2148	 0.206338722146126 
2149	 0.206316660607426 
2150	 0.20629358544912 
2151	 0.206247708173463 
2152	 0.206189723829222 
2153	 0.206131535252386 
2154	 0.206052650606269 
2155	 0.205979152059226 
2156	 0.205925178102457 
2157	 0.205837163772502 
2158	 0.205738425751495 
2159	 0.205614822062497 
2160	 0.205441257661361 
2161	 0.205296593357527 
2162	 0.205151745439633 
2163	 0.205002405113144 
2164	 0.204861160517535 
2165	 0.204728020879876 
2166	 0.204579068831954 
2167	 0.204405927366636 
2168	 0.204258801597805 
2169	 0.204132770985884 
2170	 0.203975615123006 
2171	 0.203810144598723 
2172	 0.203646893776506 
2173	 0.203458483480832 
2174	 0.203290954690389 
2175	 0.203150370394265 
2176	 0.202987937874148 
2177	 0.202827785798883 
2178	 0.202645615295759 
2179	 0.202420630995472 
2180	 0.202230493675271 
2181	 0.202072112882582 
2182	 0.201876221919337 
2183	 0.201679646597083 
2184	 0.201475678065208 
2185	 0.20125988705802 
2186	 0.200982506634123 
2187	 0.200781227255987 
2188	 0.200625099369807 
2189	 0.200440484557235 
2190	 0.200268259080578 
2191	 0.200098287943927 
2192	 0.199909291217149 
2193	 0.199744061735965 
2194	 0.199598661338158 
2195	 0.199456366218684 
2196	 0.199313917658763 
2197	 0.199193705693376 
2198	 0.199086817271107 
2199	 0.198996434651672 
2200	 0.19892327718973 
2201	 0.198864384394387 
2202	 0.198823179831903 
2203	 0.198801221507232 
2204	 0.198773201771106 
2205	 0.198744747776276 
2206	 0.198754286807499 
2207	 0.198780764471507 
2208	 0.198807618503954 
2209	 0.198867915317555 
2210	 0.198912839659615 
2211	 0.19894734336275 
2212	 0.198992973756544 
2213	 0.199045997453625 
2214	 0.199107920574244 
2215	 0.199177111155144 
2216	 0.199238558768444 
2217	 0.199318209224663 
2218	 0.199378300178558 
2219	 0.199407294545378 
2220	 0.199464768219769 
2221	 0.199558549410626 
2222	 0.199593918228307 
2223	 0.199675029628409 
2224	 0.199728801220873 
2225	 0.199762142484285 
2226	 0.199770226242969 
2227	 0.199782851266036 
2228	 0.199770481208231 
2229	 0.199785096591034 
2230	 0.19981219948832 
2231	 0.199826125479381 
2232	 0.199852397714267 
2233	 0.199857654325655 
2234	 0.199841961852599 
2235	 0.199828656782541 
2236	 0.199804879642071 
2237	 0.199789158041908 
2238	 0.199784748743737 
2239	 0.199759648396525 
2240	 0.199722789665913 
2241	 0.199690741572961 
2242	 0.19964258004424 
2243	 0.199601357145373 
2244	 0.199583138136812 
2245	 0.199541226873403 
2246	 0.199488531524301 
2247	 0.199430181965835 
2248	 0.199358374295141 
2249	 0.199272500784609 
2250	 0.199183365125009 
2251	 0.199066552750642 
2252	 0.198994271155964 
2253	 0.198934293601393 
2254	 0.198877248166669 
2255	 0.198860568125026 
2256	 0.19880211556312 
2257	 0.198704706955374 
2258	 0.198652750534992 
2259	 0.198607831823411 
2260	 0.198571458817461 
2261	 0.198580534990766 
2262	 0.198550196997817 
2263	 0.198510885948339 
2264	 0.198453362149668 
2265	 0.198355219364417 
2266	 0.198285376716248 
2267	 0.198180707606286 
2268	 0.198135147945118 
2269	 0.198158277881144 
2270	 0.198160774355869 
2271	 0.198152215043456 
2272	 0.198172467474006 
2273	 0.19814021043544 
2274	 0.198083230107213 
2275	 0.198032547535434 
2276	 0.197965966454584 
2277	 0.197938898170096 
2278	 0.197919752619598 
2279	 0.197902664985696 
2280	 0.197931992105273 
2281	 0.197905770522071 
2282	 0.19784004588685 
2283	 0.197801692507676 
2284	 0.197754997900106 
2285	 0.19771635689212 
2286	 0.197701810373368 
2287	 0.197656221805009 
2288	 0.197601567563668 
2289	 0.197532134424444 
2290	 0.19741107803568 
2291	 0.197350108158296 
2292	 0.197321700442594 
2293	 0.197275323475732 
2294	 0.197270749034522 
2295	 0.19722671103052 
2296	 0.197137860322304 
2297	 0.197067171653272 
2298	 0.196966172564003 
2299	 0.196881691236157 
2300	 0.196844785467065 
2301	 0.196761390210586 
2302	 0.196676753356773 
2303	 0.196606139265975 
2304	 0.196501584715805 
2305	 0.196398611018404 
2306	 0.196288556217136 
2307	 0.196187436560468 
2308	 0.196075967446068 
2309	 0.195945710113958 
2310	 0.19582135272919 
2311	 0.195688181142646 
2312	 0.195577335956844 
2313	 0.195484021698958 
2314	 0.195361631296365 
2315	 0.195267645196632 
2316	 0.195123318865623 
2317	 0.194903446705041 
2318	 0.194745092165833 
2319	 0.194608253497568 
2320	 0.194444375101648 
2321	 0.194272427108605 
2322	 0.194126486384046 
2323	 0.193982257123492 
2324	 0.193831560722416 
2325	 0.193716502527448 
2326	 0.193585902281691 
2327	 0.193431169828312 
2328	 0.193263818682639 
2329	 0.193126154539187 
2330	 0.193000528475202 
2331	 0.192868832608391 
2332	 0.192699125357925 
2333	 0.192516795044166 
2334	 0.192360984170124 
2335	 0.192274848027994 
2336	 0.192219985156294 
2337	 0.192119904038963 
2338	 0.192043402825483 
2339	 0.191921018608886 
2340	 0.191700471486235 
2341	 0.191502391077616 
2342	 0.191346984347228 
2343	 0.191163976411221 
2344	 0.19094832991524 
2345	 0.19076160320649 
2346	 0.19059333548339 
2347	 0.190401068622707 
2348	 0.190206150223611 
2349	 0.190035147460357 
2350	 0.189899272544294 
2351	 0.189697808943425 
2352	 0.189456965916526 
2353	 0.189246529370322 
2354	 0.189015217740388 
2355	 0.188766034538831 
2356	 0.188529998329622 
2357	 0.18828163883254 
2358	 0.187990695862158 
2359	 0.187732428131033 
2360	 0.187499925197799 
2361	 0.187273336831156 
2362	 0.187034787624206 
2363	 0.186820417172346 
2364	 0.18665696101606 
2365	 0.186446719517326 
2366	 0.186219395875884 
2367	 0.186011722113951 
2368	 0.185790805540575 
2369	 0.185553719047551 
2370	 0.185363486899403 
2371	 0.185091036156757 
2372	 0.184710824469448 
2373	 0.184426171532703 
2374	 0.184147912690009 
2375	 0.183869069156643 
2376	 0.183662580975944 
2377	 0.183433687838784 
2378	 0.183167769212656 
2379	 0.182895493262789 
2380	 0.182546136953839 
2381	 0.182199475448461 
2382	 0.18196536463552 
2383	 0.181678113294714 
2384	 0.181383665899393 
2385	 0.181127802328752 
2386	 0.180760017232876 
2387	 0.180372130712715 
2388	 0.180057535920176 
2389	 0.179786038110466 
2390	 0.179474205121667 
2391	 0.179159397700015 
2392	 0.178846472216598 
2393	 0.178482806375812 
2394	 0.178152490838399 
2395	 0.177794081591692 
2396	 0.177405695778217 
2397	 0.177054751675717 
2398	 0.176690845237364 
2399	 0.176359264185652 
2400	 0.176101870236486 
2401	 0.175830978099663 
2402	 0.175504182922366 
2403	 0.17513970368033 
2404	 0.174707656155972 
2405	 0.174280374443237 
2406	 0.173959612446274 
2407	 0.173664863488983 
2408	 0.173401889163475 
2409	 0.173152546177314 
2410	 0.172734745475958 
2411	 0.172290181092139 
2412	 0.171956672620599 
2413	 0.171578143316676 
2414	 0.171199967370711 
2415	 0.170915597139642 
2416	 0.170616371469774 
2417	 0.170282392719435 
2418	 0.169948026081655 
2419	 0.1696864506319 
2420	 0.169312136908062 
2421	 0.168823960242555 
2422	 0.168391599093309 
2423	 0.167930373356054 
2424	 0.167502433115518 
2425	 0.167110397420203 
2426	 0.166722755297033 
2427	 0.166396703309821 
2428	 0.166049021753581 
2429	 0.165676484639274 
2430	 0.165297323477205 
2431	 0.164839112695203 
2432	 0.164466948882258 
2433	 0.1641879635686 
2434	 0.163804670696981 
2435	 0.163434416006573 
2436	 0.163056508398445 
2437	 0.162606305894225 
2438	 0.16219310812788 
2439	 0.161827077407245 
2440	 0.161356499514207 
2441	 0.160781990016528 
2442	 0.160318701616391 
2443	 0.159871542777518 
2444	 0.159542433074926 
2445	 0.159348405930698 
2446	 0.159015538721738 
2447	 0.158660012793734 
2448	 0.15826777721945 
2449	 0.157837511872902 
2450	 0.157414072775301 
2451	 0.156930027475034 
2452	 0.156566791930244 
2453	 0.156244153062832 
2454	 0.1558275267692 
2455	 0.15547879538742 
2456	 0.155105400390437 
2457	 0.154618190348764 
2458	 0.154295886527069 
2459	 0.154117438374456 
2460	 0.153816411186629 
2461	 0.153491517623775 
2462	 0.153135774664891 
2463	 0.152764526469028 
2464	 0.152265130062148 
2465	 0.151625554829906 
2466	 0.151233819402328 
2467	 0.150868068713932 
2468	 0.150532282531204 
2469	 0.150445967411771 
2470	 0.149949342960965 
2471	 0.149384766537278 
2472	 0.149131952084866 
2473	 0.148785066192287 
2474	 0.14820146600275 
2475	 0.147837799504003 
2476	 0.147308066409219 
2477	 0.146792448642912 
2478	 0.146593285180802 
2479	 0.146407092523714 
2480	 0.146143219746783 
2481	 0.145759701276284 
2482	 0.145381774690145 
2483	 0.145037966902318 
2484	 0.144784076867133 
2485	 0.1446009300201 
2486	 0.144325155963848 
2487	 0.144031786574001 
2488	 0.143586695285901 
2489	 0.143064414486496 
2490	 0.142697380918387 
2491	 0.142430594299659 
2492	 0.14225751800484 
2493	 0.142031718765857 
2494	 0.141784351669368 
2495	 0.141641007514261 
2496	 0.14146022119004 
2497	 0.141404334044201 
2498	 0.141393150941337 
2499	 0.141383801328237 
2500	 0.141594363710693 
