Wavelength	mm2600003.asd
350	 4.63944241115992E-02 
351	 4.77055043320971E-02 
352	 4.34648223566158E-02 
353	 3.79117162503685E-02 
354	 0.033697038791129 
355	 3.74856668790346E-02 
356	 4.23653332461556E-02 
357	 4.14903673594586E-02 
358	 4.25473330909442E-02 
359	 0.036272356063692 
360	 0.028253072735676 
361	 3.20007250080332E-02 
362	 3.55784252101563E-02 
363	 3.83257370276363E-02 
364	 4.00921179709726E-02 
365	 0.039409411695825 
366	 3.39791990207539E-02 
367	 3.18492965031532E-02 
368	 3.85995709126122E-02 
369	 4.06943188165726E-02 
370	 3.83536900063992E-02 
371	 0.036217873626565 
372	 4.04583052071135E-02 
373	 4.17830267228649E-02 
374	 4.07791826371743E-02 
375	 3.96755945275079E-02 
376	 4.12835620469902E-02 
377	 4.05537666131164E-02 
378	 3.99282543001187E-02 
379	 4.22437029657407E-02 
380	 4.19776541490812E-02 
381	 4.16878127772961E-02 
382	 4.29057464028075E-02 
383	 4.56757636867902E-02 
384	 4.41716928711512E-02 
385	 4.25467424641294E-02 
386	 4.36169306006646E-02 
387	 4.48690160013049E-02 
388	 4.66551149146362E-02 
389	 4.74108829373272E-02 
390	 4.61246292983117E-02 
391	 4.67598080211271E-02 
392	 4.78510846831981E-02 
393	 4.88951863662559E-02 
394	 5.03236729858764E-02 
395	 0.050777630979237 
396	 5.06075557158892E-02 
397	 5.07067287354371E-02 
398	 5.27641075409319E-02 
399	 5.31634888649049E-02 
400	 5.29953938078845E-02 
401	 0.054218778588398 
402	 5.28500725032554E-02 
403	 0.052366399930741 
404	 5.35461387909246E-02 
405	 5.40815846532038E-02 
406	 5.44052955997491E-02 
407	 0.055151677032475 
408	 5.61597688445933E-02 
409	 5.49296848176703E-02 
410	 5.41827628088952E-02 
411	 5.46015323266258E-02 
412	 5.57120456638683E-02 
413	 5.67909287058417E-02 
414	 0.056476955766358 
415	 5.52840978684433E-02 
416	 5.60759627288425E-02 
417	 5.58666938846588E-02 
418	 5.57716595802332E-02 
419	 5.68250768288112E-02 
420	 5.63403411088545E-02 
421	 5.59996516985334E-02 
422	 5.61812839761136E-02 
423	 0.056328066542211 
424	 5.58012971255195E-02 
425	 5.57651763194046E-02 
426	 5.64369144209565E-02 
427	 5.58844514958687E-02 
428	 5.58018558943382E-02 
429	 5.59950583752109E-02 
430	 5.58134528162989E-02 
431	 5.54551192631098E-02 
432	 5.54491623197758E-02 
433	 5.57507225854075E-02 
434	 5.57904429990295E-02 
435	 5.62204269742058E-02 
436	 5.62898125092114E-02 
437	 5.56789582449797E-02 
438	 5.58311318333347E-02 
439	 5.63025080946317E-02 
440	 5.66984429149506E-02 
441	 5.66697572309328E-02 
442	 5.60568960149447E-02 
443	 5.61116941144023E-02 
444	 5.69527104686821E-02 
445	 5.68440875479822E-02 
446	 5.68582014708809E-02 
447	 5.68887511140619E-02 
448	 5.67035474206509E-02 
449	 5.69260594391191E-02 
450	 5.72177317296357E-02 
451	 5.74547709062304E-02 
452	 5.77067289582577E-02 
453	 5.76498621026924E-02 
454	 5.73736393982353E-02 
455	 5.71355726840912E-02 
456	 5.74522763345752E-02 
457	 5.75848023005967E-02 
458	 5.75493950314759E-02 
459	 5.76557694345233E-02 
460	 5.75894265007079E-02 
461	 5.74784384155016E-02 
462	 5.74545325539388E-02 
463	 0.057605856839521 
464	 5.75517194169965E-02 
465	 5.74929103220325E-02 
466	 5.76545513405708E-02 
467	 5.76623195541194E-02 
468	 5.76687972011673E-02 
469	 0.057722805838053 
470	 5.77698490516981E-02 
471	 5.76124488455568E-02 
472	 5.75846035461272E-02 
473	 5.77909883581914E-02 
474	 5.75611005324902E-02 
475	 5.75032518678132E-02 
476	 5.76413998796358E-02 
477	 5.77530441870229E-02 
478	 5.78485099201874E-02 
479	 5.78843283183121E-02 
480	 5.78792474808772E-02 
481	 5.79405804602883E-02 
482	 5.78976171927602E-02 
483	 5.77780551627591E-02 
484	 5.76922269134858E-02 
485	 5.78534853892216E-02 
486	 5.79016929606703E-02 
487	 5.77784010500992E-02 
488	 5.76972046181956E-02 
489	 5.78749565583682E-02 
490	 5.79815324470755E-02 
491	 0.05785648216491 
492	 5.80255917542152E-02 
493	 5.79584210218041E-02 
494	 5.77352970796759E-02 
495	 5.76982255821826E-02 
496	 0.05780688223412 
497	 5.78641007280866E-02 
498	 5.78355786973647E-02 
499	 5.79539402107371E-02 
500	 0.057976727580741 
501	 5.79607243398174E-02 
502	 5.79991296657076E-02 
503	 5.79396036924998E-02 
504	 5.78316621474846E-02 
505	 5.77897787903989E-02 
506	 5.79605051196369E-02 
507	 5.80278997862272E-02 
508	 0.058027821593484 
509	 5.80292437261733E-02 
510	 5.79860513515657E-02 
511	 5.79142730494805E-02 
512	 5.79148904295298E-02 
513	 5.80863962165774E-02 
514	 5.80880315053784E-02 
515	 5.80278468671357E-02 
516	 5.80323069483545E-02 
517	 5.81827726328591E-02 
518	 5.82181819794926E-02 
519	 5.81351656984984E-02 
520	 5.80493195970333E-02 
521	 5.81844555270851E-02 
522	 5.82532634463435E-02 
523	 5.81853764575906E-02 
524	 5.81645314662303E-02 
525	 5.81482237017856E-02 
526	 5.81882741207645E-02 
527	 5.82892013036309E-02 
528	 0.058255897253751 
529	 5.82155961659261E-02 
530	 0.058224952644943 
531	 5.82812117019787E-02 
532	 5.82641211979224E-02 
533	 0.058320315840217 
534	 0.058468808263956 
535	 5.83674699604048E-02 
536	 5.83371316968121E-02 
537	 5.83954031303231E-02 
538	 5.84478200428462E-02 
539	 5.85088809948366E-02 
540	 0.058539824362219 
541	 5.85696732923293E-02 
542	 5.87243877440317E-02 
543	 5.87168226959269E-02 
544	 5.86844428365602E-02 
545	 5.87935992103049E-02 
546	 5.88263333355187E-02 
547	 5.88412764439304E-02 
548	 5.89152859927532E-02 
549	 5.91176149302525E-02 
550	 5.91716401293536E-02 
551	 5.91656787261676E-02 
552	 5.92201697459514E-02 
553	 0.059361883970043 
554	 5.94530201979801E-02 
555	 5.94956026119614E-02 
556	 5.95703798757972E-02 
557	 0.059727100023247 
558	 5.98517606057774E-02 
559	 5.99336712816606E-02 
560	 6.01860280555811E-02 
561	 6.03392698215751E-02 
562	 6.04463004619817E-02 
563	 6.06458711196178E-02 
564	 6.08879626488968E-02 
565	 6.10997871063933E-02 
566	 6.12902368219096E-02 
567	 6.15591738697722E-02 
568	 6.19044139583405E-02 
569	 6.22250108439528E-02 
570	 6.24588085322833E-02 
571	 6.27419636073428E-02 
572	 6.31372529818507E-02 
573	 0.063590568035062 
574	 6.39703798987442E-02 
575	 6.43063438257619E-02 
576	 6.47285840479655E-02 
577	 6.52432953982172E-02 
578	 6.55232324903189E-02 
579	 6.59597126244182E-02 
580	 6.65138160844924E-02 
581	 6.69958959275078E-02 
582	 6.75699797202064E-02 
583	 6.81462019656082E-02 
584	 6.86798118597216E-02 
585	 6.92200412068632E-02 
586	 6.98142800632426E-02 
587	 7.04344754068982E-02 
588	 7.10471775683215E-02 
589	 7.17144655209937E-02 
590	 7.23952530635612E-02 
591	 7.30762640868779E-02 
592	 7.37702563016149E-02 
593	 7.43437458044516E-02 
594	 7.49640706422083E-02 
595	 7.57142762840478E-02 
596	 7.62894217094687E-02 
597	 0.076909751019293 
598	 7.75829043955423E-02 
599	 7.82150998107894E-02 
600	 7.88847743356366E-02 
601	 0.079515457944922 
602	 8.00718626324176E-02 
603	 8.06227391117224E-02 
604	 0.081167043504355 
605	 8.17098075354121E-02 
606	 8.22524242937565E-02 
607	 8.27856138730614E-02 
608	 8.32656750065118E-02 
609	 8.37163115315858E-02 
610	 8.42367831904661E-02 
611	 8.46320743291403E-02 
612	 8.50220685192944E-02 
613	 8.55022181394269E-02 
614	 8.58174893771678E-02 
615	 8.61485229189311E-02 
616	 0.086505655205398 
617	 8.67871799770339E-02 
618	 8.71141949030547E-02 
619	 8.74109305578833E-02 
620	 8.76328841184322E-02 
621	 8.78633014860798E-02 
622	 8.80535456825925E-02 
623	 8.82565269136244E-02 
624	 8.85369264443616E-02 
625	 8.87574455186272E-02 
626	 8.89636464591291E-02 
627	 8.91741790996187E-02 
628	 8.93514725784258E-02 
629	 8.95612193517446E-02 
630	 8.97498616786403E-02 
631	 8.98729048621998E-02 
632	 9.00488206028649E-02 
633	 0.090232569327887 
634	 9.04082354060477E-02 
635	 9.05868803345393E-02 
636	 0.090777541654442 
637	 9.09600398350652E-02 
638	 9.11139830609073E-02 
639	 9.12231649546752E-02 
640	 9.13659615686894E-02 
641	 9.15626493029675E-02 
642	 9.17932592084027E-02 
643	 9.19955958313089E-02 
644	 9.21129033209112E-02 
645	 9.21978868498229E-02 
646	 9.24590399176332E-02 
647	 9.26600796236536E-02 
648	 9.28326926768141E-02 
649	 9.30566598276243E-02 
650	 9.32646599438388E-02 
651	 9.34687713217273E-02 
652	 9.36769512141955E-02 
653	 9.38936948917367E-02 
654	 9.41597869570443E-02 
655	 9.43718491881485E-02 
656	 9.45073216130734E-02 
657	 9.48142977471957E-02 
658	 9.51041584132603E-02 
659	 9.53464406656221E-02 
660	 9.55859509643307E-02 
661	 9.58366481485265E-02 
662	 9.61024538164649E-02 
663	 0.096380169880995 
664	 9.66586694326482E-02 
665	 9.69536324340578E-02 
666	 9.72342256840413E-02 
667	 9.74858506000257E-02 
668	 9.78136587300623E-02 
669	 9.81530682081849E-02 
670	 9.84823290916637E-02 
671	 9.88180739557949E-02 
672	 9.91425688930835E-02 
673	 0.099482374144961 
674	 9.98536848317689E-02 
675	 0.100237536053494 
676	 0.100575643296814 
677	 0.100916063414668 
678	 0.101333068107162 
679	 0.101711022478512 
680	 0.102109682328909 
681	 0.102530691068937 
682	 0.102881242712696 
683	 0.103294727410716 
684	 0.103746339682229 
685	 0.104180546919467 
686	 0.104589670553518 
687	 0.105044195794582 
688	 0.105530258678378 
689	 0.105977846222857 
690	 0.106432045640066 
691	 0.10691334579738 
692	 0.107409695232294 
693	 0.107850051549899 
694	 0.108293917330061 
695	 0.108779575034656 
696	 0.109314743653941 
697	 0.109783576286331 
698	 0.110275214211653 
699	 0.110816909705918 
700	 0.111356433201845 
701	 0.111834813475234 
702	 0.112326199222393 
703	 0.112875063530917 
704	 0.113357567403 
705	 0.113829921817097 
706	 0.11433257585784 
707	 0.114884000062165 
708	 0.115398448666574 
709	 0.115904838826573 
710	 0.116428269800766 
711	 0.116972729324111 
712	 0.117466227146739 
713	 0.11794154250549 
714	 0.118450639935874 
715	 0.118997027920663 
716	 0.119506443268901 
717	 0.119965155778542 
718	 0.120411799404247 
719	 0.120926839001359 
720	 0.121367932135847 
721	 0.121706985870796 
722	 0.122204758089853 
723	 0.122657835497337 
724	 0.123060549492384 
725	 0.123462343642574 
726	 0.123835441213895 
727	 0.124180511323827 
728	 0.124515013519531 
729	 0.124867240268819 
730	 0.12519105695987 
731	 0.125506869740504 
732	 0.125825813639971 
733	 0.126111317006957 
734	 0.126349297084401 
735	 0.126551755568335 
736	 0.126744010891846 
737	 0.126948707428879 
738	 0.127113885533886 
739	 0.127249441000217 
740	 0.127433719897069 
741	 0.127534676622357 
742	 0.127609616803926 
743	 0.127711789689283 
744	 0.127773038144765 
745	 0.127778789600465 
746	 0.127774573724971 
747	 0.127814922953072 
748	 0.12779147290997 
749	 0.127723534249112 
750	 0.12764426669929 
751	 0.127587380033403 
752	 0.127521680782958 
753	 0.127410493628895 
754	 0.127252301780653 
755	 0.127152364969277 
756	 0.127017570376831 
757	 0.126835275856291 
758	 0.126640043808719 
759	 0.126475407529055 
760	 0.126282501964918 
761	 0.126046911233315 
762	 0.125821497463526 
763	 0.125590546495425 
764	 0.125342732348503 
765	 0.125072508843061 
766	 0.124782068922983 
767	 0.124536377359698 
768	 0.124298606220791 
769	 0.123995854952978 
770	 0.123709064614469 
771	 0.123435000114277 
772	 0.12314567981994 
773	 0.122796274634881 
774	 0.122482703951917 
775	 0.122182468543332 
776	 0.12185981977196 
777	 0.121520714836227 
778	 0.121168792466329 
779	 0.120846015248516 
780	 0.120584638319126 
781	 0.120252118506059 
782	 0.119896337317462 
783	 0.119553193652733 
784	 0.119230468439106 
785	 0.118929097649508 
786	 0.118628834222486 
787	 0.118311106751088 
788	 0.117963672045744 
789	 0.117674046495141 
790	 0.117383712793789 
791	 0.117015821427354 
792	 0.116715468972942 
793	 0.116410034075916 
794	 0.116077962181713 
795	 0.115752358349589 
796	 0.115447736958148 
797	 0.115149284357034 
798	 0.114848215656411 
799	 0.114556098277687 
800	 0.114298333914885 
801	 0.114028589375274 
802	 0.113711923299405 
803	 0.113446199956838 
804	 0.113185779776344 
805	 0.112915540304937 
806	 0.112641776388746 
807	 0.1123576705558 
808	 0.112088153458311 
809	 0.111838803917097 
810	 0.111585627079478 
811	 0.111337182381315 
812	 0.111089408275638 
813	 0.110848787942536 
814	 0.110658591843278 
815	 0.110478992809448 
816	 0.110256941652888 
817	 0.109971060217734 
818	 0.109781861568343 
819	 0.109616988714166 
820	 0.109424081619945 
821	 0.109189865628138 
822	 0.108998954059459 
823	 0.108823644142126 
824	 0.108645298833187 
825	 0.108489049949937 
826	 0.108348041909287 
827	 0.108201381510108 
828	 0.108036371521631 
829	 0.107882102516303 
830	 0.107680994716297 
831	 0.107488092459584 
832	 0.10738733588364 
833	 0.107281026843148 
834	 0.107156528623537 
835	 0.107031305771271 
836	 0.10694150245047 
837	 0.106853372316152 
838	 0.106769538109887 
839	 0.106683463001897 
840	 0.106563611329356 
841	 0.106440949634142 
842	 0.106334428793639 
843	 0.106251815404835 
844	 0.106178355643223 
845	 0.106132742644092 
846	 0.106088923260012 
847	 0.106017241705422 
848	 0.10599118417037 
849	 0.105967341702016 
850	 0.105938584144062 
851	 0.10592902399642 
852	 0.105882640788755 
853	 0.105837828709586 
854	 0.105818056134323 
855	 0.10580512771549 
856	 0.105812930820784 
857	 0.105816133325185 
858	 0.105806436143876 
859	 0.105844455948545 
860	 0.105864885677321 
861	 0.105849610617851 
862	 0.10581913182599 
863	 0.105872454670597 
864	 0.105904521812261 
865	 0.105929127487809 
866	 0.106017517479154 
867	 0.106060979614295 
868	 0.106115255631316 
869	 0.106195652116468 
870	 0.106263760732208 
871	 0.106340656802179 
872	 0.10641663926449 
873	 0.106490591716711 
874	 0.10658183730252 
875	 0.106660995166771 
876	 0.106725834794465 
877	 0.106794336695167 
878	 0.106917344245815 
879	 0.107053352952916 
880	 0.107165486602776 
881	 0.107244757782053 
882	 0.107377534221649 
883	 0.107553552737063 
884	 0.107717531614816 
885	 0.107820670781446 
886	 0.108006505078709 
887	 0.10818058583838 
888	 0.108317891201326 
889	 0.108467159045528 
890	 0.108628699211257 
891	 0.108832904064173 
892	 0.109047748475343 
893	 0.109172408251267 
894	 0.109334643113597 
895	 0.109545904941457 
896	 0.10978089423574 
897	 0.109994330202827 
898	 0.110232842525641 
899	 0.110467871951379 
900	 0.110681697500866 
901	 0.110936144803103 
902	 0.111211641864155 
903	 0.111466067670224 
904	 0.111676077560722 
905	 0.111914302084806 
906	 0.112192102545389 
907	 0.11249726027255 
908	 0.112807186510903 
909	 0.113127152701381 
910	 0.113398499621366 
911	 0.11364501587153 
912	 0.113937105010968 
913	 0.114247846010264 
914	 0.11456564114993 
915	 0.114893219717787 
916	 0.115241233428476 
917	 0.115569701251439 
918	 0.115899076581538 
919	 0.116237218470901 
920	 0.116570774224803 
921	 0.116954567761542 
922	 0.117343367530476 
923	 0.117716286790966 
924	 0.11811368240073 
925	 0.118512348996289 
926	 0.118956614283176 
927	 0.119417654160594 
928	 0.119716034134816 
929	 0.120125921351558 
930	 0.12063771775234 
931	 0.121149187366643 
932	 0.121535093240856 
933	 0.121968276262757 
934	 0.122474067965792 
935	 0.122998062235639 
936	 0.123398197168829 
937	 0.123836299401336 
938	 0.124297974776603 
939	 0.124742219266039 
940	 0.125252366593745 
941	 0.125787940348879 
942	 0.12636729626422 
943	 0.126984033420091 
944	 0.127447393615222 
945	 0.12794638634904 
946	 0.128478694903936 
947	 0.128977621963648 
948	 0.129533487612729 
949	 0.130124336878594 
950	 0.130703878107422 
951	 0.131248577757303 
952	 0.131889746590367 
953	 0.13250987201275 
954	 0.133089692836149 
955	 0.133673767750257 
956	 0.134271610582452 
957	 0.134883998864052 
958	 0.135476373299697 
959	 0.136023384725322 
960	 0.136662336211586 
961	 0.137296986620648 
962	 0.137935206327316 
963	 0.138629579539055 
964	 0.139229484652176 
965	 0.139854832372997 
966	 0.14053336121453 
967	 0.141211699437961 
968	 0.14183671137893 
969	 0.142521797892499 
970	 0.143228079485427 
971	 0.143840440060257 
972	 0.144500191893803 
973	 0.145255482927189 
974	 0.14598437928086 
975	 0.146536942723302 
976	 0.147251234613493 
977	 0.148010664423094 
978	 0.148727487456094 
979	 0.14938662411745 
980	 0.150124112942657 
981	 0.150891502327243 
982	 0.151594135248538 
983	 0.152173236756491 
984	 0.152829502023419 
985	 0.1535691621022 
986	 0.154299795593588 
987	 0.154927603249204 
988	 0.155611847969038 
989	 0.156284445368538 
990	 0.156926682966849 
991	 0.157575029020904 
992	 0.158353833808565 
993	 0.159054747530747 
994	 0.159700839996416 
995	 0.160400572267022 
996	 0.161109360677821 
997	 0.161827219021542 
998	 0.162463365802845 
999	 0.163012985935799 
1000	 0.163872746192487 
1001	 0.164744784004147 
1002	 0.165353464570351 
1003	 0.165917444048713 
1004	 0.166506296729894 
1005	 0.167141521804912 
1006	 0.167732878869614 
1007	 0.16828961976802 
1008	 0.16888527280338 
1009	 0.169473381459335 
1010	 0.170020361130492 
1011	 0.170543064644545 
1012	 0.171076479617461 
1013	 0.171572234965135 
1014	 0.17205416070255 
1015	 0.172622253895693 
1016	 0.17315289893981 
1017	 0.173683176905389 
1018	 0.174226202852765 
1019	 0.174770593192335 
1020	 0.175222757589689 
1021	 0.175707318757034 
1022	 0.176163073912255 
1023	 0.176526226096413 
1024	 0.176892196380266 
1025	 0.177273717680712 
1026	 0.177648162939506 
1027	 0.178078774592965 
1028	 0.17858152383389 
1029	 0.17901831605362 
1030	 0.17940410575848 
1031	 0.17980830247473 
1032	 0.180208614743648 
1033	 0.180590614240371 
1034	 0.180970928732077 
1035	 0.181340305314549 
1036	 0.181735280060249 
1037	 0.182104128041792 
1038	 0.182477055592898 
1039	 0.182882402918361 
1040	 0.183189731877404 
1041	 0.183516202329315 
1042	 0.183863129439683 
1043	 0.184151978833835 
1044	 0.184480216133318 
1045	 0.184847280551144 
1046	 0.185195714413595 
1047	 0.185526385364789 
1048	 0.18591665478131 
1049	 0.186261181543825 
1050	 0.186538433161837 
1051	 0.186820924368344 
1052	 0.187105657419595 
1053	 0.18743237341995 
1054	 0.187813998363478 
1055	 0.1881964503879 
1056	 0.188543450765559 
1057	 0.188887258376116 
1058	 0.189227100825387 
1059	 0.189559191778971 
1060	 0.18988404109945 
1061	 0.19017644402363 
1062	 0.190488094777477 
1063	 0.190765584569008 
1064	 0.191114298830586 
1065	 0.191539345566597 
1066	 0.191912392855265 
1067	 0.192238994035552 
1068	 0.192504629861506 
1069	 0.192786477228008 
1070	 0.193114541169791 
1071	 0.193513458570784 
1072	 0.193849913086486 
1073	 0.194204893667735 
1074	 0.194495656142851 
1075	 0.194711661897553 
1076	 0.194951121489655 
1077	 0.195210615097423 
1078	 0.195472124404186 
1079	 0.19577624888704 
1080	 0.196082712855197 
1081	 0.196409814572376 
1082	 0.196753586369035 
1083	 0.197037856153972 
1084	 0.197295221086711 
1085	 0.197552549052686 
1086	 0.197752631447638 
1087	 0.197985938412699 
1088	 0.198232530166452 
1089	 0.198493284654643 
1090	 0.198743435658712 
1091	 0.19900623210696 
1092	 0.199248422791905 
1093	 0.199468415847433 
1094	 0.199707972366856 
1095	 0.199935849721957 
1096	 0.200147174824026 
1097	 0.200374877910827 
1098	 0.20059219331774 
1099	 0.200780392915031 
1100	 0.200993126984416 
1101	 0.201224784265399 
1102	 0.201449192801456 
1103	 0.201680309525159 
1104	 0.201895760937673 
1105	 0.202127177858146 
1106	 0.202333052686939 
1107	 0.20253590529217 
1108	 0.202731968858402 
1109	 0.202896543530179 
1110	 0.203105827582422 
1111	 0.203294774251204 
1112	 0.203472948549415 
1113	 0.203663085796158 
1114	 0.203859093475051 
1115	 0.204042844319546 
1116	 0.204222886929811 
1117	 0.204414949069158 
1118	 0.204615914350484 
1119	 0.204797465911063 
1120	 0.204982979662689 
1121	 0.205182511936571 
1122	 0.205345879451852 
1123	 0.20550990713259 
1124	 0.205686872023738 
1125	 0.205865446547254 
1126	 0.206047146214965 
1127	 0.206248886660659 
1128	 0.206419469696808 
1129	 0.206572769969344 
1130	 0.206736791638976 
1131	 0.206895120496052 
1132	 0.207050379594545 
1133	 0.207206763140581 
1134	 0.207364721047775 
1135	 0.207527495193837 
1136	 0.207672227510917 
1137	 0.207798295385028 
1138	 0.207925956572279 
1139	 0.208048011311029 
1140	 0.208140073792335 
1141	 0.208262366063534 
1142	 0.208404669229108 
1143	 0.208531846325335 
1144	 0.208658864433596 
1145	 0.208780658390471 
1146	 0.208904723575367 
1147	 0.209019581887643 
1148	 0.209116180045514 
1149	 0.209227267437331 
1150	 0.209345403411091 
1151	 0.209451177456383 
1152	 0.209571999906472 
1153	 0.209699281173781 
1154	 0.209804462639439 
1155	 0.209892394337876 
1156	 0.209994034921275 
1157	 0.210077617129013 
1158	 0.210194010840417 
1159	 0.210341369660356 
1160	 0.210465759634761 
1161	 0.21060663894333 
1162	 0.210721959842532 
1163	 0.210799761364819 
1164	 0.210902113983731 
1165	 0.211005872377784 
1166	 0.211117587579167 
1167	 0.211231571630733 
1168	 0.211346058251441 
1169	 0.211453646272872 
1170	 0.21155239007648 
1171	 0.211654894315879 
1172	 0.211759601721181 
1173	 0.2118608951827 
1174	 0.211956083917968 
1175	 0.212054883190357 
1176	 0.212160331070751 
1177	 0.212254250912165 
1178	 0.212347385106719 
1179	 0.212435181675292 
1180	 0.212502241871308 
1181	 0.212586035451878 
1182	 0.212686249631855 
1183	 0.212767631773321 
1184	 0.212858116871891 
1185	 0.21295789267313 
1186	 0.213053953070383 
1187	 0.213148828686212 
1188	 0.213237623744493 
1189	 0.213323916345438 
1190	 0.21341315424396 
1191	 0.213505308276624 
1192	 0.213583624553033 
1193	 0.213657437708598 
1194	 0.213732297113712 
1195	 0.213789616558209 
1196	 0.213857948511322 
1197	 0.213933601015718 
1198	 0.214014114420184 
1199	 0.214097965976864 
1200	 0.214184031817495 
1201	 0.214268773287033 
1202	 0.214362085379189 
1203	 0.21444492677655 
1204	 0.214521541707776 
1205	 0.21459934801779 
1206	 0.214672304903235 
1207	 0.214750618539295 
1208	 0.214841984066621 
1209	 0.214910394552536 
1210	 0.214969863726336 
1211	 0.215027892005203 
1212	 0.215059027574978 
1213	 0.215109392991923 
1214	 0.215173025230243 
1215	 0.215234316458278 
1216	 0.215298266556156 
1217	 0.215372214994209 
1218	 0.215431407429834 
1219	 0.215485028091661 
1220	 0.215538904257379 
1221	 0.215579178955647 
1222	 0.215638998518515 
1223	 0.215714879527485 
1224	 0.215775233687529 
1225	 0.215835639836643 
1226	 0.215897990192676 
1227	 0.215951961944848 
1228	 0.216007732047374 
1229	 0.216070197107607 
1230	 0.216130857847178 
1231	 0.216194754811845 
1232	 0.216247350896041 
1233	 0.216295015169019 
1234	 0.216344780523577 
1235	 0.216381671543875 
1236	 0.216393522354105 
1237	 0.216432847230019 
1238	 0.216478614532355 
1239	 0.216526606235934 
1240	 0.216591514622842 
1241	 0.216644285583573 
1242	 0.216701943044682 
1243	 0.216740997270804 
1244	 0.216755136223534 
1245	 0.216792031660709 
1246	 0.216824882945789 
1247	 0.216863393276672 
1248	 0.21691567415821 
1249	 0.216980007162634 
1250	 0.217017830373826 
1251	 0.217071423045673 
1252	 0.217114778381248 
1253	 0.217160174303606 
1254	 0.217192668510255 
1255	 0.217217291035935 
1256	 0.217240179545463 
1257	 0.217256501322412 
1258	 0.21726920469748 
1259	 0.217261442348258 
1260	 0.217286017768176 
1261	 0.217336330702856 
1262	 0.217360398030532 
1263	 0.217390700419707 
1264	 0.217418307851527 
1265	 0.217418612175686 
1266	 0.217431019500351 
1267	 0.217456007223364 
1268	 0.217488505624514 
1269	 0.217509651246927 
1270	 0.217525658711134 
1271	 0.21753838777729 
1272	 0.217535511585668 
1273	 0.217563617468954 
1274	 0.217602756414915 
1275	 0.217637050728794 
1276	 0.217688400499677 
1277	 0.21773986361536 
1278	 0.21777673440533 
1279	 0.217833277624876 
1280	 0.217918189934641 
1281	 0.217987139683456 
1282	 0.218049152237394 
1283	 0.218119072392906 
1284	 0.218188542028393 
1285	 0.218264124092085 
1286	 0.218321975096894 
1287	 0.218407458334334 
1288	 0.218486831863474 
1289	 0.218557243840567 
1290	 0.218642851441841 
1291	 0.218755565132591 
1292	 0.218830637461769 
1293	 0.218896426406332 
1294	 0.218957872234298 
1295	 0.218988107618383 
1296	 0.219044594314356 
1297	 0.219123372410644 
1298	 0.219179517149171 
1299	 0.219234978770409 
1300	 0.21928201879996 
1301	 0.219300098361115 
1302	 0.219337999691452 
1303	 0.219384393649688 
1304	 0.219436261009372 
1305	 0.219482681255714 
1306	 0.219518758906961 
1307	 0.219540937038854 
1308	 0.21955482940454 
1309	 0.219555880872379 
1310	 0.219551127596275 
1311	 0.219530007885623 
1312	 0.219477366501663 
1313	 0.219452338496408 
1314	 0.21943580254153 
1315	 0.21940635338762 
1316	 0.219380711437778 
1317	 0.219356077598472 
1318	 0.219327602997721 
1319	 0.21928726404808 
1320	 0.219244217159579 
1321	 0.219201000823339 
1322	 0.219144010828793 
1323	 0.219090754178993 
1324	 0.219040927846001 
1325	 0.21899776272986 
1326	 0.218945604570658 
1327	 0.218883543605633 
1328	 0.218807688185407 
1329	 0.218747503025091 
1330	 0.218686860544118 
1331	 0.218627778145399 
1332	 0.218552537792166 
1333	 0.21848466379829 
1334	 0.218398248034038 
1335	 0.218272906618124 
1336	 0.218189025873647 
1337	 0.218121553421081 
1338	 0.218049420545839 
1339	 0.217992831413902 
1340	 0.217930489715217 
1341	 0.217870898538269 
1342	 0.217799249384655 
1343	 0.217714388319867 
1344	 0.217646947342898 
1345	 0.217585649995577 
1346	 0.217501237818312 
1347	 0.217428788834037 
1348	 0.217365635696128 
1349	 0.217271774648666 
1350	 0.21718030970943 
1351	 0.217113819734082 
1352	 0.217068842928341 
1353	 0.21700011273655 
1354	 0.216942506295388 
1355	 0.216867581218577 
1356	 0.216762689336681 
1357	 0.216677317736528 
1358	 0.216591667625999 
1359	 0.216527488534101 
1360	 0.216472483845332 
1361	 0.216421581138807 
1362	 0.216406210191167 
1363	 0.216355186430295 
1364	 0.216285307378377 
1365	 0.216221830803424 
1366	 0.216149590240861 
1367	 0.216069237443907 
1368	 0.216002564759657 
1369	 0.215930868201096 
1370	 0.215828789434602 
1371	 0.215723013350519 
1372	 0.215602987074483 
1373	 0.215472778581907 
1374	 0.215328689243428 
1375	 0.215177312762781 
1376	 0.2150051782692 
1377	 0.214817192498263 
1378	 0.214609190393708 
1379	 0.214392013509999 
1380	 0.214147229717742 
1381	 0.213867579135285 
1382	 0.213589076747682 
1383	 0.213300431791025 
1384	 0.212995996495174 
1385	 0.212706061687788 
1386	 0.212361473420349 
1387	 0.211981149440342 
1388	 0.211576438675491 
1389	 0.211138500382143 
1390	 0.21067189139128 
1391	 0.21018482364276 
1392	 0.209678172107464 
1393	 0.209119067760629 
1394	 0.20853950410376 
1395	 0.207916649678877 
1396	 0.207274523765722 
1397	 0.206647601928229 
1398	 0.206001488890799 
1399	 0.205374497934447 
1400	 0.204771174156121 
1401	 0.204141490939093 
1402	 0.203497724168135 
1403	 0.202872957426908 
1404	 0.202227513873129 
1405	 0.201628557393134 
1406	 0.201061667654275 
1407	 0.200493351322185 
1408	 0.199934347352596 
1409	 0.199404333375737 
1410	 0.198872270184944 
1411	 0.198387881185314 
1412	 0.197941532352395 
1413	 0.19751811854646 
1414	 0.197146790933402 
1415	 0.196800504313351 
1416	 0.19647660237061 
1417	 0.196183791904389 
1418	 0.195876158621951 
1419	 0.195582879016507 
1420	 0.19531937996813 
1421	 0.195065880917974 
1422	 0.194856952027472 
1423	 0.194657603744363 
1424	 0.194442432047561 
1425	 0.194224964081228 
1426	 0.194028439650384 
1427	 0.193814025378478 
1428	 0.193644469105998 
1429	 0.193510699428275 
1430	 0.193382362742807 
1431	 0.19328312235079 
1432	 0.1931762526819 
1433	 0.193077251790897 
1434	 0.192981539211624 
1435	 0.192864032054199 
1436	 0.192790606969932 
1437	 0.192758361811503 
1438	 0.192710700740294 
1439	 0.192682108546514 
1440	 0.192653147736781 
1441	 0.19259239691506 
1442	 0.192540367633203 
1443	 0.192513365619944 
1444	 0.19248924154563 
1445	 0.192471315963785 
1446	 0.192462179926152 
1447	 0.192455141613989 
1448	 0.192444858557175 
1449	 0.192431767233879 
1450	 0.19241999328831 
1451	 0.192417678659327 
1452	 0.192410221360024 
1453	 0.192419180161934 
1454	 0.192449820303592 
1455	 0.192466443859723 
1456	 0.192483864346669 
1457	 0.192496969544081 
1458	 0.192496257581809 
1459	 0.192520137745497 
1460	 0.192548988925166 
1461	 0.192588470209481 
1462	 0.192643151382995 
1463	 0.192707239322645 
1464	 0.192784271228746 
1465	 0.192856476319548 
1466	 0.192934470583619 
1467	 0.193020015299607 
1468	 0.193083923672048 
1469	 0.193194042395721 
1470	 0.193338335932419 
1471	 0.193488593158261 
1472	 0.19366516935355 
1473	 0.193840916056873 
1474	 0.193990651744633 
1475	 0.194169944795637 
1476	 0.194346671871885 
1477	 0.19451784691128 
1478	 0.194702207483719 
1479	 0.194871870638139 
1480	 0.19505198992356 
1481	 0.195238672318699 
1482	 0.195427958454789 
1483	 0.195633890522372 
1484	 0.195817270521739 
1485	 0.195989412638923 
1486	 0.196170621431258 
1487	 0.196338407617648 
1488	 0.196526392394034 
1489	 0.196738763252823 
1490	 0.196928324820251 
1491	 0.197117027635148 
1492	 0.197298957963943 
1493	 0.197458928000283 
1494	 0.197634326645846 
1495	 0.197821300313965 
1496	 0.197999603973637 
1497	 0.198180894844877 
1498	 0.198358800159372 
1499	 0.198534996694654 
1500	 0.19869828418026 
1501	 0.198848146072441 
1502	 0.199008650653051 
1503	 0.199164898203467 
1504	 0.199319586177422 
1505	 0.199494719270245 
1506	 0.199662767137865 
1507	 0.199825712054771 
1508	 0.199996090988445 
1509	 0.200151612012229 
1510	 0.200302011200462 
1511	 0.200452565731942 
1512	 0.200592017314478 
1513	 0.200738705513313 
1514	 0.200896475346046 
1515	 0.20104853055299 
1516	 0.201198416725538 
1517	 0.201338577307249 
1518	 0.201473642058717 
1519	 0.201602449208925 
1520	 0.201716151209603 
1521	 0.201844181516178 
1522	 0.201973097422246 
1523	 0.202107623492888 
1524	 0.202254884750066 
1525	 0.202386427797094 
1526	 0.202512214164137 
1527	 0.202639183052442 
1528	 0.202760811476178 
1529	 0.202884007283934 
1530	 0.203011010258431 
1531	 0.20313097450119 
1532	 0.203248882153706 
1533	 0.203359390642662 
1534	 0.203461155268137 
1535	 0.203566822833889 
1536	 0.203664851701392 
1537	 0.203766796173244 
1538	 0.203869967307309 
1539	 0.203981084806454 
1540	 0.2040990511675 
1541	 0.204212926827413 
1542	 0.204343288101996 
1543	 0.204450309027387 
1544	 0.204537289390857 
1545	 0.204630038237143 
1546	 0.204721013045537 
1547	 0.204794300157333 
1548	 0.204871864385273 
1549	 0.204948430922673 
1550	 0.205005923215711 
1551	 0.205086273786457 
1552	 0.205182791804205 
1553	 0.205266046184896 
1554	 0.205361756429981 
1555	 0.2054504811836 
1556	 0.205510098544399 
1557	 0.205583420496756 
1558	 0.205661854076445 
1559	 0.205718971359186 
1560	 0.205775903061369 
1561	 0.205834155827787 
1562	 0.205887311443083 
1563	 0.205921556739648 
1564	 0.205979883350223 
1565	 0.206053778291695 
1566	 0.206112806908294 
1567	 0.206172639884356 
1568	 0.206236244451981 
1569	 0.206295916577202 
1570	 0.206354782792588 
1571	 0.206420959429749 
1572	 0.206479855724829 
1573	 0.20653690550024 
1574	 0.206578613975135 
1575	 0.206607450615646 
1576	 0.206646161371088 
1577	 0.20666480015951 
1578	 0.206713951219672 
1579	 0.206795538105704 
1580	 0.206855480938859 
1581	 0.206920241176538 
1582	 0.206972172107418 
1583	 0.207003877503958 
1584	 0.207052949454177 
1585	 0.207112556757728 
1586	 0.207159526681056 
1587	 0.207215455273933 
1588	 0.207250431634338 
1589	 0.207256910864355 
1590	 0.207278593365972 
1591	 0.207292399953619 
1592	 0.207320035913603 
1593	 0.207368324777036 
1594	 0.207402687624085 
1595	 0.207430776869252 
1596	 0.207464552157291 
1597	 0.207495080225815 
1598	 0.20752676707903 
1599	 0.207579654131991 
1600	 0.207608272682739 
1601	 0.207606891205211 
1602	 0.207625784907413 
1603	 0.207640795490285 
1604	 0.207660330359478 
1605	 0.207691041093665 
1606	 0.207729834867017 
1607	 0.207777928940045 
1608	 0.20781736081904 
1609	 0.207865980068702 
1610	 0.207915578334664 
1611	 0.207937748099743 
1612	 0.207956275147069 
1613	 0.207966425346974 
1614	 0.20798278907986 
1615	 0.208016995777672 
1616	 0.208036016638943 
1617	 0.208049820488147 
1618	 0.208064940015827 
1619	 0.208074976923735 
1620	 0.20808393269891 
1621	 0.208102163062459 
1622	 0.208137458574418 
1623	 0.208151652803831 
1624	 0.208160797229432 
1625	 0.208164905103041 
1626	 0.208159198642597 
1627	 0.208154929600576 
1628	 0.208140313515658 
1629	 0.208150119378985 
1630	 0.208166610447263 
1631	 0.208185991701044 
1632	 0.20822314638112 
1633	 0.208250033808985 
1634	 0.208275656113779 
1635	 0.208296725701578 
1636	 0.208325760173726 
1637	 0.208328321644675 
1638	 0.2083062692999 
1639	 0.208304031049121 
1640	 0.208296558677727 
1641	 0.20829129028741 
1642	 0.208298015658911 
1643	 0.20829676028596 
1644	 0.208276045458299 
1645	 0.208286424446161 
1646	 0.208322259146622 
1647	 0.208334336484049 
1648	 0.208353033228133 
1649	 0.208360754384813 
1650	 0.208348631273778 
1651	 0.208344597272244 
1652	 0.208345526217326 
1653	 0.208340524491114 
1654	 0.208325101355069 
1655	 0.208321873765157 
1656	 0.208333546690374 
1657	 0.208320665771477 
1658	 0.208301188984028 
1659	 0.208279142792467 
1660	 0.208223959959425 
1661	 0.208212855061812 
1662	 0.20823480878433 
1663	 0.208230412100015 
1664	 0.208236810575962 
1665	 0.208230524580205 
1666	 0.208198653326381 
1667	 0.208183652106381 
1668	 0.20818489024348 
1669	 0.208167137238027 
1670	 0.208133292688629 
1671	 0.208117787246373 
1672	 0.208105955804567 
1673	 0.208088737885217 
1674	 0.208082144284479 
1675	 0.208067721719361 
1676	 0.208033032065615 
1677	 0.208021702466697 
1678	 0.208035095216089 
1679	 0.208021146516504 
1680	 0.208005523176093 
1681	 0.207981959394201 
1682	 0.207934966079518 
1683	 0.20790043925262 
1684	 0.2078586460216 
1685	 0.207843811685231 
1686	 0.207852348596918 
1687	 0.207839658990866 
1688	 0.207843400137039 
1689	 0.207826027552968 
1690	 0.207779184355908 
1691	 0.207743574974068 
1692	 0.207704105811602 
1693	 0.207677469519515 
1694	 0.207651342149811 
1695	 0.207632728996476 
1696	 0.207634812782208 
1697	 0.207620788403662 
1698	 0.20759881467983 
1699	 0.207583684190676 
1700	 0.207569734205054 
1701	 0.207548052565686 
1702	 0.207525895875676 
1703	 0.207501320304773 
1704	 0.207483187202663 
1705	 0.207436606720235 
1706	 0.207371636576983 
1707	 0.207312997460042 
1708	 0.207221889354381 
1709	 0.207168906650363 
1710	 0.207143797834118 
1711	 0.207111765984347 
1712	 0.207104151484841 
1713	 0.207056325261764 
1714	 0.206981890167607 
1715	 0.206925854432724 
1716	 0.206859234427605 
1717	 0.206796579424456 
1718	 0.206751434598385 
1719	 0.20669203030823 
1720	 0.206604623853673 
1721	 0.20655209873228 
1722	 0.206520231287776 
1723	 0.206477873076891 
1724	 0.206461134656605 
1725	 0.206404699048954 
1726	 0.206314668789421 
1727	 0.206247886056353 
1728	 0.206168485066971 
1729	 0.206109010620499 
1730	 0.206082719657301 
1731	 0.206019397631869 
1732	 0.205946850397932 
1733	 0.205865405962411 
1734	 0.205754833389614 
1735	 0.205666532067448 
1736	 0.205586695913099 
1737	 0.205500575736268 
1738	 0.205414929146819 
1739	 0.205335134779877 
1740	 0.205262515852862 
1741	 0.205171516065114 
1742	 0.205072639814306 
1743	 0.204986714863505 
1744	 0.204895699758949 
1745	 0.20479463869659 
1746	 0.204707916021264 
1747	 0.204592115652369 
1748	 0.204467226937731 
1749	 0.204377636923156 
1750	 0.204273484327445 
1751	 0.204180171432192 
1752	 0.204095445085705 
1753	 0.203993097201134 
1754	 0.203897351748108 
1755	 0.203786392053095 
1756	 0.203680753382413 
1757	 0.203572083351953 
1758	 0.203463880458814 
1759	 0.203397077274533 
1760	 0.203341078793105 
1761	 0.203297856715626 
1762	 0.203252122996634 
1763	 0.203158962954201 
1764	 0.203042076973029 
1765	 0.202932069003845 
1766	 0.202828343862017 
1767	 0.202747819278367 
1768	 0.202692295849193 
1769	 0.202610814182655 
1770	 0.202500672390082 
1771	 0.202391571231117 
1772	 0.202288101578529 
1773	 0.202214523935438 
1774	 0.202166732519871 
1775	 0.202114375849904 
1776	 0.202044851061457 
1777	 0.201971219096832 
1778	 0.20191021443704 
1779	 0.20183423535232 
1780	 0.201771383034021 
1781	 0.20172440278732 
1782	 0.201667132144555 
1783	 0.201685599706131 
1784	 0.20166765282971 
1785	 0.201644828690889 
1786	 0.201612407469113 
1787	 0.201559673910545 
1788	 0.201493722851628 
1789	 0.201404592138593 
1790	 0.201339222577589 
1791	 0.201269437854308 
1792	 0.201223375877955 
1793	 0.20120345176943 
1794	 0.201172256641757 
1795	 0.201150822640423 
1796	 0.201114185151832 
1797	 0.2010592226457 
1798	 0.201037164372505 
1799	 0.201024332847955 
1800	 0.201017694184844 
1801	 0.196464902508053 
1802	 0.196608304834344 
1803	 0.196793550963777 
1804	 0.197009853984171 
1805	 0.1972055383484 
1806	 0.19743723697574 
1807	 0.19766205546346 
1808	 0.197838355084373 
1809	 0.198011835785409 
1810	 0.198141320051517 
1811	 0.1982124958142 
1812	 0.198282041426975 
1813	 0.198375941308244 
1814	 0.198419508366258 
1815	 0.198470780847324 
1816	 0.198523044257677 
1817	 0.198553323599381 
1818	 0.198539786858308 
1819	 0.198573315411277 
1820	 0.198619956218713 
1821	 0.198666049381419 
1822	 0.198714362864604 
1823	 0.198751094872935 
1824	 0.198774235203633 
1825	 0.198787160166557 
1826	 0.198798289159376 
1827	 0.198814797757349 
1828	 0.198815833011686 
1829	 0.198795411021549 
1830	 0.19878385609801 
1831	 0.198769862237127 
1832	 0.198756021912761 
1833	 0.198740256951013 
1834	 0.198725756923735 
1835	 0.198684410192738 
1836	 0.198625358832371 
1837	 0.198584342348228 
1838	 0.198548707224731 
1839	 0.198511147829159 
1840	 0.198482575395149 
1841	 0.198458194607379 
1842	 0.198406406601691 
1843	 0.198335274529072 
1844	 0.198253715075462 
1845	 0.198167450835662 
1846	 0.198066031255623 
1847	 0.197955614111057 
1848	 0.197853620182836 
1849	 0.197748870644262 
1850	 0.19765811424145 
1851	 0.197584994663638 
1852	 0.197527583792086 
1853	 0.197437206678218 
1854	 0.197310427321421 
1855	 0.197166426968591 
1856	 0.196977293473149 
1857	 0.196756589077661 
1858	 0.196538739305093 
1859	 0.196290576056303 
1860	 0.196016072020673 
1861	 0.195715854707143 
1862	 0.19539906056955 
1863	 0.195047013063387 
1864	 0.194664480095172 
1865	 0.194250410004795 
1866	 0.193817685995106 
1867	 0.193368808810419 
1868	 0.192879940486992 
1869	 0.192326415263154 
1870	 0.191707486206878 
1871	 0.191058747260246 
1872	 0.190355492638621 
1873	 0.189622911222816 
1874	 0.188870610126517 
1875	 0.188087957992322 
1876	 0.187215003456506 
1877	 0.186262616284386 
1878	 0.185264871676446 
1879	 0.184185240558251 
1880	 0.183049153376776 
1881	 0.181879066841767 
1882	 0.180619709350802 
1883	 0.179288306611156 
1884	 0.177845025344652 
1885	 0.176362663294949 
1886	 0.174798044672223 
1887	 0.173157110084118 
1888	 0.171499536186414 
1889	 0.169764146250666 
1890	 0.167986949117823 
1891	 0.16620808398367 
1892	 0.164361085129571 
1893	 0.162557407877476 
1894	 0.160759635443505 
1895	 0.158963795457678 
1896	 0.157185469837151 
1897	 0.155457817516378 
1898	 0.15372163366332 
1899	 0.152018038515892 
1900	 0.150376792330664 
1901	 0.148801818296417 
1902	 0.14732120849009 
1903	 0.145950288817436 
1904	 0.144629911507115 
1905	 0.143386618420501 
1906	 0.142211247367313 
1907	 0.141066157308493 
1908	 0.140017483070725 
1909	 0.139051123623226 
1910	 0.138135621552771 
1911	 0.137320726322103 
1912	 0.13655206490308 
1913	 0.135817776154809 
1914	 0.135119304939095 
1915	 0.134482020805865 
1916	 0.133891452852311 
1917	 0.133350624995071 
1918	 0.132861726314837 
1919	 0.132407211570618 
1920	 0.131985559990991 
1921	 0.131619185582594 
1922	 0.13130828959676 
1923	 0.131015268748849 
1924	 0.130761896040405 
1925	 0.130548390719252 
1926	 0.130369236295426 
1927	 0.130218864298933 
1928	 0.130115488548099 
1929	 0.130044798906159 
1930	 0.129974786466639 
1931	 0.129932021873243 
1932	 0.129937215388503 
1933	 0.129949332068647 
1934	 0.129975037799865 
1935	 0.130025066009333 
1936	 0.130080600791522 
1937	 0.130171974420823 
1938	 0.130305296743879 
1939	 0.130443296455719 
1940	 0.130607066786491 
1941	 0.130772320960716 
1942	 0.130951501560859 
1943	 0.131142076081353 
1944	 0.131346168262586 
1945	 0.131577260016495 
1946	 0.131820927329172 
1947	 0.132079697055261 
1948	 0.132356476938556 
1949	 0.132662683823633 
1950	 0.13296157129286 
1951	 0.133271251139515 
1952	 0.133581177625511 
1953	 0.1338916111092 
1954	 0.13422409067495 
1955	 0.134575598860443 
1956	 0.134943363773893 
1957	 0.135310251405334 
1958	 0.135692112670577 
1959	 0.136070126786967 
1960	 0.136439780628428 
1961	 0.136827405769977 
1962	 0.137230378696962 
1963	 0.13763395848263 
1964	 0.138044930062771 
1965	 0.138462256457423 
1966	 0.138884858372425 
1967	 0.139309356983611 
1968	 0.139738651151526 
1969	 0.140171707607738 
1970	 0.140615787197475 
1971	 0.141078165492555 
1972	 0.141521528711104 
1973	 0.141973337863164 
1974	 0.142407081695703 
1975	 0.142818478810884 
1976	 0.143230572353861 
1977	 0.143653328202049 
1978	 0.144081833578621 
1979	 0.144534981129885 
1980	 0.14498885002729 
1981	 0.145424476088891 
1982	 0.145841130330124 
1983	 0.146283199732664 
1984	 0.146712658661798 
1985	 0.147169566835369 
1986	 0.1476789049515 
1987	 0.148150396872768 
1988	 0.14862478347799 
1989	 0.149077832341969 
1990	 0.149492915179967 
1991	 0.149922868612045 
1992	 0.150357918744583 
1993	 0.150794182536617 
1994	 0.151223095639597 
1995	 0.15165333942374 
1996	 0.152086248694491 
1997	 0.152518645989015 
1998	 0.152943809819243 
1999	 0.153366740665353 
2000	 0.15379734653851 
2001	 0.154223615914831 
2002	 0.154644256278219 
2003	 0.155100679809826 
2004	 0.155542158760418 
2005	 0.155957515679305 
2006	 0.156356081306964 
2007	 0.156753384915629 
2008	 0.157116118965793 
2009	 0.157504640416178 
2010	 0.15790962715866 
2011	 0.158302985561319 
2012	 0.15869252734101 
2013	 0.159089116958932 
2014	 0.1595017131161 
2015	 0.159882346542992 
2016	 0.160254075577771 
2017	 0.160636044085704 
2018	 0.161016650098837 
2019	 0.161390507288171 
2020	 0.161756160925173 
2021	 0.16213049570253 
2022	 0.162489696678393 
2023	 0.162818223786745 
2024	 0.163166859110266 
2025	 0.163520629957988 
2026	 0.163879107698236 
2027	 0.164251418244407 
2028	 0.164609879682813 
2029	 0.164970972113894 
2030	 0.165342003733047 
2031	 0.165688792164995 
2032	 0.166025372913152 
2033	 0.166355419695685 
2034	 0.166667364842231 
2035	 0.166983346939796 
2036	 0.167301695900906 
2037	 0.167608078448979 
2038	 0.167904335915655 
2039	 0.168199887467686 
2040	 0.168501812797174 
2041	 0.168769918494837 
2042	 0.169035664267337 
2043	 0.169328597216007 
2044	 0.169608103977515 
2045	 0.169880081563997 
2046	 0.170162345974721 
2047	 0.170450656891158 
2048	 0.170735496025002 
2049	 0.171038952250933 
2050	 0.171309931216871 
2051	 0.171559882557403 
2052	 0.171814372801701 
2053	 0.172049339199276 
2054	 0.172287795638578 
2055	 0.172522668370088 
2056	 0.172771748047234 
2057	 0.173018654651033 
2058	 0.173261535293577 
2059	 0.173511170012252 
2060	 0.173770903094658 
2061	 0.174026070132203 
2062	 0.17429199493813 
2063	 0.174533417192838 
2064	 0.174765013076199 
2065	 0.174994228678065 
2066	 0.175191933664347 
2067	 0.175411983341941 
2068	 0.17564278758052 
2069	 0.17587415810386 
2070	 0.17611743693834 
2071	 0.176375244244337 
2072	 0.176624433293653 
2073	 0.176893054653119 
2074	 0.177121783717742 
2075	 0.177323476294756 
2076	 0.17754049074707 
2077	 0.177742127641078 
2078	 0.177950236060247 
2079	 0.178174703607683 
2080	 0.178386368296212 
2081	 0.178577541966354 
2082	 0.178781209616929 
2083	 0.178980978931685 
2084	 0.179195858210303 
2085	 0.179420240934088 
2086	 0.179659834266823 
2087	 0.179887581313724 
2088	 0.180130568617738 
2089	 0.180348589720812 
2090	 0.180550958376178 
2091	 0.180752844987329 
2092	 0.18095186528753 
2093	 0.181136406850785 
2094	 0.181285100455929 
2095	 0.181472713746872 
2096	 0.181684739912997 
2097	 0.18187506713644 
2098	 0.182061015635511 
2099	 0.182279177182302 
2100	 0.182474617286197 
2101	 0.182639575188836 
2102	 0.182826952646244 
2103	 0.183032187514369 
2104	 0.183229440998182 
2105	 0.183417012545429 
2106	 0.183615545105707 
2107	 0.183829569699508 
2108	 0.184032046886925 
2109	 0.184226066115716 
2110	 0.184430724671751 
2111	 0.184645366821477 
2112	 0.184844961302673 
2113	 0.185043978857125 
2114	 0.185239271364425 
2115	 0.185433100798861 
2116	 0.185608131769814 
2117	 0.185808276609807 
2118	 0.186028266028952 
2119	 0.186229724242658 
2120	 0.186438604514434 
2121	 0.186628986186941 
2122	 0.186795348259955 
2123	 0.186977228516519 
2124	 0.187174769555401 
2125	 0.187339964283816 
2126	 0.187490287003098 
2127	 0.187644394677629 
2128	 0.187782769608836 
2129	 0.187911254775125 
2130	 0.188041043150089 
2131	 0.188165788896653 
2132	 0.18828325007991 
2133	 0.188386096426984 
2134	 0.188479436112923 
2135	 0.188574914377666 
2136	 0.188649821056822 
2137	 0.188699431087442 
2138	 0.188748027379915 
2139	 0.188795471043555 
2140	 0.188826594139052 
2141	 0.188833611062691 
2142	 0.188848064305248 
2143	 0.188865822532311 
2144	 0.188864941002156 
2145	 0.188850526745755 
2146	 0.188840012367553 
2147	 0.188822681559173 
2148	 0.188787883496008 
2149	 0.188769320267905 
2150	 0.188768518743331 
2151	 0.188741380645397 
2152	 0.188703403257976 
2153	 0.188668304471214 
2154	 0.188631755139829 
2155	 0.188574255391612 
2156	 0.188526014872945 
2157	 0.188437617609821 
2158	 0.18829335124527 
2159	 0.188179478477884 
2160	 0.188047604701635 
2161	 0.187935783063022 
2162	 0.187867288385235 
2163	 0.187765794950603 
2164	 0.187667385977791 
2165	 0.187534053477253 
2166	 0.187404237272092 
2167	 0.187244557825541 
2168	 0.187112270914972 
2169	 0.186984088978355 
2170	 0.186866378538174 
2171	 0.18676931921802 
2172	 0.186648519557876 
2173	 0.18652121797361 
2174	 0.186397723434591 
2175	 0.186266722655078 
2176	 0.186134281220407 
2177	 0.18601005413362 
2178	 0.18587586739117 
2179	 0.185731068218257 
2180	 0.185581021345989 
2181	 0.185431048608772 
2182	 0.185274226989998 
2183	 0.185096125930753 
2184	 0.184926510775914 
2185	 0.184772202470642 
2186	 0.18461521606571 
2187	 0.184480180968027 
2188	 0.184368717349269 
2189	 0.184254167595913 
2190	 0.184155630090128 
2191	 0.184046200652342 
2192	 0.183937927143143 
2193	 0.183827633676922 
2194	 0.183702860141971 
2195	 0.183596575084918 
2196	 0.183490998114343 
2197	 0.183405447228383 
2198	 0.183340938457784 
2199	 0.1832764033582 
2200	 0.183221184959491 
2201	 0.183175184336162 
2202	 0.183129384275008 
2203	 0.183100244621167 
2204	 0.183082085724444 
2205	 0.183083195860795 
2206	 0.183076373922883 
2207	 0.183085132323825 
2208	 0.183072295578162 
2209	 0.183038419506111 
2210	 0.183034350800777 
2211	 0.183026661467933 
2212	 0.183038265451796 
2213	 0.183081447060906 
2214	 0.183116790768988 
2215	 0.183149544747731 
2216	 0.183195262694296 
2217	 0.183281830809598 
2218	 0.183314770253709 
2219	 0.183292209260512 
2220	 0.183324083869855 
2221	 0.183355648847149 
2222	 0.183392891127055 
2223	 0.183452063657376 
2224	 0.183542946892898 
2225	 0.183579979381935 
2226	 0.183567619897065 
2227	 0.183587854726638 
2228	 0.183621976153657 
2229	 0.183623571685165 
2230	 0.183611543808676 
2231	 0.18360205224675 
2232	 0.183564900105799 
2233	 0.183548532104599 
2234	 0.183553228507477 
2235	 0.183545048298654 
2236	 0.183538900290968 
2237	 0.18351746673361 
2238	 0.183474679874591 
2239	 0.183447057081384 
2240	 0.183411031156611 
2241	 0.183390587049532 
2242	 0.183389019023906 
2243	 0.183383904504049 
2244	 0.18338649526471 
2245	 0.183392643980325 
2246	 0.183363624095556 
2247	 0.183348932232964 
2248	 0.183286745825803 
2249	 0.18317466358848 
2250	 0.183100333516697 
2251	 0.183006523107853 
2252	 0.182950540742058 
2253	 0.182927387974809 
2254	 0.1828915669409 
2255	 0.182868993666139 
2256	 0.182836198217928 
2257	 0.182784746097319 
2258	 0.1827677819495 
2259	 0.182782581989968 
2260	 0.18276156010142 
2261	 0.182746551398302 
2262	 0.182724832795907 
2263	 0.182661556467142 
2264	 0.182626236418467 
2265	 0.18260988877898 
2266	 0.182595386118997 
2267	 0.182591108547447 
2268	 0.182581690908891 
2269	 0.182585301253502 
2270	 0.182575846171675 
2271	 0.18253399286839 
2272	 0.182514457161179 
2273	 0.182507002508978 
2274	 0.182478929320551 
2275	 0.182435442318213 
2276	 0.182385363001141 
2277	 0.182341947526323 
2278	 0.18226107470648 
2279	 0.182233176802929 
2280	 0.182253843683376 
2281	 0.182238009941587 
2282	 0.182211758165049 
2283	 0.182211283616251 
2284	 0.182213387319046 
2285	 0.182217028693687 
2286	 0.182263057138841 
2287	 0.182266860174316 
2288	 0.182230678206839 
2289	 0.182214636902704 
2290	 0.182192555408962 
2291	 0.182171919340397 
2292	 0.182165508427787 
2293	 0.182148616011872 
2294	 0.182131312029529 
2295	 0.182096113793792 
2296	 0.182047317344954 
2297	 0.181996057554983 
2298	 0.181924537050299 
2299	 0.181857349323964 
2300	 0.181834305533409 
2301	 0.1818164048898 
2302	 0.181778173900876 
2303	 0.181748497936827 
2304	 0.181660451841154 
2305	 0.181550872827045 
2306	 0.181463143766186 
2307	 0.181366550688849 
2308	 0.181280995440389 
2309	 0.181214971123114 
2310	 0.181145566257752 
2311	 0.18107979843811 
2312	 0.181005384871027 
2313	 0.1809403955459 
2314	 0.180831868183408 
2315	 0.180677250302445 
2316	 0.18057343396787 
2317	 0.180484135037282 
2318	 0.180379937869734 
2319	 0.180285903298276 
2320	 0.180198040999428 
2321	 0.180113029341526 
2322	 0.179998454610513 
2323	 0.17987043970768 
2324	 0.179769136458696 
2325	 0.179621123151819 
2326	 0.179520950268233 
2327	 0.179491997795642 
2328	 0.179450145465016 
2329	 0.179328710191637 
2330	 0.179264162220247 
2331	 0.179220456876685 
2332	 0.17913490853587 
2333	 0.179039737821659 
2334	 0.178972677540373 
2335	 0.178857502373677 
2336	 0.178731507375487 
2337	 0.178659075709997 
2338	 0.17857930568952 
2339	 0.178505060175484 
2340	 0.178430722708519 
2341	 0.17836165888901 
2342	 0.178265421393642 
2343	 0.178127469366503 
2344	 0.177995954138906 
2345	 0.177856670551623 
2346	 0.177718142736591 
2347	 0.177562332753111 
2348	 0.177394156621203 
2349	 0.177219791364987 
2350	 0.177030147596069 
2351	 0.176850941261474 
2352	 0.176650397478691 
2353	 0.176465050174746 
2354	 0.176304806566218 
2355	 0.176138333968554 
2356	 0.175972982324094 
2357	 0.175807987479525 
2358	 0.175651993342162 
2359	 0.1754721856965 
2360	 0.175243899010085 
2361	 0.175101083690515 
2362	 0.175021373535951 
2363	 0.174867318497698 
2364	 0.174751179162388 
2365	 0.174588132525118 
2366	 0.174336466802724 
2367	 0.174110132247388 
2368	 0.173884661892412 
2369	 0.17366123890888 
2370	 0.173406705454504 
2371	 0.173191938374404 
2372	 0.173076279989678 
2373	 0.172872133631847 
2374	 0.172705493834738 
2375	 0.172547352609689 
2376	 0.172261673334233 
2377	 0.172047732557114 
2378	 0.171869285855609 
2379	 0.171613619513304 
2380	 0.171374386063568 
2381	 0.171126601850273 
2382	 0.17084791659629 
2383	 0.170625059555114 
2384	 0.170422851710121 
2385	 0.170179481819322 
2386	 0.169866815369537 
2387	 0.169551133870786 
2388	 0.169347063449999 
2389	 0.16916441718035 
2390	 0.168917133021066 
2391	 0.168627575114804 
2392	 0.168238793181569 
2393	 0.167837506052478 
2394	 0.167566317661697 
2395	 0.167355262101736 
2396	 0.167112019155544 
2397	 0.166849155495659 
2398	 0.16660260870608 
2399	 0.166340871624074 
2400	 0.16610968244812 
2401	 0.165911515857813 
2402	 0.165604030476341 
2403	 0.165302168996452 
2404	 0.165039456609846 
2405	 0.16470394442413 
2406	 0.164485337482495 
2407	 0.164281711272259 
2408	 0.163927171976786 
2409	 0.163620291903105 
2410	 0.163364023841399 
2411	 0.163134997141643 
2412	 0.162919033803232 
2413	 0.162715470703917 
2414	 0.162432975232141 
2415	 0.162123982432426 
2416	 0.161857151557462 
2417	 0.16161531521322 
2418	 0.161341336769111 
2419	 0.161072567982507 
2420	 0.160792333438674 
2421	 0.160553155667125 
2422	 0.160258817579211 
2423	 0.159917928929865 
2424	 0.159585954272817 
2425	 0.159195345200706 
2426	 0.158854066500882 
2427	 0.15856584102169 
2428	 0.158252920327679 
2429	 0.157921502234285 
2430	 0.157556383285142 
2431	 0.157154593594463 
2432	 0.156812545657564 
2433	 0.156518731727941 
2434	 0.156210771884121 
2435	 0.15586686558427 
2436	 0.155630595010573 
2437	 0.15547153882243 
2438	 0.155189899155062 
2439	 0.155001291400329 
2440	 0.15468851688792 
2441	 0.15414581014079 
2442	 0.153778862046082 
2443	 0.153493933845276 
2444	 0.153132604470563 
2445	 0.152762833556202 
2446	 0.152404343435889 
2447	 0.151966573225154 
2448	 0.151658239198682 
2449	 0.151458856755864 
2450	 0.151298710923101 
2451	 0.151284620728553 
2452	 0.151107288567428 
2453	 0.150904048373464 
2454	 0.15059422020688 
2455	 0.150102041162468 
2456	 0.149699522365275 
2457	 0.149316791133605 
2458	 0.14890788154994 
2459	 0.148450819266417 
2460	 0.148163173641769 
2461	 0.147929868780465 
2462	 0.147675717099606 
2463	 0.147547706268538 
2464	 0.147285913678329 
2465	 0.146975470769129 
2466	 0.146628006358907 
2467	 0.146245219202242 
2468	 0.145890758577399 
2469	 0.145400055967974 
2470	 0.145123572636303 
2471	 0.144852919443398 
2472	 0.144527132856565 
2473	 0.144254260735387 
2474	 0.143975611664069 
2475	 0.143715969121551 
2476	 0.143558948947862 
2477	 0.143434363165222 
2478	 0.143244854577268 
2479	 0.142978440578562 
2480	 0.142797436092695 
2481	 0.142656990855887 
2482	 0.142316121259265 
2483	 0.142090612443821 
2484	 0.141787453484067 
2485	 0.141322336586523 
2486	 0.141185396137533 
2487	 0.141040927024092 
2488	 0.140753202850249 
2489	 0.140611489384261 
2490	 0.14057749377498 
2491	 0.140354606075133 
2492	 0.139983124271487 
2493	 0.139665954530207 
2494	 0.139404364045538 
2495	 0.139324814110755 
2496	 0.139232704686469 
2497	 0.139158188179039 
2498	 0.138876823085779 
2499	 0.138262145013233 
2500	 0.13804675647375 
