Wavelength	mm2600006.asd
350	 3.23179325905601E-02 
351	 3.30230852348744E-02 
352	 3.40531053732404E-02 
353	 0.03183834741463 
354	 0.036701463913642 
355	 3.79333820343251E-02 
356	 3.43387781828534E-02 
357	 2.94720783202443E-02 
358	 3.38322470600536E-02 
359	 0.037695424871485 
360	 3.75482719741921E-02 
361	 3.45848622445303E-02 
362	 2.92743497642593E-02 
363	 2.77128733636701E-02 
364	 3.12457672154539E-02 
365	 3.33519690763238E-02 
366	 3.65702729536761E-02 
367	 3.76154356855518E-02 
368	 0.034829102028102 
369	 3.82871362847355E-02 
370	 3.87546751224915E-02 
371	 3.60280808012908E-02 
372	 3.60867230585082E-02 
373	 0.036182298830555 
374	 3.78348640511398E-02 
375	 4.11320269727421E-02 
376	 4.32067864361319E-02 
377	 4.02031174768951E-02 
378	 3.77960771292974E-02 
379	 4.14408206661678E-02 
380	 4.26959755723014E-02 
381	 4.19682850411147E-02 
382	 4.14565491332242E-02 
383	 4.38924133924518E-02 
384	 4.40435927852386E-02 
385	 4.24143134314379E-02 
386	 0.04105761571185 
387	 4.33350930081154E-02 
388	 4.53900476674674E-02 
389	 0.047160679154824 
390	 4.89810567908353E-02 
391	 4.68621224661256E-02 
392	 4.56778839653932E-02 
393	 4.69439247259692E-02 
394	 4.88723525802195E-02 
395	 4.90897643842577E-02 
396	 4.95951988842719E-02 
397	 5.13163843324802E-02 
398	 5.11309572110748E-02 
399	 5.19913577017923E-02 
400	 5.30981436298419E-02 
401	 5.27905608102957E-02 
402	 5.27335497121427E-02 
403	 5.26856439901199E-02 
404	 5.25206035626764E-02 
405	 5.23627405642281E-02 
406	 5.31809238782366E-02 
407	 5.47045141839099E-02 
408	 5.59403515750927E-02 
409	 5.44872203735447E-02 
410	 5.41309918264876E-02 
411	 5.52091783929918E-02 
412	 0.056268264253093 
413	 5.61191091938022E-02 
414	 5.58452903112678E-02 
415	 0.055977777125618 
416	 5.60719658464904E-02 
417	 5.59631680326331E-02 
418	 5.62617237778749E-02 
419	 5.70811856708646E-02 
420	 5.61907275415224E-02 
421	 5.54593103127138E-02 
422	 0.055556542784824 
423	 5.62002267510362E-02 
424	 5.63159634773827E-02 
425	 5.62425349573809E-02 
426	 5.62331657142994E-02 
427	 0.056010208494524 
428	 5.57035521490176E-02 
429	 5.55688021849674E-02 
430	 5.57594660250874E-02 
431	 5.57833762748999E-02 
432	 5.55252306827481E-02 
433	 0.055288028456583 
434	 5.56963789290501E-02 
435	 5.59127161415799E-02 
436	 0.055900338527383 
437	 5.57517291284643E-02 
438	 5.53559893782563E-02 
439	 5.54765439836337E-02 
440	 5.59632278310201E-02 
441	 5.62355399492089E-02 
442	 5.64282663435744E-02 
443	 5.64908653340068E-02 
444	 5.64390405247196E-02 
445	 5.63839557295708E-02 
446	 5.66840172909352E-02 
447	 5.69006794673565E-02 
448	 0.056659713619277 
449	 5.68937267034028E-02 
450	 5.71394000733966E-02 
451	 5.72908212589363E-02 
452	 5.75582608103232E-02 
453	 5.75165434386994E-02 
454	 5.75042570707364E-02 
455	 5.76577942549862E-02 
456	 5.72444038240848E-02 
457	 5.70440574918128E-02 
458	 5.71400789043184E-02 
459	 0.057306030843837 
460	 5.76818046483571E-02 
461	 5.75573250483972E-02 
462	 5.70215585772293E-02 
463	 5.73571443832497E-02 
464	 5.75285688647071E-02 
465	 5.76209961681301E-02 
466	 0.057875876513484 
467	 5.79161394995713E-02 
468	 5.77852712992168E-02 
469	 0.057602161204965 
470	 5.75335748996583E-02 
471	 5.76222750466965E-02 
472	 0.057757915242908 
473	 5.78279441671899E-02 
474	 5.77734733958875E-02 
475	 0.057720903457507 
476	 5.76700309129277E-02 
477	 5.75976689215714E-02 
478	 5.77577234130985E-02 
479	 5.78794209354077E-02 
480	 0.057832547343417 
481	 5.77346707508544E-02 
482	 5.78496819263564E-02 
483	 5.80020713182543E-02 
484	 5.79882961262407E-02 
485	 5.80860403788657E-02 
486	 5.79058746931641E-02 
487	 5.75346198338464E-02 
488	 5.74502854663807E-02 
489	 5.76209764701664E-02 
490	 5.78099333506682E-02 
491	 0.057858383609427 
492	 5.78975632958047E-02 
493	 5.78753227056926E-02 
494	 5.78450694740437E-02 
495	 5.78878005266965E-02 
496	 5.79030199025595E-02 
497	 5.78991370283617E-02 
498	 5.79319070250771E-02 
499	 5.81246717621482E-02 
500	 5.80585147341981E-02 
501	 5.78767842115455E-02 
502	 5.78411230830227E-02 
503	 5.79143810128833E-02 
504	 5.80202191473658E-02 
505	 5.80828049290856E-02 
506	 5.80400845580753E-02 
507	 5.80546016046749E-02 
508	 5.80584377639747E-02 
509	 5.80193960364544E-02 
510	 5.81587242435387E-02 
511	 5.80682624866734E-02 
512	 5.78633961391407E-02 
513	 5.79005959458495E-02 
514	 5.79387562427359E-02 
515	 5.80128127081299E-02 
516	 5.81113125818195E-02 
517	 5.80930955024931E-02 
518	 5.80239313637658E-02 
519	 5.80083942786277E-02 
520	 5.81169603907853E-02 
521	 5.81773493966635E-02 
522	 5.82156881593386E-02 
523	 5.82537539071052E-02 
524	 5.82952847371145E-02 
525	 5.82127066943169E-02 
526	 5.81294915621436E-02 
527	 5.81573190239079E-02 
528	 5.81898065901255E-02 
529	 5.82245743325074E-02 
530	 5.82609963026655E-02 
531	 5.82960734529132E-02 
532	 5.82490388294204E-02 
533	 0.058320755028686 
534	 5.85469629129871E-02 
535	 5.85392701675652E-02 
536	 5.85301984982785E-02 
537	 0.058547791684138 
538	 5.85539732402792E-02 
539	 5.85963469940749E-02 
540	 5.86178429147542E-02 
541	 5.86250134514482E-02 
542	 5.87190373221839E-02 
543	 5.87951167973385E-02 
544	 5.88257051209914E-02 
545	 5.88326894786516E-02 
546	 5.89513438280049E-02 
547	 5.89837642631702E-02 
548	 5.89653904611105E-02 
549	 5.91172466758673E-02 
550	 5.91359274011149E-02 
551	 5.91437306437163E-02 
552	 5.92560292698422E-02 
553	 5.93712897513383E-02 
554	 5.94475949006032E-02 
555	 5.95221135381236E-02 
556	 5.96626815295303E-02 
557	 5.97734212696098E-02 
558	 5.98801679326421E-02 
559	 6.00172524051813E-02 
560	 6.02141946993397E-02 
561	 0.060385652777529 
562	 6.05535633107087E-02 
563	 6.07661380484262E-02 
564	 6.09924752325766E-02 
565	 6.11936785418093E-02 
566	 6.13857912547999E-02 
567	 0.061644916753342 
568	 0.061998419311845 
569	 6.23432236545019E-02 
570	 0.062598695968752 
571	 6.28607303568507E-02 
572	 6.31785914587126E-02 
573	 6.35553711031939E-02 
574	 6.39566071298249E-02 
575	 6.43396565445944E-02 
576	 6.47653485987863E-02 
577	 6.52362175581251E-02 
578	 6.55748669950578E-02 
579	 6.59748513815218E-02 
580	 0.06647750687683 
581	 6.70497923401586E-02 
582	 6.76431318867782E-02 
583	 6.81971394282285E-02 
584	 6.87067380322653E-02 
585	 6.92430108574399E-02 
586	 6.98528038864612E-02 
587	 7.05003080608463E-02 
588	 7.11383900439319E-02 
589	 7.18108530090581E-02 
590	 7.24569717476991E-02 
591	 7.30907464974923E-02 
592	 7.37921640423227E-02 
593	 7.44394822018889E-02 
594	 7.50798270209805E-02 
595	 7.57454434381555E-02 
596	 7.63348878685302E-02 
597	 7.69342796867516E-02 
598	 7.75812170386985E-02 
599	 0.078275656298058 
600	 7.89154403397047E-02 
601	 0.079538705053975 
602	 8.01494387742041E-02 
603	 8.06556090859721E-02 
604	 8.11854260013295E-02 
605	 8.17345654142454E-02 
606	 8.22575866069022E-02 
607	 8.27645583743589E-02 
608	 8.32663187622893E-02 
609	 8.37726194770398E-02 
610	 8.42913237013455E-02 
611	 8.47402016549765E-02 
612	 0.085137255919691 
613	 8.55197522545977E-02 
614	 8.59030798773996E-02 
615	 0.086242537904176 
616	 8.65522967535217E-02 
617	 0.086880829332305 
618	 8.71814518022438E-02 
619	 8.74254854833006E-02 
620	 0.08762884167723 
621	 0.087900164066091 
622	 8.81330757718834E-02 
623	 8.83402193875718E-02 
624	 8.85739530876353E-02 
625	 8.88118446966865E-02 
626	 8.90113142345202E-02 
627	 0.089189185200504 
628	 8.94419254116036E-02 
629	 8.96234284268372E-02 
630	 8.97869364083454E-02 
631	 9.00018705363438E-02 
632	 9.01742783714977E-02 
633	 9.03292034839476E-02 
634	 9.04779419673774E-02 
635	 9.06212844233808E-02 
636	 9.07973223240771E-02 
637	 9.09939382005811E-02 
638	 9.11779663889761E-02 
639	 9.12757371753849E-02 
640	 9.14585268378575E-02 
641	 9.16800717923844E-02 
642	 9.18192881406888E-02 
643	 9.20547477868097E-02 
644	 9.22275076099118E-02 
645	 9.23162982337088E-02 
646	 9.25432347731777E-02 
647	 9.27544403994311E-02 
648	 9.29426564240037E-02 
649	 9.31396419950277E-02 
650	 9.33599393102205E-02 
651	 9.35802208985817E-02 
652	 9.37886517449574E-02 
653	 9.39873579375469E-02 
654	 9.42135709865797E-02 
655	 0.094442465131289 
656	 9.46604213449999E-02 
657	 9.49139882259367E-02 
658	 9.51481670752775E-02 
659	 9.53792413402441E-02 
660	 9.56500526051949E-02 
661	 9.59230823302031E-02 
662	 9.62167835954583E-02 
663	 0.096522104997027 
664	 9.67819176519059E-02 
665	 0.097071904444349 
666	 9.73595503209308E-02 
667	 9.76078411420292E-02 
668	 9.78890098752818E-02 
669	 9.82182745984344E-02 
670	 9.85762632400761E-02 
671	 9.89165759784346E-02 
672	 9.92332681123818E-02 
673	 9.95711256014918E-02 
674	 9.99455584551782E-02 
675	 0.100279766152267 
676	 0.10061061965445 
677	 0.100989669478048 
678	 0.101443733992517 
679	 0.101778220740741 
680	 0.102112099088774 
681	 0.102519226932263 
682	 0.102978717815568 
683	 0.103403510228563 
684	 0.10380753092534 
685	 0.104229044536159 
686	 0.104681476733228 
687	 0.105149520916974 
688	 0.105625032546391 
689	 0.106100742446108 
690	 0.106511109791885 
691	 0.106954170660191 
692	 0.107469148906233 
693	 0.107931670717727 
694	 0.108401910346259 
695	 0.108904897326992 
696	 0.109435152082437 
697	 0.109879503640041 
698	 0.110353280935319 
699	 0.110889405399814 
700	 0.111419504576868 
701	 0.111930712280016 
702	 0.112433276451111 
703	 0.112937088179799 
704	 0.113429281497449 
705	 0.113928236263206 
706	 0.114444189193135 
707	 0.114976905181564 
708	 0.115487810573154 
709	 0.116023057261794 
710	 0.116578697628134 
711	 0.117067904723671 
712	 0.117544343712781 
713	 0.118032102114813 
714	 0.118543653564851 
715	 0.119083371433837 
716	 0.11957836751955 
717	 0.120026090500184 
718	 0.120478571028312 
719	 0.120963431006166 
720	 0.121408604969057 
721	 0.12179211754906 
722	 0.122215548628107 
723	 0.122673971317294 
724	 0.123115332919027 
725	 0.123493878189854 
726	 0.123901844322016 
727	 0.124252954641674 
728	 0.124554916622692 
729	 0.124904138969049 
730	 0.125234311708523 
731	 0.1255494178074 
732	 0.125855205842565 
733	 0.12613178200583 
734	 0.126399144770585 
735	 0.126626428548554 
736	 0.12678412126973 
737	 0.126982775036251 
738	 0.127162666154096 
739	 0.127315321978174 
740	 0.127498750847111 
741	 0.12763581001602 
742	 0.12770494243128 
743	 0.127727367880346 
744	 0.127807716614726 
745	 0.12781930349897 
746	 0.127810310825972 
747	 0.127878254117656 
748	 0.12783524598036 
749	 0.127755841435985 
750	 0.127695815230034 
751	 0.127657471682221 
752	 0.12756349517448 
753	 0.127435778821942 
754	 0.127310064395311 
755	 0.127187616697163 
756	 0.12705605307602 
757	 0.12689540917881 
758	 0.126694127832028 
759	 0.126524663646853 
760	 0.126339446650482 
761	 0.12611343954893 
762	 0.125864833245105 
763	 0.125622998232996 
764	 0.125372866827855 
765	 0.125102690057504 
766	 0.124840941481573 
767	 0.12460796792301 
768	 0.124355354682559 
769	 0.124023996697087 
770	 0.12374601211987 
771	 0.123480515649341 
772	 0.123195630738325 
773	 0.122890705341698 
774	 0.122580491749871 
775	 0.122255127193884 
776	 0.12191326824808 
777	 0.121592880602713 
778	 0.121263271262182 
779	 0.12093101347606 
780	 0.120615433765738 
781	 0.120305213174151 
782	 0.119969880406657 
783	 0.119612969883418 
784	 0.119276182105784 
785	 0.11898079390378 
786	 0.118687192673636 
787	 0.118363128116704 
788	 0.118017732822384 
789	 0.117723897796139 
790	 0.117431572384962 
791	 0.117072430560325 
792	 0.116752523292978 
793	 0.116442966575196 
794	 0.116133830532366 
795	 0.115834699984906 
796	 0.115507697693291 
797	 0.115200967854251 
798	 0.114930378928338 
799	 0.114627527175347 
800	 0.114373065874925 
801	 0.114118666183224 
802	 0.113806560237763 
803	 0.113496393269524 
804	 0.113229285534541 
805	 0.112989565852004 
806	 0.112728534257044 
807	 0.112457969106481 
808	 0.112196200278127 
809	 0.111939732909909 
810	 0.111656506958887 
811	 0.111429129725756 
812	 0.111199980567681 
813	 0.110933009082464 
814	 0.110741841698114 
815	 0.110542533162279 
816	 0.110327647692546 
817	 0.110116404615007 
818	 0.109884465065183 
819	 0.109682047733209 
820	 0.10950282191994 
821	 0.109295799503247 
822	 0.109126336244043 
823	 0.108931573030975 
824	 0.108701246435371 
825	 0.108538753817852 
826	 0.108407204247017 
827	 0.108261674582582 
828	 0.10808409910309 
829	 0.107952521430539 
830	 0.107808108189594 
831	 0.107652881035734 
832	 0.107513733340507 
833	 0.107370464986755 
834	 0.107240588699502 
835	 0.107115529996215 
836	 0.106968974270294 
837	 0.106913400392958 
838	 0.10686055765321 
839	 0.106753423513751 
840	 0.10664577829966 
841	 0.106519983635623 
842	 0.106412786506184 
843	 0.106347176991822 
844	 0.106260681291821 
845	 0.106191678902213 
846	 0.106137891587026 
847	 0.106087987751623 
848	 0.106098447631374 
849	 0.106074290410734 
850	 0.106007310560401 
851	 0.10596700791911 
852	 0.105922956008557 
853	 0.105903139911896 
854	 0.105910081068288 
855	 0.105900843080375 
856	 0.105912587463032 
857	 0.105899100728692 
858	 0.105849641137783 
859	 0.105893163282674 
860	 0.105933154265454 
861	 0.105933456706535 
862	 0.105897921378743 
863	 0.105890413466279 
864	 0.105941629613733 
865	 0.106018454909795 
866	 0.106058246967383 
867	 0.106093540829908 
868	 0.106138266192336 
869	 0.106210576185356 
870	 0.106323710386921 
871	 0.106353201020468 
872	 0.106405627543941 
873	 0.106536459876804 
874	 0.106656949059046 
875	 0.106739683846889 
876	 0.106785708877329 
877	 0.106823908918736 
878	 0.106922155728394 
879	 0.107060209647441 
880	 0.107215094684226 
881	 0.107358359874198 
882	 0.107448939764424 
883	 0.107596464729069 
884	 0.10776903635545 
885	 0.10787910261839 
886	 0.108040873824996 
887	 0.108221020621559 
888	 0.108371514564327 
889	 0.108461861203775 
890	 0.10865025101199 
891	 0.108860587739554 
892	 0.109065951675047 
893	 0.109330466090421 
894	 0.10945953405663 
895	 0.109580054923782 
896	 0.109797953713213 
897	 0.110063061157501 
898	 0.110286927849785 
899	 0.110518984967471 
900	 0.110788182407258 
901	 0.110955707847152 
902	 0.111190077775936 
903	 0.111459265880376 
904	 0.111693287197077 
905	 0.111964693010471 
906	 0.112221815645293 
907	 0.112493012220922 
908	 0.112827513971371 
909	 0.113184768468358 
910	 0.113439676583816 
911	 0.113654692108064 
912	 0.113982376207275 
913	 0.114254963954634 
914	 0.114571919435863 
915	 0.114950706574107 
916	 0.115317694304111 
917	 0.115656201752629 
918	 0.115965833406072 
919	 0.116265141722746 
920	 0.116589531246959 
921	 0.117004154319059 
922	 0.117401676480203 
923	 0.117743538946798 
924	 0.118134214522691 
925	 0.118559003107719 
926	 0.118990924656787 
927	 0.119407347754975 
928	 0.119802292524202 
929	 0.120228803571292 
930	 0.120670572184926 
931	 0.121107300360252 
932	 0.121556556600487 
933	 0.122029886811373 
934	 0.122482971513861 
935	 0.122886495427122 
936	 0.123295215825368 
937	 0.123740213483462 
938	 0.124192220173128 
939	 0.124646197250443 
940	 0.125258636233919 
941	 0.125872012647239 
942	 0.126453322186678 
943	 0.12700121268119 
944	 0.127399830295864 
945	 0.127921706729849 
946	 0.128516252248943 
947	 0.129018280715155 
948	 0.129506167568967 
949	 0.130043551888986 
950	 0.130612215318618 
951	 0.131167723458736 
952	 0.131775742302124 
953	 0.132346715375986 
954	 0.132920792524541 
955	 0.133585384080903 
956	 0.134255756449204 
957	 0.134800194782603 
958	 0.135321575130193 
959	 0.13600497951564 
960	 0.136630601006088 
961	 0.137207817008481 
962	 0.137830802896358 
963	 0.138569654361665 
964	 0.139089456385267 
965	 0.139735952419851 
966	 0.140483693115303 
967	 0.141078413661614 
968	 0.1416966720798 
969	 0.142346359586702 
970	 0.143019870626267 
971	 0.143698820510791 
972	 0.144341411644875 
973	 0.145114373053217 
974	 0.145916552831824 
975	 0.146536425076576 
976	 0.147303886196782 
977	 0.147930779601884 
978	 0.148505040374265 
979	 0.149303699812928 
980	 0.150067204692413 
981	 0.150703577218274 
982	 0.151287172256466 
983	 0.151961387798683 
984	 0.152661619801425 
985	 0.153343820453101 
986	 0.154039066319899 
987	 0.154785284859311 
988	 0.155438787867199 
989	 0.156076675746154 
990	 0.156750188550389 
991	 0.157474209177921 
992	 0.158204636859312 
993	 0.158889439196354 
994	 0.159534805065559 
995	 0.160177501151936 
996	 0.160849738624961 
997	 0.161518761156882 
998	 0.162143367230856 
999	 0.16273930239684 
1000	 0.163507007781795 
1001	 0.16474727051066 
1002	 0.165397441665848 
1003	 0.165980273828969 
1004	 0.166526838962756 
1005	 0.167036220965096 
1006	 0.167582134362574 
1007	 0.168100112774994 
1008	 0.168588955053294 
1009	 0.169196311804734 
1010	 0.169854063517199 
1011	 0.170408741228526 
1012	 0.170961506375923 
1013	 0.171518938885413 
1014	 0.172021971659019 
1015	 0.172587112603007 
1016	 0.173180406741714 
1017	 0.173713934151186 
1018	 0.174210239379575 
1019	 0.174681345163714 
1020	 0.175187837211112 
1021	 0.175693916320492 
1022	 0.176107904657479 
1023	 0.176499341978649 
1024	 0.176876239137537 
1025	 0.177195878483993 
1026	 0.177599165020229 
1027	 0.178050970216062 
1028	 0.178469668182511 
1029	 0.178920840962472 
1030	 0.17938104660851 
1031	 0.179790367805125 
1032	 0.180179558327914 
1033	 0.180553944100371 
1034	 0.180923820248768 
1035	 0.181277441377362 
1036	 0.181646413926667 
1037	 0.182036422084549 
1038	 0.182401444035846 
1039	 0.182750386583733 
1040	 0.183117006579174 
1041	 0.18344955167211 
1042	 0.183774157226199 
1043	 0.184082445634487 
1044	 0.184402591161782 
1045	 0.184715440868008 
1046	 0.185069837953443 
1047	 0.185393377173881 
1048	 0.185772422638646 
1049	 0.186160813140664 
1050	 0.186490568367134 
1051	 0.186840355714501 
1052	 0.187151368801877 
1053	 0.187454030517467 
1054	 0.187775560414387 
1055	 0.188108529311506 
1056	 0.188457630745594 
1057	 0.188810108216438 
1058	 0.189181273638448 
1059	 0.189543153120194 
1060	 0.189918428267197 
1061	 0.190258191779432 
1062	 0.190583778664524 
1063	 0.190869339869727 
1064	 0.191150889649478 
1065	 0.191461628083458 
1066	 0.191793484775574 
1067	 0.192100649704415 
1068	 0.19244162030039 
1069	 0.192794405033581 
1070	 0.193107094542539 
1071	 0.1933847857503 
1072	 0.193698805903083 
1073	 0.194014363578435 
1074	 0.194316047334991 
1075	 0.194623978651676 
1076	 0.194946866214463 
1077	 0.195227761275721 
1078	 0.195441990773492 
1079	 0.195706848586476 
1080	 0.195984159176676 
1081	 0.196241180771188 
1082	 0.196526485757281 
1083	 0.196800253403248 
1084	 0.197052810255397 
1085	 0.19731939138352 
1086	 0.197609300528385 
1087	 0.197877075592968 
1088	 0.198131653564617 
1089	 0.198400759142892 
1090	 0.198645990950756 
1091	 0.198847767751608 
1092	 0.199078759712935 
1093	 0.199319920344007 
1094	 0.199554671168533 
1095	 0.199820550931119 
1096	 0.200096664725384 
1097	 0.200322380668682 
1098	 0.200543399976598 
1099	 0.20075479631764 
1100	 0.200973654882856 
1101	 0.201181569275324 
1102	 0.201379780452003 
1103	 0.201588938278329 
1104	 0.201773947204268 
1105	 0.201931628359982 
1106	 0.202107504849377 
1107	 0.202315222460714 
1108	 0.202547654775594 
1109	 0.202776088179592 
1110	 0.203005137944489 
1111	 0.203222840526285 
1112	 0.203434616921287 
1113	 0.203623919514196 
1114	 0.203796064942342 
1115	 0.203982239999042 
1116	 0.204162956457406 
1117	 0.204334181665713 
1118	 0.204506234287548 
1119	 0.204676969952433 
1120	 0.204840843649402 
1121	 0.205024994139319 
1122	 0.205201868329203 
1123	 0.205398425358166 
1124	 0.205593776771233 
1125	 0.205796354592852 
1126	 0.205960297995233 
1127	 0.206112949381277 
1128	 0.206271514783009 
1129	 0.20638545419974 
1130	 0.206544769504058 
1131	 0.206760582119504 
1132	 0.206935955332659 
1133	 0.207106244319693 
1134	 0.207265514738012 
1135	 0.207417044488883 
1136	 0.207540312439994 
1137	 0.207651013734356 
1138	 0.207770213187907 
1139	 0.207904866439122 
1140	 0.208047870131857 
1141	 0.208178808706824 
1142	 0.208328861933565 
1143	 0.208450273625315 
1144	 0.208547035296537 
1145	 0.208644086585891 
1146	 0.208723364772263 
1147	 0.208822989811052 
1148	 0.208913096972342 
1149	 0.209023480387716 
1150	 0.209160444541563 
1151	 0.209301187091535 
1152	 0.209426466364209 
1153	 0.209527781275307 
1154	 0.20962232240777 
1155	 0.209680818025786 
1156	 0.209780150880687 
1157	 0.209895216050183 
1158	 0.210002017812494 
1159	 0.210112665718813 
1160	 0.210231419677232 
1161	 0.210356194304425 
1162	 0.210467374905747 
1163	 0.21059182347384 
1164	 0.210703155957233 
1165	 0.210783347868603 
1166	 0.210881097016268 
1167	 0.210997553244137 
1168	 0.211115785560814 
1169	 0.211231019138594 
1170	 0.211360354599318 
1171	 0.211468543626464 
1172	 0.211567538560858 
1173	 0.211660291773673 
1174	 0.211739738710279 
1175	 0.211827424149371 
1176	 0.211904762199756 
1177	 0.21199489969581 
1178	 0.212098089202971 
1179	 0.212195983487744 
1180	 0.21230729631659 
1181	 0.212401422296556 
1182	 0.212483085781686 
1183	 0.212560171612595 
1184	 0.21264921898693 
1185	 0.212731124856351 
1186	 0.212826160236397 
1187	 0.212944345577462 
1188	 0.213037331091725 
1189	 0.213118011537983 
1190	 0.213207112111378 
1191	 0.213293187228735 
1192	 0.213377266603164 
1193	 0.213463692633817 
1194	 0.213550385827696 
1195	 0.213633569808634 
1196	 0.213715329430682 
1197	 0.213802035611092 
1198	 0.21388417528407 
1199	 0.213962900390965 
1200	 0.214037386373387 
1201	 0.214106102650184 
1202	 0.214164907001877 
1203	 0.2142404919838 
1204	 0.21431511463682 
1205	 0.214395258731847 
1206	 0.214501175255679 
1207	 0.214577802193421 
1208	 0.214642376159788 
1209	 0.214702952285992 
1210	 0.214732235845048 
1211	 0.21479317461063 
1212	 0.214871859682897 
1213	 0.21494269206469 
1214	 0.215042203796363 
1215	 0.215115455467711 
1216	 0.215174768897065 
1217	 0.215211612315439 
1218	 0.215261397843656 
1219	 0.21529523996654 
1220	 0.215351984329475 
1221	 0.215429055124057 
1222	 0.215486123443885 
1223	 0.215542470944358 
1224	 0.215598691007975 
1225	 0.215639098908787 
1226	 0.215693715772437 
1227	 0.215758743146594 
1228	 0.215823251026412 
1229	 0.215898824902247 
1230	 0.215962532386155 
1231	 0.216021413464932 
1232	 0.216080571393816 
1233	 0.21613645551721 
1234	 0.216184626950795 
1235	 0.216234925328595 
1236	 0.216286480540058 
1237	 0.21633698967815 
1238	 0.216387324641207 
1239	 0.216429208423601 
1240	 0.216466673611772 
1241	 0.216506791834053 
1242	 0.216540254027573 
1243	 0.216576228273968 
1244	 0.216611426792012 
1245	 0.216655651059853 
1246	 0.216708721025926 
1247	 0.216752624750284 
1248	 0.216802540082322 
1249	 0.216843049000399 
1250	 0.216893624833515 
1251	 0.216931004475456 
1252	 0.216977562254033 
1253	 0.217046116287273 
1254	 0.217078132006233 
1255	 0.217086058267357 
1256	 0.217110224164897 
1257	 0.217131157497336 
1258	 0.217139701521576 
1259	 0.217144544524408 
1260	 0.217156000434869 
1261	 0.217153492803824 
1262	 0.21715845483962 
1263	 0.217177225527963 
1264	 0.217194112391837 
1265	 0.217202950166067 
1266	 0.217218039088899 
1267	 0.217234480552104 
1268	 0.21726944813991 
1269	 0.217296020928515 
1270	 0.217319693751016 
1271	 0.217349860624207 
1272	 0.217387228674887 
1273	 0.217415495282176 
1274	 0.217434713364142 
1275	 0.21747298398382 
1276	 0.217506497935294 
1277	 0.217564058959498 
1278	 0.217666360699798 
1279	 0.217727356494812 
1280	 0.217772287059116 
1281	 0.217830291871063 
1282	 0.217863170393186 
1283	 0.217918736928981 
1284	 0.217995599564515 
1285	 0.218082604051777 
1286	 0.218171395359238 
1287	 0.218246223221094 
1288	 0.218319625107618 
1289	 0.218393962479295 
1290	 0.218462262371766 
1291	 0.218514541761692 
1292	 0.218587332710008 
1293	 0.218671025045547 
1294	 0.218746199693908 
1295	 0.218836960809637 
1296	 0.21890131750624 
1297	 0.218947053169154 
1298	 0.218994434405976 
1299	 0.219034527334048 
1300	 0.219066759546679 
1301	 0.219083926460794 
1302	 0.219114101192777 
1303	 0.219143050045391 
1304	 0.219168835960608 
1305	 0.21921511838569 
1306	 0.219255113759478 
1307	 0.219266100195535 
1308	 0.21926972807181 
1309	 0.219278605329228 
1310	 0.219288567604041 
1311	 0.219271429179938 
1312	 0.219244323852754 
1313	 0.219219288099588 
1314	 0.219165288357672 
1315	 0.219130892677252 
1316	 0.219114184400347 
1317	 0.219088364642867 
1318	 0.219057195304318 
1319	 0.219026969930593 
1320	 0.219008956270347 
1321	 0.218975524191378 
1322	 0.218940758833741 
1323	 0.21888467995757 
1324	 0.218821496170617 
1325	 0.218753427336859 
1326	 0.21869131425597 
1327	 0.218639634357004 
1328	 0.218570501524585 
1329	 0.218486149274744 
1330	 0.218424625278587 
1331	 0.218364739658233 
1332	 0.218296427587924 
1333	 0.21825193194017 
1334	 0.218179108409283 
1335	 0.218070145233865 
1336	 0.217986092751108 
1337	 0.217900880097754 
1338	 0.217827724033332 
1339	 0.217769232284006 
1340	 0.217705393208365 
1341	 0.217655753435841 
1342	 0.217592917389194 
1343	 0.217522579946544 
1344	 0.217447977420108 
1345	 0.217375401396267 
1346	 0.217283207605975 
1347	 0.21720476289743 
1348	 0.21713188682711 
1349	 0.217057653257501 
1350	 0.216991121359407 
1351	 0.216914072632818 
1352	 0.216828496977283 
1353	 0.216754393006239 
1354	 0.216677248430553 
1355	 0.216607374355224 
1356	 0.216557589073385 
1357	 0.216486690030308 
1358	 0.216395188083548 
1359	 0.216327170639521 
1360	 0.216260739796979 
1361	 0.216196266267314 
1362	 0.216161671756193 
1363	 0.216101807170528 
1364	 0.216021754390952 
1365	 0.215950553528 
1366	 0.215877958096124 
1367	 0.215794176119709 
1368	 0.215728879343154 
1369	 0.215659713718951 
1370	 0.215567059396066 
1371	 0.215466074669841 
1372	 0.215352389633342 
1373	 0.215204881524063 
1374	 0.215053426451153 
1375	 0.2148944489475 
1376	 0.214715028150924 
1377	 0.214525083755856 
1378	 0.214306130614573 
1379	 0.214057334318433 
1380	 0.213805710374565 
1381	 0.213537760377064 
1382	 0.213252647115513 
1383	 0.212965652245776 
1384	 0.212649332003463 
1385	 0.212322241843509 
1386	 0.211955526258333 
1387	 0.211554333828572 
1388	 0.211140512080103 
1389	 0.210708361972843 
1390	 0.210230636998321 
1391	 0.209750640748197 
1392	 0.20924803826854 
1393	 0.208685634101682 
1394	 0.208101218559773 
1395	 0.207466061876172 
1396	 0.20681184981853 
1397	 0.206177149921994 
1398	 0.205532454453465 
1399	 0.204891012763459 
1400	 0.20426314282171 
1401	 0.203624117136781 
1402	 0.202973539530245 
1403	 0.202324801765207 
1404	 0.201658905383492 
1405	 0.201034444210065 
1406	 0.200411577444775 
1407	 0.199819199947355 
1408	 0.199261364140016 
1409	 0.198719010094732 
1410	 0.198180867146935 
1411	 0.197689404716852 
1412	 0.19722778027894 
1413	 0.196797374165022 
1414	 0.196422817086856 
1415	 0.196062106325954 
1416	 0.195729291819155 
1417	 0.195417782602278 
1418	 0.19510287726035 
1419	 0.19480712810323 
1420	 0.194535719688782 
1421	 0.194288261562622 
1422	 0.194071126752649 
1423	 0.19386265360314 
1424	 0.193647664008527 
1425	 0.193432069244566 
1426	 0.193235909674651 
1427	 0.193030859458774 
1428	 0.19286474811557 
1429	 0.19273280780672 
1430	 0.192604239041165 
1431	 0.192500116025203 
1432	 0.192389003977773 
1433	 0.192285803940808 
1434	 0.192180943741307 
1435	 0.192055887772222 
1436	 0.191975049527973 
1437	 0.191918097341749 
1438	 0.191863641583854 
1439	 0.191835527045135 
1440	 0.191817195838103 
1441	 0.191774511708429 
1442	 0.191735203460519 
1443	 0.191703985121599 
1444	 0.191679589538856 
1445	 0.191660474084344 
1446	 0.191650397833757 
1447	 0.191655712500391 
1448	 0.191647323079282 
1449	 0.191632013205073 
1450	 0.191613647251246 
1451	 0.191603124298939 
1452	 0.191580786992289 
1453	 0.19158457409651 
1454	 0.19161593583871 
1455	 0.191627662127926 
1456	 0.191630895999568 
1457	 0.191650562074931 
1458	 0.191665108637479 
1459	 0.191696025862013 
1460	 0.191747370097288 
1461	 0.191804909085789 
1462	 0.191869113809974 
1463	 0.191940122445053 
1464	 0.192026826121194 
1465	 0.192107641533965 
1466	 0.192188152136047 
1467	 0.192271933253699 
1468	 0.192338315833158 
1469	 0.192445033265046 
1470	 0.19256726666009 
1471	 0.192708516439186 
1472	 0.192893118526316 
1473	 0.193083399740763 
1474	 0.193262532447513 
1475	 0.193452995197359 
1476	 0.193623234107009 
1477	 0.193791015433052 
1478	 0.193985270252342 
1479	 0.19417967478519 
1480	 0.194373479332645 
1481	 0.194567700646898 
1482	 0.194758790154393 
1483	 0.194937070297427 
1484	 0.195123665024198 
1485	 0.195319009142137 
1486	 0.195508551173933 
1487	 0.195689668368466 
1488	 0.195876768819395 
1489	 0.196067542293242 
1490	 0.196260810733537 
1491	 0.196466839082279 
1492	 0.196656644140593 
1493	 0.196834157041778 
1494	 0.197019636554101 
1495	 0.197191725488064 
1496	 0.197375962932801 
1497	 0.1975858096456 
1498	 0.197774666419685 
1499	 0.197969020601273 
1500	 0.198138719529563 
1501	 0.198265880137241 
1502	 0.198425048689428 
1503	 0.198588809489682 
1504	 0.198745658144565 
1505	 0.198935681311647 
1506	 0.199125696336956 
1507	 0.199292012689391 
1508	 0.199448936118854 
1509	 0.199589147630231 
1510	 0.199718573537025 
1511	 0.199847542199604 
1512	 0.199994561020108 
1513	 0.200144449346516 
1514	 0.200293685289527 
1515	 0.20044737154107 
1516	 0.200590684485826 
1517	 0.200739736835777 
1518	 0.20089072892396 
1519	 0.201042201326724 
1520	 0.201201010315217 
1521	 0.201344103124632 
1522	 0.201482154074245 
1523	 0.201621564926642 
1524	 0.201746288982857 
1525	 0.201880453344399 
1526	 0.202022860880473 
1527	 0.202157115051723 
1528	 0.202296248823996 
1529	 0.202421125502396 
1530	 0.202536052605525 
1531	 0.202648919374826 
1532	 0.202748755845709 
1533	 0.202853519901934 
1534	 0.202962097676181 
1535	 0.203067203398791 
1536	 0.203160314212572 
1537	 0.203268661040111 
1538	 0.203382007619684 
1539	 0.203495905407287 
1540	 0.203633505901272 
1541	 0.20374924122737 
1542	 0.203850590435075 
1543	 0.203954756122762 
1544	 0.204047328763615 
1545	 0.204141302381419 
1546	 0.204239115055487 
1547	 0.204334423540194 
1548	 0.204414071174347 
1549	 0.20449602493036 
1550	 0.204572503708099 
1551	 0.204639539032578 
1552	 0.204717533902974 
1553	 0.204801936642766 
1554	 0.204881163982491 
1555	 0.204960587741908 
1556	 0.205040086663255 
1557	 0.205104330378532 
1558	 0.205181857853122 
1559	 0.205270185604011 
1560	 0.205328989636002 
1561	 0.205372508287536 
1562	 0.205430242371898 
1563	 0.205470441583138 
1564	 0.205527290906592 
1565	 0.205607331824636 
1566	 0.205671693747944 
1567	 0.205721079394242 
1568	 0.20579325591531 
1569	 0.205876840723658 
1570	 0.205951174851388 
1571	 0.206045340738652 
1572	 0.206106983171222 
1573	 0.206144449189213 
1574	 0.206194444273831 
1575	 0.206232999815723 
1576	 0.2062762134321 
1577	 0.20633178665248 
1578	 0.206371012742254 
1579	 0.206383160196418 
1580	 0.206431491782112 
1581	 0.206490272028131 
1582	 0.206552885187915 
1583	 0.206652615002034 
1584	 0.206720851670431 
1585	 0.206781989114602 
1586	 0.206823975559771 
1587	 0.20683429071858 
1588	 0.20686682247145 
1589	 0.206895830810151 
1590	 0.206925116386427 
1591	 0.206976489153053 
1592	 0.207006995920344 
1593	 0.207008442820774 
1594	 0.207031189898842 
1595	 0.207064646618131 
1596	 0.207086628488764 
1597	 0.20710985394547 
1598	 0.207136449613063 
1599	 0.207157975747318 
1600	 0.207178620410351 
1601	 0.207201612785113 
1602	 0.207230452835411 
1603	 0.207252697701625 
1604	 0.207281888567075 
1605	 0.207320983854409 
1606	 0.207365238005962 
1607	 0.207418779137364 
1608	 0.207470541247553 
1609	 0.207505259599451 
1610	 0.207526708215187 
1611	 0.207552733117786 
1612	 0.207566492871263 
1613	 0.207565868672923 
1614	 0.207580008231044 
1615	 0.207586793505368 
1616	 0.20758399174351 
1617	 0.207609143743443 
1618	 0.207639436206978 
1619	 0.207663807819653 
1620	 0.20769364289496 
1621	 0.207719350877801 
1622	 0.207758979355944 
1623	 0.20776513934435 
1624	 0.207745630726113 
1625	 0.207754353790513 
1626	 0.207758798604528 
1627	 0.207765332738605 
1628	 0.207794835271783 
1629	 0.207795894624796 
1630	 0.207765945322676 
1631	 0.207775872235418 
1632	 0.207795680575297 
1633	 0.207819492353432 
1634	 0.207869700044524 
1635	 0.207893455599924 
1636	 0.207909073056974 
1637	 0.207918999326895 
1638	 0.207916703843522 
1639	 0.207922506099283 
1640	 0.207924553206196 
1641	 0.207931722002399 
1642	 0.207944126746565 
1643	 0.207953458084841 
1644	 0.207956007455998 
1645	 0.207976793284872 
1646	 0.208009275779329 
1647	 0.208033214548127 
1648	 0.208076806860499 
1649	 0.208086221487522 
1650	 0.208069337568373 
1651	 0.208064956878285 
1652	 0.208048988333452 
1653	 0.208039986261593 
1654	 0.208037772850309 
1655	 0.208033395901243 
1656	 0.208031431320276 
1657	 0.208017266935557 
1658	 0.20800168853861 
1659	 0.207979697511375 
1660	 0.20793432992549 
1661	 0.207916093504636 
1662	 0.207917266653565 
1663	 0.207898408677534 
1664	 0.207881359641899 
1665	 0.207862248336373 
1666	 0.207822367314753 
1667	 0.20780422466186 
1668	 0.207808421638258 
1669	 0.207793518819439 
1670	 0.207777032012929 
1671	 0.207756036615106 
1672	 0.2077188890338 
1673	 0.207698220700277 
1674	 0.207684261249898 
1675	 0.207669559042714 
1676	 0.207665179809099 
1677	 0.207650877237658 
1678	 0.207630490709352 
1679	 0.207613452763484 
1680	 0.20759522800805 
1681	 0.207575360748794 
1682	 0.207550931397444 
1683	 0.207538303258699 
1684	 0.207527494144065 
1685	 0.207520707194968 
1686	 0.207537332192098 
1687	 0.207523618003432 
1688	 0.20748921390069 
1689	 0.207470271853773 
1690	 0.207438936893174 
1691	 0.207421207122893 
1692	 0.207430312880782 
1693	 0.207411409658058 
1694	 0.207377657165508 
1695	 0.207349918667566 
1696	 0.20730536024247 
1697	 0.207283411554771 
1698	 0.207281589204237 
1699	 0.207264530192693 
1700	 0.207254218944184 
1701	 0.207229160421174 
1702	 0.207188821640105 
1703	 0.20715541805664 
1704	 0.207113644462694 
1705	 0.207084385653785 
1706	 0.207076704923747 
1707	 0.207031084139195 
1708	 0.20696837058176 
1709	 0.20691857637864 
1710	 0.206844796076415 
1711	 0.206790481122245 
1712	 0.206769111792209 
1713	 0.206713765963857 
1714	 0.20663551629999 
1715	 0.206572556393155 
1716	 0.206503890413024 
1717	 0.206439541499767 
1718	 0.206385161572097 
1719	 0.206327209719805 
1720	 0.206258564796414 
1721	 0.206210973249443 
1722	 0.206176205622807 
1723	 0.206143497692636 
1724	 0.206139033666202 
1725	 0.206086631587011 
1726	 0.206014107647223 
1727	 0.2059345844915 
1728	 0.205812402957637 
1729	 0.20573677437153 
1730	 0.205691270534767 
1731	 0.205616694550302 
1732	 0.205549231515569 
1733	 0.205460822661842 
1734	 0.205339348643179 
1735	 0.20524514653863 
1736	 0.205153964734493 
1737	 0.20507403597662 
1738	 0.20501415873056 
1739	 0.204926515146266 
1740	 0.204830614540517 
1741	 0.204744835981501 
1742	 0.204646604003301 
1743	 0.204563550152278 
1744	 0.204507622597229 
1745	 0.204414920485613 
1746	 0.204304633706716 
1747	 0.2041891082206 
1748	 0.204071223748901 
1749	 0.20395562550784 
1750	 0.203847713387285 
1751	 0.203760642852807 
1752	 0.20366181874839 
1753	 0.203544883046729 
1754	 0.203448586699564 
1755	 0.203344885022943 
1756	 0.203217303958574 
1757	 0.203106297929058 
1758	 0.203015857655019 
1759	 0.202925867640898 
1760	 0.202853041096503 
1761	 0.202798021343008 
1762	 0.202720664868411 
1763	 0.202626197516311 
1764	 0.202544538832735 
1765	 0.20247299624981 
1766	 0.20239025982892 
1767	 0.202287864395584 
1768	 0.202192788331936 
1769	 0.202099213223662 
1770	 0.202016390052862 
1771	 0.201972343052179 
1772	 0.201909714591373 
1773	 0.201816812033428 
1774	 0.201749591238825 
1775	 0.201683718938842 
1776	 0.2016133737444 
1777	 0.201561251088743 
1778	 0.201473095676144 
1779	 0.20136599487876 
1780	 0.201288015854588 
1781	 0.20123591731095 
1782	 0.201207153851048 
1783	 0.201196129626609 
1784	 0.201163336190231 
1785	 0.201117821450718 
1786	 0.201068032419999 
1787	 0.200995649102652 
1788	 0.200947646708119 
1789	 0.200915106811687 
1790	 0.200869705235036 
1791	 0.200838979188195 
1792	 0.200797925211557 
1793	 0.200718852537579 
1794	 0.200692942798736 
1795	 0.200703972520455 
1796	 0.200696876020066 
1797	 0.200714650976366 
1798	 0.200702434921131 
1799	 0.200663766289519 
1800	 0.200635714071443 
1801	 0.195821060620084 
1802	 0.195941460279926 
1803	 0.196084801939671 
1804	 0.196299091015014 
1805	 0.196521092301626 
1806	 0.196716125479956 
1807	 0.196928720839206 
1808	 0.197109720885295 
1809	 0.197259037567186 
1810	 0.197399955184342 
1811	 0.197537981819168 
1812	 0.19766843574224 
1813	 0.197737915562058 
1814	 0.19779277874399 
1815	 0.197845767471929 
1816	 0.197867446717986 
1817	 0.197905494090963 
1818	 0.197951674150542 
1819	 0.197985877579884 
1820	 0.198013889850618 
1821	 0.198047983866576 
1822	 0.198064125454857 
1823	 0.198078864789094 
1824	 0.198107619282016 
1825	 0.198135055862602 
1826	 0.198165095549114 
1827	 0.198186467047662 
1828	 0.198194414378298 
1829	 0.198192745589618 
1830	 0.198177957582534 
1831	 0.198141539039337 
1832	 0.198120605839742 
1833	 0.198096326873216 
1834	 0.198046089593361 
1835	 0.197997847679305 
1836	 0.197945104993726 
1837	 0.197873135564191 
1838	 0.197832824385325 
1839	 0.197803399574307 
1840	 0.197800458647895 
1841	 0.197768462486505 
1842	 0.19773807697191 
1843	 0.197670933091361 
1844	 0.197546898163092 
1845	 0.19746011197433 
1846	 0.197387123932688 
1847	 0.197317876005983 
1848	 0.197278794922971 
1849	 0.197190897471949 
1850	 0.197094562329465 
1851	 0.19696844770882 
1852	 0.196875469125663 
1853	 0.196773229211778 
1854	 0.196650988537913 
1855	 0.196539008140731 
1856	 0.196363759283858 
1857	 0.19612673117969 
1858	 0.195901801638703 
1859	 0.195632327326275 
1860	 0.195336521877152 
1861	 0.195007137374837 
1862	 0.194672547443483 
1863	 0.194319125365724 
1864	 0.193951662676004 
1865	 0.193544344672398 
1866	 0.19309774397825 
1867	 0.192605752380255 
1868	 0.192049843824196 
1869	 0.191473303313145 
1870	 0.190873706857649 
1871	 0.190210171604534 
1872	 0.189486819877133 
1873	 0.188745507945106 
1874	 0.187976761910105 
1875	 0.187139524208326 
1876	 0.186277009856686 
1877	 0.185357139447758 
1878	 0.184338348326402 
1879	 0.183265721748042 
1880	 0.182108087483603 
1881	 0.180857585595282 
1882	 0.179559156026643 
1883	 0.178206101910963 
1884	 0.176730196038871 
1885	 0.175234192710338 
1886	 0.173665842623339 
1887	 0.171987885449655 
1888	 0.17029957136381 
1889	 0.168529751803743 
1890	 0.1667060834241 
1891	 0.164894301975447 
1892	 0.163028634965593 
1893	 0.161192750563856 
1894	 0.159359970895689 
1895	 0.157540672575775 
1896	 0.155688551360016 
1897	 0.153925279472914 
1898	 0.152166990736789 
1899	 0.15044969148229 
1900	 0.148837298555888 
1901	 0.147236564109275 
1902	 0.145741276873946 
1903	 0.144348924428768 
1904	 0.143004477833511 
1905	 0.141718075377851 
1906	 0.140535723679671 
1907	 0.139403894328241 
1908	 0.138314695227781 
1909	 0.137334039657554 
1910	 0.136427175020122 
1911	 0.135589282097015 
1912	 0.134814939587917 
1913	 0.13408073943752 
1914	 0.133390597628924 
1915	 0.132760994545329 
1916	 0.132184221702968 
1917	 0.131664754026154 
1918	 0.131186864459339 
1919	 0.130736091270265 
1920	 0.130329392682159 
1921	 0.12993657747598 
1922	 0.129594663588832 
1923	 0.129310247323454 
1924	 0.1290547669367 
1925	 0.128838067766459 
1926	 0.128663940413221 
1927	 0.128530727350221 
1928	 0.128430803395112 
1929	 0.128364094862444 
1930	 0.128313386520729 
1931	 0.128298169956485 
1932	 0.128298317243292 
1933	 0.128334992924241 
1934	 0.128397962844392 
1935	 0.128453874662124 
1936	 0.128503287222205 
1937	 0.128594125830254 
1938	 0.128683298750347 
1939	 0.12881906377183 
1940	 0.129004089402782 
1941	 0.12920808777655 
1942	 0.129415954721915 
1943	 0.129635528505577 
1944	 0.129858544251594 
1945	 0.13010331546274 
1946	 0.130350359249043 
1947	 0.130604106086567 
1948	 0.1308767604716 
1949	 0.131160577509104 
1950	 0.13145038355908 
1951	 0.131750901116675 
1952	 0.132074956610575 
1953	 0.132390993267423 
1954	 0.132730773891272 
1955	 0.133100271092948 
1956	 0.133473293470477 
1957	 0.133839164715638 
1958	 0.134208200976664 
1959	 0.134584515342091 
1960	 0.13495048029613 
1961	 0.135335881383507 
1962	 0.135742537325023 
1963	 0.136152554274449 
1964	 0.136565216335489 
1965	 0.13698974551124 
1966	 0.137424260080245 
1967	 0.137873872943702 
1968	 0.138315811517784 
1969	 0.138766555276812 
1970	 0.139197105551192 
1971	 0.139615090463095 
1972	 0.140041607430763 
1973	 0.14046226954983 
1974	 0.140888805440735 
1975	 0.141319258733877 
1976	 0.141750761689256 
1977	 0.142199710310427 
1978	 0.14264819366805 
1979	 0.143107550510428 
1980	 0.143567180131953 
1981	 0.144013449931293 
1982	 0.144437940967624 
1983	 0.144879605358487 
1984	 0.14532766051342 
1985	 0.145771342315071 
1986	 0.146207999494674 
1987	 0.146658586135122 
1988	 0.147117891976856 
1989	 0.147573970612559 
1990	 0.148029626329622 
1991	 0.148496808135006 
1992	 0.1489453202118 
1993	 0.149378213117554 
1994	 0.149812525407809 
1995	 0.150243627089909 
1996	 0.15067103692913 
1997	 0.151076746336751 
1998	 0.15151170377623 
1999	 0.151968354742905 
2000	 0.152410850701353 
2001	 0.152857374636673 
2002	 0.153316879049922 
2003	 0.153760064738679 
2004	 0.154184525034714 
2005	 0.154603243438349 
2006	 0.155021867422226 
2007	 0.155423755778409 
2008	 0.155794378133554 
2009	 0.15618531815483 
2010	 0.156569950783415 
2011	 0.156971225167345 
2012	 0.157400198380085 
2013	 0.157807467127543 
2014	 0.158222130473009 
2015	 0.158617960056219 
2016	 0.158991129005295 
2017	 0.159350490938725 
2018	 0.15972894516474 
2019	 0.160111680994837 
2020	 0.160487988706891 
2021	 0.160884607639567 
2022	 0.161251213463182 
2023	 0.161578662507589 
2024	 0.161935806982735 
2025	 0.162295792765379 
2026	 0.16265752850977 
2027	 0.163033955320843 
2028	 0.163418920963792 
2029	 0.163777654162263 
2030	 0.164121562326233 
2031	 0.164463859082001 
2032	 0.164796001423832 
2033	 0.165125796606525 
2034	 0.165444458951082 
2035	 0.165773265275274 
2036	 0.16610683414068 
2037	 0.166430680549173 
2038	 0.16677376746249 
2039	 0.167082059116204 
2040	 0.167361460967274 
2041	 0.167635707174575 
2042	 0.167907570195203 
2043	 0.168173805551357 
2044	 0.168448338125262 
2045	 0.168724353580156 
2046	 0.169016089276144 
2047	 0.16932377416338 
2048	 0.16961487063146 
2049	 0.169928339938004 
2050	 0.170209013072015 
2051	 0.170460627209068 
2052	 0.17071063506037 
2053	 0.170935994401329 
2054	 0.171175609788945 
2055	 0.17140556965752 
2056	 0.171655017964188 
2057	 0.171902923812115 
2058	 0.172167064422502 
2059	 0.1724146581009 
2060	 0.172650399333177 
2061	 0.172900415963379 
2062	 0.173151426382692 
2063	 0.173406086796106 
2064	 0.173684679502325 
2065	 0.173936851611651 
2066	 0.174179905021067 
2067	 0.174413258234224 
2068	 0.174620811945756 
2069	 0.174840003714206 
2070	 0.175059417749422 
2071	 0.175269997771782 
2072	 0.175499275873341 
2073	 0.175744477888286 
2074	 0.175975718908914 
2075	 0.176216054671894 
2076	 0.176442838680109 
2077	 0.176649915420521 
2078	 0.176872281372198 
2079	 0.177098745304359 
2080	 0.177321455845405 
2081	 0.177545396137072 
2082	 0.177774040708548 
2083	 0.177998969254897 
2084	 0.178232592283769 
2085	 0.178462098701047 
2086	 0.178701815644205 
2087	 0.178924999487756 
2088	 0.17914196915157 
2089	 0.179352644304665 
2090	 0.179550757220181 
2091	 0.179754662068043 
2092	 0.179958997269316 
2093	 0.180154850639143 
2094	 0.180337649458389 
2095	 0.180538650928096 
2096	 0.180753746441337 
2097	 0.180950870312427 
2098	 0.181142708838328 
2099	 0.181342810577866 
2100	 0.18155035116773 
2101	 0.181744481169224 
2102	 0.181952126990896 
2103	 0.182196990156745 
2104	 0.182399325000403 
2105	 0.182569692150897 
2106	 0.182762032092967 
2107	 0.182947486684051 
2108	 0.18314102213218 
2109	 0.183354843434644 
2110	 0.183552238100842 
2111	 0.183737392756888 
2112	 0.183930128403972 
2113	 0.184118481092317 
2114	 0.184315769943075 
2115	 0.184499713139147 
2116	 0.184678811462 
2117	 0.184870175293369 
2118	 0.185054217779691 
2119	 0.185251256223686 
2120	 0.185471626397472 
2121	 0.185675349810498 
2122	 0.185887096223787 
2123	 0.186070646659038 
2124	 0.18624543701207 
2125	 0.186402748624818 
2126	 0.186521182985767 
2127	 0.186656027051572 
2128	 0.186790349553067 
2129	 0.186920325216253 
2130	 0.187051303799385 
2131	 0.187182205990497 
2132	 0.187306453039323 
2133	 0.187435363740063 
2134	 0.187530009973161 
2135	 0.187611712332331 
2136	 0.18767894013248 
2137	 0.187707843787732 
2138	 0.187752730534274 
2139	 0.187803669036727 
2140	 0.187840929745006 
2141	 0.187881959900998 
2142	 0.187897027095063 
2143	 0.187886016511784 
2144	 0.187877270646651 
2145	 0.187847231669003 
2146	 0.187823871351469 
2147	 0.18778801809006 
2148	 0.187782545067762 
2149	 0.18776627478446 
2150	 0.187755348042651 
2151	 0.187730500021121 
2152	 0.187699631876164 
2153	 0.187675790291618 
2154	 0.187661846968652 
2155	 0.18761314120938 
2156	 0.187570219144024 
2157	 0.187492001234053 
2158	 0.187360494952825 
2159	 0.187243564841985 
2160	 0.187103739108319 
2161	 0.186985411449921 
2162	 0.186872513831033 
2163	 0.18676499031359 
2164	 0.186681577847914 
2165	 0.186588609212069 
2166	 0.186477670914791 
2167	 0.186354944368164 
2168	 0.186235271674541 
2169	 0.186095295724029 
2170	 0.185978631437075 
2171	 0.185887302832243 
2172	 0.18576535297574 
2173	 0.185624114709023 
2174	 0.185505525453826 
2175	 0.185388210195182 
2176	 0.185260800623068 
2177	 0.18515965782088 
2178	 0.185028576936167 
2179	 0.184855201931603 
2180	 0.184701714436403 
2181	 0.184548115853017 
2182	 0.184396209437308 
2183	 0.184244390222314 
2184	 0.184106979939729 
2185	 0.183959399866784 
2186	 0.183796714830272 
2187	 0.183670059884163 
2188	 0.183563653845763 
2189	 0.183443570218883 
2190	 0.183346997473323 
2191	 0.183227267648857 
2192	 0.183063781479543 
2193	 0.182952957952265 
2194	 0.182874614824371 
2195	 0.182777243542042 
2196	 0.182704040879901 
2197	 0.182613672584493 
2198	 0.182471703135066 
2199	 0.182386152257783 
2200	 0.182346320203847 
2201	 0.182287321255887 
2202	 0.182248706754156 
2203	 0.182199738454496 
2204	 0.182168877506614 
2205	 0.182119002153757 
2206	 0.182107411884447 
2207	 0.18214206571873 
2208	 0.182144310952768 
2209	 0.182137317789109 
2210	 0.182149317938393 
2211	 0.182161954642397 
2212	 0.182181097555417 
2213	 0.18221964969642 
2214	 0.182248986720966 
2215	 0.182276180982951 
2216	 0.182302660232363 
2217	 0.182324726279263 
2218	 0.182356170185086 
2219	 0.182381099320518 
2220	 0.18242140468128 
2221	 0.182488184942197 
2222	 0.182549734276645 
2223	 0.18255628592146 
2224	 0.182578365293023 
2225	 0.182596505359494 
2226	 0.182582177884169 
2227	 0.182587277548592 
2228	 0.182620492147051 
2229	 0.182627271814897 
2230	 0.182615990406511 
2231	 0.182612444384899 
2232	 0.182610686637577 
2233	 0.182604902628217 
2234	 0.182584478161161 
2235	 0.182577693241784 
2236	 0.182586523784932 
2237	 0.182578245768445 
2238	 0.182571421167195 
2239	 0.182556463076268 
2240	 0.182522318219252 
2241	 0.182497677763149 
2242	 0.182463426830018 
2243	 0.182448091231871 
2244	 0.182468840244244 
2245	 0.182452568542948 
2246	 0.182424483885584 
2247	 0.182383660372947 
2248	 0.182326549331876 
2249	 0.182225515297633 
2250	 0.182153262468922 
2251	 0.18208531315652 
2252	 0.182028035644786 
2253	 0.181967929572355 
2254	 0.18192605790061 
2255	 0.18190144788322 
2256	 0.181875328279877 
2257	 0.181860089239353 
2258	 0.181845885987107 
2259	 0.181851549893193 
2260	 0.181826023588724 
2261	 0.181774204364348 
2262	 0.181745570788871 
2263	 0.181721560960596 
2264	 0.181678835920279 
2265	 0.181638067166252 
2266	 0.181604098803347 
2267	 0.181524128361093 
2268	 0.181494244793889 
2269	 0.181518998797533 
2270	 0.181531341704977 
2271	 0.181534727046279 
2272	 0.181562296031286 
2273	 0.181548626435695 
2274	 0.181509503620412 
2275	 0.181481967589004 
2276	 0.181438335573948 
2277	 0.181415948598496 
2278	 0.18140575238369 
2279	 0.181387511819851 
2280	 0.181380110789729 
2281	 0.181360285524773 
2282	 0.181324964361385 
2283	 0.181303277346908 
2284	 0.181280220192905 
2285	 0.181270666621683 
2286	 0.181264842964105 
2287	 0.18127347710024 
2288	 0.181336455535808 
2289	 0.181319138175588 
2290	 0.181269580156909 
2291	 0.18122622461768 
2292	 0.181117753578484 
2293	 0.181043684235756 
2294	 0.180997279431506 
2295	 0.180939373636547 
2296	 0.180875063460417 
2297	 0.180813514011084 
2298	 0.18076999814193 
2299	 0.18075852991412 
2300	 0.18073147617455 
2301	 0.1807198802851 
2302	 0.180683853219616 
2303	 0.180623537154759 
2304	 0.180580022959438 
2305	 0.180502927536625 
2306	 0.180414731678935 
2307	 0.180303815498891 
2308	 0.180209755984865 
2309	 0.180098653305099 
2310	 0.180005807699258 
2311	 0.179945716206004 
2312	 0.179847417386208 
2313	 0.179724780229355 
2314	 0.179628700731039 
2315	 0.179513475252425 
2316	 0.179421648616432 
2317	 0.179379456599685 
2318	 0.179282363314026 
2319	 0.179148264768491 
2320	 0.179069098605235 
2321	 0.179012098376841 
2322	 0.178913115866054 
2323	 0.178827870536788 
2324	 0.178727839730638 
2325	 0.178559482475659 
2326	 0.178429299676104 
2327	 0.178319129400748 
2328	 0.178239718566531 
2329	 0.178136907666643 
2330	 0.178077968966962 
2331	 0.17803582323437 
2332	 0.177987107043724 
2333	 0.177927676592201 
2334	 0.177870110764357 
2335	 0.177826774965925 
2336	 0.177723979081378 
2337	 0.177648197034341 
2338	 0.177588920294653 
2339	 0.177485193492243 
2340	 0.177410114475639 
2341	 0.177270554263123 
2342	 0.177079477011804 
2343	 0.176924914335216 
2344	 0.176725434579909 
2345	 0.176540294326025 
2346	 0.176345483316199 
2347	 0.176206836193536 
2348	 0.17610715965553 
2349	 0.175972295893547 
2350	 0.175878342346763 
2351	 0.17571514179211 
2352	 0.175462702238858 
2353	 0.175273144019784 
2354	 0.175109251694983 
2355	 0.174927630565627 
2356	 0.17475759619303 
2357	 0.174567049895762 
2358	 0.174331433635212 
2359	 0.174143959458954 
2360	 0.173982262434689 
2361	 0.173823708697676 
2362	 0.173691230978685 
2363	 0.173546837807094 
2364	 0.17340495164457 
2365	 0.173249466470906 
2366	 0.173087327663252 
2367	 0.172918849592906 
2368	 0.172761952863206 
2369	 0.172565066708231 
2370	 0.172328392094137 
2371	 0.172123210509024 
2372	 0.171883337329127 
2373	 0.171623083244167 
2374	 0.171435662991055 
2375	 0.171185418235617 
2376	 0.170883677607398 
2377	 0.170635510612902 
2378	 0.170358604445782 
2379	 0.17008318852157 
2380	 0.169942599515734 
2381	 0.169760429960849 
2382	 0.169455632420782 
2383	 0.169216616672739 
2384	 0.169010648216399 
2385	 0.168742155271142 
2386	 0.1685193511816 
2387	 0.168335316668898 
2388	 0.168076153915634 
2389	 0.167800979961709 
2390	 0.167526901661319 
2391	 0.167226623619452 
2392	 0.166955514944719 
2393	 0.166711574886075 
2394	 0.166487709309141 
2395	 0.166317390353208 
2396	 0.166082164354939 
2397	 0.16582777157719 
2398	 0.165626874134792 
2399	 0.165330827618497 
2400	 0.16502221073815 
2401	 0.164697857038097 
2402	 0.164277011204052 
2403	 0.163934361187298 
2404	 0.163660335828445 
2405	 0.163342581051587 
2406	 0.163086901939125 
2407	 0.162828429336548 
2408	 0.162489855455672 
2409	 0.162255563903065 
2410	 0.162015176550383 
2411	 0.161729363527451 
2412	 0.161553917407655 
2413	 0.16131576324267 
2414	 0.161056235028705 
2415	 0.160830951612102 
2416	 0.160559157233211 
2417	 0.160231756148117 
2418	 0.159931190442037 
2419	 0.159656520486658 
2420	 0.159319280754056 
2421	 0.158913815544655 
2422	 0.158608385512482 
2423	 0.158318870605804 
2424	 0.157983148645453 
2425	 0.157691541928818 
2426	 0.157370811140717 
2427	 0.156984961493534 
2428	 0.156658993316621 
2429	 0.156411502575605 
2430	 0.156065046736561 
2431	 0.155675417966154 
2432	 0.155292312992341 
2433	 0.154825962507025 
2434	 0.154451154091345 
2435	 0.154110551694042 
2436	 0.153731955293046 
2437	 0.153409319537037 
2438	 0.153105992473842 
2439	 0.152763595195373 
2440	 0.152442630834577 
2441	 0.152146931463929 
2442	 0.151881166461375 
2443	 0.151732339696647 
2444	 0.151425852559819 
2445	 0.151039416926041 
2446	 0.150720638670612 
2447	 0.150253807895543 
2448	 0.149927498961096 
2449	 0.149765038436026 
2450	 0.149509860243988 
2451	 0.149229745470032 
2452	 0.148993323521636 
2453	 0.148815960946478 
2454	 0.148499730291591 
2455	 0.148168162201047 
2456	 0.14778416869902 
2457	 0.147224627416074 
2458	 0.146914067450996 
2459	 0.146676967315865 
2460	 0.146395664045217 
2461	 0.146243393673868 
2462	 0.146023846462073 
2463	 0.145763907205183 
2464	 0.145504744046443 
2465	 0.145203679694842 
2466	 0.144962864948149 
2467	 0.14475217878575 
2468	 0.144489140989623 
2469	 0.144318858406719 
2470	 0.143971879418181 
2471	 0.143550720179689 
2472	 0.143123877381317 
2473	 0.142735355976765 
2474	 0.142442351215991 
2475	 0.142293214564817 
2476	 0.142230676982771 
2477	 0.142008148609495 
2478	 0.141724632682817 
2479	 0.141433177055639 
2480	 0.140974084385506 
2481	 0.140472193225743 
2482	 0.140024531781404 
2483	 0.139580006474909 
2484	 0.139331111775474 
2485	 0.139232792012273 
2486	 0.139117803493719 
2487	 0.138945624937946 
2488	 0.138630645305579 
2489	 0.138339193804064 
2490	 0.138070381621586 
2491	 0.137837760687596 
2492	 0.137668852763646 
2493	 0.137444796745115 
2494	 0.137225573736424 
2495	 0.137058402243451 
2496	 0.136914627206734 
2497	 0.136647787933917 
2498	 0.136456942380295 
2499	 0.136404212302326 
2500	 0.136204878864427 
