Wavelength	mm2600008.asd
350	 3.38238536152719E-02 
351	 4.08583495195002E-02 
352	 0.03479149769685 
353	 2.02481494016362E-02 
354	 2.83284524314989E-02 
355	 2.89111154997282E-02 
356	 2.97958172782563E-02 
357	 4.08962357731466E-02 
358	 4.22489898868863E-02 
359	 3.89694112323306E-02 
360	 3.48701609716001E-02 
361	 3.24787323482709E-02 
362	 3.52058081649922E-02 
363	 3.69444003700038E-02 
364	 3.56037633174957E-02 
365	 3.70509277459231E-02 
366	 3.75126452546076E-02 
367	 3.74501095057367E-02 
368	 3.84583736232319E-02 
369	 4.24978484822014E-02 
370	 4.20750611625327E-02 
371	 3.92733855695086E-02 
372	 4.19526350643911E-02 
373	 4.31924884686212E-02 
374	 4.13664208230847E-02 
375	 3.84751384701497E-02 
376	 4.17458690047594E-02 
377	 4.05250724185502E-02 
378	 3.91183745734295E-02 
379	 4.34434322390707E-02 
380	 4.67274837914536E-02 
381	 4.62720318846241E-02 
382	 4.41037934057983E-02 
383	 4.51439314700234E-02 
384	 4.50685590745966E-02 
385	 4.36195913391757E-02 
386	 0.042716440310278 
387	 4.76543413792169E-02 
388	 4.99066243949479E-02 
389	 4.90106184367794E-02 
390	 4.72729384111711E-02 
391	 4.59005608442217E-02 
392	 0.046883115257146 
393	 4.91289748374707E-02 
394	 4.93182534272628E-02 
395	 5.18482113238345E-02 
396	 0.052512951449301 
397	 5.00446675400308E-02 
398	 5.24520897526487E-02 
399	 5.44753707316356E-02 
400	 0.055149511660103 
401	 5.49133281292863E-02 
402	 5.23659963034352E-02 
403	 5.22336728185126E-02 
404	 5.44584793647984E-02 
405	 5.41198776082886E-02 
406	 5.50132704932488E-02 
407	 5.66296325477589E-02 
408	 5.76430003205285E-02 
409	 5.66887466195339E-02 
410	 5.56669682853155E-02 
411	 5.54905910466326E-02 
412	 5.63022144856311E-02 
413	 5.68158162058393E-02 
414	 5.67298062328803E-02 
415	 5.64047746988828E-02 
416	 5.68705712352824E-02 
417	 5.72473474388533E-02 
418	 5.73576913284277E-02 
419	 5.72927007589707E-02 
420	 5.74236313886751E-02 
421	 5.73218320280897E-02 
422	 5.72855768630703E-02 
423	 5.79099659939999E-02 
424	 5.75259852687952E-02 
425	 5.70867170198969E-02 
426	 5.71127398843955E-02 
427	 5.67147939981366E-02 
428	 5.65236416091442E-02 
429	 5.65926263525317E-02 
430	 5.67360886634829E-02 
431	 5.65851216732448E-02 
432	 5.63068363774744E-02 
433	 5.61730455995127E-02 
434	 5.64896484956801E-02 
435	 5.65909260661027E-02 
436	 5.66124850940714E-02 
437	 5.66905263145651E-02 
438	 5.64622517025017E-02 
439	 5.65988565389155E-02 
440	 5.69578207617233E-02 
441	 5.70345723750534E-02 
442	 0.057030502091502 
443	 5.70900281634077E-02 
444	 5.72434807684343E-02 
445	 5.73612629940026E-02 
446	 0.057522320550209 
447	 5.76959958938865E-02 
448	 5.78167176496973E-02 
449	 5.77916206933571E-02 
450	 5.78149215610587E-02 
451	 5.80106647092121E-02 
452	 5.83949459289729E-02 
453	 5.82944188154067E-02 
454	 5.80549409478813E-02 
455	 5.80338440853269E-02 
456	 5.81710375452662E-02 
457	 5.82377950767407E-02 
458	 5.82364971958457E-02 
459	 5.82723784248558E-02 
460	 0.058316988413397 
461	 5.82336870893787E-02 
462	 5.81014084640996E-02 
463	 5.83131046242992E-02 
464	 5.83495228460978E-02 
465	 5.84135695138734E-02 
466	 0.058707490988733 
467	 5.86002867742405E-02 
468	 5.84594654665236E-02 
469	 5.84153324732349E-02 
470	 5.83896867073319E-02 
471	 5.85218268157711E-02 
472	 5.84311933339435E-02 
473	 5.80365786880834E-02 
474	 5.81546353873174E-02 
475	 5.82930964624328E-02 
476	 5.83747978076686E-02 
477	 5.84608654607199E-02 
478	 5.82828711914707E-02 
479	 5.82209365097005E-02 
480	 5.83482986596936E-02 
481	 5.82380776422695E-02 
482	 5.83772209718002E-02 
483	 5.86571202875052E-02 
484	 5.88073914118251E-02 
485	 0.058617027589115 
486	 5.84144140819175E-02 
487	 5.83846611288146E-02 
488	 5.85550899582757E-02 
489	 5.86598530652618E-02 
490	 5.86271015597302E-02 
491	 5.84974486370865E-02 
492	 5.84790884722166E-02 
493	 0.05840808561606 
494	 5.83783275378629E-02 
495	 5.85533186524749E-02 
496	 5.86838264232592E-02 
497	 5.86723573610131E-02 
498	 5.85841562987182E-02 
499	 5.86974136421335E-02 
500	 5.87687673930192E-02 
501	 5.87447051707577E-02 
502	 5.86626529240634E-02 
503	 5.86883194945027E-02 
504	 5.87393852373053E-02 
505	 5.87365441129449E-02 
506	 5.86263219676749E-02 
507	 5.86887721299973E-02 
508	 5.88056818964903E-02 
509	 5.88386625998602E-02 
510	 5.88205478251528E-02 
511	 5.87262763036928E-02 
512	 5.86176017355847E-02 
513	 5.86020794625993E-02 
514	 5.87609577237791E-02 
515	 5.88511464903006E-02 
516	 5.88037455098014E-02 
517	 5.89101721953282E-02 
518	 5.89142341491412E-02 
519	 0.058840812183997 
520	 5.87949269385207E-02 
521	 5.87705236984762E-02 
522	 5.88743030498034E-02 
523	 5.89856212553457E-02 
524	 5.87580522005869E-02 
525	 5.88400062629887E-02 
526	 5.88949453193674E-02 
527	 5.86583785725361E-02 
528	 5.88241498509563E-02 
529	 5.89671315035228E-02 
530	 5.89805897251339E-02 
531	 5.89779580174997E-02 
532	 5.90015080511525E-02 
533	 5.90425389554348E-02 
534	 5.90875271262216E-02 
535	 0.059144173037954 
536	 5.91101485002552E-02 
537	 0.059086415743931 
538	 5.92017645339826E-02 
539	 5.91633444427322E-02 
540	 5.92027069518835E-02 
541	 5.93621985322463E-02 
542	 5.93826670508045E-02 
543	 0.059406767246302 
544	 5.94161238146607E-02 
545	 5.93991465559278E-02 
546	 5.95458233584164E-02 
547	 5.96495409079883E-02 
548	 5.96724190206283E-02 
549	 5.97261382654388E-02 
550	 5.97732887991842E-02 
551	 0.059780901281504 
552	 5.97849385102817E-02 
553	 0.06003304817851 
554	 6.00904212546207E-02 
555	 6.00531349443382E-02 
556	 6.02558892591212E-02 
557	 6.04278454263113E-02 
558	 6.05259944448276E-02 
559	 6.06043550918002E-02 
560	 6.08521226219719E-02 
561	 6.09675906699167E-02 
562	 6.10675744259373E-02 
563	 6.13488499604013E-02 
564	 6.15958244840989E-02 
565	 6.18043964122081E-02 
566	 6.20057286574965E-02 
567	 0.062255047717077 
568	 6.25278758099454E-02 
569	 6.27958415959823E-02 
570	 6.30574560833773E-02 
571	 6.34048132297246E-02 
572	 6.37895367710206E-02 
573	 6.41731274166872E-02 
574	 6.45291764241235E-02 
575	 6.48808986043342E-02 
576	 6.52772176687965E-02 
577	 6.57186271448691E-02 
578	 6.60767670480791E-02 
579	 6.65544758925691E-02 
580	 0.067090497488449 
581	 6.75476888799543E-02 
582	 0.068134570929687 
583	 6.87092922550087E-02 
584	 6.92185188989426E-02 
585	 6.97766861859629E-02 
586	 7.04007205518962E-02 
587	 7.10299551374159E-02 
588	 7.16145217063169E-02 
589	 7.22768987447072E-02 
590	 7.29311212584414E-02 
591	 7.35632207826368E-02 
592	 7.42292241592171E-02 
593	 7.48453854176705E-02 
594	 7.54847412817151E-02 
595	 7.61787484362662E-02 
596	 7.67601923411641E-02 
597	 7.73927650967804E-02 
598	 7.80840295360195E-02 
599	 7.87583742698519E-02 
600	 7.94028730220718E-02 
601	 7.99909131862849E-02 
602	 8.05273571425497E-02 
603	 8.10727680056319E-02 
604	 8.16364919767756E-02 
605	 0.082195900468637 
606	 0.082719391973233 
607	 8.32055541683448E-02 
608	 8.37110437591501E-02 
609	 8.42386274525267E-02 
610	 8.47273521932208E-02 
611	 8.51279967878847E-02 
612	 8.55229831935752E-02 
613	 8.59715156627054E-02 
614	 8.63465369332425E-02 
615	 0.086672382401899 
616	 8.69699851045204E-02 
617	 8.72574006826242E-02 
618	 8.75636039193082E-02 
619	 8.78376769521555E-02 
620	 8.80656328886359E-02 
621	 8.83401449656112E-02 
622	 8.85962394438249E-02 
623	 8.88213692205623E-02 
624	 8.90299664419573E-02 
625	 8.92738799443661E-02 
626	 8.94736121702178E-02 
627	 8.96309653105694E-02 
628	 8.98673727404378E-02 
629	 9.00565452890298E-02 
630	 9.02138815310615E-02 
631	 9.03804115053066E-02 
632	 9.05312232358269E-02 
633	 9.07045557450127E-02 
634	 0.090888333509891 
635	 9.10343307507517E-02 
636	 9.12221305185559E-02 
637	 9.13981889886979E-02 
638	 9.15228408506886E-02 
639	 9.16354725019367E-02 
640	 9.18289815577412E-02 
641	 9.20671241888281E-02 
642	 9.22565683187943E-02 
643	 9.24123660673751E-02 
644	 9.25835022660588E-02 
645	 9.27829073643614E-02 
646	 9.29655848222376E-02 
647	 9.31603856948835E-02 
648	 0.093349384124891 
649	 9.35224118614148E-02 
650	 9.37618717970238E-02 
651	 9.39677349683032E-02 
652	 9.41478196943213E-02 
653	 9.44008962292688E-02 
654	 9.46376602483493E-02 
655	 9.48387285020862E-02 
656	 9.50239568499661E-02 
657	 0.095275436874728 
658	 9.55448024768917E-02 
659	 9.58252008648845E-02 
660	 9.61206209178659E-02 
661	 9.63753415393035E-02 
662	 9.66291196092102E-02 
663	 9.68951277571418E-02 
664	 9.71326789823685E-02 
665	 9.74131459107525E-02 
666	 0.097700393470404 
667	 9.79546252017398E-02 
668	 9.82527070526826E-02 
669	 9.85947336454861E-02 
670	 9.89499669049435E-02 
671	 9.92672726845443E-02 
672	 9.95761476351908E-02 
673	 9.99190398941234E-02 
674	 0.100315428815168 
675	 0.100740762939534 
676	 0.101073129919381 
677	 0.101379077281056 
678	 0.101782488872167 
679	 0.102137519443285 
680	 0.102524034526623 
681	 0.102967301240421 
682	 0.103398686354642 
683	 0.103796204468678 
684	 0.104187298273465 
685	 0.104609569135838 
686	 0.105082682049451 
687	 0.10555209915338 
688	 0.106005503416418 
689	 0.106460264412607 
690	 0.106892056251507 
691	 0.107337888867463 
692	 0.107818256772459 
693	 0.108307620733043 
694	 0.108787851511922 
695	 0.109266997057896 
696	 0.109758721413221 
697	 0.11023524751894 
698	 0.110742752949373 
699	 0.111277553938633 
700	 0.111780672765434 
701	 0.112274265687891 
702	 0.112766383640977 
703	 0.11326300467321 
704	 0.113768994980163 
705	 0.114298043959144 
706	 0.114827350191468 
707	 0.115322042806473 
708	 0.115820829038999 
709	 0.1163608087047 
710	 0.116921635538471 
711	 0.117403266676504 
712	 0.117893272073843 
713	 0.118389888873687 
714	 0.118881950428179 
715	 0.119422772657754 
716	 0.119935121621835 
717	 0.120400568551697 
718	 0.120849916121699 
719	 0.121323779625648 
720	 0.121768298587401 
721	 0.122161632912735 
722	 0.122567229936885 
723	 0.123036496006603 
724	 0.123497275838542 
725	 0.12386700741948 
726	 0.124258016577981 
727	 0.124614031189577 
728	 0.124927549951648 
729	 0.125244429332661 
730	 0.125616938917832 
731	 0.125946121380123 
732	 0.126185270355197 
733	 0.126477670572833 
734	 0.126777004882482 
735	 0.127011420617355 
736	 0.127135561617352 
737	 0.127347199277509 
738	 0.127538596231347 
739	 0.127677681423406 
740	 0.127837425951674 
741	 0.127961235468135 
742	 0.12804173814463 
743	 0.128095157964136 
744	 0.128178987906694 
745	 0.128182379636031 
746	 0.128157373327713 
747	 0.128205492258074 
748	 0.12817814130754 
749	 0.128106254862447 
750	 0.128032933771891 
751	 0.127993943620783 
752	 0.127919908033912 
753	 0.127818899770878 
754	 0.127706118111348 
755	 0.127558421934198 
756	 0.127407384268803 
757	 0.127241754020217 
758	 0.127040495621173 
759	 0.126888200169692 
760	 0.126696659580499 
761	 0.126449821993047 
762	 0.126239877061118 
763	 0.125995500057616 
764	 0.125726033385221 
765	 0.125456863264766 
766	 0.125200736346135 
767	 0.124960062131252 
768	 0.124703062196991 
769	 0.124393139529714 
770	 0.124088867727612 
771	 0.123800408924102 
772	 0.123510987749737 
773	 0.123179703413188 
774	 0.122854402731901 
775	 0.122554091951489 
776	 0.122269622072155 
777	 0.121936097288456 
778	 0.121589483998694 
779	 0.121264701874426 
780	 0.120978806054913 
781	 0.120643044720644 
782	 0.120301026762655 
783	 0.119969574643264 
784	 0.119629400669998 
785	 0.119337495736994 
786	 0.119053016523429 
787	 0.118735218968819 
788	 0.118382187702464 
789	 0.118093978054617 
790	 0.117793393419396 
791	 0.117391350036281 
792	 0.117120179270231 
793	 0.116833849929716 
794	 0.116499231891157 
795	 0.116193205864732 
796	 0.115861768792153 
797	 0.115556380143835 
798	 0.11529104949238 
799	 0.114983433158368 
800	 0.114704648302452 
801	 0.114436672793175 
802	 0.114148179545639 
803	 0.113863351643597 
804	 0.113608307433477 
805	 0.113361595021512 
806	 0.11307898599204 
807	 0.112796431826025 
808	 0.112532011204463 
809	 0.112286704965683 
810	 0.112041450488203 
811	 0.11179636912161 
812	 0.111532719455362 
813	 0.111261947482917 
814	 0.111088875266026 
815	 0.110910922050585 
816	 0.110685127898724 
817	 0.110418280816342 
818	 0.110222457913334 
819	 0.110046685532359 
820	 0.109849813129156 
821	 0.109618376217884 
822	 0.109457263604862 
823	 0.109274051920247 
824	 0.109046042562883 
825	 0.108912149363679 
826	 0.108759112710502 
827	 0.108599041950597 
828	 0.108461106616579 
829	 0.10831927909573 
830	 0.108150392097037 
831	 0.107976752583088 
832	 0.107838889641959 
833	 0.10773701753904 
834	 0.107626357473537 
835	 0.107488015515446 
836	 0.107337471904062 
837	 0.107251842812521 
838	 0.107201035166792 
839	 0.107136628690421 
840	 0.107014695153928 
841	 0.106861562213436 
842	 0.106732036166435 
843	 0.106663958974586 
844	 0.106622156923954 
845	 0.106585901776631 
846	 0.106531887131547 
847	 0.106455566586638 
848	 0.106451610281196 
849	 0.106399824943005 
850	 0.106313333661696 
851	 0.106314272121072 
852	 0.106294067988631 
853	 0.106266054616306 
854	 0.10624428796194 
855	 0.10621956068986 
856	 0.106211389562227 
857	 0.106204785632224 
858	 0.10620061176339 
859	 0.106270268336399 
860	 0.106275525651751 
861	 0.106239043249237 
862	 0.106231391446586 
863	 0.106242089292788 
864	 0.106272651296615 
865	 0.10631706251607 
866	 0.106368844533585 
867	 0.106455054527979 
868	 0.106538460631913 
869	 0.106597139630569 
870	 0.106636682446008 
871	 0.106726471511496 
872	 0.10681554223463 
873	 0.106879479899178 
874	 0.106969297321232 
875	 0.107037164603183 
876	 0.107104791268843 
877	 0.107195201268834 
878	 0.107282691154696 
879	 0.107449098237803 
880	 0.107610623953927 
881	 0.107678641141192 
882	 0.107799942699539 
883	 0.107930545214081 
884	 0.108059313585872 
885	 0.108199648348934 
886	 0.108388342945993 
887	 0.108568053594939 
888	 0.108719290684739 
889	 0.108864753470557 
890	 0.10903446831156 
891	 0.109209793594992 
892	 0.109388593520636 
893	 0.109595628585582 
894	 0.10980794010404 
895	 0.109985166874338 
896	 0.110144045202181 
897	 0.110404422561864 
898	 0.110638351503812 
899	 0.110831958132374 
900	 0.111025678933774 
901	 0.111320279285399 
902	 0.111584757961416 
903	 0.111822152867494 
904	 0.112071980053699 
905	 0.112316021909483 
906	 0.112596639868782 
907	 0.112905816485785 
908	 0.113209234353021 
909	 0.113492930844855 
910	 0.11370266648557 
911	 0.113931615939036 
912	 0.114315995893553 
913	 0.11459692394764 
914	 0.114890603456766 
915	 0.115220784808485 
916	 0.115519566504786 
917	 0.115947299682964 
918	 0.116326451561264 
919	 0.116617019325707 
920	 0.11697665077146 
921	 0.117364269948647 
922	 0.117718320324838 
923	 0.118031567105615 
924	 0.118383894738205 
925	 0.118878146535926 
926	 0.119392325708159 
927	 0.119811989416171 
928	 0.120136260094314 
929	 0.120529593413362 
930	 0.121003448536934 
931	 0.121499633276557 
932	 0.121914288020332 
933	 0.122354061932877 
934	 0.122816118958794 
935	 0.123271714567562 
936	 0.12372133979066 
937	 0.124104189214136 
938	 0.124499426924189 
939	 0.125000651426855 
940	 0.125576770217157 
941	 0.126175552420987 
942	 0.126770309324131 
943	 0.127328549588169 
944	 0.12772699863525 
945	 0.128232294086166 
946	 0.128807355311183 
947	 0.129304144177937 
948	 0.129788036120531 
949	 0.130355529925931 
950	 0.130971550431373 
951	 0.131551790544565 
952	 0.132153707881662 
953	 0.132706318677136 
954	 0.133269212962545 
955	 0.13394013452038 
956	 0.134606184286046 
957	 0.135163959618158 
958	 0.135659102404879 
959	 0.13623158610066 
960	 0.136979500326904 
961	 0.137671510230661 
962	 0.138276015793846 
963	 0.138901337589391 
964	 0.13953919092012 
965	 0.140205650184619 
966	 0.140884255723151 
967	 0.141538027147444 
968	 0.142148336128951 
969	 0.142729262388824 
970	 0.143377533794423 
971	 0.144167655860606 
972	 0.144751023925498 
973	 0.145449662297966 
974	 0.146249781299454 
975	 0.14691996920556 
976	 0.147593171724591 
977	 0.148235854662386 
978	 0.148841620460445 
979	 0.149460884258036 
980	 0.150323480741475 
981	 0.151084732022783 
982	 0.151672324826401 
983	 0.152237801766048 
984	 0.152940340622954 
985	 0.153677862933637 
986	 0.154437220165331 
987	 0.15522856101725 
988	 0.155882409844222 
989	 0.15647191747574 
990	 0.157063071582016 
991	 0.157717736327777 
992	 0.158526368127732 
993	 0.159292846467293 
994	 0.160003565180674 
995	 0.160707586471212 
996	 0.161292413532372 
997	 0.162024544346974 
998	 0.162739917810402 
999	 0.163270248706579 
1000	 0.164082185349276 
1001	 0.164961306617968 
1002	 0.165528926549421 
1003	 0.166121722840922 
1004	 0.166703103570597 
1005	 0.16728523129553 
1006	 0.167852021867193 
1007	 0.168401463609319 
1008	 0.16896069900281 
1009	 0.169529560288126 
1010	 0.170070791333435 
1011	 0.170645256228584 
1012	 0.1711776014914 
1013	 0.17173232273678 
1014	 0.172349037503117 
1015	 0.172877739554865 
1016	 0.173402305779388 
1017	 0.173925605384176 
1018	 0.174443533730678 
1019	 0.174871932703145 
1020	 0.175323110312474 
1021	 0.175820697190021 
1022	 0.176273462278929 
1023	 0.17668360982617 
1024	 0.177113998800139 
1025	 0.177567576387797 
1026	 0.17797803370653 
1027	 0.178379527774072 
1028	 0.178789219198052 
1029	 0.179143848984098 
1030	 0.179522355787608 
1031	 0.179927498128375 
1032	 0.180357502343806 
1033	 0.180808789179841 
1034	 0.181248618873274 
1035	 0.181643273862318 
1036	 0.182060484604757 
1037	 0.182408529432055 
1038	 0.182708862726751 
1039	 0.183060801400017 
1040	 0.183428077618484 
1041	 0.183770503097015 
1042	 0.184119914792565 
1043	 0.184464713901396 
1044	 0.184802940608794 
1045	 0.185090534014858 
1046	 0.185437588114905 
1047	 0.185830782681937 
1048	 0.18618629856727 
1049	 0.186497892721974 
1050	 0.186814238130653 
1051	 0.187125815823866 
1052	 0.18746649104083 
1053	 0.187855156662215 
1054	 0.188155902239253 
1055	 0.188459425121419 
1056	 0.188792721814002 
1057	 0.189106368773385 
1058	 0.189404619775439 
1059	 0.189757212482302 
1060	 0.190133549039184 
1061	 0.190483744167243 
1062	 0.190867859160428 
1063	 0.191215619403946 
1064	 0.191507928039076 
1065	 0.191796938611469 
1066	 0.192101762349313 
1067	 0.192418726471818 
1068	 0.192774022354745 
1069	 0.193113400521283 
1070	 0.193435450742719 
1071	 0.193737472902555 
1072	 0.194071881176547 
1073	 0.194429273353546 
1074	 0.194723225961655 
1075	 0.195011956743276 
1076	 0.195259354167428 
1077	 0.195471556505134 
1078	 0.195737636941795 
1079	 0.19602414107852 
1080	 0.196340181482052 
1081	 0.19662816550097 
1082	 0.196892391133347 
1083	 0.197179284431055 
1084	 0.197479314694725 
1085	 0.197748441014044 
1086	 0.198014425324427 
1087	 0.198274701612398 
1088	 0.19851156453151 
1089	 0.198757787618535 
1090	 0.199013798263456 
1091	 0.199276656759587 
1092	 0.199529753314197 
1093	 0.199786136276552 
1094	 0.200029670909705 
1095	 0.200270157494218 
1096	 0.200490183189492 
1097	 0.20068097689188 
1098	 0.200908853090122 
1099	 0.201165160593095 
1100	 0.201391060710146 
1101	 0.201619931383068 
1102	 0.201844024475205 
1103	 0.202063332077096 
1104	 0.202242026266503 
1105	 0.202431737740709 
1106	 0.20264477206053 
1107	 0.202852989363059 
1108	 0.203059078225455 
1109	 0.203253211460699 
1110	 0.203458561210257 
1111	 0.203645535804439 
1112	 0.203804553040209 
1113	 0.203971467435816 
1114	 0.20411750263002 
1115	 0.204308018299804 
1116	 0.2045287921078 
1117	 0.204735073406796 
1118	 0.204970140781224 
1119	 0.205182981768333 
1120	 0.205375575652602 
1121	 0.205533964787845 
1122	 0.205696039025303 
1123	 0.205895816792545 
1124	 0.206062495675449 
1125	 0.206209561390698 
1126	 0.206380778335732 
1127	 0.206549387243346 
1128	 0.206713317882748 
1129	 0.206895372080005 
1130	 0.207066253319404 
1131	 0.20722661763437 
1132	 0.20738214530612 
1133	 0.207535865200663 
1134	 0.20768750718974 
1135	 0.207821916707053 
1136	 0.207977014151609 
1137	 0.208127060277086 
1138	 0.208260208966316 
1139	 0.208387587166374 
1140	 0.208495717081777 
1141	 0.208619553741329 
1142	 0.208743941046953 
1143	 0.208870538271312 
1144	 0.209008381330852 
1145	 0.209128865963082 
1146	 0.209252444674044 
1147	 0.209357796158227 
1148	 0.209423016282631 
1149	 0.209527346370515 
1150	 0.209647300539997 
1151	 0.209757210025952 
1152	 0.20987299849116 
1153	 0.210015204638696 
1154	 0.210135277706026 
1155	 0.210235828617244 
1156	 0.21034721042371 
1157	 0.210467075862996 
1158	 0.210577336663547 
1159	 0.210676119733545 
1160	 0.210785234179177 
1161	 0.210900458057827 
1162	 0.211009166170643 
1163	 0.211118702017413 
1164	 0.211231185217925 
1165	 0.211343150427172 
1166	 0.211450016120229 
1167	 0.211569077920566 
1168	 0.211679766569135 
1169	 0.211779330416297 
1170	 0.211868749053337 
1171	 0.211962291469805 
1172	 0.212042253827257 
1173	 0.212138005638627 
1174	 0.212245712328986 
1175	 0.212345420967229 
1176	 0.212445002796281 
1177	 0.212546667517469 
1178	 0.212648131911547 
1179	 0.212748321105084 
1180	 0.212864780176783 
1181	 0.212959355581959 
1182	 0.213044384488277 
1183	 0.213110015450673 
1184	 0.21319084901799 
1185	 0.21325648447599 
1186	 0.213345781305878 
1187	 0.2134574820178 
1188	 0.213553075805292 
1189	 0.213653749392303 
1190	 0.213743509987627 
1191	 0.213820135333509 
1192	 0.213905672173557 
1193	 0.213991038982997 
1194	 0.214075616631413 
1195	 0.214176994790265 
1196	 0.214253721806068 
1197	 0.214300325609591 
1198	 0.214369116033756 
1199	 0.21444090253682 
1200	 0.214505197519943 
1201	 0.21457832821361 
1202	 0.214667587796841 
1203	 0.214752331085246 
1204	 0.214839155525405 
1205	 0.214912031646659 
1206	 0.21498693843501 
1207	 0.215056148172606 
1208	 0.215106083292941 
1209	 0.215164929034511 
1210	 0.21522593985722 
1211	 0.215292700197406 
1212	 0.215367266659532 
1213	 0.215431194175915 
1214	 0.21548642710084 
1215	 0.215555909437798 
1216	 0.215628461182169 
1217	 0.215699885834173 
1218	 0.215764371194088 
1219	 0.215840687571107 
1220	 0.215904415756791 
1221	 0.215942131789821 
1222	 0.216006210887027 
1223	 0.216089642686411 
1224	 0.216158944934688 
1225	 0.216235136371169 
1226	 0.216298804031657 
1227	 0.216347394984667 
1228	 0.216402124718023 
1229	 0.216454226934689 
1230	 0.216506404793392 
1231	 0.216565619528954 
1232	 0.216616391006149 
1233	 0.216662687295776 
1234	 0.216703737520268 
1235	 0.216745331353356 
1236	 0.216774095577128 
1237	 0.216824329305965 
1238	 0.216891898776249 
1239	 0.216939927898802 
1240	 0.216989220893074 
1241	 0.217036552130787 
1242	 0.217072859136575 
1243	 0.217109313968715 
1244	 0.217140910082161 
1245	 0.217186619230143 
1246	 0.217232469033738 
1247	 0.217281016647635 
1248	 0.217342626603679 
1249	 0.217414456634154 
1250	 0.217463897569921 
1251	 0.217487450678228 
1252	 0.217527465775703 
1253	 0.217564608489032 
1254	 0.217596220926061 
1255	 0.217635808476659 
1256	 0.217660462709414 
1257	 0.21766997567179 
1258	 0.217679599232936 
1259	 0.217676689141999 
1260	 0.217687813570684 
1261	 0.217697059585137 
1262	 0.217713736909678 
1263	 0.217755434204554 
1264	 0.217774558373526 
1265	 0.217770697003132 
1266	 0.217787513161151 
1267	 0.217807150179112 
1268	 0.217827511045103 
1269	 0.217848309529805 
1270	 0.217880052339999 
1271	 0.217917470253125 
1272	 0.217952477317703 
1273	 0.217987614987258 
1274	 0.218042797456901 
1275	 0.218076657877003 
1276	 0.218085650665968 
1277	 0.218117025880591 
1278	 0.21814268704866 
1279	 0.218192196309759 
1280	 0.218264277188876 
1281	 0.218332595286494 
1282	 0.218422082681149 
1283	 0.218499443354378 
1284	 0.218577913553648 
1285	 0.218640280916275 
1286	 0.218700352496019 
1287	 0.218775621454143 
1288	 0.218844619244395 
1289	 0.218913576782345 
1290	 0.218984734037472 
1291	 0.219053213720743 
1292	 0.21913096559019 
1293	 0.219217174605665 
1294	 0.219294694316283 
1295	 0.219386082689422 
1296	 0.219447516802264 
1297	 0.219481809285809 
1298	 0.21953572685412 
1299	 0.219588831930791 
1300	 0.219632415607417 
1301	 0.219680985135034 
1302	 0.219723199540901 
1303	 0.219743691406343 
1304	 0.219777877547931 
1305	 0.21982364369886 
1306	 0.219854455215891 
1307	 0.219878664235156 
1308	 0.219890125964774 
1309	 0.219893136675971 
1310	 0.219883861359618 
1311	 0.219870075216347 
1312	 0.219848814236357 
1313	 0.219823141518707 
1314	 0.219784773898822 
1315	 0.219755201263775 
1316	 0.219722340113413 
1317	 0.219692578164079 
1318	 0.219673361743376 
1319	 0.219638649133641 
1320	 0.219599647683697 
1321	 0.219559262696923 
1322	 0.219511589257968 
1323	 0.219461988953236 
1324	 0.21940843166175 
1325	 0.219338729096607 
1326	 0.219271559871989 
1327	 0.219218815250499 
1328	 0.219164908972406 
1329	 0.219110314240621 
1330	 0.219047979307498 
1331	 0.218975176259701 
1332	 0.218900967708169 
1333	 0.218831835300391 
1334	 0.218746822226275 
1335	 0.218638006170296 
1336	 0.218554705099394 
1337	 0.218466053616198 
1338	 0.218394878345739 
1339	 0.218358787112318 
1340	 0.218297979355461 
1341	 0.218236253880917 
1342	 0.218165540082806 
1343	 0.218077749625974 
1344	 0.2179915522845 
1345	 0.217920485715572 
1346	 0.217849513419768 
1347	 0.217778390046501 
1348	 0.217710330477723 
1349	 0.217630028314515 
1350	 0.217551990996276 
1351	 0.217478684454127 
1352	 0.217415114635971 
1353	 0.217332663301966 
1354	 0.217239496534364 
1355	 0.217158887344072 
1356	 0.217069059104788 
1357	 0.216995516251575 
1358	 0.216936925020063 
1359	 0.21687663066613 
1360	 0.216822491229012 
1361	 0.21676272479304 
1362	 0.216710492236022 
1363	 0.216648774473215 
1364	 0.216575277898778 
1365	 0.216508011771226 
1366	 0.216439470398697 
1367	 0.216373620145255 
1368	 0.216308491325115 
1369	 0.216243463453036 
1370	 0.216156357322958 
1371	 0.216056705554297 
1372	 0.215950990580894 
1373	 0.215817071066445 
1374	 0.215670930455471 
1375	 0.215511615702501 
1376	 0.215336727211232 
1377	 0.215152486931035 
1378	 0.214933821038126 
1379	 0.21469412301576 
1380	 0.214437255177078 
1381	 0.214137934522829 
1382	 0.213845364718541 
1383	 0.213559258155301 
1384	 0.213241614938804 
1385	 0.212925100044757 
1386	 0.212565296486985 
1387	 0.212162998084817 
1388	 0.211753195656356 
1389	 0.2113299425523 
1390	 0.210866763541163 
1391	 0.210383080218672 
1392	 0.209876313275124 
1393	 0.209314369279317 
1394	 0.208732093487737 
1395	 0.208121319098127 
1396	 0.207491386193994 
1397	 0.206873522251542 
1398	 0.206247436936269 
1399	 0.205613395714922 
1400	 0.204986660854586 
1401	 0.204342572251649 
1402	 0.203665583448186 
1403	 0.203021117250648 
1404	 0.202367169854322 
1405	 0.201757867473097 
1406	 0.201174455919879 
1407	 0.200607066541112 
1408	 0.200073929914219 
1409	 0.199543605543044 
1410	 0.199000790053559 
1411	 0.198514678128134 
1412	 0.198052979773958 
1413	 0.197626646705911 
1414	 0.197262517563884 
1415	 0.196930275186243 
1416	 0.196608532676095 
1417	 0.196298076015773 
1418	 0.195977531040225 
1419	 0.195684644608757 
1420	 0.19542416532383 
1421	 0.195179740417978 
1422	 0.194973364009857 
1423	 0.194771172682295 
1424	 0.194563017499026 
1425	 0.194353521930512 
1426	 0.194158404110156 
1427	 0.193953572627239 
1428	 0.193789086470795 
1429	 0.193645246728604 
1430	 0.193520813493748 
1431	 0.193439757008543 
1432	 0.193334903727989 
1433	 0.193229871018251 
1434	 0.193137933770848 
1435	 0.19303372505337 
1436	 0.192952521192617 
1437	 0.192892818741213 
1438	 0.19284253008481 
1439	 0.192807196615345 
1440	 0.192779657070358 
1441	 0.192744356206998 
1442	 0.192699505074916 
1443	 0.192657048576047 
1444	 0.19262612633198 
1445	 0.192615952170548 
1446	 0.19261118527803 
1447	 0.192607432241684 
1448	 0.192593161883013 
1449	 0.192570696107296 
1450	 0.192571652343354 
1451	 0.192569843297085 
1452	 0.19256265508352 
1453	 0.192577711820661 
1454	 0.192611546424617 
1455	 0.192632204323773 
1456	 0.192663350450935 
1457	 0.192686897936738 
1458	 0.192692159265642 
1459	 0.192719785685165 
1460	 0.192752500266229 
1461	 0.19279921596603 
1462	 0.19286106568356 
1463	 0.192925646135718 
1464	 0.192999652257645 
1465	 0.193079483031952 
1466	 0.193176083912013 
1467	 0.193263224943844 
1468	 0.193327152318586 
1469	 0.193431822605624 
1470	 0.193548112653946 
1471	 0.193671682405018 
1472	 0.193858181503784 
1473	 0.194066609861536 
1474	 0.194250609358864 
1475	 0.194439240304833 
1476	 0.194609133812255 
1477	 0.194772160807226 
1478	 0.194953452661555 
1479	 0.195132372953733 
1480	 0.195310858049506 
1481	 0.195498870148306 
1482	 0.195682022055321 
1483	 0.19586197470605 
1484	 0.196046026349318 
1485	 0.196230544975543 
1486	 0.196420994098787 
1487	 0.196614078593225 
1488	 0.196812325980952 
1489	 0.197028862305587 
1490	 0.197219512050255 
1491	 0.197398401515082 
1492	 0.197580931726896 
1493	 0.197747390968245 
1494	 0.197924757513037 
1495	 0.198113379499518 
1496	 0.198294123803497 
1497	 0.198472168889187 
1498	 0.198648464910787 
1499	 0.198826011231216 
1500	 0.198998513023815 
1501	 0.199162362058289 
1502	 0.199333746068591 
1503	 0.19950973583576 
1504	 0.199673573491329 
1505	 0.199842869737528 
1506	 0.200014427731089 
1507	 0.200168605536947 
1508	 0.20032726194765 
1509	 0.200486610325897 
1510	 0.200626853345812 
1511	 0.200756468435152 
1512	 0.200892277348477 
1513	 0.201036428092998 
1514	 0.201189687220756 
1515	 0.201357561258959 
1516	 0.201522159802207 
1517	 0.201675659832719 
1518	 0.201823410788453 
1519	 0.201967581321673 
1520	 0.202108027410643 
1521	 0.202235411195167 
1522	 0.202349010345425 
1523	 0.20247441525078 
1524	 0.202591509177276 
1525	 0.202717629149394 
1526	 0.202855113358867 
1527	 0.2029897255288 
1528	 0.203128260787207 
1529	 0.203253043196354 
1530	 0.203375364057131 
1531	 0.20349880277966 
1532	 0.203610849780153 
1533	 0.203723040906215 
1534	 0.203849500328495 
1535	 0.203956588127171 
1536	 0.204036525343157 
1537	 0.204138213189838 
1538	 0.204239938202664 
1539	 0.204341964036966 
1540	 0.204457740585992 
1541	 0.204569757950751 
1542	 0.204680471416585 
1543	 0.204789335822957 
1544	 0.204909077350109 
1545	 0.205009079519076 
1546	 0.205098341512183 
1547	 0.205175754280596 
1548	 0.205247139230019 
1549	 0.205320488979415 
1550	 0.205396700027685 
1551	 0.205479138122868 
1552	 0.205556062774 
1553	 0.205630568563687 
1554	 0.205717621473498 
1555	 0.205790834780433 
1556	 0.20587074269326 
1557	 0.205956750919421 
1558	 0.206018653860331 
1559	 0.206074248933584 
1560	 0.206137913622082 
1561	 0.206196428618682 
1562	 0.206256162651346 
1563	 0.206321723214078 
1564	 0.206391449576211 
1565	 0.206458802956122 
1566	 0.206526131847156 
1567	 0.206603726571429 
1568	 0.206669690643726 
1569	 0.206722903665138 
1570	 0.206786891172561 
1571	 0.206857591559143 
1572	 0.206917846079079 
1573	 0.206981468223871 
1574	 0.20703271783137 
1575	 0.207064176183882 
1576	 0.207114677002421 
1577	 0.207176557728825 
1578	 0.207218441394757 
1579	 0.207245828580582 
1580	 0.207299951278771 
1581	 0.207353619064997 
1582	 0.20741057125537 
1583	 0.207505921061283 
1584	 0.20756704575437 
1585	 0.207600621073419 
1586	 0.207642292733133 
1587	 0.207680430083592 
1588	 0.207713365211234 
1589	 0.207734342103393 
1590	 0.207771182047304 
1591	 0.207822954959394 
1592	 0.207852617543367 
1593	 0.207871779741497 
1594	 0.207903958237045 
1595	 0.207929828143756 
1596	 0.207954993295739 
1597	 0.208002105331482 
1598	 0.208029746938778 
1599	 0.208035655243891 
1600	 0.208045157757411 
1601	 0.208037593750727 
1602	 0.208054745846553 
1603	 0.208079153176777 
1604	 0.208110043579538 
1605	 0.208164888293631 
1606	 0.20821708665246 
1607	 0.208275125016718 
1608	 0.208330172219427 
1609	 0.208375057281115 
1610	 0.208410754231073 
1611	 0.208422621558604 
1612	 0.208426329054191 
1613	 0.208428475753962 
1614	 0.208426716966611 
1615	 0.208435421124007 
1616	 0.208451930681911 
1617	 0.208474874876426 
1618	 0.208504786946926 
1619	 0.208541182538088 
1620	 0.20857306933091 
1621	 0.208594702626634 
1622	 0.208619750050793 
1623	 0.208616968560446 
1624	 0.208589733762279 
1625	 0.208579485637734 
1626	 0.208553369821475 
1627	 0.208555650136677 
1628	 0.208572507460128 
1629	 0.20859743913738 
1630	 0.208636599820908 
1631	 0.208674263418722 
1632	 0.208729542101293 
1633	 0.208758219310866 
1634	 0.208779517882482 
1635	 0.208795010196244 
1636	 0.208793853829754 
1637	 0.20879928083409 
1638	 0.208803824264441 
1639	 0.208808677077474 
1640	 0.208812055114509 
1641	 0.208816427239022 
1642	 0.208822403665994 
1643	 0.208825059357737 
1644	 0.208825369920221 
1645	 0.208825303997833 
1646	 0.208822215335004 
1647	 0.208824675467234 
1648	 0.208829067222525 
1649	 0.208832997087711 
1650	 0.208835001929156 
1651	 0.208849479230982 
1652	 0.208879827596121 
1653	 0.208883474477839 
1654	 0.208883585451933 
1655	 0.208881342958608 
1656	 0.208860308299922 
1657	 0.208842604496651 
1658	 0.208831802827889 
1659	 0.208814804157251 
1660	 0.208783424290463 
1661	 0.208760526080324 
1662	 0.208743058886767 
1663	 0.208726265481637 
1664	 0.208706456387721 
1665	 0.208692766825548 
1666	 0.208683528468251 
1667	 0.208679721140462 
1668	 0.208685277318314 
1669	 0.20868003168058 
1670	 0.208678290878101 
1671	 0.208668644309078 
1672	 0.208651089207442 
1673	 0.208627766841749 
1674	 0.208597797083625 
1675	 0.208571218611582 
1676	 0.208529516223969 
1677	 0.208509759320417 
1678	 0.208516239271124 
1679	 0.208492160546423 
1680	 0.208457724609596 
1681	 0.208434296509496 
1682	 0.208393812403328 
1683	 0.208369988513016 
1684	 0.208369305742185 
1685	 0.20835746029191 
1686	 0.208333175683221 
1687	 0.208328243446193 
1688	 0.208339808205008 
1689	 0.208338127828396 
1690	 0.208345098920757 
1691	 0.208338375657591 
1692	 0.208317091396592 
1693	 0.208299049385245 
1694	 0.20827994252303 
1695	 0.208256520457722 
1696	 0.208233389306437 
1697	 0.208198231736756 
1698	 0.208143022798471 
1699	 0.20811101992124 
1700	 0.208086631708264 
1701	 0.208054279686464 
1702	 0.208040047889073 
1703	 0.208003054540818 
1704	 0.20794310291774 
1705	 0.207891309648266 
1706	 0.207830036334996 
1707	 0.20778556214531 
1708	 0.207742477374228 
1709	 0.207713507229042 
1710	 0.207713408711444 
1711	 0.207684141000884 
1712	 0.207649805817428 
1713	 0.207609109502218 
1714	 0.207555693562552 
1715	 0.207495509153344 
1716	 0.207428237651171 
1717	 0.207365495162714 
1718	 0.207287398920498 
1719	 0.207222623779218 
1720	 0.207166198504108 
1721	 0.207120140284202 
1722	 0.207091851392838 
1723	 0.207035305162535 
1724	 0.206973271268484 
1725	 0.206917027529737 
1726	 0.206847217022436 
1727	 0.206775482939692 
1728	 0.206712065042627 
1729	 0.20664377809377 
1730	 0.206553457792057 
1731	 0.206488394960509 
1732	 0.206452800189838 
1733	 0.206387683412349 
1734	 0.206316687156102 
1735	 0.206230064333971 
1736	 0.206122594327488 
1737	 0.206030378744327 
1738	 0.205930398633854 
1739	 0.20584391462316 
1740	 0.205770139656654 
1741	 0.205689498422869 
1742	 0.205614462209618 
1743	 0.205530103186681 
1744	 0.205444940142748 
1745	 0.205340930008294 
1746	 0.205215092873324 
1747	 0.205114411752387 
1748	 0.205021754284632 
1749	 0.204925658188732 
1750	 0.204849290492608 
1751	 0.204758439319408 
1752	 0.204635779438185 
1753	 0.2045318544448 
1754	 0.204434621436671 
1755	 0.204335150736283 
1756	 0.204246446127756 
1757	 0.204126922693551 
1758	 0.204011221144257 
1759	 0.203914466712132 
1760	 0.203827822626216 
1761	 0.203774387034562 
1762	 0.203708176995668 
1763	 0.203616418323973 
1764	 0.203500262018873 
1765	 0.20337959562395 
1766	 0.203276052192225 
1767	 0.203174399318561 
1768	 0.203077238509327 
1769	 0.202998045518058 
1770	 0.202920492873066 
1771	 0.202830134737697 
1772	 0.202769856298978 
1773	 0.202725176212351 
1774	 0.202674405701721 
1775	 0.202624150854813 
1776	 0.202549477260167 
1777	 0.202460879576078 
1778	 0.202366455095314 
1779	 0.202295975137787 
1780	 0.202256131383307 
1781	 0.202202148341557 
1782	 0.202164318468598 
1783	 0.20212148024099 
1784	 0.202085917914386 
1785	 0.202074940205423 
1786	 0.202035288908993 
1787	 0.201979554052297 
1788	 0.201933792872255 
1789	 0.201882365290465 
1790	 0.2018357650645 
1791	 0.201794611348355 
1792	 0.201760018000306 
1793	 0.201724601925388 
1794	 0.201688475322871 
1795	 0.201653929063724 
1796	 0.201628081830574 
1797	 0.201598555793329 
1798	 0.201584450203832 
1799	 0.20160135470074 
1800	 0.201591860817067 
1801	 0.19685086152097 
1802	 0.196997456028031 
1803	 0.197160765981783 
1804	 0.197368955973241 
1805	 0.197569356737742 
1806	 0.197786366383902 
1807	 0.198006439759284 
1808	 0.198174622143077 
1809	 0.19833070963787 
1810	 0.198461362309506 
1811	 0.198552222864569 
1812	 0.198617409921331 
1813	 0.19870034154234 
1814	 0.19877037083851 
1815	 0.19881391230744 
1816	 0.198860817031322 
1817	 0.19888962880041 
1818	 0.198882440103943 
1819	 0.198895494727779 
1820	 0.198905060776414 
1821	 0.198923352150487 
1822	 0.198951192935963 
1823	 0.199004163780383 
1824	 0.19908184051175 
1825	 0.199124473355522 
1826	 0.19913339815069 
1827	 0.199153524986577 
1828	 0.199154452369846 
1829	 0.199115754119859 
1830	 0.199100710376663 
1831	 0.199106676394426 
1832	 0.199070980751129 
1833	 0.199023892309464 
1834	 0.198998980395546 
1835	 0.198957575746552 
1836	 0.198916557065371 
1837	 0.198887989469497 
1838	 0.198840659406145 
1839	 0.198795435769698 
1840	 0.198744441573125 
1841	 0.19869446879182 
1842	 0.198646887346766 
1843	 0.198617905296619 
1844	 0.198568066746327 
1845	 0.19851169207844 
1846	 0.198450785455098 
1847	 0.198360550206909 
1848	 0.198271920569602 
1849	 0.198198230519984 
1850	 0.19811753110897 
1851	 0.19804698762181 
1852	 0.197950041134359 
1853	 0.197838344014773 
1854	 0.197712158040321 
1855	 0.197553629599728 
1856	 0.197388468444228 
1857	 0.197203179275753 
1858	 0.19698128213537 
1859	 0.19671335561551 
1860	 0.196422618390236 
1861	 0.196096480038721 
1862	 0.195753193969806 
1863	 0.195384557655045 
1864	 0.195026596187399 
1865	 0.194642101204767 
1866	 0.19419325820774 
1867	 0.193708356898965 
1868	 0.19317388067042 
1869	 0.192596847000428 
1870	 0.19196330171053 
1871	 0.19129924658746 
1872	 0.190603112994914 
1873	 0.189873236150154 
1874	 0.189074478602391 
1875	 0.188263410842648 
1876	 0.187397631608054 
1877	 0.186466348986552 
1878	 0.18548489381539 
1879	 0.184389095862426 
1880	 0.183217914761756 
1881	 0.181936115790268 
1882	 0.180629154343708 
1883	 0.17925051057223 
1884	 0.17781964584866 
1885	 0.176364746408721 
1886	 0.174831038987235 
1887	 0.173160804487425 
1888	 0.171441036306608 
1889	 0.169665381674148 
1890	 0.167830667150476 
1891	 0.16602997021608 
1892	 0.164220193651291 
1893	 0.162418378083632 
1894	 0.160609492565322 
1895	 0.158833367779512 
1896	 0.157045867464099 
1897	 0.155280773852788 
1898	 0.153526937818401 
1899	 0.151789318292613 
1900	 0.150121306475949 
1901	 0.148534340540768 
1902	 0.147045978370069 
1903	 0.145689039587616 
1904	 0.144361888182894 
1905	 0.143096973725907 
1906	 0.141913837366922 
1907	 0.140796819355561 
1908	 0.139731940465299 
1909	 0.138787544390906 
1910	 0.137899168126392 
1911	 0.137062723212876 
1912	 0.136313608349491 
1913	 0.135589312736397 
1914	 0.134905829431175 
1915	 0.134276757753495 
1916	 0.133697339861716 
1917	 0.13314839427347 
1918	 0.132675858714689 
1919	 0.132247792883354 
1920	 0.131846889934054 
1921	 0.13147684209905 
1922	 0.131145086544956 
1923	 0.130849963281711 
1924	 0.130597237324315 
1925	 0.130406075331355 
1926	 0.130229597838884 
1927	 0.130083810435553 
1928	 0.129961462755081 
1929	 0.129867438076115 
1930	 0.129799761854872 
1931	 0.129769510448408 
1932	 0.129776913430092 
1933	 0.129822752276073 
1934	 0.129884393198761 
1935	 0.129943955430354 
1936	 0.129996786297027 
1937	 0.130091877148074 
1938	 0.13020295886583 
1939	 0.130339277443646 
1940	 0.130510457667896 
1941	 0.13070696163949 
1942	 0.130910273531545 
1943	 0.131100939822106 
1944	 0.131313727664423 
1945	 0.131557974596273 
1946	 0.13180413919798 
1947	 0.132053405861459 
1948	 0.132330927904465 
1949	 0.132629616817651 
1950	 0.132933844294732 
1951	 0.133248199692371 
1952	 0.133597859944064 
1953	 0.13394609587688 
1954	 0.134296791657794 
1955	 0.134655689732816 
1956	 0.135005291012781 
1957	 0.135367797305728 
1958	 0.135725021797107 
1959	 0.136099186106611 
1960	 0.136494086609284 
1961	 0.13688301711777 
1962	 0.137277469319628 
1963	 0.13767661724887 
1964	 0.13807153666087 
1965	 0.138482109277857 
1966	 0.138902558352877 
1967	 0.139314114154889 
1968	 0.139747511008772 
1969	 0.140197427461473 
1970	 0.140640738733648 
1971	 0.141098650383105 
1972	 0.141549620697353 
1973	 0.142000873373096 
1974	 0.142446693161335 
1975	 0.142882217727517 
1976	 0.143330170736821 
1977	 0.143786223505062 
1978	 0.144239557235887 
1979	 0.14472352246357 
1980	 0.145200629991182 
1981	 0.145656735756741 
1982	 0.146089198103508 
1983	 0.146543668797917 
1984	 0.14699718186738 
1985	 0.147447012360063 
1986	 0.147914543017306 
1987	 0.148367034603323 
1988	 0.148802103254202 
1989	 0.149232008241951 
1990	 0.149691973301259 
1991	 0.150134236206352 
1992	 0.150577643121381 
1993	 0.151025830731469 
1994	 0.151469801016616 
1995	 0.1519092140018 
1996	 0.152345596567628 
1997	 0.152784470093805 
1998	 0.153214721134193 
1999	 0.15362879202659 
2000	 0.154053076267606 
2001	 0.154473265099743 
2002	 0.154911357273571 
2003	 0.155357798748748 
2004	 0.155771080347178 
2005	 0.156179286749756 
2006	 0.156575080246727 
2007	 0.156970462144572 
2008	 0.157347677367454 
2009	 0.157737575560465 
2010	 0.158127665540653 
2011	 0.158522165037503 
2012	 0.15891989235866 
2013	 0.159320050666205 
2014	 0.159735155479818 
2015	 0.160135703987871 
2016	 0.160528964575571 
2017	 0.160917915367519 
2018	 0.161297357492676 
2019	 0.161661882170591 
2020	 0.162033637058415 
2021	 0.162398477679614 
2022	 0.162767677623711 
2023	 0.163142263211746 
2024	 0.163506794758454 
2025	 0.163860140144495 
2026	 0.164229131906026 
2027	 0.164607092187352 
2028	 0.164977659466555 
2029	 0.165337969470482 
2030	 0.165708204951874 
2031	 0.166056679300733 
2032	 0.166375034023084 
2033	 0.166714529042503 
2034	 0.167069155434002 
2035	 0.167395997724686 
2036	 0.167721323748268 
2037	 0.16802909905089 
2038	 0.168299244993551 
2039	 0.168589545152692 
2040	 0.168887151468583 
2041	 0.169173732641667 
2042	 0.169453149498252 
2043	 0.169735820457286 
2044	 0.170021419662139 
2045	 0.170293682328723 
2046	 0.170583211293088 
2047	 0.170899528638868 
2048	 0.17118892632155 
2049	 0.171486811251591 
2050	 0.171752961262048 
2051	 0.171985923517173 
2052	 0.172226489648311 
2053	 0.172441384064975 
2054	 0.172671169549563 
2055	 0.172906491924399 
2056	 0.173149298794185 
2057	 0.17338987120632 
2058	 0.173634402439596 
2059	 0.173876044811037 
2060	 0.174113330452777 
2061	 0.174360265208383 
2062	 0.174611162291123 
2063	 0.17486586859538 
2064	 0.175136141132465 
2065	 0.175390662426558 
2066	 0.175645987774259 
2067	 0.175887434313802 
2068	 0.176106908825297 
2069	 0.176341320488071 
2070	 0.176560998784863 
2071	 0.176758020245379 
2072	 0.176996437628912 
2073	 0.17726181162721 
2074	 0.177490511875158 
2075	 0.177726860936196 
2076	 0.177954708535932 
2077	 0.178140277808658 
2078	 0.17835719638339 
2079	 0.17860826427878 
2080	 0.17883591737752 
2081	 0.179051565474029 
2082	 0.179273961090879 
2083	 0.179495505073092 
2084	 0.179711451645417 
2085	 0.17993168515816 
2086	 0.180161461472225 
2087	 0.180376717083317 
2088	 0.180589847879882 
2089	 0.180791082829764 
2090	 0.180982731017339 
2091	 0.181169453717547 
2092	 0.181333460446847 
2093	 0.181519763610014 
2094	 0.181706247468806 
2095	 0.18190390460015 
2096	 0.182131802373726 
2097	 0.182336939702325 
2098	 0.182526476579228 
2099	 0.182734109763126 
2100	 0.182927469329104 
2101	 0.183101124538759 
2102	 0.183300358528973 
2103	 0.183509449865514 
2104	 0.183719482249719 
2105	 0.18394350630515 
2106	 0.184157189686146 
2107	 0.184381443148872 
2108	 0.184580128191536 
2109	 0.184747423508129 
2110	 0.184941890632803 
2111	 0.185135841849679 
2112	 0.185329296649218 
2113	 0.185526911536958 
2114	 0.185756489445308 
2115	 0.1859499794694 
2116	 0.186120728865147 
2117	 0.186308464019002 
2118	 0.186496356290468 
2119	 0.186680324184367 
2120	 0.186867602720395 
2121	 0.187053482703354 
2122	 0.187240158647395 
2123	 0.18741524497815 
2124	 0.187591816799347 
2125	 0.187754310324954 
2126	 0.187900774950457 
2127	 0.188044936855816 
2128	 0.188185026924386 
2129	 0.188316164403149 
2130	 0.188438592566055 
2131	 0.188554484178544 
2132	 0.188663782648186 
2133	 0.18876667488678 
2134	 0.188861878677841 
2135	 0.188948429075834 
2136	 0.1890311051586 
2137	 0.189114684028388 
2138	 0.189173681729658 
2139	 0.189225653473709 
2140	 0.189256593855255 
2141	 0.189244814397162 
2142	 0.189258237440307 
2143	 0.189281593185081 
2144	 0.189285827287795 
2145	 0.189291469438259 
2146	 0.189288306800312 
2147	 0.189259543255817 
2148	 0.189233085506259 
2149	 0.189214549237497 
2150	 0.189205708961405 
2151	 0.189184837889428 
2152	 0.189170360635266 
2153	 0.189133292510715 
2154	 0.189085144565857 
2155	 0.18902466591585 
2156	 0.188942857523829 
2157	 0.188865892235488 
2158	 0.188799820700227 
2159	 0.18869805659014 
2160	 0.188571704571618 
2161	 0.188446716275806 
2162	 0.188264766322636 
2163	 0.188133406828178 
2164	 0.18802850585574 
2165	 0.187944935733987 
2166	 0.187846400019262 
2167	 0.187778424415842 
2168	 0.187664696781677 
2169	 0.187510183550364 
2170	 0.187393225332243 
2171	 0.187290683963299 
2172	 0.187159663582887 
2173	 0.187028802200813 
2174	 0.186898029053974 
2175	 0.186734319278704 
2176	 0.186594361030363 
2177	 0.186486754993653 
2178	 0.186354267594443 
2179	 0.186201684449865 
2180	 0.186062520407575 
2181	 0.185937845145869 
2182	 0.185792325051615 
2183	 0.185625705475386 
2184	 0.185482070196504 
2185	 0.185338826076089 
2186	 0.185174976048301 
2187	 0.185042319345181 
2188	 0.184949642812634 
2189	 0.184822214359357 
2190	 0.184677202818883 
2191	 0.184555695542008 
2192	 0.184432706153516 
2193	 0.184318320744488 
2194	 0.184227831846316 
2195	 0.184124130753184 
2196	 0.183999538588903 
2197	 0.183903763717552 
2198	 0.183817079316563 
2199	 0.18374407624258 
2200	 0.183694039231772 
2201	 0.183650437287591 
2202	 0.183625574040683 
2203	 0.183596245540808 
2204	 0.183557435398046 
2205	 0.183503466907425 
2206	 0.183501944471046 
2207	 0.183515811010847 
2208	 0.183522074918756 
2209	 0.183568392123605 
2210	 0.183592227559107 
2211	 0.183595848435256 
2212	 0.183604251154137 
2213	 0.183627648362113 
2214	 0.18363961441464 
2215	 0.183614496415064 
2216	 0.183625348278859 
2217	 0.183660031994449 
2218	 0.183690279827798 
2219	 0.1837279787913 
2220	 0.183776470850539 
2221	 0.183840954301331 
2222	 0.18389090548244 
2223	 0.183946838615137 
2224	 0.184017366898836 
2225	 0.184049998643635 
2226	 0.184064477534147 
2227	 0.184066285656954 
2228	 0.184031107123147 
2229	 0.18403676203076 
2230	 0.184051069358927 
2231	 0.184054838544846 
2232	 0.18408561529616 
2233	 0.184081192500674 
2234	 0.184032522249459 
2235	 0.184020244106888 
2236	 0.184029378150858 
2237	 0.184009326948221 
2238	 0.183977552463827 
2239	 0.183961190592195 
2240	 0.18391971316737 
2241	 0.183906116784514 
2242	 0.183945441703027 
2243	 0.183951136069108 
2244	 0.183954737687736 
2245	 0.183946217115835 
2246	 0.183899196154575 
2247	 0.183818572968033 
2248	 0.183751605267274 
2249	 0.18366189019299 
2250	 0.183582209094936 
2251	 0.18350230238308 
2252	 0.183444519987279 
2253	 0.183389958563208 
2254	 0.183338403565802 
2255	 0.183303327687383 
2256	 0.183271687440117 
2257	 0.183221224144497 
2258	 0.183213223608706 
2259	 0.183267628342559 
2260	 0.183268167378746 
2261	 0.183265413477217 
2262	 0.183252304186769 
2263	 0.183194011856691 
2264	 0.183160550105898 
2265	 0.183138785243579 
2266	 0.183119944144277 
2267	 0.183100459381659 
2268	 0.183093144195528 
2269	 0.183100146405531 
2270	 0.183113399523499 
2271	 0.183111901393605 
2272	 0.183100725120086 
2273	 0.183067740479403 
2274	 0.183003453026491 
2275	 0.182955971297721 
2276	 0.182893972444365 
2277	 0.182861965387198 
2278	 0.182841630404796 
2279	 0.182829852907988 
2280	 0.182838205678349 
2281	 0.182845036139271 
2282	 0.182860516802942 
2283	 0.182868462742631 
2284	 0.182892922083173 
2285	 0.182882750005409 
2286	 0.182850158312272 
2287	 0.182821481300481 
2288	 0.182767518177106 
2289	 0.182731401170943 
2290	 0.182703115002608 
2291	 0.182675441674346 
2292	 0.182659126556904 
2293	 0.182632641399684 
2294	 0.182603263108324 
2295	 0.182569896945996 
2296	 0.182522800749597 
2297	 0.182486476944255 
2298	 0.182466641707615 
2299	 0.182418548320103 
2300	 0.182380711823433 
2301	 0.1823347833472 
2302	 0.182231695680536 
2303	 0.182164804234491 
2304	 0.182106331201015 
2305	 0.182013692968559 
2306	 0.181923139329538 
2307	 0.181829433419284 
2308	 0.18173659361002 
2309	 0.181623478870183 
2310	 0.181543242785252 
2311	 0.181494167844903 
2312	 0.181428407606961 
2313	 0.181389369260178 
2314	 0.181289981511719 
2315	 0.181140911773553 
2316	 0.181022487944319 
2317	 0.180871926214486 
2318	 0.180750176384322 
2319	 0.180649717005351 
2320	 0.180570547593105 
2321	 0.180538019431802 
2322	 0.180443449498133 
2323	 0.180326200316886 
2324	 0.180235152819744 
2325	 0.180101316957875 
2326	 0.18000023485439 
2327	 0.179938851625895 
2328	 0.179898842279512 
2329	 0.179812497331019 
2330	 0.179734785691694 
2331	 0.179688930861563 
2332	 0.179600633711155 
2333	 0.179517968862355 
2334	 0.179448111990973 
2335	 0.179355341178789 
2336	 0.179249280411614 
2337	 0.179142839482122 
2338	 0.179024326866286 
2339	 0.178880407885207 
2340	 0.178774656265711 
2341	 0.178652631197729 
2342	 0.178503191379096 
2343	 0.178408695646981 
2344	 0.17829194649432 
2345	 0.178160626862278 
2346	 0.178045023954442 
2347	 0.177905229195722 
2348	 0.177711368301392 
2349	 0.177551799186596 
2350	 0.177414389021927 
2351	 0.17725001655078 
2352	 0.177069044835508 
2353	 0.17692636297431 
2354	 0.176803966669887 
2355	 0.176644051865764 
2356	 0.176490457127702 
2357	 0.176319509798308 
2358	 0.176095084443257 
2359	 0.175919038862991 
2360	 0.175778948630138 
2361	 0.175620311113397 
2362	 0.17548587356175 
2363	 0.175304033859668 
2364	 0.175069370693997 
2365	 0.174866410528391 
2366	 0.174678565318567 
2367	 0.17444513378846 
2368	 0.174172084459561 
2369	 0.173966653521364 
2370	 0.173760295783061 
2371	 0.173559991690057 
2372	 0.173415448279266 
2373	 0.173289697044627 
2374	 0.173107257150694 
2375	 0.172884851277557 
2376	 0.172712478283817 
2377	 0.172453039739746 
2378	 0.172166664110371 
2379	 0.171933875141453 
2380	 0.171644263843478 
2381	 0.171409139148255 
2382	 0.17117451062405 
2383	 0.17093318757818 
2384	 0.170713239946316 
2385	 0.170425460374043 
2386	 0.17017769630372 
2387	 0.169891373826991 
2388	 0.169567878413279 
2389	 0.169319615429191 
2390	 0.169115948479992 
2391	 0.16888686988852 
2392	 0.168588248043167 
2393	 0.168271231630703 
2394	 0.167958516098003 
2395	 0.167691003413353 
2396	 0.167452472187218 
2397	 0.167254287571144 
2398	 0.167001287308049 
2399	 0.166639842289764 
2400	 0.166351316511276 
2401	 0.166064871403601 
2402	 0.165725567235994 
2403	 0.165449994539334 
2404	 0.165188614195667 
2405	 0.164943451703272 
2406	 0.164759290280404 
2407	 0.164540726456128 
2408	 0.164230423232534 
2409	 0.163847299791209 
2410	 0.163491744759431 
2411	 0.163215066122006 
2412	 0.163036438329806 
2413	 0.16286705906981 
2414	 0.162602938648175 
2415	 0.162325920847272 
2416	 0.161970068759585 
2417	 0.161419044995297 
2418	 0.161157545491112 
2419	 0.160978608767428 
2420	 0.160731778732942 
2421	 0.160657327181638 
2422	 0.160415201493906 
2423	 0.160038871009555 
2424	 0.159740486937297 
2425	 0.159465931037734 
2426	 0.159144565377608 
2427	 0.158776712669978 
2428	 0.158432019026238 
2429	 0.158084334659745 
2430	 0.157714209823304 
2431	 0.157324382257701 
2432	 0.157017055018455 
2433	 0.156692033928317 
2434	 0.156428259392396 
2435	 0.156280089873941 
2436	 0.156011489072358 
2437	 0.155753925995755 
2438	 0.155520483138836 
2439	 0.155251219776169 
2440	 0.154946296267583 
2441	 0.15461882567634 
2442	 0.154272957141449 
2443	 0.153902320676852 
2444	 0.153502556760519 
2445	 0.153048832400841 
2446	 0.152690017860806 
2447	 0.152324133928804 
2448	 0.151987922042518 
2449	 0.151763068077317 
2450	 0.151553126315621 
2451	 0.151367875712646 
2452	 0.151065616047248 
2453	 0.150738344961574 
2454	 0.150449426649416 
2455	 0.150005497697225 
2456	 0.149686937575859 
2457	 0.149577536058907 
2458	 0.149344834471635 
2459	 0.149069642633137 
2460	 0.148829745080163 
2461	 0.148676482240948 
2462	 0.148305257906702 
2463	 0.147697824378693 
2464	 0.147345315892983 
2465	 0.146934980197567 
2466	 0.146599078232346 
2467	 0.146555971987463 
2468	 0.146328992793145 
2469	 0.145966372076137 
2470	 0.145740376265728 
2471	 0.145477492328412 
2472	 0.145177181182862 
2473	 0.144990201352814 
2474	 0.144770106303386 
2475	 0.144467070959056 
2476	 0.144157782759256 
2477	 0.143741657036226 
2478	 0.143284912829178 
2479	 0.14300676667366 
2480	 0.142870948314944 
2481	 0.14279551532545 
2482	 0.142564054430117 
2483	 0.142252805166335 
2484	 0.14197953243174 
2485	 0.141654373229525 
2486	 0.14149705883892 
2487	 0.141341588212631 
2488	 0.141069601588532 
2489	 0.140771061300754 
2490	 0.140419206673792 
2491	 0.140020837005162 
2492	 0.139710693297084 
2493	 0.139584644442491 
2494	 0.139489717445362 
2495	 0.139333972463132 
2496	 0.13906608852307 
2497	 0.138794548806157 
2498	 0.138604101908298 
2499	 0.138263498651811 
2500	 0.138184132678925 
