Wavelength	mm2700006.asd
350	 6.03137466093226E-02 
351	 6.59810589318022E-02 
352	 6.25715821281064E-02 
353	 4.99555675573789E-02 
354	 6.44050924067199E-02 
355	 6.42552688728933E-02 
356	 5.89076980448368E-02 
357	 6.44145247860049E-02 
358	 6.93517752577663E-02 
359	 6.97300724514833E-02 
360	 6.74170869233604E-02 
361	 6.72795875407451E-02 
362	 6.38856480586286E-02 
363	 6.52820417357341E-02 
364	 7.14619203991971E-02 
365	 6.76280417687093E-02 
366	 0.066804565558537 
367	 0.067615443779965 
368	 6.71880306337391E-02 
369	 7.40017865725913E-02 
370	 7.47002777465673E-02 
371	 7.12719418407052E-02 
372	 7.52511809545147E-02 
373	 7.57186810599118E-02 
374	 7.56400816198815E-02 
375	 7.73094022319896E-02 
376	 7.91628528752665E-02 
377	 7.49620674135318E-02 
378	 7.25583203300183E-02 
379	 7.90672637999441E-02 
380	 7.97637639485012E-02 
381	 0.07816438139386 
382	 7.80391740623721E-02 
383	 8.20216455916976E-02 
384	 8.25988276393936E-02 
385	 8.05270915264509E-02 
386	 7.89686144353614E-02 
387	 8.37394473322569E-02 
388	 8.28735216194916E-02 
389	 8.00218595333317E-02 
390	 8.16120708068665E-02 
391	 0.081228450996636 
392	 8.20585090817146E-02 
393	 8.43321452712345E-02 
394	 8.54497712365988E-02 
395	 0.083431686967722 
396	 8.32181864406455E-02 
397	 8.66067426561754E-02 
398	 8.64485797927238E-02 
399	 8.54818162321258E-02 
400	 8.53469900154872E-02 
401	 8.67394378256657E-02 
402	 8.71961818781444E-02 
403	 8.64766658212057E-02 
404	 0.085783856906321 
405	 8.73954008431985E-02 
406	 8.79520614442101E-02 
407	 8.80533732428712E-02 
408	 8.81910641190684E-02 
409	 8.61476708790003E-02 
410	 8.56747103484519E-02 
411	 8.62737664156983E-02 
412	 8.59068418816135E-02 
413	 8.74491024222868E-02 
414	 8.85357416886974E-02 
415	 8.81903582061737E-02 
416	 8.77241529460492E-02 
417	 8.73910015377823E-02 
418	 8.73651221961455E-02 
419	 8.76184564365419E-02 
420	 8.77703397727802E-02 
421	 8.75611564489229E-02 
422	 8.74358142997353E-02 
423	 8.81280703265982E-02 
424	 8.84185499608737E-02 
425	 8.81040347028589E-02 
426	 8.75455250937542E-02 
427	 8.78869318982916E-02 
428	 8.77998548841856E-02 
429	 8.75068974822803E-02 
430	 8.75617896718146E-02 
431	 8.75156363848336E-02 
432	 8.74597151741726E-02 
433	 8.73886088776599E-02 
434	 8.71934177689725E-02 
435	 8.71968799700556E-02 
436	 8.75027390852639E-02 
437	 8.78948770133876E-02 
438	 0.087386495221363 
439	 8.72042102493242E-02 
440	 0.087535763701049 
441	 8.79714077768619E-02 
442	 8.79560818908325E-02 
443	 0.08790385090378 
444	 8.79732963779791E-02 
445	 8.77774864731457E-02 
446	 8.77049144882941E-02 
447	 8.77888484306584E-02 
448	 8.78760918847997E-02 
449	 8.74368697621959E-02 
450	 0.087505961227373 
451	 0.088038544992551 
452	 8.80781854614487E-02 
453	 8.80259151895203E-02 
454	 0.087782889313543 
455	 8.73818992854321E-02 
456	 8.73435260467546E-02 
457	 8.75016252477529E-02 
458	 0.087622267294091 
459	 8.74838286311946E-02 
460	 8.72781162823323E-02 
461	 8.72697316345945E-02 
462	 8.74285442135851E-02 
463	 8.73128022539792E-02 
464	 8.73247821209654E-02 
465	 8.73649003306781E-02 
466	 0.087279983907909 
467	 8.72797576304537E-02 
468	 8.72194630594902E-02 
469	 8.71248613376728E-02 
470	 8.71571719111121E-02 
471	 8.72902669903034E-02 
472	 8.72956614277558E-02 
473	 8.70926907876947E-02 
474	 8.70112547945981E-02 
475	 8.69349165945093E-02 
476	 8.69082691357829E-02 
477	 8.69927032348097E-02 
478	 8.69058572859764E-02 
479	 8.67911066823583E-02 
480	 0.08676729876268 
481	 8.68671745817553E-02 
482	 8.69409259774722E-02 
483	 8.69787794458468E-02 
484	 8.70132016321653E-02 
485	 8.70803565225785E-02 
486	 8.70053279304093E-02 
487	 8.68855786531955E-02 
488	 8.70143103591073E-02 
489	 8.69397829006957E-02 
490	 8.69018471974608E-02 
491	 8.70444075723424E-02 
492	 8.69594838118894E-02 
493	 8.70328406943109E-02 
494	 8.71498428361728E-02 
495	 8.70326203644141E-02 
496	 8.70972777759644E-02 
497	 8.70923183294074E-02 
498	 8.69344917921788E-02 
499	 8.68755978425826E-02 
500	 8.68998048453457E-02 
501	 8.69289329261646E-02 
502	 0.086888409978938 
503	 8.68275373181396E-02 
504	 8.68220627135678E-02 
505	 8.68653853166818E-02 
506	 0.086875832341956 
507	 8.67917156634459E-02 
508	 8.67848217818774E-02 
509	 8.69052485981402E-02 
510	 8.67391405252181E-02 
511	 8.66738395711491E-02 
512	 8.67440779796196E-02 
513	 8.67923827331189E-02 
514	 8.67721918260484E-02 
515	 8.67298090936015E-02 
516	 0.08673110443357 
517	 8.68693777672497E-02 
518	 8.68663531088429E-02 
519	 8.68192187692479E-02 
520	 8.68912040018721E-02 
521	 8.68851620445591E-02 
522	 8.68136971838951E-02 
523	 8.67671933786621E-02 
524	 8.68974022846229E-02 
525	 8.69688297273335E-02 
526	 8.69355998762993E-02 
527	 8.68475841752124E-02 
528	 8.69033270365104E-02 
529	 8.69211612100311E-02 
530	 8.69344460110551E-02 
531	 8.70916669549709E-02 
532	 8.71103287112153E-02 
533	 8.71021291009024E-02 
534	 8.71450432151774E-02 
535	 8.71164984628674E-02 
536	 8.71506889283607E-02 
537	 8.72534171748838E-02 
538	 0.087368069501042 
539	 8.74115094864946E-02 
540	 8.73836100802177E-02 
541	 8.73400246320336E-02 
542	 8.73973489927194E-02 
543	 8.74608890264284E-02 
544	 8.75231314807745E-02 
545	 8.75987901622254E-02 
546	 8.77037448342312E-02 
547	 8.77559940254931E-02 
548	 0.087771948371497 
549	 8.78489932846833E-02 
550	 8.79470449095212E-02 
551	 8.80249470249568E-02 
552	 8.80775573439847E-02 
553	 8.82033131505312E-02 
554	 8.82556327531892E-02 
555	 8.83121506216804E-02 
556	 8.85389982601233E-02 
557	 8.87503578243842E-02 
558	 8.89251533202196E-02 
559	 8.90882786885943E-02 
560	 0.08931064045799 
561	 8.95236071257828E-02 
562	 8.97450820799674E-02 
563	 9.00176287678312E-02 
564	 9.03611850718119E-02 
565	 9.06251723285594E-02 
566	 0.090794096837024 
567	 9.10114832794169E-02 
568	 9.12593081626369E-02 
569	 9.15880492516547E-02 
570	 9.20336550831243E-02 
571	 9.25644707403029E-02 
572	 9.30553930138085E-02 
573	 9.34904158007211E-02 
574	 9.39366878655943E-02 
575	 9.44167292452311E-02 
576	 9.49833432957794E-02 
577	 9.56328412266534E-02 
578	 9.62398949556997E-02 
579	 0.096827422132669 
580	 9.73574421505457E-02 
581	 9.78046804944263E-02 
582	 9.83669256758793E-02 
583	 9.89631203399582E-02 
584	 9.95956094240232E-02 
585	 0.100424314903794 
586	 0.101388777246779 
587	 0.102359660342492 
588	 0.10324801439815 
589	 0.104245584652573 
590	 0.105253641694593 
591	 0.10623211507599 
592	 0.107203291031452 
593	 0.108083230117403 
594	 0.10887102774224 
595	 0.109595350299462 
596	 0.11031180636278 
597	 0.110993312089817 
598	 0.111646531799632 
599	 0.112311552645387 
600	 0.113133146127596 
601	 0.113974416327669 
602	 0.114761427732251 
603	 0.11559619806153 
604	 0.116457938317892 
605	 0.117307697983217 
606	 0.118109875523792 
607	 0.11889710847589 
608	 0.119693257782864 
609	 0.12049063836295 
610	 0.121247809515934 
611	 0.12188690150398 
612	 0.122483677588977 
613	 0.123089035685593 
614	 0.123527189403344 
615	 0.123994234839266 
616	 0.12449147307848 
617	 0.124891410360475 
618	 0.125326699435636 
619	 0.125752621878886 
620	 0.126131052883661 
621	 0.126484569590385 
622	 0.126881794388663 
623	 0.127276611864021 
624	 0.127590372160365 
625	 0.127877820984858 
626	 0.128192660823331 
627	 0.128540057164195 
628	 0.128862589913707 
629	 0.129147276339641 
630	 0.129408262018468 
631	 0.129668568646439 
632	 0.129941116432394 
633	 0.13020732330944 
634	 0.13047587730638 
635	 0.130771521875657 
636	 0.130982345107245 
637	 0.131221830005575 
638	 0.131541259917682 
639	 0.13174060521797 
640	 0.131947810519968 
641	 0.132197996409653 
642	 0.132478499588058 
643	 0.132752441542768 
644	 0.133003315889921 
645	 0.133243125622058 
646	 0.133521547130773 
647	 0.133754269519424 
648	 0.133984447467942 
649	 0.134276158093004 
650	 0.134620557664497 
651	 0.134930024576887 
652	 0.13517860521475 
653	 0.135405975582159 
654	 0.13577517993154 
655	 0.136150567288728 
656	 0.136430961422302 
657	 0.136738666376874 
658	 0.137071658283811 
659	 0.137418847961165 
660	 0.137764814342818 
661	 0.138139564169318 
662	 0.138481912252498 
663	 0.138786189505286 
664	 0.139136937855188 
665	 0.139507535462004 
666	 0.139874815812346 
667	 0.140232915055083 
668	 0.140647444273995 
669	 0.141087762357959 
670	 0.141526727737423 
671	 0.141944347831928 
672	 0.142357538158423 
673	 0.142797783719043 
674	 0.14327754665769 
675	 0.143768657125772 
676	 0.144200982208153 
677	 0.144620728999891 
678	 0.14511425421253 
679	 0.145633080994456 
680	 0.146146440173497 
681	 0.146650818006179 
682	 0.147175865155089 
683	 0.147731825597507 
684	 0.148274397535815 
685	 0.148774680708967 
686	 0.149308962359668 
687	 0.149890759604245 
688	 0.150487342160094 
689	 0.151040663612451 
690	 0.151620457056102 
691	 0.152202710549043 
692	 0.152772085798889 
693	 0.153359026344663 
694	 0.153946890917551 
695	 0.154548993017175 
696	 0.155175121240042 
697	 0.155751664041148 
698	 0.15635399098871 
699	 0.157016756394162 
700	 0.157717838652051 
701	 0.158329998093642 
702	 0.158903956231084 
703	 0.159510226662131 
704	 0.160160270180478 
705	 0.160781529191672 
706	 0.161385265338477 
707	 0.162018204238696 
708	 0.162617368403658 
709	 0.163243637790808 
710	 0.163912728694792 
711	 0.164561099358777 
712	 0.165170336703389 
713	 0.165730748989746 
714	 0.16626961047939 
715	 0.166930985048904 
716	 0.167550761587807 
717	 0.168098914065027 
718	 0.168651465351013 
719	 0.169238970305567 
720	 0.16981426794633 
721	 0.170340747293547 
722	 0.170823897129396 
723	 0.171343028655428 
724	 0.171840794896956 
725	 0.172245419547587 
726	 0.172666456619096 
727	 0.17310862619346 
728	 0.173550482081508 
729	 0.173954133298837 
730	 0.174362031605478 
731	 0.174736847805437 
732	 0.175058910318899 
733	 0.175384360012177 
734	 0.175685505125134 
735	 0.175950096088979 
736	 0.176178039637006 
737	 0.176405299737784 
738	 0.176619541236282 
739	 0.176811151531614 
740	 0.176977920735274 
741	 0.177118592855014 
742	 0.177246293749661 
743	 0.177364549449853 
744	 0.177449929633772 
745	 0.177447372243968 
746	 0.177421858591647 
747	 0.177470944133848 
748	 0.177476170118579 
749	 0.177420871743994 
750	 0.17733706784752 
751	 0.177300989868296 
752	 0.177220579290347 
753	 0.1770711112128 
754	 0.176880767178533 
755	 0.176779860138318 
756	 0.176681333493549 
757	 0.176532067237285 
758	 0.17631518241912 
759	 0.176137063559113 
760	 0.17592462060022 
761	 0.175652380829473 
762	 0.175375528697288 
763	 0.175127428365331 
764	 0.174866580366211 
765	 0.17455605709744 
766	 0.174218375997033 
767	 0.173960948025427 
768	 0.173715307733708 
769	 0.173351786776693 
770	 0.173015492580661 
771	 0.17269227124439 
772	 0.172356639239974 
773	 0.171988615390922 
774	 0.171638307755411 
775	 0.171310724328387 
776	 0.170976007947785 
777	 0.170531393076734 
778	 0.170135521158978 
779	 0.169795073588944 
780	 0.169441828157445 
781	 0.169033427049806 
782	 0.168660476676592 
783	 0.16832778725658 
784	 0.167944057381541 
785	 0.167581252522211 
786	 0.167213692250402 
787	 0.166822240329635 
788	 0.166444682048032 
789	 0.166094534612391 
790	 0.165725041536601 
791	 0.165304538248695 
792	 0.165008143733372 
793	 0.164697438380249 
794	 0.164318392288358 
795	 0.163911174945518 
796	 0.163530697843952 
797	 0.163228386412974 
798	 0.162973190881018 
799	 0.16259310809973 
800	 0.162216936277766 
801	 0.16184505388914 
802	 0.161470159782133 
803	 0.161209813380369 
804	 0.160949968335147 
805	 0.160633466140723 
806	 0.160262255247298 
807	 0.159950260263638 
808	 0.159656621763951 
809	 0.15935104396707 
810	 0.159041162751899 
811	 0.158761310917043 
812	 0.158471685876873 
813	 0.158163241533744 
814	 0.157963552615463 
815	 0.157727009371271 
816	 0.157458430358447 
817	 0.157214933276255 
818	 0.156957066014687 
819	 0.156738302708446 
820	 0.156527611074617 
821	 0.156236946166495 
822	 0.156041462007667 
823	 0.155824647697624 
824	 0.155549381064057 
825	 0.155377065348471 
826	 0.155254927808559 
827	 0.15512702848221 
828	 0.154949910566784 
829	 0.154732257559935 
830	 0.154456078259079 
831	 0.154227837393454 
832	 0.154163528477854 
833	 0.154072660072163 
834	 0.153896728488201 
835	 0.15368691210273 
836	 0.153578010876841 
837	 0.153519327914351 
838	 0.15344572283764 
839	 0.153315421368485 
840	 0.153131488468069 
841	 0.152978510538597 
842	 0.152877613681619 
843	 0.152815410473402 
844	 0.15274651908723 
845	 0.15267067472711 
846	 0.152592303091269 
847	 0.152528204226347 
848	 0.152544049812355 
849	 0.152527439768068 
850	 0.152451551320357 
851	 0.15237400334745 
852	 0.152304061709471 
853	 0.152288886926136 
854	 0.152308869706375 
855	 0.152248917629338 
856	 0.152270654220673 
857	 0.15233825230677 
858	 0.152384010828455 
859	 0.152381425651593 
860	 0.152411897932184 
861	 0.152461621446503 
862	 0.15247945200578 
863	 0.152411316122182 
864	 0.152445840934797 
865	 0.152548721791465 
866	 0.152571072668443 
867	 0.152657341702138 
868	 0.152752623298468 
869	 0.152830249535347 
870	 0.152910808482868 
871	 0.153004258470106 
872	 0.153103065455446 
873	 0.153209866661487 
874	 0.153348024553276 
875	 0.153478086206245 
876	 0.153552333565878 
877	 0.153591310300246 
878	 0.153794809242393 
879	 0.153991450520854 
880	 0.154151721225784 
881	 0.154298767128055 
882	 0.154443875241034 
883	 0.154633934477 
884	 0.154824136813441 
885	 0.154946076417358 
886	 0.155125911283262 
887	 0.155308569327403 
888	 0.155485093377853 
889	 0.155693557271107 
890	 0.155922542503874 
891	 0.156153200038844 
892	 0.156372305682515 
893	 0.156579607205758 
894	 0.15685852797481 
895	 0.157154428179263 
896	 0.157413691694426 
897	 0.157637174207161 
898	 0.157935297599104 
899	 0.158249707081209 
900	 0.158516946650421 
901	 0.158786136024881 
902	 0.159084601492387 
903	 0.159373069262164 
904	 0.159625454841932 
905	 0.159957660682793 
906	 0.160317160775679 
907	 0.160699395921724 
908	 0.161108338845598 
909	 0.161470439273942 
910	 0.161838296985845 
911	 0.162202282199128 
912	 0.162521060608045 
913	 0.162852300465045 
914	 0.163273148243363 
915	 0.163740075401732 
916	 0.164120272498101 
917	 0.164493697553647 
918	 0.164863505709463 
919	 0.165248638071121 
920	 0.165689177511789 
921	 0.166167992553094 
922	 0.166670747674868 
923	 0.167154596290142 
924	 0.16754850488519 
925	 0.168029703612376 
926	 0.168533153760069 
927	 0.168997489704691 
928	 0.169467627908535 
929	 0.169962305543033 
930	 0.170472317604686 
931	 0.170979124308039 
932	 0.171465118912067 
933	 0.171999514115385 
934	 0.172595912907261 
935	 0.173222951688483 
936	 0.173790241566364 
937	 0.174257289532039 
938	 0.174745676028118 
939	 0.175373300299836 
940	 0.176047244923268 
941	 0.176692117410962 
942	 0.177307022856447 
943	 0.177907754471654 
944	 0.178417652682843 
945	 0.178972173062463 
946	 0.179589892939917 
947	 0.18023513501252 
948	 0.180932186850148 
949	 0.181562578706877 
950	 0.182168925902619 
951	 0.18285659572703 
952	 0.183577666560262 
953	 0.184251918948427 
954	 0.184900974585702 
955	 0.185597710269402 
956	 0.186331228742225 
957	 0.187091396805293 
958	 0.187778723574712 
959	 0.188329243077886 
960	 0.18915510163525 
961	 0.189931719457654 
962	 0.190596068437595 
963	 0.191270685818388 
964	 0.191870906497082 
965	 0.192627974575615 
966	 0.193472008994925 
967	 0.194171471312821 
968	 0.19490213471039 
969	 0.195723868261348 
970	 0.196555742430711 
971	 0.197253767872494 
972	 0.197877716928645 
973	 0.198606627390449 
974	 0.199432460100333 
975	 0.200236658640275 
976	 0.20113980088315 
977	 0.201880158596141 
978	 0.202544625700566 
979	 0.203386084871039 
980	 0.204123933288897 
981	 0.2049136956755 
982	 0.205662750130258 
983	 0.206212212216412 
984	 0.206949071597162 
985	 0.207787407477002 
986	 0.208651914861151 
987	 0.209499451867616 
988	 0.210362241093129 
989	 0.211096245539703 
990	 0.211732943967968 
991	 0.212396942976334 
992	 0.213130091122343 
993	 0.21389253701218 
994	 0.214648781560414 
995	 0.215362409355528 
996	 0.215957553829512 
997	 0.216829165454928 
998	 0.217632157141027 
999	 0.21806502689947 
1000	 0.219058005165606 
1001	 0.216745680563991 
1002	 0.217394804738271 
1003	 0.217990398984213 
1004	 0.21858148458381 
1005	 0.219177584492182 
1006	 0.219762415537819 
1007	 0.220321294023533 
1008	 0.220877829593911 
1009	 0.221420375652115 
1010	 0.22200271282261 
1011	 0.222583381808595 
1012	 0.223225498897559 
1013	 0.223916639403626 
1014	 0.224485903528305 
1015	 0.225012600511539 
1016	 0.225505658444124 
1017	 0.226003192628348 
1018	 0.226452629854424 
1019	 0.226964929234736 
1020	 0.227484162310392 
1021	 0.227987855429899 
1022	 0.228512469279772 
1023	 0.228999839543713 
1024	 0.229439463714194 
1025	 0.229858046583962 
1026	 0.230230347810881 
1027	 0.230633565686776 
1028	 0.231069113870896 
1029	 0.231482090792008 
1030	 0.231919264952186 
1031	 0.23232663805086 
1032	 0.232704482708964 
1033	 0.233051566512238 
1034	 0.233443429783418 
1035	 0.233822473319974 
1036	 0.234208208896704 
1037	 0.234595858960901 
1038	 0.234969281177183 
1039	 0.235356665157145 
1040	 0.235720316073115 
1041	 0.236107794107594 
1042	 0.236530499078635 
1043	 0.236891396084492 
1044	 0.237271338247343 
1045	 0.237645214010662 
1046	 0.238073121349466 
1047	 0.238461345102703 
1048	 0.238868878376628 
1049	 0.239307098567152 
1050	 0.239639366186785 
1051	 0.239938836119014 
1052	 0.240276528077255 
1053	 0.240595934584204 
1054	 0.240954000344115 
1055	 0.241368147500655 
1056	 0.24178058729132 
1057	 0.242181269971035 
1058	 0.242606888148315 
1059	 0.242976734464384 
1060	 0.243323357573894 
1061	 0.243638731828624 
1062	 0.243897469093254 
1063	 0.244197984847852 
1064	 0.244551127993649 
1065	 0.244891652625365 
1066	 0.245261520084799 
1067	 0.245627603384304 
1068	 0.245941563400086 
1069	 0.246247227197944 
1070	 0.246563565728785 
1071	 0.246868038063817 
1072	 0.247215127551809 
1073	 0.247604543267028 
1074	 0.24793570148759 
1075	 0.248284532773193 
1076	 0.24858380838872 
1077	 0.248811651236981 
1078	 0.249084164472292 
1079	 0.249356938433337 
1080	 0.249618939100473 
1081	 0.249898953194413 
1082	 0.250172732689814 
1083	 0.250456857601597 
1084	 0.250762218570253 
1085	 0.251042573326909 
1086	 0.251340151044231 
1087	 0.251586613137585 
1088	 0.251790447935969 
1089	 0.252013465158234 
1090	 0.252211761945057 
1091	 0.252387458228215 
1092	 0.252625945182414 
1093	 0.252843811910403 
1094	 0.25304122176741 
1095	 0.253266823301274 
1096	 0.253485978395645 
1097	 0.253711925074482 
1098	 0.253929156374003 
1099	 0.254159828287509 
1100	 0.254373973925417 
1101	 0.254558115795494 
1102	 0.25475883635407 
1103	 0.254962272586434 
1104	 0.255194190254877 
1105	 0.255387604729665 
1106	 0.255589214085834 
1107	 0.255771388889826 
1108	 0.255918958822144 
1109	 0.256095458197027 
1110	 0.256282046500485 
1111	 0.256453419183999 
1112	 0.256633601643743 
1113	 0.256801913148073 
1114	 0.256928553154746 
1115	 0.257104166200431 
1116	 0.257318426213139 
1117	 0.25750596745454 
1118	 0.257708743038735 
1119	 0.257893909223208 
1120	 0.258053042929504 
1121	 0.258203800628789 
1122	 0.258359684052881 
1123	 0.258551783070471 
1124	 0.25873126899489 
1125	 0.258927996574178 
1126	 0.259087807200619 
1127	 0.259217676065648 
1128	 0.259380976850894 
1129	 0.259549697022905 
1130	 0.259708789686627 
1131	 0.259887380420913 
1132	 0.260048307689731 
1133	 0.260185136133957 
1134	 0.260327612315709 
1135	 0.260465809255067 
1136	 0.260616311135067 
1137	 0.260773840747768 
1138	 0.260911396942333 
1139	 0.261063221266664 
1140	 0.261226124177282 
1141	 0.261386985002433 
1142	 0.26157005993852 
1143	 0.261707423574391 
1144	 0.261821983705096 
1145	 0.261940498565374 
1146	 0.262021171933549 
1147	 0.262123462485132 
1148	 0.262228668833074 
1149	 0.262358534268434 
1150	 0.262506951891636 
1151	 0.262664956225297 
1152	 0.262793561536323 
1153	 0.262913213322758 
1154	 0.263008130605979 
1155	 0.263032460046074 
1156	 0.26313128545354 
1157	 0.26326687808254 
1158	 0.263376874182915 
1159	 0.26351101319616 
1160	 0.263617875406375 
1161	 0.263690898929777 
1162	 0.26378013426541 
1163	 0.263865543462472 
1164	 0.263962608355438 
1165	 0.264068937997053 
1166	 0.264176610654472 
1167	 0.264278843670333 
1168	 0.264381631966804 
1169	 0.264477591027978 
1170	 0.264558027589327 
1171	 0.264655518556334 
1172	 0.264765644392319 
1173	 0.264860363634782 
1174	 0.264957848240182 
1175	 0.265044168462606 
1176	 0.265121651212648 
1177	 0.265192434034585 
1178	 0.26524600714514 
1179	 0.265314523060371 
1180	 0.265373152684425 
1181	 0.265446597605349 
1182	 0.265527579293772 
1183	 0.265638622530423 
1184	 0.2657238775911 
1185	 0.265811499469503 
1186	 0.265890043127612 
1187	 0.265953594284452 
1188	 0.266028384693605 
1189	 0.266096940818115 
1190	 0.266184025389148 
1191	 0.266291103138256 
1192	 0.266380349355187 
1193	 0.266473053694316 
1194	 0.266563131414477 
1195	 0.266645168298674 
1196	 0.266722325734021 
1197	 0.266797623279927 
1198	 0.266875542577992 
1199	 0.266951094904933 
1200	 0.267015679330865 
1201	 0.26708955794905 
1202	 0.267171374934926 
1203	 0.267247937261113 
1204	 0.267313487202768 
1205	 0.267400523408612 
1206	 0.267509363288426 
1207	 0.267594376625968 
1208	 0.267682920413161 
1209	 0.26776219543336 
1210	 0.267818783584592 
1211	 0.267884387388786 
1212	 0.267958873649223 
1213	 0.268024549219219 
1214	 0.268079218870503 
1215	 0.268140425450025 
1216	 0.268202526550079 
1217	 0.26826490142153 
1218	 0.268323767263695 
1219	 0.268381111236578 
1220	 0.268446458391412 
1221	 0.268513396582719 
1222	 0.268577363168173 
1223	 0.268655807997262 
1224	 0.268714115155773 
1225	 0.268751400539561 
1226	 0.268802000994982 
1227	 0.268855694000102 
1228	 0.268902814779334 
1229	 0.268946575431879 
1230	 0.26899651961939 
1231	 0.269042252783875 
1232	 0.269090334366411 
1233	 0.269142349685106 
1234	 0.269202901240396 
1235	 0.269264930576776 
1236	 0.269331581187188 
1237	 0.269389190878039 
1238	 0.269453129588749 
1239	 0.26950581927311 
1240	 0.269540588993341 
1241	 0.269587106254213 
1242	 0.269640275103279 
1243	 0.26968611648928 
1244	 0.26973087229808 
1245	 0.269774889283177 
1246	 0.269810476684194 
1247	 0.26985196102119 
1248	 0.26990081312271 
1249	 0.269943665101041 
1250	 0.269990986308135 
1251	 0.270033886881879 
1252	 0.270063584688586 
1253	 0.270078842302757 
1254	 0.270107467834082 
1255	 0.270136812699693 
1256	 0.270156597183611 
1257	 0.270177602243056 
1258	 0.270197927506536 
1259	 0.270205138039526 
1260	 0.270217949670984 
1261	 0.270245204646531 
1262	 0.270257809644053 
1263	 0.270258091032345 
1264	 0.270262152275577 
1265	 0.270250550336654 
1266	 0.270257205326421 
1267	 0.270272452945928 
1268	 0.270290519214664 
1269	 0.270324535414642 
1270	 0.270382744462787 
1271	 0.270422747702092 
1272	 0.270459036698517 
1273	 0.270508851432919 
1274	 0.270553193470381 
1275	 0.270611905558794 
1276	 0.270685044370819 
1277	 0.270767667472361 
1278	 0.270855304891898 
1279	 0.270953949054533 
1280	 0.271081180712117 
1281	 0.27118973152045 
1282	 0.27129043542047 
1283	 0.271400172553211 
1284	 0.271516278142414 
1285	 0.271614131375859 
1286	 0.271732662654728 
1287	 0.271852776403542 
1288	 0.271971490715254 
1289	 0.272094576973464 
1290	 0.272209677961207 
1291	 0.27232748330893 
1292	 0.272428858516052 
1293	 0.27252843738132 
1294	 0.272601473245379 
1295	 0.272653330139872 
1296	 0.272701329933857 
1297	 0.272711720796463 
1298	 0.272756472412595 
1299	 0.272822811270914 
1300	 0.272872368465721 
1301	 0.272942105318062 
1302	 0.272982082295772 
1303	 0.272992763416877 
1304	 0.273000663826312 
1305	 0.273014303110729 
1306	 0.273027343181264 
1307	 0.273042430613243 
1308	 0.2730378002792 
1309	 0.273022480526591 
1310	 0.272987651109881 
1311	 0.27295665125928 
1312	 0.272920784007773 
1313	 0.272879320321389 
1314	 0.272819419847513 
1315	 0.272783295414691 
1316	 0.27276421290365 
1317	 0.272721465586121 
1318	 0.272689078130178 
1319	 0.272640671241482 
1320	 0.272547628628208 
1321	 0.272485957507309 
1322	 0.272439172653757 
1323	 0.272396779129626 
1324	 0.272339844552954 
1325	 0.272299922728366 
1326	 0.272265039307222 
1327	 0.272207903530313 
1328	 0.272135358255866 
1329	 0.272075358897264 
1330	 0.272009247397305 
1331	 0.271923021617873 
1332	 0.271852128612693 
1333	 0.271796069761531 
1334	 0.271728993877493 
1335	 0.271646861748297 
1336	 0.271582769567652 
1337	 0.271533566018219 
1338	 0.271478735621436 
1339	 0.271438192881922 
1340	 0.271377150817271 
1341	 0.271300794842142 
1342	 0.27122478418208 
1343	 0.271125895680147 
1344	 0.27105058450796 
1345	 0.27100688554637 
1346	 0.270953886041247 
1347	 0.270910053066415 
1348	 0.270868258190451 
1349	 0.270806699094317 
1350	 0.270740355362867 
1351	 0.270679464473547 
1352	 0.270630525821255 
1353	 0.270559035057638 
1354	 0.270483874234242 
1355	 0.270393139734176 
1356	 0.270274002015331 
1357	 0.270174586878066 
1358	 0.270060257347164 
1359	 0.26997821695312 
1360	 0.269917186168099 
1361	 0.269857698314685 
1362	 0.26982010566908 
1363	 0.26977545443861 
1364	 0.269722258197712 
1365	 0.269685451820331 
1366	 0.269655111655527 
1367	 0.269635771728399 
1368	 0.269625911106224 
1369	 0.269639203967272 
1370	 0.269614767019287 
1371	 0.26956660492498 
1372	 0.269509615076247 
1373	 0.269435951642336 
1374	 0.269356735923282 
1375	 0.269278486659306 
1376	 0.269177698596254 
1377	 0.269060329459703 
1378	 0.268927219716579 
1379	 0.26876912604333 
1380	 0.268631539229837 
1381	 0.268472360512479 
1382	 0.268341446988881 
1383	 0.268250177831712 
1384	 0.268124696425315 
1385	 0.268014394498152 
1386	 0.26786832551271 
1387	 0.267682838479017 
1388	 0.267503542583536 
1389	 0.26731646320339 
1390	 0.267106271853313 
1391	 0.266914064301995 
1392	 0.266713768009096 
1393	 0.26646031186666 
1394	 0.266198585028376 
1395	 0.265907640349211 
1396	 0.265586952916672 
1397	 0.26530440411052 
1398	 0.265042741317509 
1399	 0.264761633479871 
1400	 0.264489560503909 
1401	 0.264206920110421 
1402	 0.263900330474747 
1403	 0.263618533055252 
1404	 0.263332776930747 
1405	 0.26307721343185 
1406	 0.262851293693091 
1407	 0.26260971885944 
1408	 0.262385911285122 
1409	 0.262157373749567 
1410	 0.261895417927746 
1411	 0.261680640196969 
1412	 0.261490165690272 
1413	 0.261305862804808 
1414	 0.261164094155194 
1415	 0.261030110036952 
1416	 0.2608993159804 
1417	 0.260793231533377 
1418	 0.26065447502263 
1419	 0.260530096269677 
1420	 0.260450461945981 
1421	 0.260347022077569 
1422	 0.260274867378977 
1423	 0.260221768076768 
1424	 0.260138481228276 
1425	 0.260030704693902 
1426	 0.259943410880424 
1427	 0.259837691176899 
1428	 0.259774374492042 
1429	 0.259731333267211 
1430	 0.259697598345853 
1431	 0.259710327826567 
1432	 0.259686755985697 
1433	 0.259649829215705 
1434	 0.259621372072935 
1435	 0.259568093397003 
1436	 0.2595437219057 
1437	 0.259541002715739 
1438	 0.259541054615068 
1439	 0.25955981006996 
1440	 0.259572343285511 
1441	 0.259575120121584 
1442	 0.259576495918947 
1443	 0.259559614287068 
1444	 0.259546527602316 
1445	 0.259574225926769 
1446	 0.259604519066591 
1447	 0.259636702297054 
1448	 0.259697686900398 
1449	 0.259720242801554 
1450	 0.259717841825908 
1451	 0.259726895379367 
1452	 0.259719720779559 
1453	 0.2597389136509 
1454	 0.259769419740005 
1455	 0.259806030029819 
1456	 0.259862293085553 
1457	 0.259909077848757 
1458	 0.259955781113967 
1459	 0.260007620382336 
1460	 0.260055984574053 
1461	 0.2601156491636 
1462	 0.260180014016157 
1463	 0.260246789374534 
1464	 0.260338733728272 
1465	 0.260403741407383 
1466	 0.260454771127084 
1467	 0.260512870515767 
1468	 0.260541003866582 
1469	 0.260600324956539 
1470	 0.260681420949966 
1471	 0.260766584288842 
1472	 0.260865448536173 
1473	 0.260950963576204 
1474	 0.26102756535441 
1475	 0.261115319666065 
1476	 0.261177536856871 
1477	 0.26125534925714 
1478	 0.261344257195986 
1479	 0.261414563695413 
1480	 0.261516088475303 
1481	 0.261613491675835 
1482	 0.261706771879472 
1483	 0.261809113669729 
1484	 0.261891014511455 
1485	 0.261955654637532 
1486	 0.262034191859705 
1487	 0.262097589718468 
1488	 0.262181731626416 
1489	 0.262290100386909 
1490	 0.262382509914583 
1491	 0.262487620830605 
1492	 0.262564492770408 
1493	 0.262610918969748 
1494	 0.262677493323127 
1495	 0.262735230390907 
1496	 0.262803014408051 
1497	 0.262887676282941 
1498	 0.262968842580946 
1499	 0.263059796272558 
1500	 0.263130693081181 
1501	 0.263186107353793 
1502	 0.263254272982967 
1503	 0.263314224182264 
1504	 0.26337253305895 
1505	 0.263462381977371 
1506	 0.263553555111095 
1507	 0.263631716239429 
1508	 0.263706780310839 
1509	 0.263765544087001 
1510	 0.26381593931089 
1511	 0.263853693022908 
1512	 0.263894449307685 
1513	 0.263942570952777 
1514	 0.263992336328729 
1515	 0.264066290240361 
1516	 0.264131945570111 
1517	 0.264188401413497 
1518	 0.264246779963959 
1519	 0.264296079016134 
1520	 0.264330235799945 
1521	 0.26437202965508 
1522	 0.264407508155788 
1523	 0.264453668280666 
1524	 0.264503017485237 
1525	 0.264554317281624 
1526	 0.264622646330412 
1527	 0.264673092876132 
1528	 0.264711420962096 
1529	 0.264757092364479 
1530	 0.264795617574775 
1531	 0.264842587666144 
1532	 0.264901638931125 
1533	 0.264949712338334 
1534	 0.264996359947155 
1535	 0.265038594675486 
1536	 0.265071739690698 
1537	 0.265109371729624 
1538	 0.265146584343436 
1539	 0.265187808091584 
1540	 0.265229785374734 
1541	 0.265275356803196 
1542	 0.265332794087265 
1543	 0.265370432778362 
1544	 0.265396069374198 
1545	 0.265429860782442 
1546	 0.265451654580144 
1547	 0.2654883408906 
1548	 0.265524819525231 
1549	 0.265555650417983 
1550	 0.265586452187561 
1551	 0.26561480498253 
1552	 0.265665811039053 
1553	 0.26572131457871 
1554	 0.265769560998449 
1555	 0.265804738829187 
1556	 0.265813375970256 
1557	 0.26582184486263 
1558	 0.265837275507694 
1559	 0.265858251793016 
1560	 0.265880976984614 
1561	 0.265917599151228 
1562	 0.265938199259607 
1563	 0.265951176731052 
1564	 0.265969268757213 
1565	 0.265990559135916 
1566	 0.265996238195215 
1567	 0.265990958570368 
1568	 0.265997424040527 
1569	 0.266003099101268 
1570	 0.266000809204448 
1571	 0.265999331463649 
1572	 0.266001283602884 
1573	 0.265987308259669 
1574	 0.265993695648145 
1575	 0.266023962779655 
1576	 0.266042637922353 
1577	 0.266062078727164 
1578	 0.266076593240571 
1579	 0.266081391459311 
1580	 0.266098759153848 
1581	 0.26611434889095 
1582	 0.266143024652176 
1583	 0.266203537235328 
1584	 0.266231347656609 
1585	 0.266252885594147 
1586	 0.266259310656346 
1587	 0.266233277693632 
1588	 0.26622476274279 
1589	 0.26620786285456 
1590	 0.2662114595249 
1591	 0.266234617985738 
1592	 0.266248047209303 
1593	 0.266279224552134 
1594	 0.266288500361245 
1595	 0.266276808186203 
1596	 0.266274042530375 
1597	 0.266257064752714 
1598	 0.266255718354168 
1599	 0.266283062661449 
1600	 0.266282076516164 
1601	 0.266267090222318 
1602	 0.266259580381895 
1603	 0.266221156904014 
1604	 0.266213358895196 
1605	 0.266232281513061 
1606	 0.266249806123513 
1607	 0.26627739622775 
1608	 0.266319808389997 
1609	 0.266350177059987 
1610	 0.266377496499016 
1611	 0.266387486526012 
1612	 0.266372596617575 
1613	 0.266336311002064 
1614	 0.266308960115292 
1615	 0.266285012107228 
1616	 0.266264311238582 
1617	 0.266281093278309 
1618	 0.266304358740124 
1619	 0.266330192805859 
1620	 0.266355534088899 
1621	 0.266351626248458 
1622	 0.2663183187676 
1623	 0.266305188984389 
1624	 0.266282917986359 
1625	 0.266273770762969 
1626	 0.266271754679503 
1627	 0.266278752673499 
1628	 0.266288476569561 
1629	 0.266311300699851 
1630	 0.266351312239164 
1631	 0.266387339325837 
1632	 0.266432010956707 
1633	 0.266463938000714 
1634	 0.266499926643734 
1635	 0.266514520758872 
1636	 0.266508219176404 
1637	 0.266520112941643 
1638	 0.266526247985327 
1639	 0.266539787965999 
1640	 0.266570527595329 
1641	 0.266581905751819 
1642	 0.266580948366136 
1643	 0.266587814514751 
1644	 0.266588916041984 
1645	 0.266600324710673 
1646	 0.266620286487724 
1647	 0.266636954969176 
1648	 0.266668020924167 
1649	 0.266667209659777 
1650	 0.266644834053341 
1651	 0.26663839939218 
1652	 0.266621328699144 
1653	 0.26660705633906 
1654	 0.266604919397525 
1655	 0.266596171732952 
1656	 0.266577397858486 
1657	 0.266559535861485 
1658	 0.26655588868128 
1659	 0.266526590813521 
1660	 0.266468414778147 
1661	 0.266435650851877 
1662	 0.266394004907603 
1663	 0.266377772039842 
1664	 0.266392184633788 
1665	 0.266389144713986 
1666	 0.266378952060154 
1667	 0.266393746076787 
1668	 0.266418608350169 
1669	 0.266441303035422 
1670	 0.266500645818652 
1671	 0.266512942637679 
1672	 0.266492696560205 
1673	 0.266482782770565 
1674	 0.266449845855712 
1675	 0.266439690137156 
1676	 0.266450270686217 
1677	 0.266440242274928 
1678	 0.266423061261767 
1679	 0.266413376614099 
1680	 0.266384971127356 
1681	 0.266387267782982 
1682	 0.266413634165754 
1683	 0.266438397446891 
1684	 0.266481186305789 
1685	 0.266509923241435 
1686	 0.266554525189843 
1687	 0.266554834467477 
1688	 0.266519591827787 
1689	 0.266504704105577 
1690	 0.266476008154449 
1691	 0.266441664248791 
1692	 0.266403889065538 
1693	 0.266388000699606 
1694	 0.266368702281616 
1695	 0.266352832247671 
1696	 0.266368306631441 
1697	 0.266364805472583 
1698	 0.266333499392825 
1699	 0.266325945885615 
1700	 0.266342936524547 
1701	 0.266336413238584 
1702	 0.266313735563761 
1703	 0.266314502182776 
1704	 0.266321533290237 
1705	 0.266319554739281 
1706	 0.266338672574652 
1707	 0.266329281690819 
1708	 0.266292834196397 
1709	 0.266263155123307 
1710	 0.266227535833758 
1711	 0.266198729191654 
1712	 0.266163060958883 
1713	 0.26613826618265 
1714	 0.266119839698311 
1715	 0.26610444938677 
1716	 0.266097265294015 
1717	 0.266087133910077 
1718	 0.266087761212856 
1719	 0.26607229975062 
1720	 0.266045840186668 
1721	 0.266020771621857 
1722	 0.265986727232121 
1723	 0.265958683163084 
1724	 0.265936659479271 
1725	 0.265911809774772 
1726	 0.265881668243366 
1727	 0.265856191802419 
1728	 0.265838162063775 
1729	 0.265801843939704 
1730	 0.265763503103537 
1731	 0.26571981931948 
1732	 0.265656044219112 
1733	 0.265607453870511 
1734	 0.265567649949289 
1735	 0.265515478962488 
1736	 0.265457818969209 
1737	 0.265412733058119 
1738	 0.265367363535867 
1739	 0.265323081122688 
1740	 0.26529050041625 
1741	 0.265242434624211 
1742	 0.265182707766785 
1743	 0.26513817587353 
1744	 0.265098656029658 
1745	 0.265047008948849 
1746	 0.264998587414567 
1747	 0.264913559764293 
1748	 0.264856877955151 
1749	 0.264813323455512 
1750	 0.264765841240345 
1751	 0.264739502463072 
1752	 0.264685772487463 
1753	 0.264616664438909 
1754	 0.264545782936322 
1755	 0.264469881308088 
1756	 0.264431628603558 
1757	 0.264392245339773 
1758	 0.264353103123324 
1759	 0.264337586542087 
1760	 0.26429809198406 
1761	 0.264228780759396 
1762	 0.26417029886283 
1763	 0.264131752879162 
1764	 0.264065032373513 
1765	 0.264026315791124 
1766	 0.264013224107608 
1767	 0.263950541705621 
1768	 0.26392616341633 
1769	 0.263920280369564 
1770	 0.263886478189117 
1771	 0.263859173501534 
1772	 0.263816249768435 
1773	 0.2637838926965 
1774	 0.263748383562107 
1775	 0.263693096965123 
1776	 0.263647065947885 
1777	 0.263597944066006 
1778	 0.263550583011578 
1779	 0.263526034435726 
1780	 0.263504662022661 
1781	 0.263450661602813 
1782	 0.263413671238259 
1783	 0.263390627716674 
1784	 0.263387278130788 
1785	 0.263436181385244 
1786	 0.263434303257465 
1787	 0.263422092883625 
1788	 0.263406504230411 
1789	 0.263351348164077 
1790	 0.263328775584294 
1791	 0.263335685304612 
1792	 0.263308568793057 
1793	 0.263258618784084 
1794	 0.263234412077563 
1795	 0.263198001554857 
1796	 0.263194360268023 
1797	 0.263248969043265 
1798	 0.263240984864139 
1799	 0.263218529526045 
1800	 0.263185702458762 
1801	 0.25856492415194 
1802	 0.258765846432166 
1803	 0.258995665858365 
1804	 0.259269480256555 
1805	 0.259545548537652 
1806	 0.259815652208847 
1807	 0.260106457060315 
1808	 0.260327010785954 
1809	 0.260468602583446 
1810	 0.260653079095301 
1811	 0.260849179762759 
1812	 0.260998571217153 
1813	 0.261135652197239 
1814	 0.261238788381386 
1815	 0.261279131570803 
1816	 0.261306229549999 
1817	 0.26133486012636 
1818	 0.261352172086423 
1819	 0.261383990393461 
1820	 0.261416621782901 
1821	 0.261429248653429 
1822	 0.261465711041266 
1823	 0.26153089489971 
1824	 0.261602094288983 
1825	 0.261659825272618 
1826	 0.261746909369756 
1827	 0.261812571522089 
1828	 0.261840854704507 
1829	 0.261834067629628 
1830	 0.261841426539518 
1831	 0.261822583722575 
1832	 0.261809585434265 
1833	 0.261807121674913 
1834	 0.261826787185924 
1835	 0.261885720977339 
1836	 0.261912057091448 
1837	 0.261935543613245 
1838	 0.2619794068004 
1839	 0.262007672103909 
1840	 0.262016168985787 
1841	 0.262027121978138 
1842	 0.262047286062616 
1843	 0.262062121433615 
1844	 0.262061582858073 
1845	 0.262065790452443 
1846	 0.262090734710081 
1847	 0.262115569285823 
1848	 0.262126585556824 
1849	 0.262138722481547 
1850	 0.262161373699135 
1851	 0.262184696042252 
1852	 0.262206207220849 
1853	 0.262235869560385 
1854	 0.262245486172156 
1855	 0.262251974053632 
1856	 0.262224977448176 
1857	 0.262174694777666 
1858	 0.262142316366507 
1859	 0.262046726020652 
1860	 0.261936266531113 
1861	 0.261797989241787 
1862	 0.261665995525248 
1863	 0.261503664448255 
1864	 0.261336865035461 
1865	 0.261147382324691 
1866	 0.260906658219124 
1867	 0.26063214218841 
1868	 0.260349649503788 
1869	 0.260072721354587 
1870	 0.259793687976925 
1871	 0.259506367072456 
1872	 0.25922871127172 
1873	 0.258928468213418 
1874	 0.258584308327493 
1875	 0.258229147134781 
1876	 0.257827887271448 
1877	 0.257399814366071 
1878	 0.256947714551013 
1879	 0.256434955601747 
1880	 0.25588776418666 
1881	 0.255302512384195 
1882	 0.254670978001316 
1883	 0.254001893476744 
1884	 0.253278393028327 
1885	 0.252502502249124 
1886	 0.251689895334804 
1887	 0.250794734342461 
1888	 0.249851659966105 
1889	 0.24888084009555 
1890	 0.247870083992306 
1891	 0.246853423176666 
1892	 0.245801594772779 
1893	 0.244751280189594 
1894	 0.243686872488237 
1895	 0.242633345509183 
1896	 0.241527009536881 
1897	 0.240473587246174 
1898	 0.239416481896301 
1899	 0.238332180024032 
1900	 0.237290750485262 
1901	 0.236271264109244 
1902	 0.235300823520628 
1903	 0.234367817505198 
1904	 0.233469560839705 
1905	 0.232606682035755 
1906	 0.231804355396423 
1907	 0.231022376345057 
1908	 0.230292875981023 
1909	 0.229610551343433 
1910	 0.228944114865547 
1911	 0.228325258398234 
1912	 0.227749471165524 
1913	 0.227210790612125 
1914	 0.22673979744989 
1915	 0.226261551055573 
1916	 0.225795658227833 
1917	 0.225360951620542 
1918	 0.224980963740329 
1919	 0.224596766667001 
1920	 0.224268935450412 
1921	 0.223971751746299 
1922	 0.223680719528092 
1923	 0.223435252854628 
1924	 0.223225654915854 
1925	 0.223062273881197 
1926	 0.222925887842068 
1927	 0.222816593460053 
1928	 0.222757271153759 
1929	 0.22270745104826 
1930	 0.222680099251207 
1931	 0.222692005097259 
1932	 0.222674736406087 
1933	 0.222690260502074 
1934	 0.222739355144956 
1935	 0.222784203467909 
1936	 0.222821185272597 
1937	 0.222900584305285 
1938	 0.223008655831439 
1939	 0.223121822236407 
1940	 0.223260044195191 
1941	 0.223407075643028 
1942	 0.223565986447591 
1943	 0.223715544373276 
1944	 0.22388023396317 
1945	 0.224070121685046 
1946	 0.224244725104722 
1947	 0.224402288622958 
1948	 0.224587739680325 
1949	 0.224780076023435 
1950	 0.224982765284953 
1951	 0.225192829941407 
1952	 0.225431906908074 
1953	 0.22568065295669 
1954	 0.225941673387016 
1955	 0.22623856023892 
1956	 0.226554187763799 
1957	 0.226861365785303 
1958	 0.227165529109899 
1959	 0.227494252290383 
1960	 0.227839818212076 
1961	 0.228182035749395 
1962	 0.228554664145936 
1963	 0.228905808940971 
1964	 0.229251304994073 
1965	 0.229571017908564 
1966	 0.229903045929331 
1967	 0.230247403976894 
1968	 0.230585741014352 
1969	 0.230924836596779 
1970	 0.231269210599652 
1971	 0.23161631923501 
1972	 0.231957388687089 
1973	 0.232308928523027 
1974	 0.232649028464258 
1975	 0.232970641630931 
1976	 0.233298856038856 
1977	 0.233666626287946 
1978	 0.234012111202875 
1979	 0.234359425872216 
1980	 0.234706101804866 
1981	 0.235031469940181 
1982	 0.235308573201083 
1983	 0.235631602549308 
1984	 0.235971434791914 
1985	 0.236307757745184 
1986	 0.236677024593357 
1987	 0.237011031021076 
1988	 0.237328008333743 
1989	 0.237635913381083 
1990	 0.237928843893625 
1991	 0.238211257909083 
1992	 0.238518654192987 
1993	 0.238830983358365 
1994	 0.239155579730331 
1995	 0.239507662914419 
1996	 0.239840164949038 
1997	 0.240182128007073 
1998	 0.240501666160563 
1999	 0.240797995179241 
2000	 0.24110241474267 
2001	 0.241403147796912 
2002	 0.241698048412625 
2003	 0.241982746584602 
2004	 0.242288086362866 
2005	 0.242582001826159 
2006	 0.242873269792036 
2007	 0.243153851753374 
2008	 0.24342078188516 
2009	 0.243703122406848 
2010	 0.243991240552451 
2011	 0.244266817196853 
2012	 0.244553485105207 
2013	 0.244829697797431 
2014	 0.245089479836955 
2015	 0.245336248648442 
2016	 0.245601709087306 
2017	 0.245870834998666 
2018	 0.246142246196371 
2019	 0.246414624181318 
2020	 0.246696580066345 
2021	 0.24698643003754 
2022	 0.247276188787657 
2023	 0.247587713473344 
2024	 0.247868411291196 
2025	 0.248134472689918 
2026	 0.248399664888139 
2027	 0.248642168315441 
2028	 0.248898134548708 
2029	 0.2491440134747 
2030	 0.249389003256966 
2031	 0.249634792608648 
2032	 0.249869574551652 
2033	 0.250114312574253 
2034	 0.250378427587446 
2035	 0.250617384163021 
2036	 0.250843752556277 
2037	 0.251073513509944 
2038	 0.25129483120392 
2039	 0.251511406144672 
2040	 0.251720785400432 
2041	 0.251944207880044 
2042	 0.252150176759358 
2043	 0.252346635798797 
2044	 0.252544820745059 
2045	 0.252744866248979 
2046	 0.252932965090435 
2047	 0.253110484819025 
2048	 0.253291867121946 
2049	 0.253479412739799 
2050	 0.25364569981589 
2051	 0.253805590475888 
2052	 0.253956690637999 
2053	 0.254071437075298 
2054	 0.254209550130259 
2055	 0.254352588859305 
2056	 0.254499764032225 
2057	 0.254660680509533 
2058	 0.2548442590066 
2059	 0.255007582331657 
2060	 0.255179469011263 
2061	 0.255330523761344 
2062	 0.255463424194058 
2063	 0.255600463388794 
2064	 0.255724087653663 
2065	 0.255856486448317 
2066	 0.255988618811302 
2067	 0.256125551587967 
2068	 0.256261460100948 
2069	 0.256417216249682 
2070	 0.256549100368025 
2071	 0.256670399096771 
2072	 0.256811428376819 
2073	 0.256946818701922 
2074	 0.25709129989506 
2075	 0.257261631639347 
2076	 0.25741402162555 
2077	 0.25755134508594 
2078	 0.257700233339551 
2079	 0.257865076253122 
2080	 0.25800837970925 
2081	 0.258135079998281 
2082	 0.258275906303787 
2083	 0.25841542930434 
2084	 0.258553983247729 
2085	 0.258678390866511 
2086	 0.258804869737795 
2087	 0.258931267192778 
2088	 0.259026118711901 
2089	 0.259161496401637 
2090	 0.259324357608878 
2091	 0.259482690061676 
2092	 0.259671269086283 
2093	 0.259824946313976 
2094	 0.259961803242974 
2095	 0.260105249150246 
2096	 0.260225496021138 
2097	 0.260358694455843 
2098	 0.260498072904118 
2099	 0.260647029095727 
2100	 0.260805790656266 
2101	 0.260978656096696 
2102	 0.261130293694941 
2103	 0.261286027648798 
2104	 0.261438778270457 
2105	 0.261565451939293 
2106	 0.261717978264978 
2107	 0.261893381604113 
2108	 0.262057044703307 
2109	 0.262212390832002 
2110	 0.262384220426674 
2111	 0.262565907376192 
2112	 0.262745284991069 
2113	 0.262931143157828 
2114	 0.263132063882159 
2115	 0.263304989696859 
2116	 0.263463664056419 
2117	 0.263626454024346 
2118	 0.263772585464891 
2119	 0.263937048317316 
2120	 0.264130050464501 
2121	 0.264277367804935 
2122	 0.264417093240886 
2123	 0.264537858632106 
2124	 0.264605171132022 
2125	 0.264704617543983 
2126	 0.264812307615904 
2127	 0.264917784367139 
2128	 0.265042974877065 
2129	 0.265146116242392 
2130	 0.265235799398103 
2131	 0.265328433923028 
2132	 0.265393685643864 
2133	 0.265441305964995 
2134	 0.265479227553237 
2135	 0.265492007024382 
2136	 0.265515450230673 
2137	 0.265531258898488 
2138	 0.265549073817294 
2139	 0.265575270774407 
2140	 0.265585247188345 
2141	 0.265596580923623 
2142	 0.265585060126688 
2143	 0.265584753244297 
2144	 0.265526130526344 
2145	 0.265398512222075 
2146	 0.265296275666246 
2147	 0.265154156338048 
2148	 0.265025456028624 
2149	 0.264926467431368 
2150	 0.264867371485781 
2151	 0.264785666473823 
2152	 0.264729791460476 
2153	 0.264618686259786 
2154	 0.264485719183522 
2155	 0.264342227151986 
2156	 0.264162255803421 
2157	 0.263985636575564 
2158	 0.263810285886288 
2159	 0.263616706480843 
2160	 0.263388884443775 
2161	 0.263181574242813 
2162	 0.262966629962904 
2163	 0.262764808787606 
2164	 0.262572716282419 
2165	 0.262401491537134 
2166	 0.262210660811234 
2167	 0.262025332296443 
2168	 0.261819146739342 
2169	 0.261588878856493 
2170	 0.261381798806868 
2171	 0.261168269788754 
2172	 0.260975353719625 
2173	 0.260800027959784 
2174	 0.260626932543476 
2175	 0.260466579811322 
2176	 0.260299456106002 
2177	 0.260161983611076 
2178	 0.259980230996423 
2179	 0.25977610146381 
2180	 0.259561218184648 
2181	 0.259290616264605 
2182	 0.259052741123824 
2183	 0.258808664201136 
2184	 0.258589778532383 
2185	 0.25840276671821 
2186	 0.258254813764912 
2187	 0.258088488055972 
2188	 0.257941330777458 
2189	 0.257792775514049 
2190	 0.257624204870462 
2191	 0.257495755967322 
2192	 0.257411148537434 
2193	 0.257296679601684 
2194	 0.257181010292283 
2195	 0.257073870372519 
2196	 0.256968339303634 
2197	 0.256851323796187 
2198	 0.25672631009669 
2199	 0.256621667989261 
2200	 0.256480257225359 
2201	 0.256397325980894 
2202	 0.256376564341149 
2203	 0.256361434238348 
2204	 0.256326802037479 
2205	 0.256314459457556 
2206	 0.256276058991218 
2207	 0.256191658222293 
2208	 0.256170518559422 
2209	 0.256181279056587 
2210	 0.256178572997593 
2211	 0.256217869558463 
2212	 0.256204319679318 
2213	 0.256143526982705 
2214	 0.256122678605687 
2215	 0.256089669201621 
2216	 0.256076460265541 
2217	 0.256101202030132 
2218	 0.256109722464124 
2219	 0.256089357408868 
2220	 0.256114642497203 
2221	 0.256178679596923 
2222	 0.256231031054507 
2223	 0.256269318060959 
2224	 0.256321866307172 
2225	 0.25635356059735 
2226	 0.256349537782871 
2227	 0.256357494439429 
2228	 0.256375013294691 
2229	 0.256385949303312 
2230	 0.256373173467565 
2231	 0.256384969366009 
2232	 0.256422870327597 
2233	 0.256438981158466 
2234	 0.256455829925091 
2235	 0.25645878435635 
2236	 0.256443458909402 
2237	 0.256434144923716 
2238	 0.256405724840452 
2239	 0.256402761859476 
2240	 0.256423538901679 
2241	 0.256430999441328 
2242	 0.256450126487646 
2243	 0.256460045491795 
2244	 0.256476330701834 
2245	 0.256457200103697 
2246	 0.256421160363604 
2247	 0.256371373725429 
2248	 0.2563423804582 
2249	 0.256293486971201 
2250	 0.256276236446257 
2251	 0.256291365017622 
2252	 0.256299035464583 
2253	 0.256302743029187 
2254	 0.256318718197902 
2255	 0.256369218150209 
2256	 0.256369878854863 
2257	 0.256341678974539 
2258	 0.256341065063784 
2259	 0.256322858756347 
2260	 0.256319088318402 
2261	 0.256356661047143 
2262	 0.256355971515876 
2263	 0.25632033231488 
2264	 0.256308823120993 
2265	 0.256282630220684 
2266	 0.256285636360662 
2267	 0.2563236964913 
2268	 0.256349313383158 
2269	 0.256379097493661 
2270	 0.256420736335513 
2271	 0.256462786231657 
2272	 0.256502562168699 
2273	 0.25653477539958 
2274	 0.256504293059243 
2275	 0.256459601904692 
2276	 0.256352541537764 
2277	 0.256301052164846 
2278	 0.256231820030306 
2279	 0.25622174139849 
2280	 0.256274461065118 
2281	 0.256261784314441 
2282	 0.256252801996964 
2283	 0.256250056868519 
2284	 0.256209138093941 
2285	 0.256196269331224 
2286	 0.256213369623626 
2287	 0.256221895034543 
2288	 0.256223136947925 
2289	 0.256228197078952 
2290	 0.256267146858925 
2291	 0.256261729479279 
2292	 0.256206273072815 
2293	 0.256190735448549 
2294	 0.256172115415103 
2295	 0.256163004837552 
2296	 0.256184766885701 
2297	 0.256211909223041 
2298	 0.256178079607724 
2299	 0.256137368598378 
2300	 0.256127194274952 
2301	 0.256087710707898 
2302	 0.25606541042079 
2303	 0.256083900434575 
2304	 0.256071423442263 
2305	 0.256064055118869 
2306	 0.256055386591252 
2307	 0.256072674980443 
2308	 0.256033067474621 
2309	 0.255966636947732 
2310	 0.255887974280753 
2311	 0.255758507781269 
2312	 0.255671804465731 
2313	 0.255585422544291 
2314	 0.255522558316963 
2315	 0.25549619729927 
2316	 0.25544741033925 
2317	 0.25541114915147 
2318	 0.255348724997071 
2319	 0.255244911173236 
2320	 0.255177571551507 
2321	 0.255119951917507 
2322	 0.255056103494168 
2323	 0.255007047651154 
2324	 0.254974234365793 
2325	 0.254933500970535 
2326	 0.254905800443225 
2327	 0.254925173317236 
2328	 0.254896191384416 
2329	 0.254839817308093 
2330	 0.254834283297697 
2331	 0.254837387950633 
2332	 0.254833958258839 
2333	 0.254832857076491 
2334	 0.254839258737949 
2335	 0.254851267396355 
2336	 0.254855085516133 
2337	 0.254861878498398 
2338	 0.254865000992808 
2339	 0.254786689853596 
2340	 0.254694693285966 
2341	 0.254664069155017 
2342	 0.254603965667435 
2343	 0.254529030664473 
2344	 0.254496779040708 
2345	 0.254413591104272 
2346	 0.254257408478886 
2347	 0.254150173477061 
2348	 0.254060551714478 
2349	 0.253969850092505 
2350	 0.253906112635475 
2351	 0.25381354355997 
2352	 0.253706059000079 
2353	 0.253581350375657 
2354	 0.253437338055027 
2355	 0.253300139244651 
2356	 0.253122767668726 
2357	 0.253004680477103 
2358	 0.252941761323755 
2359	 0.252818237153731 
2360	 0.252716813015138 
2361	 0.252591120313637 
2362	 0.252366405653719 
2363	 0.252234573434802 
2364	 0.252159091667477 
2365	 0.252073370263391 
2366	 0.25205847890149 
2367	 0.251958257041671 
2368	 0.25179232732817 
2369	 0.25166235017569 
2370	 0.25150421296415 
2371	 0.251356690387118 
2372	 0.25129145189379 
2373	 0.251237127273812 
2374	 0.251102636181082 
2375	 0.250979003123499 
2376	 0.250838339459125 
2377	 0.25062212342362 
2378	 0.250470943395627 
2379	 0.250375162901752 
2380	 0.25027970731383 
2381	 0.250203204566381 
2382	 0.250047481897611 
2383	 0.249863674851013 
2384	 0.249708014022064 
2385	 0.249510810307896 
2386	 0.249317925402754 
2387	 0.249153208412711 
2388	 0.249013796415108 
2389	 0.248773795378091 
2390	 0.248480907619503 
2391	 0.248227655341992 
2392	 0.247930337293173 
2393	 0.247708591131047 
2394	 0.247532389357897 
2395	 0.247322482412938 
2396	 0.247090527134379 
2397	 0.246846672098195 
2398	 0.246668328263773 
2399	 0.246578126096654 
2400	 0.24647698064671 
2401	 0.246310566374992 
2402	 0.246120592215028 
2403	 0.245906534040026 
2404	 0.245715475855968 
2405	 0.245517819430691 
2406	 0.245322011785506 
2407	 0.245107968940629 
2408	 0.244760736847576 
2409	 0.244367565823448 
2410	 0.244067822161935 
2411	 0.243869049243138 
2412	 0.243697863595355 
2413	 0.243630913309273 
2414	 0.243424875789343 
2415	 0.24312019568604 
2416	 0.24296580727928 
2417	 0.242885344131222 
2418	 0.242717727382621 
2419	 0.242645418481453 
2420	 0.242461894611509 
2421	 0.242141071500749 
2422	 0.241911730563149 
2423	 0.241731715227389 
2424	 0.241492377501626 
2425	 0.241213364889283 
2426	 0.240914618383219 
2427	 0.240588031651935 
2428	 0.240295137668189 
2429	 0.239988223789347 
2430	 0.23973577543091 
2431	 0.239517044683207 
2432	 0.239268272516596 
2433	 0.23909487952001 
2434	 0.238783772847658 
2435	 0.23835257501445 
2436	 0.238007305076947 
2437	 0.237594499977441 
2438	 0.237286172062519 
2439	 0.237100116756161 
2440	 0.236848514392481 
2441	 0.236551437407882 
2442	 0.236353522446621 
2443	 0.236257498675124 
2444	 0.236077169673119 
2445	 0.235918381261281 
2446	 0.235728096482323 
2447	 0.23543513415105 
2448	 0.235183960733306 
2449	 0.2350212206428 
2450	 0.23479194572615 
2451	 0.234503352728026 
2452	 0.234224690697878 
2453	 0.233924649728525 
2454	 0.233577347898283 
2455	 0.233178115139374 
2456	 0.232765768124646 
2457	 0.232309083510299 
2458	 0.231980483515281 
2459	 0.231760568880639 
2460	 0.231475929118374 
2461	 0.231194617369595 
2462	 0.230913101142948 
2463	 0.230533479805644 
2464	 0.230225642585346 
2465	 0.230057689073949 
2466	 0.229754087186899 
2467	 0.229356451240637 
2468	 0.229052260864076 
2469	 0.228819350850437 
2470	 0.228540043517433 
2471	 0.228097283465777 
2472	 0.227732570516136 
2473	 0.227313693259818 
2474	 0.226994977087762 
2475	 0.226923660413912 
2476	 0.226794065888007 
2477	 0.226609736111695 
2478	 0.226462862943285 
2479	 0.226318416761225 
2480	 0.226033550400173 
2481	 0.225663974749202 
2482	 0.225112061255228 
2483	 0.224550983979619 
2484	 0.224373855189552 
2485	 0.224240935447669 
2486	 0.224255831946268 
2487	 0.224305384591708 
2488	 0.223889721448316 
2489	 0.223413907331594 
2490	 0.223105810614008 
2491	 0.222885546745704 
2492	 0.222837177457449 
2493	 0.222861821361593 
2494	 0.222831102963611 
2495	 0.22256414652442 
2496	 0.222236500490219 
2497	 0.222085922873021 
2498	 0.221842202851423 
2499	 0.221489563558674 
2500	 0.221230030626769 
