Wavelength	mm2700001.asd
350	 6.21358468402394E-02 
351	 7.16562436034075E-02 
352	 6.57198124010221E-02 
353	 5.04789561368597E-02 
354	 5.69640586833275E-02 
355	 6.16151017746438E-02 
356	 6.15076021897604E-02 
357	 6.08567561739627E-02 
358	 6.91860220357454E-02 
359	 6.77698712975183E-02 
360	 6.11022188809697E-02 
361	 6.66739312438129E-02 
362	 6.76513789982583E-02 
363	 6.73115760028691E-02 
364	 6.72124783633869E-02 
365	 6.17791323524681E-02 
366	 0.062765382115352 
367	 6.58503574029289E-02 
368	 0.065041356450037 
369	 6.68268792657951E-02 
370	 6.76439984914292E-02 
371	 6.77223236968739E-02 
372	 6.97055080080698E-02 
373	 7.06428324223122E-02 
374	 7.26502584092408E-02 
375	 7.55394336370334E-02 
376	 0.073964992120843 
377	 7.29097672339536E-02 
378	 7.35947516487373E-02 
379	 7.56160340325483E-02 
380	 7.73296425332431E-02 
381	 7.66337762557584E-02 
382	 7.59385238425406E-02 
383	 8.01414300366613E-02 
384	 8.18236557186987E-02 
385	 7.95346308898146E-02 
386	 7.57592135513911E-02 
387	 7.86806233748798E-02 
388	 8.08727074684669E-02 
389	 8.07737277791057E-02 
390	 7.91289232013252E-02 
391	 7.77839954030723E-02 
392	 7.74502853677074E-02 
393	 7.87975608988906E-02 
394	 8.21996645714993E-02 
395	 8.31832242410645E-02 
396	 8.23382520588951E-02 
397	 8.15259078600632E-02 
398	 8.35479989613184E-02 
399	 8.42841739950498E-02 
400	 8.42844845312645E-02 
401	 8.51485746431474E-02 
402	 8.37124285664863E-02 
403	 8.28948770672282E-02 
404	 8.33968429907944E-02 
405	 8.33934599546558E-02 
406	 8.43664975251251E-02 
407	 0.08566509987983 
408	 8.60741656254848E-02 
409	 8.35261508547344E-02 
410	 8.31803907356104E-02 
411	 8.44490172074306E-02 
412	 8.43865811387492E-02 
413	 8.47593038944419E-02 
414	 8.49670595912861E-02 
415	 8.49672963906699E-02 
416	 8.56944882918068E-02 
417	 8.50040128449261E-02 
418	 8.48979685769022E-02 
419	 8.67107945777543E-02 
420	 8.61892167247814E-02 
421	 8.49942656511443E-02 
422	 8.44693524581377E-02 
423	 8.53937223272614E-02 
424	 8.56386137281632E-02 
425	 8.50995824837207E-02 
426	 8.44248335195746E-02 
427	 8.50848160163031E-02 
428	 8.60044016782421E-02 
429	 8.63524820450026E-02 
430	 8.57375136092332E-02 
431	 8.54510953094364E-02 
432	 8.50799403441701E-02 
433	 8.47114941851391E-02 
434	 8.49538485129154E-02 
435	 0.085209516243085 
436	 8.53649168509385E-02 
437	 8.53759685391933E-02 
438	 8.50200084364413E-02 
439	 8.51391412364365E-02 
440	 8.54446713193655E-02 
441	 8.52180013966671E-02 
442	 0.08530039171972 
443	 8.56187689828364E-02 
444	 8.58335307561738E-02 
445	 8.53283697290344E-02 
446	 8.51237943214142E-02 
447	 8.51468564784546E-02 
448	 0.085091682471559 
449	 0.085123781236466 
450	 8.53417687526674E-02 
451	 0.085638349855308 
452	 8.57418883289248E-02 
453	 8.55899940936235E-02 
454	 8.54012788928716E-02 
455	 0.085331040987968 
456	 8.52544274589527E-02 
457	 8.52000194509712E-02 
458	 8.51188317145667E-02 
459	 8.49759407937296E-02 
460	 8.51148639349757E-02 
461	 8.50609465376048E-02 
462	 8.47838991243951E-02 
463	 8.49688358611671E-02 
464	 8.50976483334866E-02 
465	 0.085049279875632 
466	 8.48717499382944E-02 
467	 8.47877771295751E-02 
468	 8.49185865625783E-02 
469	 8.50785792546532E-02 
470	 8.48937988571852E-02 
471	 8.51140887033378E-02 
472	 8.51236482307946E-02 
473	 8.46249866448289E-02 
474	 8.45906214374577E-02 
475	 8.46397794608595E-02 
476	 8.46862999376864E-02 
477	 8.47580077838982E-02 
478	 8.49199913122799E-02 
479	 8.47867616578623E-02 
480	 8.44130274677026E-02 
481	 8.44961126983466E-02 
482	 8.46395839341005E-02 
483	 8.47198148160428E-02 
484	 8.46994118891829E-02 
485	 8.45922729773879E-02 
486	 8.44896796327356E-02 
487	 0.084453589747939 
488	 8.45167332661985E-02 
489	 8.47400906638217E-02 
490	 8.48785933206338E-02 
491	 8.47989579901932E-02 
492	 8.47473906839412E-02 
493	 8.47261143964982E-02 
494	 8.46907130560269E-02 
495	 8.45992014038581E-02 
496	 8.46859499394206E-02 
497	 8.46769327924439E-02 
498	 0.084511660737706 
499	 8.45078491936328E-02 
500	 8.46222315370278E-02 
501	 8.46389089672513E-02 
502	 8.44331019727009E-02 
503	 8.45317610054826E-02 
504	 8.45874083651524E-02 
505	 8.45042885144194E-02 
506	 8.44427003620415E-02 
507	 0.084425205799706 
508	 8.44636071926348E-02 
509	 0.084522470829238 
510	 8.44468925687342E-02 
511	 8.44594064576129E-02 
512	 0.084502446755184 
513	 8.44053860726048E-02 
514	 8.44414089986174E-02 
515	 8.44830902617177E-02 
516	 8.44695061514745E-02 
517	 8.45386213851688E-02 
518	 8.44932752240467E-02 
519	 8.44409698375189E-02 
520	 8.45285971913568E-02 
521	 8.45571280993194E-02 
522	 8.45605808638902E-02 
523	 8.45696085496186E-02 
524	 8.45970123451676E-02 
525	 8.46544597670153E-02 
526	 8.46566313524319E-02 
527	 8.45806191606943E-02 
528	 8.46671287919546E-02 
529	 8.47544456308876E-02 
530	 8.47642225600955E-02 
531	 8.46884311167123E-02 
532	 0.084625027378621 
533	 8.46301257873066E-02 
534	 8.47074974653945E-02 
535	 8.47776847473633E-02 
536	 8.48590523224397E-02 
537	 8.49190221344075E-02 
538	 8.49269708989731E-02 
539	 8.49859199924153E-02 
540	 8.50306445560705E-02 
541	 8.50572531069321E-02 
542	 8.51623369100184E-02 
543	 8.51877767756226E-02 
544	 8.52226132165586E-02 
545	 8.53627270704172E-02 
546	 8.54596044480177E-02 
547	 8.54702968240436E-02 
548	 8.54627328643495E-02 
549	 8.55826296039635E-02 
550	 8.56469443765606E-02 
551	 0.08568230715244 
552	 8.57503244047508E-02 
553	 8.59119697806553E-02 
554	 8.60024673909172E-02 
555	 8.60752628816034E-02 
556	 8.62781196617008E-02 
557	 8.64672700076147E-02 
558	 8.66601714809637E-02 
559	 8.68874684940799E-02 
560	 0.087181286836106 
561	 8.73680559992306E-02 
562	 8.75260510632762E-02 
563	 8.77998521715201E-02 
564	 8.81690980424014E-02 
565	 8.84603167715564E-02 
566	 8.86371412530057E-02 
567	 8.88255947564991E-02 
568	 8.90941931072247E-02 
569	 8.94664339032579E-02 
570	 8.99223005288868E-02 
571	 9.03624690836067E-02 
572	 9.08504711899862E-02 
573	 9.13726468481484E-02 
574	 9.18634253766941E-02 
575	 0.09233345203795 
576	 9.28941823023497E-02 
577	 9.35749922351564E-02 
578	 9.42059525190468E-02 
579	 9.47543237743786E-02 
580	 9.52553889864802E-02 
581	 9.57804374351424E-02 
582	 9.63360125530976E-02 
583	 9.69604507658485E-02 
584	 9.76733607494264E-02 
585	 9.84698543798653E-02 
586	 9.93827478939801E-02 
587	 0.100357489224248 
588	 0.101330817710525 
589	 0.102337472723844 
590	 0.103317105612515 
591	 0.104264861551417 
592	 0.105228644592583 
593	 0.106146845677623 
594	 0.106979374374608 
595	 0.107714623446655 
596	 0.108386932040007 
597	 0.109098405244767 
598	 0.109823538622616 
599	 0.110492531268394 
600	 0.11131792186454 
601	 0.11217558901748 
602	 0.112983263894562 
603	 0.113808017886672 
604	 0.114644470786474 
605	 0.115475805647363 
606	 0.116285765414713 
607	 0.117095975625082 
608	 0.11789463211433 
609	 0.118661594259771 
610	 0.119371823928916 
611	 0.120048626414249 
612	 0.120668171605036 
613	 0.121199310699794 
614	 0.121614993367173 
615	 0.122072301464604 
616	 0.12259090883439 
617	 0.123083300507888 
618	 0.123477613277384 
619	 0.123857097826156 
620	 0.124268053093504 
621	 0.124615290716347 
622	 0.124997484100178 
623	 0.125376711184083 
624	 0.125678450313251 
625	 0.12597555349078 
626	 0.126263741618989 
627	 0.126553512600634 
628	 0.126882358096096 
629	 0.127188152228428 
630	 0.127458419626401 
631	 0.127711000002936 
632	 0.128025056652632 
633	 0.128264186577292 
634	 0.128454488406937 
635	 0.128748416697532 
636	 0.129032112624156 
637	 0.12929666090813 
638	 0.129544115256169 
639	 0.129754235758345 
640	 0.129983510059861 
641	 0.130237916984525 
642	 0.130498527228599 
643	 0.13077260401461 
644	 0.130999593116222 
645	 0.131195289083062 
646	 0.131494129456657 
647	 0.131762306187931 
648	 0.131998830089405 
649	 0.132252026962393 
650	 0.132609114721853 
651	 0.132925048007786 
652	 0.133174028860017 
653	 0.133442693781704 
654	 0.133791591510187 
655	 0.134109497840753 
656	 0.13435135285207 
657	 0.134722588254902 
658	 0.135078060876112 
659	 0.135410526765126 
660	 0.135768852134897 
661	 0.136107711377851 
662	 0.136462288153714 
663	 0.136845590282034 
664	 0.137229219563262 
665	 0.137579174278882 
666	 0.137897867706294 
667	 0.138224324799716 
668	 0.138691937588618 
669	 0.139150075292462 
670	 0.139561555629702 
671	 0.139987824757688 
672	 0.140381552741086 
673	 0.140819926134681 
674	 0.141338575369823 
675	 0.14183899769077 
676	 0.142261723899778 
677	 0.142687370484219 
678	 0.143226391306498 
679	 0.14368923492477 
680	 0.144175094686211 
681	 0.144726728904349 
682	 0.145282429144726 
683	 0.14581483618203 
684	 0.146343775739832 
685	 0.146894742380889 
686	 0.14745948010168 
687	 0.148040114403089 
688	 0.148595091609198 
689	 0.149070205292886 
690	 0.149646143012169 
691	 0.150274595871726 
692	 0.150895598061381 
693	 0.151499251119703 
694	 0.152099348335611 
695	 0.152700738139742 
696	 0.153301254697137 
697	 0.153868211164907 
698	 0.154475205015023 
699	 0.155145815195212 
700	 0.155841325626686 
701	 0.156461194794113 
702	 0.157060020522282 
703	 0.157691086907016 
704	 0.15830018387165 
705	 0.158899285837802 
706	 0.159518090519435 
707	 0.160178803804472 
708	 0.160762022767108 
709	 0.161385135458483 
710	 0.162070225642666 
711	 0.162668467573355 
712	 0.163286292818238 
713	 0.1639042437783 
714	 0.164493298726177 
715	 0.165121509617233 
716	 0.165724710026191 
717	 0.166294847887599 
718	 0.166867261573572 
719	 0.167451628027054 
720	 0.16799072987366 
721	 0.168472793460611 
722	 0.168992094657822 
723	 0.169532327820806 
724	 0.170038022529558 
725	 0.17046809421552 
726	 0.170933747598508 
727	 0.171374298830524 
728	 0.171775259984722 
729	 0.172171819372335 
730	 0.172557143150491 
731	 0.172936953972863 
732	 0.173305907268381 
733	 0.173629453733172 
734	 0.173928560432072 
735	 0.174190233699565 
736	 0.174404109410225 
737	 0.174661288538119 
738	 0.17488628321938 
739	 0.175059568709279 
740	 0.175234514034946 
741	 0.17536451291914 
742	 0.175475642078988 
743	 0.175587982678637 
744	 0.175667982129634 
745	 0.17568998244677 
746	 0.175689274452625 
747	 0.175721313365424 
748	 0.175757843200409 
749	 0.175711451920261 
750	 0.175603648343415 
751	 0.175587830692008 
752	 0.175510802465014 
753	 0.17535943952182 
754	 0.175175765371103 
755	 0.175060220613845 
756	 0.174949235108709 
757	 0.174783204842901 
758	 0.174532773027649 
759	 0.174367580173923 
760	 0.174163363468568 
761	 0.173880407497424 
762	 0.173618526140862 
763	 0.173365042081391 
764	 0.173085837922725 
765	 0.172763738127188 
766	 0.172442814489162 
767	 0.172166714015558 
768	 0.171890051922161 
769	 0.171539546174942 
770	 0.171201122248144 
771	 0.17090056150826 
772	 0.170607364491663 
773	 0.170234998139112 
774	 0.169848357643631 
775	 0.169476417191007 
776	 0.169120021695456 
777	 0.168722919926656 
778	 0.16834968190345 
779	 0.16800324509533 
780	 0.167652329368346 
781	 0.16725174282936 
782	 0.166864417769455 
783	 0.166501791895285 
784	 0.166115005798952 
785	 0.165738456927328 
786	 0.165363699378301 
787	 0.164980020654743 
788	 0.164582823180568 
789	 0.164263896912238 
790	 0.16391787675238 
791	 0.163436338695239 
792	 0.163109589826132 
793	 0.162802059802615 
794	 0.162436373849405 
795	 0.162014708082767 
796	 0.161613112004065 
797	 0.16129115019166 
798	 0.161030657659424 
799	 0.160685980103851 
800	 0.160327582044082 
801	 0.159965368294985 
802	 0.159608387418649 
803	 0.159328723298055 
804	 0.159034300109882 
805	 0.158703086011463 
806	 0.158365186108195 
807	 0.158047656196103 
808	 0.157735421276143 
809	 0.157426993373882 
810	 0.157143601287014 
811	 0.156856793797859 
812	 0.156557905848189 
813	 0.156269268249607 
814	 0.156090468958148 
815	 0.155876555619767 
816	 0.155597698017741 
817	 0.155290340115538 
818	 0.155034128835494 
819	 0.154840826722531 
820	 0.154643750737388 
821	 0.154336206240529 
822	 0.154105639530851 
823	 0.153898116897372 
824	 0.153671878947294 
825	 0.153464655071172 
826	 0.153330286918637 
827	 0.153204393329161 
828	 0.153017577913738 
829	 0.152796267471377 
830	 0.152560096523145 
831	 0.152363595327098 
832	 0.152248509320867 
833	 0.152095515010231 
834	 0.151930062813883 
835	 0.151783812585642 
836	 0.15168007642904 
837	 0.151598812184722 
838	 0.151498196899661 
839	 0.151357166733805 
840	 0.151193856325537 
841	 0.151052783292125 
842	 0.150950529992411 
843	 0.15088200164373 
844	 0.150812988491907 
845	 0.150747597277095 
846	 0.150671493434922 
847	 0.150584846434258 
848	 0.150613033860326 
849	 0.150604237780954 
850	 0.150520919703831 
851	 0.150439684836381 
852	 0.150371381941519 
853	 0.150353678397823 
854	 0.150378165949675 
855	 0.150370849630609 
856	 0.150375957405329 
857	 0.150418221580377 
858	 0.150485038613172 
859	 0.150479150294264 
860	 0.150496031054083 
861	 0.150510770120844 
862	 0.150478140673487 
863	 0.150448266134525 
864	 0.150519723575774 
865	 0.150641438155443 
866	 0.150686607810787 
867	 0.150715565578084 
868	 0.150794558720539 
869	 0.150903631056306 
870	 0.150947616566561 
871	 0.15105870156283 
872	 0.151179872785998 
873	 0.151277312795987 
874	 0.151404231309364 
875	 0.151536664140486 
876	 0.151644108016968 
877	 0.151723189778269 
878	 0.151837847880994 
879	 0.152019444470754 
880	 0.152214318454583 
881	 0.152360591017668 
882	 0.152505521433467 
883	 0.15267645757608 
884	 0.152860735765014 
885	 0.153026163695348 
886	 0.153171460006474 
887	 0.15338176355379 
888	 0.15362061723748 
889	 0.153769224265871 
890	 0.154011396339903 
891	 0.154277665758288 
892	 0.15452263346402 
893	 0.154771796822503 
894	 0.154981782663468 
895	 0.155230580437357 
896	 0.155540418570948 
897	 0.155795547971125 
898	 0.15605125518595 
899	 0.156333660982392 
900	 0.156638761553017 
901	 0.156899092220277 
902	 0.157207786353192 
903	 0.15750685662859 
904	 0.157748068883247 
905	 0.15811819509928 
906	 0.158532342783442 
907	 0.158916699565683 
908	 0.15924216849576 
909	 0.159657452984154 
910	 0.160038707095263 
911	 0.160367855257134 
912	 0.160700764991192 
913	 0.160997472630519 
914	 0.161413623159841 
915	 0.161894623120686 
916	 0.162225622199571 
917	 0.16263506245983 
918	 0.16307812511717 
919	 0.163506861004478 
920	 0.163914938062386 
921	 0.164376740898285 
922	 0.164828026236782 
923	 0.165260288717987 
924	 0.165775904030277 
925	 0.166288806472869 
926	 0.166777149951224 
927	 0.167232151758485 
928	 0.167642116490035 
929	 0.168121772517709 
930	 0.16867924104205 
931	 0.169257467077161 
932	 0.169732073431606 
933	 0.170244821674965 
934	 0.170840468821677 
935	 0.171477310398418 
936	 0.171960106906738 
937	 0.172506584586471 
938	 0.173062900920684 
939	 0.173567318871788 
940	 0.174261901413312 
941	 0.174922215370552 
942	 0.175516543670193 
943	 0.176104588250513 
944	 0.176757831780556 
945	 0.177333486571227 
946	 0.177895077499125 
947	 0.178560204456026 
948	 0.179229021184968 
949	 0.179885287128104 
950	 0.180553093660114 
951	 0.181266184285754 
952	 0.181997340578937 
953	 0.182682870191793 
954	 0.183344113718141 
955	 0.184050097713775 
956	 0.18483126131121 
957	 0.185583040447274 
958	 0.186220689827006 
959	 0.186753165039354 
960	 0.187550256755318 
961	 0.188299360977948 
962	 0.188960981575447 
963	 0.189677431792031 
964	 0.190337180154402 
965	 0.191152943970847 
966	 0.192015768900485 
967	 0.192673498140738 
968	 0.193463393881683 
969	 0.194245875829933 
970	 0.194944875472607 
971	 0.195586421744548 
972	 0.196372413347032 
973	 0.19717596063194 
974	 0.197944885532504 
975	 0.198701808650804 
976	 0.199477453145774 
977	 0.200227653290023 
978	 0.200993630579285 
979	 0.201850689919974 
980	 0.202737603913199 
981	 0.203547246448412 
982	 0.204234888683132 
983	 0.204839000080938 
984	 0.20553448388319 
985	 0.206311353979546 
986	 0.207141968002115 
987	 0.207998575702226 
988	 0.208925459823346 
989	 0.209549495447655 
990	 0.210121256763445 
991	 0.211043103243577 
992	 0.21180723153227 
993	 0.212500473081114 
994	 0.213239694985095 
995	 0.214062819987579 
996	 0.214674639443471 
997	 0.215415009330858 
998	 0.216184149228219 
999	 0.216823489999524 
1000	 0.217642567516042 
1001	 0.215517027168323 
1002	 0.216187880933046 
1003	 0.216760806758365 
1004	 0.217351873641824 
1005	 0.217952622705636 
1006	 0.218564912431712 
1007	 0.219163921704987 
1008	 0.219763738469692 
1009	 0.220409010890091 
1010	 0.221023828904389 
1011	 0.221594554179777 
1012	 0.222194754900207 
1013	 0.222732234788601 
1014	 0.223303155480557 
1015	 0.223886347551262 
1016	 0.224385810092938 
1017	 0.224890676172892 
1018	 0.225384431906078 
1019	 0.225882105568823 
1020	 0.22634925634121 
1021	 0.226814598730639 
1022	 0.227351487522448 
1023	 0.227845686804103 
1024	 0.228301528559711 
1025	 0.228796935602632 
1026	 0.229216294539298 
1027	 0.22956966336335 
1028	 0.22995603959018 
1029	 0.230345392114793 
1030	 0.230735657059725 
1031	 0.231145547912383 
1032	 0.231601503579263 
1033	 0.232002991541744 
1034	 0.232356281788467 
1035	 0.232754313897688 
1036	 0.233173118774538 
1037	 0.233585472057376 
1038	 0.233985392874329 
1039	 0.234381158160642 
1040	 0.234736623279028 
1041	 0.235084427314034 
1042	 0.235482295618989 
1043	 0.235865294999844 
1044	 0.236241344249393 
1045	 0.23659914134124 
1046	 0.236967360393162 
1047	 0.23735619418249 
1048	 0.237751361328817 
1049	 0.238118284256397 
1050	 0.238492778795189 
1051	 0.23885768282612 
1052	 0.239220247170807 
1053	 0.239632117742099 
1054	 0.240012660513929 
1055	 0.240379753892385 
1056	 0.24080643237076 
1057	 0.241180506790504 
1058	 0.241512149056804 
1059	 0.241869453140977 
1060	 0.242245484271414 
1061	 0.242537351286589 
1062	 0.242850870112802 
1063	 0.243239749436632 
1064	 0.243599055307906 
1065	 0.243899888873818 
1066	 0.244225935103348 
1067	 0.244546055032533 
1068	 0.244864151342607 
1069	 0.245214850955811 
1070	 0.245575617227999 
1071	 0.246009739855106 
1072	 0.246355323196442 
1073	 0.246648581124015 
1074	 0.246965356562111 
1075	 0.247296067327257 
1076	 0.247500319903834 
1077	 0.247722353882804 
1078	 0.247986133030289 
1079	 0.248254628723762 
1080	 0.248543130645182 
1081	 0.248843535712441 
1082	 0.249189857237394 
1083	 0.24947820835564 
1084	 0.249712215172915 
1085	 0.249959316741087 
1086	 0.250197814863368 
1087	 0.250428557658389 
1088	 0.250635616235053 
1089	 0.250871180432458 
1090	 0.251142218647156 
1091	 0.251388582293731 
1092	 0.251586615108075 
1093	 0.251778984891143 
1094	 0.251985085376 
1095	 0.252185297321396 
1096	 0.252389715231225 
1097	 0.252609690168415 
1098	 0.25282823707059 
1099	 0.253013706674266 
1100	 0.253229800623629 
1101	 0.25349930152755 
1102	 0.253724096159831 
1103	 0.253934367945984 
1104	 0.254131866177914 
1105	 0.254318250192792 
1106	 0.254483811755277 
1107	 0.254660136614729 
1108	 0.254838736659842 
1109	 0.255034216373856 
1110	 0.255251215362603 
1111	 0.255441415533643 
1112	 0.255640092342643 
1113	 0.255804444609183 
1114	 0.25592233416171 
1115	 0.256074817587041 
1116	 0.256221701151646 
1117	 0.2563973324916 
1118	 0.256602945482263 
1119	 0.256793995383527 
1120	 0.257008966423787 
1121	 0.257192872524556 
1122	 0.257355142125208 
1123	 0.257534026250992 
1124	 0.257693477657769 
1125	 0.257831572043149 
1126	 0.257976739980459 
1127	 0.258117827000368 
1128	 0.25826647812814 
1129	 0.258403855783252 
1130	 0.258568738720097 
1131	 0.258772323255192 
1132	 0.258930338266537 
1133	 0.259069214586066 
1134	 0.259231425150695 
1135	 0.259382580768431 
1136	 0.259521690912426 
1137	 0.259736180764049 
1138	 0.25990964744739 
1139	 0.260049460621748 
1140	 0.26016381802677 
1141	 0.260289269621294 
1142	 0.260381776665753 
1143	 0.260490875056389 
1144	 0.260609922916802 
1145	 0.260728139995626 
1146	 0.26083753762322 
1147	 0.260957308815357 
1148	 0.261093685865588 
1149	 0.261221947016079 
1150	 0.261352474538811 
1151	 0.261476207599713 
1152	 0.261579286090473 
1153	 0.261684890233955 
1154	 0.261793715257514 
1155	 0.261887136597643 
1156	 0.261999230751667 
1157	 0.26212953502147 
1158	 0.26225044196919 
1159	 0.262387269841534 
1160	 0.262488619796265 
1161	 0.262560072776058 
1162	 0.262654940847902 
1163	 0.262734772281269 
1164	 0.262826709191421 
1165	 0.262933312238105 
1166	 0.263059417853784 
1167	 0.263156804710251 
1168	 0.263261054344086 
1169	 0.26335860152585 
1170	 0.263453893241368 
1171	 0.263545418523362 
1172	 0.263630394792135 
1173	 0.263720311471589 
1174	 0.263818283008647 
1175	 0.263902426897058 
1176	 0.263979758331322 
1177	 0.26405872044434 
1178	 0.264121226202287 
1179	 0.264198150336636 
1180	 0.26429187448199 
1181	 0.264373775614379 
1182	 0.264438143257501 
1183	 0.264537908636756 
1184	 0.264617809130584 
1185	 0.264691293265646 
1186	 0.264764058502852 
1187	 0.264835569439254 
1188	 0.264908175355568 
1189	 0.264962917465725 
1190	 0.265051661417162 
1191	 0.265168824891243 
1192	 0.265265743815712 
1193	 0.265377924228409 
1194	 0.265475301753435 
1195	 0.265558740690911 
1196	 0.265635324473835 
1197	 0.265703223215722 
1198	 0.265773740953183 
1199	 0.265840587185108 
1200	 0.265888614757125 
1201	 0.265966860259566 
1202	 0.266064590614971 
1203	 0.266146257516392 
1204	 0.266235903898013 
1205	 0.266315580403227 
1206	 0.266379483184342 
1207	 0.266455644538811 
1208	 0.26654425341265 
1209	 0.26661730351553 
1210	 0.266689943742236 
1211	 0.266753054982553 
1212	 0.266796202125823 
1213	 0.266849335839295 
1214	 0.266893128622709 
1215	 0.266952358073836 
1216	 0.267020245170029 
1217	 0.267107174050659 
1218	 0.267165355979431 
1219	 0.267223002713359 
1220	 0.267275272697936 
1221	 0.26730716577276 
1222	 0.26734886581496 
1223	 0.267392913240378 
1224	 0.267443255549029 
1225	 0.267489807595966 
1226	 0.267543901473229 
1227	 0.267620125703063 
1228	 0.267678172494949 
1229	 0.267715541077154 
1230	 0.267773225958786 
1231	 0.267836977005152 
1232	 0.267898875017477 
1233	 0.267965876117466 
1234	 0.268053580314447 
1235	 0.268115870666079 
1236	 0.268168127993789 
1237	 0.268217026263018 
1238	 0.268256796967334 
1239	 0.268298144446916 
1240	 0.26833105244393 
1241	 0.268371061472832 
1242	 0.268418118256626 
1243	 0.268456026449311 
1244	 0.268492974356102 
1245	 0.268525791849098 
1246	 0.268543010653855 
1247	 0.268573693439288 
1248	 0.268609137302063 
1249	 0.268647732370398 
1250	 0.268698117954899 
1251	 0.268744884325549 
1252	 0.268787142683416 
1253	 0.26883133157206 
1254	 0.268867309205422 
1255	 0.268904849790393 
1256	 0.268919458223134 
1257	 0.268914947006558 
1258	 0.26891722726927 
1259	 0.268897269836874 
1260	 0.268897238646597 
1261	 0.268917688830227 
1262	 0.268923440449694 
1263	 0.268921006966986 
1264	 0.268929446466357 
1265	 0.268928604657138 
1266	 0.26894282996092 
1267	 0.268972499398038 
1268	 0.269011685806095 
1269	 0.269040577281671 
1270	 0.269068027931584 
1271	 0.269106659725062 
1272	 0.269138187876042 
1273	 0.269191651759139 
1274	 0.269266158011011 
1275	 0.269336403886666 
1276	 0.269410117876231 
1277	 0.269496779999292 
1278	 0.269587872299992 
1279	 0.269690824807546 
1280	 0.26981393795185 
1281	 0.269930630545311 
1282	 0.270054098761411 
1283	 0.270173918467781 
1284	 0.27028718469344 
1285	 0.270413953547317 
1286	 0.270535544022584 
1287	 0.270646462677983 
1288	 0.270752064397981 
1289	 0.270848440730255 
1290	 0.270949967097437 
1291	 0.271045914725406 
1292	 0.271147794567771 
1293	 0.271263312688938 
1294	 0.271357351507955 
1295	 0.271448357355492 
1296	 0.271522259927714 
1297	 0.271576910664858 
1298	 0.271631087223751 
1299	 0.271674265077943 
1300	 0.271716236590425 
1301	 0.271759137882396 
1302	 0.271788138428266 
1303	 0.271796831493083 
1304	 0.271821799503943 
1305	 0.271840924144159 
1306	 0.271845402685409 
1307	 0.271868009274994 
1308	 0.271860022224352 
1309	 0.271836528836357 
1310	 0.271790745971311 
1311	 0.271750636254769 
1312	 0.271693358848106 
1313	 0.271638710346165 
1314	 0.271586547284091 
1315	 0.271529071661255 
1316	 0.271452166867157 
1317	 0.271401284190255 
1318	 0.271365232109831 
1319	 0.271321575757691 
1320	 0.271291248406205 
1321	 0.271251370612609 
1322	 0.271204849683287 
1323	 0.271153220917089 
1324	 0.271106425124639 
1325	 0.271060601973087 
1326	 0.271015788602992 
1327	 0.270971240108533 
1328	 0.270916444377117 
1329	 0.270858069020515 
1330	 0.270801190855217 
1331	 0.270742590497239 
1332	 0.27067672326796 
1333	 0.270613382157071 
1334	 0.270542474163225 
1335	 0.27044572613876 
1336	 0.270380506386298 
1337	 0.270328043874632 
1338	 0.270274643142266 
1339	 0.270245444680574 
1340	 0.270196899661157 
1341	 0.270138505236947 
1342	 0.270080019798896 
1343	 0.270012150249989 
1344	 0.269947262777857 
1345	 0.269894888159509 
1346	 0.269852093590703 
1347	 0.269814132408456 
1348	 0.269783923211437 
1349	 0.269736065967677 
1350	 0.269669322709071 
1351	 0.26961241253798 
1352	 0.269557239063329 
1353	 0.269483292610588 
1354	 0.269403281822057 
1355	 0.269322175820971 
1356	 0.269215365902859 
1357	 0.269133791852861 
1358	 0.269068231173054 
1359	 0.268997338734407 
1360	 0.268914603187587 
1361	 0.26886431034227 
1362	 0.268845249173812 
1363	 0.268804844660942 
1364	 0.268767300880443 
1365	 0.268736105547687 
1366	 0.268690240014795 
1367	 0.268653030156812 
1368	 0.268645257426494 
1369	 0.268649534909546 
1370	 0.268633831593335 
1371	 0.268610182811994 
1372	 0.268562781647968 
1373	 0.268503991715738 
1374	 0.268435720865288 
1375	 0.268346464465694 
1376	 0.268263786270858 
1377	 0.268187619019852 
1378	 0.268083062156056 
1379	 0.267963657140958 
1380	 0.267843458159152 
1381	 0.267680245072593 
1382	 0.267562977823672 
1383	 0.267477384133216 
1384	 0.267379361661095 
1385	 0.267314461988144 
1386	 0.267212374618395 
1387	 0.267093178322719 
1388	 0.266956646807612 
1389	 0.266795567192646 
1390	 0.266628318775266 
1391	 0.266465843510112 
1392	 0.266278854562575 
1393	 0.266057650566719 
1394	 0.265832772829599 
1395	 0.265588440626593 
1396	 0.265331468805974 
1397	 0.265102498588008 
1398	 0.264896355542927 
1399	 0.26467265767201 
1400	 0.264461671006405 
1401	 0.264226213700294 
1402	 0.263966307637194 
1403	 0.263732583336334 
1404	 0.263483576947684 
1405	 0.263266107527517 
1406	 0.263085860977957 
1407	 0.26288320311737 
1408	 0.262681797572895 
1409	 0.26248859863408 
1410	 0.262283948274915 
1411	 0.262097596213436 
1412	 0.261916728809676 
1413	 0.261754136584483 
1414	 0.261634861684075 
1415	 0.261536003270549 
1416	 0.261454998159252 
1417	 0.261385200884854 
1418	 0.26128135047433 
1419	 0.261174121449247 
1420	 0.261087122432428 
1421	 0.26100468188661 
1422	 0.260958093211297 
1423	 0.260906583547177 
1424	 0.260841598198243 
1425	 0.260781383131227 
1426	 0.260707943333113 
1427	 0.260595441190203 
1428	 0.260542787288112 
1429	 0.260509512386112 
1430	 0.260481877709722 
1431	 0.260496262987189 
1432	 0.260482543889726 
1433	 0.260459696734038 
1434	 0.260444172414018 
1435	 0.260413736406612 
1436	 0.260408272414476 
1437	 0.26041703789982 
1438	 0.260427090540306 
1439	 0.260454753213113 
1440	 0.26048253874328 
1441	 0.260490899661516 
1442	 0.260496011255844 
1443	 0.260499764574305 
1444	 0.260507922621401 
1445	 0.260537008459408 
1446	 0.260566193043365 
1447	 0.260597173842976 
1448	 0.260632642765696 
1449	 0.260636976420708 
1450	 0.260637461781024 
1451	 0.260637354784645 
1452	 0.260607639619588 
1453	 0.260622262673878 
1454	 0.260658358904228 
1455	 0.260693932767036 
1456	 0.260759874275136 
1457	 0.260799359444222 
1458	 0.26082924993576 
1459	 0.2608584368324 
1460	 0.260862450995201 
1461	 0.260903220462895 
1462	 0.260963775133379 
1463	 0.261020354138156 
1464	 0.261112744965982 
1465	 0.261167511594569 
1466	 0.261193282988728 
1467	 0.261230790791698 
1468	 0.261241044299343 
1469	 0.261283726642509 
1470	 0.26134535994404 
1471	 0.261416775536574 
1472	 0.261505337192805 
1473	 0.261594809840517 
1474	 0.261651469528567 
1475	 0.261704064282703 
1476	 0.261742916400123 
1477	 0.261777867074933 
1478	 0.261827754246199 
1479	 0.261884977225688 
1480	 0.261968542142594 
1481	 0.262046428015833 
1482	 0.262116568629625 
1483	 0.262196049822679 
1484	 0.262257803927292 
1485	 0.262294558641844 
1486	 0.26235744838823 
1487	 0.262427672337409 
1488	 0.262505167331267 
1489	 0.262600577241298 
1490	 0.262670843273029 
1491	 0.26273713774272 
1492	 0.262792775164324 
1493	 0.262824989388493 
1494	 0.262880152904124 
1495	 0.262941939754613 
1496	 0.263000116453971 
1497	 0.263065704839905 
1498	 0.263127874927125 
1499	 0.263195407451182 
1500	 0.263247354059524 
1501	 0.26328734243759 
1502	 0.263333320341612 
1503	 0.263365502663823 
1504	 0.263405327881688 
1505	 0.26347404122783 
1506	 0.263534861783438 
1507	 0.263587970351604 
1508	 0.263627556438483 
1509	 0.263653779119301 
1510	 0.26368605020812 
1511	 0.263701485628223 
1512	 0.26372668473352 
1513	 0.263769380378208 
1514	 0.263806608278705 
1515	 0.263870074901678 
1516	 0.263941643650392 
1517	 0.263987548449676 
1518	 0.264015073200746 
1519	 0.264058824840775 
1520	 0.264100505959975 
1521	 0.264135664586893 
1522	 0.26417237353049 
1523	 0.264209231110136 
1524	 0.26423207204548 
1525	 0.264268250005963 
1526	 0.264329076213262 
1527	 0.264367161807825 
1528	 0.264384564113168 
1529	 0.264422270597616 
1530	 0.264463008079354 
1531	 0.264500576293227 
1532	 0.264555140874441 
1533	 0.264594311731337 
1534	 0.26462480898216 
1535	 0.264644792618105 
1536	 0.264646110527902 
1537	 0.264663483240857 
1538	 0.264676191861811 
1539	 0.264697342571283 
1540	 0.264736735187091 
1541	 0.264770877478524 
1542	 0.264807143144583 
1543	 0.264833627827046 
1544	 0.264863095346335 
1545	 0.264881235854826 
1546	 0.264884869548198 
1547	 0.264882087507078 
1548	 0.264897869504833 
1549	 0.264913485358547 
1550	 0.264930410887626 
1551	 0.264955639391111 
1552	 0.264993036047144 
1553	 0.26503078523647 
1554	 0.265083028669875 
1555	 0.265135292900285 
1556	 0.26513128983214 
1557	 0.26512855432854 
1558	 0.265149168695388 
1559	 0.265158350531235 
1560	 0.265181490914034 
1561	 0.265238732916204 
1562	 0.26526306954662 
1563	 0.265266484096357 
1564	 0.26528558281402 
1565	 0.265311485005872 
1566	 0.265323807498101 
1567	 0.265336763173485 
1568	 0.265333722497611 
1569	 0.26530691626787 
1570	 0.265303819073841 
1571	 0.265308539820211 
1572	 0.265303867735176 
1573	 0.265302571373991 
1574	 0.265302443768838 
1575	 0.265288928434582 
1576	 0.265288231215409 
1577	 0.265303369069841 
1578	 0.26531332430415 
1579	 0.265315260188031 
1580	 0.265332152301635 
1581	 0.265360668590949 
1582	 0.265387862214595 
1583	 0.265431473519643 
1584	 0.265454924110141 
1585	 0.265473571092743 
1586	 0.265480032289992 
1587	 0.265473616857262 
1588	 0.265462612600389 
1589	 0.265431830776093 
1590	 0.265415115037486 
1591	 0.265395349125684 
1592	 0.265383431123786 
1593	 0.265386582216089 
1594	 0.265385346265259 
1595	 0.265374874816141 
1596	 0.265379929103062 
1597	 0.265406670181332 
1598	 0.265411716696778 
1599	 0.265426727743907 
1600	 0.265422807988541 
1601	 0.265375269788872 
1602	 0.265356183318577 
1603	 0.265327904364152 
1604	 0.265327712002467 
1605	 0.265372007671276 
1606	 0.265397676107821 
1607	 0.265435828765381 
1608	 0.265468085942515 
1609	 0.26546701170103 
1610	 0.265450686684116 
1611	 0.265424947856256 
1612	 0.265409811190395 
1613	 0.265415113123608 
1614	 0.265415036823892 
1615	 0.26539991714784 
1616	 0.265382064242335 
1617	 0.26537464752292 
1618	 0.265368612607217 
1619	 0.265373746216543 
1620	 0.265396488823199 
1621	 0.265411379710887 
1622	 0.265421610560494 
1623	 0.265428724588727 
1624	 0.265444261069598 
1625	 0.265442499531683 
1626	 0.265418396939145 
1627	 0.265421311091656 
1628	 0.265425325884999 
1629	 0.265448391406748 
1630	 0.265497758567685 
1631	 0.265522863250746 
1632	 0.265550410352314 
1633	 0.265568383226394 
1634	 0.265572324081827 
1635	 0.265578639701717 
1636	 0.26558603347067 
1637	 0.26558791527472 
1638	 0.265578482247606 
1639	 0.265582919165774 
1640	 0.265588542261508 
1641	 0.265602049522465 
1642	 0.265625379927584 
1643	 0.265645256179215 
1644	 0.265671883086381 
1645	 0.265689729039998 
1646	 0.265710077725786 
1647	 0.26571513473633 
1648	 0.265713395693525 
1649	 0.265698203184251 
1650	 0.265659426724066 
1651	 0.265642035163965 
1652	 0.265616294618412 
1653	 0.265613596964833 
1654	 0.265646263939532 
1655	 0.265638937016276 
1656	 0.265626432987966 
1657	 0.265603437181963 
1658	 0.265548579134097 
1659	 0.265515777320882 
1660	 0.265494280539852 
1661	 0.265462225969755 
1662	 0.265416487320551 
1663	 0.265399138156055 
1664	 0.26539059366931 
1665	 0.265385629626873 
1666	 0.265397382723607 
1667	 0.265416109715824 
1668	 0.265436095022859 
1669	 0.26546300055877 
1670	 0.265524083051223 
1671	 0.265544240327333 
1672	 0.265545798034949 
1673	 0.265543357908266 
1674	 0.265518615539034 
1675	 0.265502235836156 
1676	 0.265480730806226 
1677	 0.265468306353343 
1678	 0.265451988941823 
1679	 0.265450514418632 
1680	 0.265461951458788 
1681	 0.265475143366832 
1682	 0.265497337501693 
1683	 0.26551999904585 
1684	 0.265548839629028 
1685	 0.265573154085535 
1686	 0.265617992309197 
1687	 0.265617466519523 
1688	 0.265592822540958 
1689	 0.265563935196197 
1690	 0.265487857841297 
1691	 0.265454029737006 
1692	 0.265427863942501 
1693	 0.265426115910103 
1694	 0.265462268895938 
1695	 0.265472509041628 
1696	 0.26548962863452 
1697	 0.265500136059729 
1698	 0.265499549718776 
1699	 0.265493956494878 
1700	 0.265493835234665 
1701	 0.265475938948664 
1702	 0.265429405577359 
1703	 0.265407434713106 
1704	 0.265393867377804 
1705	 0.265373798417805 
1706	 0.265353863420818 
1707	 0.265343229258549 
1708	 0.265331252270236 
1709	 0.265325125395947 
1710	 0.265350259547738 
1711	 0.265332291357846 
1712	 0.265285458609376 
1713	 0.265252552595466 
1714	 0.265190828772192 
1715	 0.265169464876585 
1716	 0.265192248384248 
1717	 0.265168734163048 
1718	 0.265137116601274 
1719	 0.265106875304034 
1720	 0.26505089727856 
1721	 0.265008693279044 
1722	 0.264982341364951 
1723	 0.264949176203094 
1724	 0.264898871228014 
1725	 0.264871201524665 
1726	 0.264861320831742 
1727	 0.264844326404565 
1728	 0.264835325698404 
1729	 0.264816848747742 
1730	 0.264797546431185 
1731	 0.264768873513278 
1732	 0.264734027420363 
1733	 0.264695606192085 
1734	 0.26464477481461 
1735	 0.264600966619537 
1736	 0.264553096880306 
1737	 0.264521833999906 
1738	 0.264508504514986 
1739	 0.264470815341354 
1740	 0.264427861865496 
1741	 0.264387511714355 
1742	 0.264342959417239 
1743	 0.264284750490536 
1744	 0.264225242374288 
1745	 0.264162811301165 
1746	 0.26406770776996 
1747	 0.263983851890503 
1748	 0.263968273229345 
1749	 0.26397178337401 
1750	 0.263954787405398 
1751	 0.263938039123674 
1752	 0.263896532541224 
1753	 0.263797577145717 
1754	 0.263721829092389 
1755	 0.263695995692852 
1756	 0.263646566773671 
1757	 0.263581310472297 
1758	 0.263546722617806 
1759	 0.263487316465536 
1760	 0.263432808270322 
1761	 0.263424377377617 
1762	 0.263384076513854 
1763	 0.263323383044542 
1764	 0.263282188098186 
1765	 0.263231355504619 
1766	 0.263173603061365 
1767	 0.26313618113521 
1768	 0.263085905801583 
1769	 0.263040123544381 
1770	 0.263033280362883 
1771	 0.263022777481355 
1772	 0.262993480095822 
1773	 0.262938773386066 
1774	 0.262869681153811 
1775	 0.2628168659665 
1776	 0.262760029199451 
1777	 0.262734982840623 
1778	 0.262737410014375 
1779	 0.262690564115599 
1780	 0.262675160239068 
1781	 0.262652117970346 
1782	 0.262595794073115 
1783	 0.262642682300093 
1784	 0.262651113191192 
1785	 0.262688082103878 
1786	 0.262709845772036 
1787	 0.262703432753041 
1788	 0.262672513678225 
1789	 0.262614990478851 
1790	 0.262588484129248 
1791	 0.262536990757943 
1792	 0.262525506292626 
1793	 0.262573480480515 
1794	 0.262579870548249 
1795	 0.262581507129822 
1796	 0.262573586181452 
1797	 0.262559623320718 
1798	 0.262530406415679 
1799	 0.262467836821946 
1800	 0.262441079890517 
1801	 0.257912839900302 
1802	 0.258115408360979 
1803	 0.258302768136117 
1804	 0.258528797640232 
1805	 0.258799722529889 
1806	 0.259087732679863 
1807	 0.259351388845258 
1808	 0.259600776252126 
1809	 0.259893728279178 
1810	 0.260092516091462 
1811	 0.260220070898171 
1812	 0.260369656014769 
1813	 0.260497192147833 
1814	 0.260561169643667 
1815	 0.260618217343679 
1816	 0.260665165255833 
1817	 0.260695119596978 
1818	 0.260670590010192 
1819	 0.260699027504503 
1820	 0.260738041397558 
1821	 0.260788877121945 
1822	 0.260848287589701 
1823	 0.260907912200671 
1824	 0.260983455033134 
1825	 0.261020757817382 
1826	 0.261071206059898 
1827	 0.261137027320887 
1828	 0.261175414667613 
1829	 0.261207525800702 
1830	 0.26122101068162 
1831	 0.261212847186237 
1832	 0.261188376210471 
1833	 0.261183762790092 
1834	 0.261191965240633 
1835	 0.261207906353223 
1836	 0.261262452363989 
1837	 0.261312679274567 
1838	 0.26134789134096 
1839	 0.261404920798954 
1840	 0.261497467479609 
1841	 0.261545981868632 
1842	 0.261571673886527 
1843	 0.261627111370566 
1844	 0.261644940942659 
1845	 0.261660337140289 
1846	 0.261674309551228 
1847	 0.261680046939431 
1848	 0.261703235457891 
1849	 0.26172194455488 
1850	 0.261746797954798 
1851	 0.261794805938244 
1852	 0.261820468963184 
1853	 0.261829233048027 
1854	 0.261840551263374 
1855	 0.261837452640606 
1856	 0.261851931282268 
1857	 0.261845201413052 
1858	 0.261805915327018 
1859	 0.261749486466072 
1860	 0.261665090414342 
1861	 0.261542978086838 
1862	 0.261404343080785 
1863	 0.261276374243182 
1864	 0.261125643999319 
1865	 0.260969678058776 
1866	 0.260821380879693 
1867	 0.260651269049076 
1868	 0.260467329493195 
1869	 0.260275000003489 
1870	 0.260073647107745 
1871	 0.2598647388099 
1872	 0.259647651291561 
1873	 0.2594251394193 
1874	 0.259190523752537 
1875	 0.258953225208459 
1876	 0.258695417922581 
1877	 0.258410837004109 
1878	 0.25808606027637 
1879	 0.257721667649253 
1880	 0.257323245079196 
1881	 0.25688175338474 
1882	 0.256402121078091 
1883	 0.255890378635238 
1884	 0.255342349036395 
1885	 0.254750536319814 
1886	 0.254127472440781 
1887	 0.253461188837607 
1888	 0.252742953668705 
1889	 0.251979529127634 
1890	 0.251184026572727 
1891	 0.250376381217518 
1892	 0.249544668234273 
1893	 0.248689668624115 
1894	 0.247807609339944 
1895	 0.24691379912941 
1896	 0.246003673272818 
1897	 0.245093373922886 
1898	 0.24417472035057 
1899	 0.243285425023133 
1900	 0.242403750430177 
1901	 0.241524842551887 
1902	 0.240690357870076 
1903	 0.239892040520997 
1904	 0.239112268998258 
1905	 0.238348490394681 
1906	 0.237643434332317 
1907	 0.236960985526405 
1908	 0.236315300668588 
1909	 0.235721491035891 
1910	 0.235142364268549 
1911	 0.234588297890432 
1912	 0.234070764748666 
1913	 0.233585105826839 
1914	 0.233138913047885 
1915	 0.232701585376658 
1916	 0.232295035846343 
1917	 0.231903105225976 
1918	 0.23151684038557 
1919	 0.231149065245489 
1920	 0.230815709270414 
1921	 0.23052008778191 
1922	 0.230254374874333 
1923	 0.230022601408216 
1924	 0.229829001257108 
1925	 0.229678953582689 
1926	 0.22954942638018 
1927	 0.229449105814361 
1928	 0.22939001611446 
1929	 0.229338708652446 
1930	 0.229303279432517 
1931	 0.229298765710559 
1932	 0.229284489941346 
1933	 0.229278265745546 
1934	 0.229291825313797 
1935	 0.229306723208787 
1936	 0.229307031886335 
1937	 0.229347195364893 
1938	 0.229419416473785 
1939	 0.22949003640199 
1940	 0.22956905220029 
1941	 0.229675534178673 
1942	 0.229798175637165 
1943	 0.229902698861421 
1944	 0.230026070877303 
1945	 0.230164474057451 
1946	 0.230298341474349 
1947	 0.230420935621634 
1948	 0.230565504775293 
1949	 0.230720705284657 
1950	 0.230882618317489 
1951	 0.231049409809238 
1952	 0.231235733190508 
1953	 0.231419368720595 
1954	 0.231633386772619 
1955	 0.231865975578321 
1956	 0.232095504319135 
1957	 0.23234902764007 
1958	 0.232625923510277 
1959	 0.232907789045524 
1960	 0.233215159517329 
1961	 0.233505104275541 
1962	 0.23381072655321 
1963	 0.234092613869206 
1964	 0.234337734354504 
1965	 0.234612503428744 
1966	 0.234904618696161 
1967	 0.235191892560108 
1968	 0.235486104220204 
1969	 0.235808285169033 
1970	 0.236107572627479 
1971	 0.236390054325716 
1972	 0.236675109955939 
1973	 0.236962258419698 
1974	 0.237247835070939 
1975	 0.237515552269379 
1976	 0.237817183669965 
1977	 0.238123989951285 
1978	 0.238378685626042 
1979	 0.238631420398095 
1980	 0.238906195168406 
1981	 0.239170844067495 
1982	 0.239422777063092 
1983	 0.239694949069778 
1984	 0.239967336712053 
1985	 0.240254597667413 
1986	 0.240570355966249 
1987	 0.240867598151306 
1988	 0.241173839615039 
1989	 0.241473269085 
1990	 0.241733285402645 
1991	 0.241996562610629 
1992	 0.242262319187639 
1993	 0.242510484001117 
1994	 0.242784636288891 
1995	 0.243078540871248 
1996	 0.243357586423656 
1997	 0.243648992971446 
1998	 0.243923997747561 
1999	 0.244187052674853 
2000	 0.244450018830408 
2001	 0.244704628814943 
2002	 0.244955252411484 
2003	 0.245227671849381 
2004	 0.24548730637083 
2005	 0.245740845760818 
2006	 0.246008458890826 
2007	 0.24624602855546 
2008	 0.246440702132341 
2009	 0.246671216528655 
2010	 0.246907881239721 
2011	 0.247141137383827 
2012	 0.247393105859998 
2013	 0.247635583402174 
2014	 0.247875049650009 
2015	 0.24809327276027 
2016	 0.248332820903814 
2017	 0.248573899894593 
2018	 0.248819043920532 
2019	 0.249067171305301 
2020	 0.249325768066248 
2021	 0.249610601058321 
2022	 0.249858588842913 
2023	 0.250081753612556 
2024	 0.250326529682447 
2025	 0.250560734451505 
2026	 0.250799367223334 
2027	 0.251064069221198 
2028	 0.251329744505393 
2029	 0.251549487796518 
2030	 0.25173226772756 
2031	 0.251936454135658 
2032	 0.252118292133132 
2033	 0.252318515203888 
2034	 0.252540603720183 
2035	 0.25274167416939 
2036	 0.252931352359183 
2037	 0.253127698999024 
2038	 0.253334902797684 
2039	 0.253518032896248 
2040	 0.253687489850138 
2041	 0.253855266784876 
2042	 0.254009097182947 
2043	 0.254172093539987 
2044	 0.254344302305941 
2045	 0.254537186737231 
2046	 0.254712433766154 
2047	 0.254892577350561 
2048	 0.255053293072344 
2049	 0.255205360235314 
2050	 0.255348110802184 
2051	 0.255468431526846 
2052	 0.255597731535102 
2053	 0.255731605883719 
2054	 0.255852911354698 
2055	 0.255961482010909 
2056	 0.256079607494507 
2057	 0.256194514568603 
2058	 0.256292836039609 
2059	 0.256413425083358 
2060	 0.256548055940791 
2061	 0.256680029906452 
2062	 0.25683225091929 
2063	 0.25695766910173 
2064	 0.257068061381331 
2065	 0.257185951180596 
2066	 0.257279403701547 
2067	 0.257394718237372 
2068	 0.257519450579331 
2069	 0.25766606909929 
2070	 0.257799543188123 
2071	 0.257942316135763 
2072	 0.258070824985872 
2073	 0.258190262728768 
2074	 0.258311684879001 
2075	 0.258427532029249 
2076	 0.258546333744391 
2077	 0.258669471545607 
2078	 0.258785428131062 
2079	 0.258895090854258 
2080	 0.259008050561678 
2081	 0.259111806160555 
2082	 0.259227725795742 
2083	 0.259342200556273 
2084	 0.259476767472322 
2085	 0.259612964025144 
2086	 0.259767434902875 
2087	 0.259899276315188 
2088	 0.2600219488898 
2089	 0.260158329119126 
2090	 0.260295111637039 
2091	 0.260422346963559 
2092	 0.260565969394101 
2093	 0.260688545157073 
2094	 0.260774968313545 
2095	 0.260886353691308 
2096	 0.261002478227142 
2097	 0.2611231108007 
2098	 0.261255424394066 
2099	 0.261385090818621 
2100	 0.261524022071679 
2101	 0.261663042623637 
2102	 0.261816300510204 
2103	 0.26198444248233 
2104	 0.262149695966439 
2105	 0.262326091454853 
2106	 0.262493579346582 
2107	 0.262663095269338 
2108	 0.26282380068195 
2109	 0.262976655391118 
2110	 0.263132180703829 
2111	 0.263267568593896 
2112	 0.263428420819985 
2113	 0.263615833918682 
2114	 0.263795175603657 
2115	 0.263945402136534 
2116	 0.264098288070841 
2117	 0.264232607696753 
2118	 0.264317699246813 
2119	 0.264446905874814 
2120	 0.264601594060457 
2121	 0.264737521737857 
2122	 0.264878377322255 
2123	 0.265007131978268 
2124	 0.265127177352088 
2125	 0.265240008783424 
2126	 0.265351987541339 
2127	 0.265450965236506 
2128	 0.265541571547893 
2129	 0.265617368417791 
2130	 0.265680980661887 
2131	 0.265731430349 
2132	 0.265772161774738 
2133	 0.265794731941626 
2134	 0.265821969943619 
2135	 0.265833421449345 
2136	 0.265863751906461 
2137	 0.265914756937021 
2138	 0.265932800000417 
2139	 0.265956962079416 
2140	 0.265951113629742 
2141	 0.265923168599314 
2142	 0.265868708501284 
2143	 0.265768348223449 
2144	 0.265692528339812 
2145	 0.265602030269057 
2146	 0.265512335655325 
2147	 0.265430389114821 
2148	 0.265369379797243 
2149	 0.265277778603344 
2150	 0.265165048703223 
2151	 0.265058711941587 
2152	 0.26495944569734 
2153	 0.2648270150453 
2154	 0.264681258092223 
2155	 0.26452195622907 
2156	 0.26433327770942 
2157	 0.264148045495844 
2158	 0.263953617396448 
2159	 0.263758085066248 
2160	 0.263559876429793 
2161	 0.26335203211745 
2162	 0.263119041901649 
2163	 0.262913468877561 
2164	 0.262720509396628 
2165	 0.262522334929272 
2166	 0.262325172864881 
2167	 0.262154867172509 
2168	 0.261949678217131 
2169	 0.261705765141676 
2170	 0.261506327196661 
2171	 0.261312922639952 
2172	 0.26113074349224 
2173	 0.260982322574777 
2174	 0.260811840659776 
2175	 0.26063865360986 
2176	 0.260461070098906 
2177	 0.260277843294362 
2178	 0.260092622442844 
2179	 0.259903847228498 
2180	 0.259710589512701 
2181	 0.259512898399437 
2182	 0.25931167540385 
2183	 0.259084393821849 
2184	 0.25889466296088 
2185	 0.258700711578418 
2186	 0.258502656271859 
2187	 0.258337395581912 
2188	 0.258203322672709 
2189	 0.258044779427882 
2190	 0.257892531047953 
2191	 0.257741378915778 
2192	 0.257572424361539 
2193	 0.257425477033312 
2194	 0.257290085725565 
2195	 0.257168376372362 
2196	 0.257057990284443 
2197	 0.256954519528979 
2198	 0.256865292435851 
2199	 0.256788398811538 
2200	 0.256736688437331 
2201	 0.256666112422572 
2202	 0.256611173577652 
2203	 0.256524902863706 
2204	 0.256452347848053 
2205	 0.25635017634158 
2206	 0.256303128351444 
2207	 0.2562862182968 
2208	 0.256265587063062 
2209	 0.256280762125737 
2210	 0.256259964019746 
2211	 0.256218124343617 
2212	 0.256197319643606 
2213	 0.256165288956955 
2214	 0.256154141360664 
2215	 0.256176771748007 
2216	 0.256174113223925 
2217	 0.256161341007019 
2218	 0.256159812864675 
2219	 0.256142484241418 
2220	 0.256149180683704 
2221	 0.256184256253131 
2222	 0.256205036228576 
2223	 0.256249216090543 
2224	 0.25629883613693 
2225	 0.256351049264316 
2226	 0.256418676885238 
2227	 0.256462580619017 
2228	 0.256509529927295 
2229	 0.256529047094563 
2230	 0.256523280737369 
2231	 0.256524494670863 
2232	 0.256506240090868 
2233	 0.256502176465209 
2234	 0.256507011763104 
2235	 0.256503096820847 
2236	 0.256504125876324 
2237	 0.256493786089889 
2238	 0.256464015081032 
2239	 0.256447331394474 
2240	 0.256412835022077 
2241	 0.256415314765977 
2242	 0.256469491361224 
2243	 0.256483914970596 
2244	 0.256501502426899 
2245	 0.25650877591396 
2246	 0.256483033093388 
2247	 0.256480408838365 
2248	 0.256469827319371 
2249	 0.256468867911137 
2250	 0.256468876591538 
2251	 0.256460519735768 
2252	 0.256455857164283 
2253	 0.256472251044416 
2254	 0.256464392796013 
2255	 0.256420265554151 
2256	 0.256422706701763 
2257	 0.25644030572357 
2258	 0.256459945254415 
2259	 0.256519302555905 
2260	 0.25654827169766 
2261	 0.256556828916349 
2262	 0.25657488220862 
2263	 0.256588008735954 
2264	 0.256603096955446 
2265	 0.256626623921688 
2266	 0.256642280050126 
2267	 0.256639884806953 
2268	 0.256657513638992 
2269	 0.25666614046691 
2270	 0.256709915814468 
2271	 0.256799556468915 
2272	 0.256850284615426 
2273	 0.256891488905814 
2274	 0.25690360305394 
2275	 0.256873597544104 
2276	 0.256772908294215 
2277	 0.256725165505721 
2278	 0.256664843937316 
2279	 0.25662034823979 
2280	 0.25658377531636 
2281	 0.256574857916423 
2282	 0.256571284805463 
2283	 0.256594207428985 
2284	 0.256690965999405 
2285	 0.256716105111754 
2286	 0.256720823104389 
2287	 0.256716047020994 
2288	 0.256649459056131 
2289	 0.256632719147586 
2290	 0.256639028494524 
2291	 0.25663928782883 
2292	 0.256677343615464 
2293	 0.256684811725318 
2294	 0.256677845698295 
2295	 0.256660808570982 
2296	 0.256639684954951 
2297	 0.256561161206458 
2298	 0.256531345440168 
2299	 0.256543920384686 
2300	 0.256563795747165 
2301	 0.256606600169841 
2302	 0.256616972668141 
2303	 0.256622471796237 
2304	 0.256606537815221 
2305	 0.256565409361884 
2306	 0.256522820827229 
2307	 0.256442477836881 
2308	 0.25639929323284 
2309	 0.256375707894595 
2310	 0.25634426548875 
2311	 0.256316472741196 
2312	 0.256293151370903 
2313	 0.256272937276696 
2314	 0.256249173279234 
2315	 0.256244362614066 
2316	 0.256211889653848 
2317	 0.256152855841781 
2318	 0.2560968985629 
2319	 0.256027039393843 
2320	 0.255973324408974 
2321	 0.255926352691663 
2322	 0.255882489967529 
2323	 0.255843478928693 
2324	 0.255804600960115 
2325	 0.255748046131847 
2326	 0.255729868590663 
2327	 0.255753381850918 
2328	 0.255739546610168 
2329	 0.255741112066461 
2330	 0.255765025482776 
2331	 0.255752243451871 
2332	 0.255758184897472 
2333	 0.25575923545616 
2334	 0.255757169152354 
2335	 0.255778413788276 
2336	 0.255788551952804 
2337	 0.255769924286609 
2338	 0.255716144351888 
2339	 0.255672382259836 
2340	 0.255606892981083 
2341	 0.255566573370075 
2342	 0.255569274461219 
2343	 0.255544268646094 
2344	 0.255563928268254 
2345	 0.255541323838893 
2346	 0.255537968883967 
2347	 0.255470593452363 
2348	 0.255311464598552 
2349	 0.255230052786034 
2350	 0.255172948887567 
2351	 0.255083054870344 
2352	 0.25502899328427 
2353	 0.254921555780575 
2354	 0.254739108465263 
2355	 0.254604592992729 
2356	 0.254488791715181 
2357	 0.254377162403991 
2358	 0.254270842446585 
2359	 0.254150817466346 
2360	 0.254035807449199 
2361	 0.253895109283189 
2362	 0.253691808922867 
2363	 0.253585075232497 
2364	 0.253526994351908 
2365	 0.253453382643078 
2366	 0.253457531834677 
2367	 0.253418929151264 
2368	 0.253350501882236 
2369	 0.253263427912825 
2370	 0.25314886169464 
2371	 0.253055432494857 
2372	 0.252949799518846 
2373	 0.25283771306858 
2374	 0.252761477707097 
2375	 0.25262270784374 
2376	 0.252472232212561 
2377	 0.25231861690125 
2378	 0.252182400629021 
2379	 0.25205743905108 
2380	 0.251930010452388 
2381	 0.251814182499959 
2382	 0.251680505304689 
2383	 0.251554824007921 
2384	 0.251407747417917 
2385	 0.251231153209137 
2386	 0.251056622470941 
2387	 0.250892840623868 
2388	 0.250738363106322 
2389	 0.250640338395754 
2390	 0.25050959123631 
2391	 0.250353512460128 
2392	 0.250240859096502 
2393	 0.250063155248536 
2394	 0.249871553721393 
2395	 0.249697974894022 
2396	 0.249511349336489 
2397	 0.249349633905087 
2398	 0.249211732680757 
2399	 0.249046741929329 
2400	 0.248892363558861 
2401	 0.248700763362148 
2402	 0.248426974370721 
2403	 0.248216551142213 
2404	 0.248050913069109 
2405	 0.247850001964924 
2406	 0.247664144938432 
2407	 0.247510370628 
2408	 0.24732781755209 
2409	 0.247097961740118 
2410	 0.24689653993149 
2411	 0.246728460769943 
2412	 0.246502632665028 
2413	 0.246265356905592 
2414	 0.246171475330265 
2415	 0.246092183316962 
2416	 0.245924764560621 
2417	 0.245753288413106 
2418	 0.24557128931761 
2419	 0.245304884286197 
2420	 0.245050893551214 
2421	 0.244829771087615 
2422	 0.24457842234511 
2423	 0.244228634216734 
2424	 0.24397020203179 
2425	 0.243780046408565 
2426	 0.243535003576425 
2427	 0.243318058066828 
2428	 0.24309816927739 
2429	 0.242837898645708 
2430	 0.24261873038053 
2431	 0.242430152424526 
2432	 0.242194617792179 
2433	 0.241961816358038 
2434	 0.241680108901311 
2435	 0.241301086104309 
2436	 0.241106342322684 
2437	 0.241002209543565 
2438	 0.240832113393676 
2439	 0.24080125304822 
2440	 0.240571659535389 
2441	 0.240104725070723 
2442	 0.239837930139202 
2443	 0.239624846486699 
2444	 0.239413789584679 
2445	 0.239355562709063 
2446	 0.239088234264095 
2447	 0.238634696900667 
2448	 0.238353019330338 
2449	 0.238017304333356 
2450	 0.237779334523938 
2451	 0.237752936929548 
2452	 0.237514449807831 
2453	 0.237225909447274 
2454	 0.236923717306949 
2455	 0.236479553562134 
2456	 0.236163791052947 
2457	 0.235866026386656 
2458	 0.235637706268896 
2459	 0.23557847005556 
2460	 0.235407711327747 
2461	 0.235187795077051 
2462	 0.234979033124456 
2463	 0.234698884017215 
2464	 0.234375360392574 
2465	 0.234067239836391 
2466	 0.23381106141698 
2467	 0.23352781348871 
2468	 0.233308469413957 
2469	 0.23322420628331 
2470	 0.232854954017386 
2471	 0.232504823080125 
2472	 0.232250671436399 
2473	 0.232112985445015 
2474	 0.232042047934402 
2475	 0.23187530855368 
2476	 0.231699175017304 
2477	 0.231254116271729 
2478	 0.230693379017357 
2479	 0.230325108647914 
2480	 0.229825192221049 
2481	 0.229468491310986 
2482	 0.229409982362873 
2483	 0.229304459403643 
2484	 0.229286793090682 
2485	 0.229290486145056 
2486	 0.229075101965861 
2487	 0.228859685427368 
2488	 0.228701925388448 
2489	 0.228617772935703 
2490	 0.228562612872463 
2491	 0.228407711409471 
2492	 0.228111658143208 
2493	 0.227611129767105 
2494	 0.227193263210838 
2495	 0.226956132822147 
2496	 0.226833903656723 
2497	 0.226693972111431 
2498	 0.226554038254237 
2499	 0.226467191285163 
2500	 0.226283401251041 
