Wavelength	mm2800011.asd
350	 5.20867322576648E-02 
351	 5.88118226969869E-02 
352	 5.48513580552427E-02 
353	 4.14333720335828E-02 
354	 4.97145896815691E-02 
355	 5.43468108992017E-02 
356	 5.44519633931868E-02 
357	 5.47497292712798E-02 
358	 0.054443732056331 
359	 5.13624976243014E-02 
360	 0.050974144173156 
361	 0.06078715263757 
362	 5.50895490633413E-02 
363	 5.23851677279396E-02 
364	 5.92374692869834E-02 
365	 5.53214132702045E-02 
366	 5.57882728727271E-02 
367	 5.62653889005511E-02 
368	 5.16807612209782E-02 
369	 5.54568029157587E-02 
370	 5.80395266517597E-02 
371	 5.79855479022634E-02 
372	 0.059445189998654 
373	 5.81265407735771E-02 
374	 5.79370404102134E-02 
375	 6.02849522415364E-02 
376	 6.08998463726582E-02 
377	 5.65842387658856E-02 
378	 5.54027643106037E-02 
379	 6.32583659539958E-02 
380	 6.22374106107752E-02 
381	 5.90221253759246E-02 
382	 5.84841002346843E-02 
383	 6.24896473818874E-02 
384	 6.24008386278096E-02 
385	 6.00488879088926E-02 
386	 5.86208154192822E-02 
387	 6.08382431973898E-02 
388	 6.27499611818931E-02 
389	 6.30930913799024E-02 
390	 6.19269105342439E-02 
391	 6.04554428191298E-02 
392	 6.13837950254856E-02 
393	 6.42074921557676E-02 
394	 6.58224794832484E-02 
395	 6.70841104589193E-02 
396	 6.68314832140407E-02 
397	 6.51940617437626E-02 
398	 6.55606316067534E-02 
399	 6.61587632661296E-02 
400	 6.71674266132511E-02 
401	 6.87833429039796E-02 
402	 6.74450649434816E-02 
403	 6.66330747561922E-02 
404	 6.72276319765552E-02 
405	 6.71449185268266E-02 
406	 6.86416043462471E-02 
407	 7.00422316224609E-02 
408	 6.98063024052803E-02 
409	 0.068422735624249 
410	 6.73911440993553E-02 
411	 0.067676912311499 
412	 6.94894740227516E-02 
413	 7.05427922546941E-02 
414	 7.03059222162122E-02 
415	 6.93536882064298E-02 
416	 6.93330077277575E-02 
417	 6.95899467123261E-02 
418	 7.01174759716336E-02 
419	 7.08519332095578E-02 
420	 7.11742128201862E-02 
421	 7.09627098966722E-02 
422	 0.070807956253412 
423	 7.15501520698299E-02 
424	 7.16105969612434E-02 
425	 7.11974609142902E-02 
426	 7.09578705435764E-02 
427	 7.20177060888672E-02 
428	 7.21956506373927E-02 
429	 7.18127868467805E-02 
430	 7.18596293113256E-02 
431	 0.072204090722361 
432	 0.072411852507579 
433	 7.25141041207602E-02 
434	 7.29676317552826E-02 
435	 7.31031388695546E-02 
436	 7.31238419449953E-02 
437	 7.32152339813125E-02 
438	 7.29727086671679E-02 
439	 7.32725646519096E-02 
440	 7.37833214801408E-02 
441	 7.36773381106989E-02 
442	 7.34246662984409E-02 
443	 7.36072891912881E-02 
444	 7.42223560248973E-02 
445	 7.44201924797967E-02 
446	 7.43558039333635E-02 
447	 7.43360322755544E-02 
448	 7.45863183113677E-02 
449	 7.46903157977574E-02 
450	 7.50525472875288E-02 
451	 7.55478231364282E-02 
452	 7.56288339903179E-02 
453	 7.58211365338445E-02 
454	 7.58781000074718E-02 
455	 0.075780479416776 
456	 7.64881558986423E-02 
457	 7.65507587752403E-02 
458	 7.62172421034766E-02 
459	 7.63996968513047E-02 
460	 7.65860119866236E-02 
461	 0.076600265851871 
462	 7.65663867266323E-02 
463	 7.69864459704482E-02 
464	 7.72446653336405E-02 
465	 7.74753535309027E-02 
466	 7.78629777454123E-02 
467	 0.077911749683156 
468	 7.79831996490344E-02 
469	 7.80959750913906E-02 
470	 7.80100733434945E-02 
471	 7.82058768618004E-02 
472	 0.078545216742427 
473	 7.88232636488976E-02 
474	 7.89340161389273E-02 
475	 0.078999142339902 
476	 0.079113595091964 
477	 7.93445079995486E-02 
478	 7.96759672482673E-02 
479	 7.98077759451013E-02 
480	 7.97994378218695E-02 
481	 8.02326215962241E-02 
482	 8.05726832076546E-02 
483	 0.08073102182914 
484	 8.07689910104579E-02 
485	 8.07978884543518E-02 
486	 8.08755841403329E-02 
487	 8.09876464644728E-02 
488	 0.081062422349048 
489	 8.10791781964551E-02 
490	 8.11973943028536E-02 
491	 8.14930738507208E-02 
492	 8.17937643001145E-02 
493	 8.19680980048179E-02 
494	 8.20035126921578E-02 
495	 8.20006466450492E-02 
496	 8.23712422126465E-02 
497	 8.25836837766128E-02 
498	 0.082519150556507 
499	 8.28040982158763E-02 
500	 8.29555330807105E-02 
501	 8.29375483628071E-02 
502	 0.082889968051579 
503	 8.31248721482592E-02 
504	 8.32628898027651E-02 
505	 8.32644366258531E-02 
506	 8.34074352613864E-02 
507	 8.34823931789352E-02 
508	 8.36006228723733E-02 
509	 8.38243806551181E-02 
510	 8.39303414114937E-02 
511	 8.40094154848624E-02 
512	 8.40799347738761E-02 
513	 8.41322163870195E-02 
514	 8.42403691338231E-02 
515	 8.43817845853614E-02 
516	 8.45290544738664E-02 
517	 8.46718419115733E-02 
518	 8.47658925920199E-02 
519	 8.48143053815534E-02 
520	 8.48552210487552E-02 
521	 8.50023598801955E-02 
522	 8.51513365382962E-02 
523	 8.52393006801627E-02 
524	 8.52626718723004E-02 
525	 8.53494441136734E-02 
526	 8.54533549606556E-02 
527	 0.085514173860752 
528	 8.55625046950613E-02 
529	 8.56085123016267E-02 
530	 8.56726943097015E-02 
531	 8.57761452016842E-02 
532	 8.58682299440282E-02 
533	 8.59765151289213E-02 
534	 8.60995805658777E-02 
535	 8.61501472031822E-02 
536	 0.086177796201193 
537	 8.62264043595281E-02 
538	 8.63208972378794E-02 
539	 8.63599024819013E-02 
540	 8.64375038363163E-02 
541	 0.086572229287224 
542	 8.66639526228507E-02 
543	 8.67446247818061E-02 
544	 8.68444337147098E-02 
545	 8.69664289476147E-02 
546	 8.70113063912289E-02 
547	 8.69735771809469E-02 
548	 8.69516358593194E-02 
549	 8.71091081287774E-02 
550	 8.71620036661362E-02 
551	 8.71928031273641E-02 
552	 8.72933367791587E-02 
553	 8.74072896492504E-02 
554	 8.74523622689054E-02 
555	 8.74584694023067E-02 
556	 8.75131899838179E-02 
557	 0.087613032754857 
558	 8.76801385691258E-02 
559	 0.087728486326432 
560	 8.79628265818211E-02 
561	 0.088054745771799 
562	 8.80565670626765E-02 
563	 8.81371224911919E-02 
564	 8.83164687514621E-02 
565	 8.83898575440677E-02 
566	 8.83268959833586E-02 
567	 8.83043522424494E-02 
568	 8.83232952905504E-02 
569	 8.83959965948007E-02 
570	 0.088511364979012 
571	 8.85927048232332E-02 
572	 8.87129512099691E-02 
573	 8.88247728346908E-02 
574	 8.88103753979537E-02 
575	 8.87957038254542E-02 
576	 8.89189527390558E-02 
577	 8.91602451818057E-02 
578	 8.91511265568477E-02 
579	 8.91147800424589E-02 
580	 8.90768377358312E-02 
581	 8.90038782537249E-02 
582	 8.90223531466811E-02 
583	 8.90165121992646E-02 
584	 8.89861397907774E-02 
585	 8.91222985479788E-02 
586	 8.93667991927979E-02 
587	 8.96040675613704E-02 
588	 8.97377830066867E-02 
589	 8.98369363086017E-02 
590	 9.00208579218998E-02 
591	 9.02235527865615E-02 
592	 9.02260234026582E-02 
593	 9.02840614221137E-02 
594	 9.03147279377538E-02 
595	 9.02258428142382E-02 
596	 9.00654868468406E-02 
597	 8.99293899651476E-02 
598	 8.98589788398562E-02 
599	 8.98553895405343E-02 
600	 0.089882701674695 
601	 8.99525588956068E-02 
602	 9.00520672683144E-02 
603	 9.01096306937327E-02 
604	 9.02192718038141E-02 
605	 9.03439226907035E-02 
606	 9.04221138425613E-02 
607	 9.05298763977678E-02 
608	 9.06526114861991E-02 
609	 0.090781257312247 
610	 9.09185419702668E-02 
611	 9.09877302045052E-02 
612	 9.10361637389887E-02 
613	 9.11049816865192E-02 
614	 9.11021887533743E-02 
615	 9.10852536734998E-02 
616	 9.10890134920914E-02 
617	 9.11299207511065E-02 
618	 9.12231261305853E-02 
619	 9.12672005529861E-02 
620	 0.09124225581258 
621	 9.13467509641309E-02 
622	 9.14078844699584E-02 
623	 9.14306231460008E-02 
624	 9.14822737323009E-02 
625	 9.15452130743249E-02 
626	 9.15755719414973E-02 
627	 9.15790535692337E-02 
628	 9.16281171617961E-02 
629	 9.16990510284117E-02 
630	 9.17680927058418E-02 
631	 9.18138740834083E-02 
632	 9.18246245453793E-02 
633	 9.18607491183423E-02 
634	 9.19325139996461E-02 
635	 9.20049888676957E-02 
636	 9.20394214146464E-02 
637	 9.20485138871667E-02 
638	 0.092069559752234 
639	 9.21821351392214E-02 
640	 9.22653939102092E-02 
641	 9.23024786915967E-02 
642	 9.23257316104749E-02 
643	 9.23240143475269E-02 
644	 9.23735271867939E-02 
645	 9.24720431710393E-02 
646	 9.24937635722325E-02 
647	 9.25361301607847E-02 
648	 9.25995013132185E-02 
649	 9.26627263193587E-02 
650	 9.27433134067058E-02 
651	 9.27761831024868E-02 
652	 9.27864760396997E-02 
653	 9.28715584537203E-02 
654	 9.29401104362213E-02 
655	 0.092984497534926 
656	 9.30208565286156E-02 
657	 9.30899378835089E-02 
658	 9.31080967969476E-02 
659	 9.31435917359494E-02 
660	 9.32991191149373E-02 
661	 9.33441952275081E-02 
662	 9.33713151845904E-02 
663	 9.34321173759295E-02 
664	 9.34735622665033E-02 
665	 9.34810688494421E-02 
666	 9.35146898552327E-02 
667	 9.36208229767955E-02 
668	 9.36977107320245E-02 
669	 9.37676448860616E-02 
670	 9.38316754234881E-02 
671	 9.38728588196392E-02 
672	 9.39095209041886E-02 
673	 9.39824777824537E-02 
674	 0.094085906714648 
675	 9.40928056389489E-02 
676	 0.094110363463434 
677	 9.41528340776682E-02 
678	 9.41970759181544E-02 
679	 9.42557440081596E-02 
680	 9.43304975064569E-02 
681	 9.44037504859274E-02 
682	 9.44346408897699E-02 
683	 9.44785107331118E-02 
684	 9.45274785612841E-02 
685	 9.45726317229795E-02 
686	 9.46694858155625E-02 
687	 9.47432270181091E-02 
688	 0.09478181185632 
689	 0.094821792424428 
690	 9.48947156983164E-02 
691	 9.49349841446158E-02 
692	 9.49266243358655E-02 
693	 9.49807137695253E-02 
694	 9.50478874518487E-02 
695	 0.095110000185135 
696	 9.51585865898835E-02 
697	 9.51881129988332E-02 
698	 9.52084572114437E-02 
699	 9.52390647270778E-02 
700	 9.53054305790754E-02 
701	 0.095345425759028 
702	 9.53869460887852E-02 
703	 9.54507158301704E-02 
704	 9.54788875838168E-02 
705	 0.095517363671409 
706	 9.55669690820667E-02 
707	 9.56050422999233E-02 
708	 9.56252314876797E-02 
709	 9.56566367279569E-02 
710	 9.57032305336183E-02 
711	 9.57272139693759E-02 
712	 9.57733833248928E-02 
713	 9.58074703289562E-02 
714	 9.58030603986748E-02 
715	 9.58511667336919E-02 
716	 9.58751187598795E-02 
717	 9.58807736646968E-02 
718	 9.59312378217095E-02 
719	 9.59908690421423E-02 
720	 9.60084447613504E-02 
721	 9.59812066999202E-02 
722	 9.59996919984003E-02 
723	 0.096050742222035 
724	 9.60835211506939E-02 
725	 9.60622260206436E-02 
726	 9.61071163285022E-02 
727	 9.61322388987343E-02 
728	 9.61208625782383E-02 
729	 9.61277281665198E-02 
730	 9.61286181349961E-02 
731	 9.61396787453662E-02 
732	 9.61657160762837E-02 
733	 9.61672261713013E-02 
734	 9.61891516638393E-02 
735	 9.62013103722443E-02 
736	 9.61646131161367E-02 
737	 9.61864789682824E-02 
738	 9.62025920826316E-02 
739	 9.61971178834719E-02 
740	 0.096218915476941 
741	 9.62194864339998E-02 
742	 9.61967454226858E-02 
743	 9.61718988080286E-02 
744	 9.62045979126481E-02 
745	 9.62159291752742E-02 
746	 9.62015540081123E-02 
747	 9.61930984141436E-02 
748	 9.61941645890523E-02 
749	 9.61867735983564E-02 
750	 9.61770097720732E-02 
751	 9.62011065977796E-02 
752	 9.62002674087298E-02 
753	 9.61785642725753E-02 
754	 9.61552303974765E-02 
755	 9.61466638182391E-02 
756	 9.61360029559634E-02 
757	 9.61242422563971E-02 
758	 9.61204231350686E-02 
759	 0.096117895782381 
760	 9.61290790238891E-02 
761	 9.61402967119045E-02 
762	 9.61053327160112E-02 
763	 9.61009216677211E-02 
764	 9.60970824218774E-02 
765	 9.60720007211571E-02 
766	 9.61093620209518E-02 
767	 9.61269734418385E-02 
768	 9.61166712631881E-02 
769	 9.61083239394231E-02 
770	 9.61067432175542E-02 
771	 9.60835010250943E-02 
772	 9.60392331110519E-02 
773	 9.60124109466107E-02 
774	 9.60272545648569E-02 
775	 9.60296292760063E-02 
776	 9.59902977039176E-02 
777	 9.60009765483067E-02 
778	 9.59965303329604E-02 
779	 9.59755182577569E-02 
780	 9.59620833356095E-02 
781	 9.59413897056189E-02 
782	 9.59353835023084E-02 
783	 9.59446366940153E-02 
784	 9.59444445719888E-02 
785	 9.59150039909002E-02 
786	 9.59001209283287E-02 
787	 9.59128208343781E-02 
788	 9.58551517527463E-02 
789	 9.58529348893844E-02 
790	 9.58705501168993E-02 
791	 9.58361703230717E-02 
792	 9.58387532373628E-02 
793	 9.58192897494837E-02 
794	 0.095786812050443 
795	 0.095804895334219 
796	 9.57638165502947E-02 
797	 0.095725175761292 
798	 9.57322970767896E-02 
799	 9.57466744919393E-02 
800	 9.57488570082288E-02 
801	 9.57371719287014E-02 
802	 9.57227274033007E-02 
803	 0.095737378859156 
804	 9.57203541873837E-02 
805	 9.56833222157886E-02 
806	 9.56793627716453E-02 
807	 9.56808846643829E-02 
808	 9.56633365101734E-02 
809	 9.56220011743606E-02 
810	 9.55780936178834E-02 
811	 9.55923395288082E-02 
812	 9.55994171810125E-02 
813	 9.55583654161128E-02 
814	 9.55770284166157E-02 
815	 9.55902066940052E-02 
816	 9.55655412092412E-02 
817	 9.55059895237839E-02 
818	 0.095518742112132 
819	 9.55453910232101E-02 
820	 9.55392569412207E-02 
821	 9.54838036844717E-02 
822	 9.54859627250927E-02 
823	 9.54798375721349E-02 
824	 9.54352167772282E-02 
825	 9.54231981237152E-02 
826	 9.54420629666672E-02 
827	 9.54516959939319E-02 
828	 9.54248350696957E-02 
829	 9.54161110577725E-02 
830	 9.53777351459246E-02 
831	 9.53430350047297E-02 
832	 9.53688638471419E-02 
833	 9.54014116209162E-02 
834	 9.54010621463619E-02 
835	 9.53693517722635E-02 
836	 9.53474350358618E-02 
837	 9.53714779733384E-02 
838	 9.54041645092715E-02 
839	 9.54022645670592E-02 
840	 9.53360788295377E-02 
841	 9.52785358717444E-02 
842	 9.52695730237413E-02 
843	 9.53109068414452E-02 
844	 9.53301584987318E-02 
845	 9.53225141085512E-02 
846	 9.53088563147395E-02 
847	 9.53206267854197E-02 
848	 9.53666025714352E-02 
849	 9.53825391162237E-02 
850	 9.53573689619572E-02 
851	 9.53296140253451E-02 
852	 9.52979743133087E-02 
853	 9.52801770380661E-02 
854	 9.52863943639077E-02 
855	 9.53130053164287E-02 
856	 9.53769975246954E-02 
857	 9.54167727489667E-02 
858	 9.53929314229081E-02 
859	 9.53650973143294E-02 
860	 9.53388747875287E-02 
861	 9.53231708687784E-02 
862	 9.53192962335519E-02 
863	 9.53029667255681E-02 
864	 9.52986108261205E-02 
865	 9.53135102226166E-02 
866	 9.53371037337848E-02 
867	 9.53278051676539E-02 
868	 9.53115417357042E-02 
869	 9.53021124962643E-02 
870	 9.52952354269606E-02 
871	 9.53129597168898E-02 
872	 9.53464258707412E-02 
873	 9.53681908070379E-02 
874	 9.53328049693891E-02 
875	 9.53135904156585E-02 
876	 9.53154804777986E-02 
877	 9.53301678702797E-02 
878	 9.53635327223353E-02 
879	 9.54265146180602E-02 
880	 9.54673150006056E-02 
881	 9.54418718484451E-02 
882	 9.54236411988172E-02 
883	 9.54484166037686E-02 
884	 9.54764788117127E-02 
885	 0.095458729692009 
886	 9.55773384917195E-02 
887	 9.56187624616528E-02 
888	 9.55557016012431E-02 
889	 9.55384323257651E-02 
890	 9.55509999520196E-02 
891	 9.55780482026891E-02 
892	 0.095617094764198 
893	 9.56808228486056E-02 
894	 9.56909129103018E-02 
895	 9.56911593234176E-02 
896	 9.57202585673563E-02 
897	 0.095761656971668 
898	 9.57915954260109E-02 
899	 0.095793503783828 
900	 9.57798212373207E-02 
901	 9.58250149905654E-02 
902	 9.59174804347624E-02 
903	 9.59723489904304E-02 
904	 9.59328255339475E-02 
905	 9.59385097811616E-02 
906	 9.59814884917229E-02 
907	 0.096017730922985 
908	 9.60162371040908E-02 
909	 9.61156440376641E-02 
910	 9.61229520611239E-02 
911	 9.60750893685009E-02 
912	 9.61398663827729E-02 
913	 9.61863870504194E-02 
914	 9.62244187020758E-02 
915	 9.62438073431064E-02 
916	 9.62212516529537E-02 
917	 0.096256462468438 
918	 9.63231256284484E-02 
919	 9.63931208329898E-02 
920	 9.64569192794307E-02 
921	 9.64999392231762E-02 
922	 9.65387215070201E-02 
923	 9.65698099688311E-02 
924	 9.65573615414097E-02 
925	 9.66134334678469E-02 
926	 9.67099789121616E-02 
927	 9.67740654665673E-02 
928	 9.67167189631716E-02 
929	 9.67530271251179E-02 
930	 9.68342904099414E-02 
931	 9.68829134455239E-02 
932	 9.69237228689681E-02 
933	 9.69956917764773E-02 
934	 9.70460717725615E-02 
935	 0.097047455218511 
936	 0.097128034738375 
937	 9.71651743761711E-02 
938	 9.71814144434319E-02 
939	 9.72495788572732E-02 
940	 9.74459815012757E-02 
941	 0.097504078513351 
942	 9.75179515715429E-02 
943	 9.76426131569855E-02 
944	 9.76465364229454E-02 
945	 9.76239448224398E-02 
946	 9.76559764342428E-02 
947	 9.77654002247651E-02 
948	 9.77798538541475E-02 
949	 9.77676137134619E-02 
950	 9.78076377224767E-02 
951	 9.79417753289525E-02 
952	 9.80491657257582E-02 
953	 9.81114808948006E-02 
954	 9.81528398487262E-02 
955	 0.098208240569859 
956	 9.82300807542211E-02 
957	 9.83056828176092E-02 
958	 0.098392607272404 
959	 9.83953490175791E-02 
960	 9.84133139043596E-02 
961	 9.84894867494863E-02 
962	 9.86115110238045E-02 
963	 9.87164992606721E-02 
964	 9.86718964824323E-02 
965	 0.098734359770903 
966	 9.88464718427578E-02 
967	 9.87936295419797E-02 
968	 9.88867615214133E-02 
969	 9.89572654714725E-02 
970	 9.89541766754229E-02 
971	 9.89477471902868E-02 
972	 9.90540820868867E-02 
973	 9.91779429694234E-02 
974	 9.92276008628012E-02 
975	 9.91680639184282E-02 
976	 9.91547963167891E-02 
977	 9.92527817481967E-02 
978	 9.93664161087321E-02 
979	 9.93582246150384E-02 
980	 0.099457879843841 
981	 9.94625710028414E-02 
982	 0.099428485381471 
983	 9.95433663521588E-02 
984	 9.97057166651087E-02 
985	 9.97575415314835E-02 
986	 0.099767461839843 
987	 9.98749448438179E-02 
988	 9.98641283401247E-02 
989	 9.98157426705237E-02 
990	 9.97766910765376E-02 
991	 9.98039130107914E-02 
992	 0.100132871808643 
993	 0.100218961174206 
994	 0.100149653357675 
995	 0.10021661604272 
996	 0.100164264709156 
997	 0.100168574199046 
998	 0.100176910342042 
999	 0.10014208853291 
1000	 0.100383582768942 
1001	 9.87685026307729E-02 
1002	 9.87654738303571E-02 
1003	 9.87794833259156E-02 
1004	 9.88124622255302E-02 
1005	 9.88682520432695E-02 
1006	 9.88975817863151E-02 
1007	 9.89385810953339E-02 
1008	 9.89622587977785E-02 
1009	 9.89541786535212E-02 
1010	 9.89010484998636E-02 
1011	 9.88189140691048E-02 
1012	 0.098852876767108 
1013	 9.89216433696356E-02 
1014	 9.89681385646461E-02 
1015	 9.90276820747769E-02 
1016	 9.89976451904274E-02 
1017	 9.90081013205577E-02 
1018	 9.89894107349476E-02 
1019	 9.90395433335826E-02 
1020	 0.099111024339944 
1021	 9.91814849026209E-02 
1022	 9.92011271860384E-02 
1023	 9.91551164867072E-02 
1024	 9.90949113153415E-02 
1025	 0.099072877035033 
1026	 9.91290078642378E-02 
1027	 9.92482538352996E-02 
1028	 9.93110923155796E-02 
1029	 9.92984496924979E-02 
1030	 9.92478103118506E-02 
1031	 9.92196003128317E-02 
1032	 9.91381555423809E-02 
1033	 9.90954670357575E-02 
1034	 9.91062099548417E-02 
1035	 9.91353897475644E-02 
1036	 9.91474303605458E-02 
1037	 9.91428467155573E-02 
1038	 9.91203928872754E-02 
1039	 9.91123935330502E-02 
1040	 9.91196530740608E-02 
1041	 0.099123208899171 
1042	 9.91908788858056E-02 
1043	 9.92315738644563E-02 
1044	 9.92492855316931E-02 
1045	 9.92301807113121E-02 
1046	 9.92608261238432E-02 
1047	 9.92424979892882E-02 
1048	 9.92230362753959E-02 
1049	 0.099217205197681 
1050	 9.91717872982343E-02 
1051	 9.92243034157469E-02 
1052	 9.93440992699111E-02 
1053	 9.94483475195106E-02 
1054	 0.099558728824673 
1055	 9.95726970562756E-02 
1056	 0.099542981232969 
1057	 9.95809536334504E-02 
1058	 9.96585128768257E-02 
1059	 9.96996667184793E-02 
1060	 9.97520111773024E-02 
1061	 9.98323261117165E-02 
1062	 9.98795211919497E-02 
1063	 9.99042059305176E-02 
1064	 9.99423067051851E-02 
1065	 9.99781956179113E-02 
1066	 9.99852497359654E-02 
1067	 0.100022817416611 
1068	 0.100101108689827 
1069	 0.100162909617417 
1070	 0.100193879027488 
1071	 0.10018342817005 
1072	 0.100206757513394 
1073	 0.100215054271932 
1074	 0.100243827920782 
1075	 0.100314744644397 
1076	 0.10036642267101 
1077	 0.100342824187741 
1078	 0.100328297839612 
1079	 0.10033396612556 
1080	 0.10033153255014 
1081	 0.100351341089914 
1082	 0.100395821381154 
1083	 0.100390324455378 
1084	 0.100307343781267 
1085	 0.100304643569421 
1086	 0.100339009664395 
1087	 0.100338673119205 
1088	 0.100342777927947 
1089	 0.100369191955395 
1090	 0.100378645824073 
1091	 0.100369440034586 
1092	 0.100391781149022 
1093	 0.100417860872719 
1094	 0.100379361615209 
1095	 0.100335046835931 
1096	 0.100326048969369 
1097	 0.100323708649482 
1098	 0.100319570930631 
1099	 0.100343077864961 
1100	 0.10034799083311 
1101	 0.100332658150851 
1102	 0.100327007036641 
1103	 0.100335989467706 
1104	 0.100333893842835 
1105	 0.100298671850046 
1106	 0.100274459665979 
1107	 0.100217961445735 
1108	 0.100179334018552 
1109	 0.100183402988906 
1110	 0.100163835205566 
1111	 0.100158786761805 
1112	 0.100178009337434 
1113	 0.100180478568287 
1114	 0.100159182154964 
1115	 0.100172822355523 
1116	 0.100232551983402 
1117	 0.100231549825715 
1118	 0.100202912762172 
1119	 0.100201553039795 
1120	 0.100177516352104 
1121	 0.100147437291044 
1122	 0.100158153208812 
1123	 0.100147045974881 
1124	 0.100124505809665 
1125	 0.100054985638122 
1126	 0.100060844941293 
1127	 0.100103055946462 
1128	 0.100128092820578 
1129	 0.100197857973207 
1130	 0.10022062098314 
1131	 0.100200205150443 
1132	 0.10019788373571 
1133	 0.100199093696246 
1134	 0.100190999270504 
1135	 0.100162852530778 
1136	 0.100169922486937 
1137	 0.100179485588678 
1138	 0.100168104577922 
1139	 0.100166595755449 
1140	 0.100181766362589 
1141	 0.100176713594946 
1142	 0.10015558409255 
1143	 0.100147037512022 
1144	 0.100135566770023 
1145	 0.100130957519299 
1146	 0.100137764186016 
1147	 0.100132785970936 
1148	 0.100129788197303 
1149	 0.10011990528203 
1150	 0.100089587952359 
1151	 0.100073240412931 
1152	 0.100085668793006 
1153	 0.100093770633964 
1154	 0.100097325809325 
1155	 0.100119677099997 
1156	 0.100118098257799 
1157	 0.100085104675564 
1158	 0.100085019966698 
1159	 0.100102843364339 
1160	 0.100102605945577 
1161	 0.100112045183076 
1162	 0.100106377618854 
1163	 0.100073820318743 
1164	 0.100059329780748 
1165	 0.100042576508509 
1166	 0.100039168044535 
1167	 0.100052138483456 
1168	 0.100062678310964 
1169	 0.100068164301568 
1170	 0.100078218596319 
1171	 0.10008167853349 
1172	 0.100077492242506 
1173	 0.100074970376261 
1174	 0.10006178462912 
1175	 0.100072839685972 
1176	 0.100095160147411 
1177	 0.100112932810245 
1178	 0.100156661437436 
1179	 0.100178122636612 
1180	 0.100183432012917 
1181	 0.100188145853567 
1182	 0.100193572154085 
1183	 0.100176832905177 
1184	 0.100176897840827 
1185	 0.100172667477094 
1186	 0.10018305042165 
1187	 0.100208602172494 
1188	 0.100223765627094 
1189	 0.100239108383708 
1190	 0.100256674418843 
1191	 0.100279365232545 
1192	 0.100287682407223 
1193	 0.100277337395268 
1194	 0.100295419411095 
1195	 0.100326408875001 
1196	 0.100342927875621 
1197	 0.100374423745463 
1198	 0.100400769525521 
1199	 0.100419830329341 
1200	 0.100415673740859 
1201	 0.100427517685953 
1202	 0.100447646043045 
1203	 0.100467983411699 
1204	 0.10048315252773 
1205	 0.100505959694438 
1206	 0.100547726738663 
1207	 0.100568061099681 
1208	 0.100568436001023 
1209	 0.100589710641022 
1210	 0.100619826789927 
1211	 0.100638474198627 
1212	 0.100661501270994 
1213	 0.100685746555576 
1214	 0.10069333122792 
1215	 0.100711436161322 
1216	 0.10073645342795 
1217	 0.100779540340379 
1218	 0.10080400529858 
1219	 0.100827287289225 
1220	 0.100842166942265 
1221	 0.100841424675036 
1222	 0.100857391883805 
1223	 0.100871875569791 
1224	 0.10089504775668 
1225	 0.100936322823467 
1226	 0.100964821656775 
1227	 0.100983385989309 
1228	 0.101014748581672 
1229	 0.101057887686694 
1230	 0.101087317312276 
1231	 0.10111689982754 
1232	 0.101146364628279 
1233	 0.101171326435135 
1234	 0.101183855634326 
1235	 0.101199464831732 
1236	 0.10121577379294 
1237	 0.101237696559837 
1238	 0.101256567740661 
1239	 0.101275854214734 
1240	 0.101305255250931 
1241	 0.101327089017817 
1242	 0.101339941628809 
1243	 0.101356627456906 
1244	 0.101373237013996 
1245	 0.101393877730229 
1246	 0.101418901580398 
1247	 0.101438451066862 
1248	 0.101457734919963 
1249	 0.101478261519867 
1250	 0.101495555464171 
1251	 0.101516066165739 
1252	 0.101534308626937 
1253	 0.10155411030634 
1254	 0.101576517289556 
1255	 0.101602814588025 
1256	 0.101616920945184 
1257	 0.101628714917609 
1258	 0.101642662138111 
1259	 0.101649726048155 
1260	 0.101654350876849 
1261	 0.101662229436791 
1262	 0.101667322929019 
1263	 0.101653232521938 
1264	 0.101657370754707 
1265	 0.101686083373801 
1266	 0.10169824332002 
1267	 0.101713956246148 
1268	 0.101717324341454 
1269	 0.101718051341023 
1270	 0.101692421888664 
1271	 0.101706046689983 
1272	 0.101732529155965 
1273	 0.101765151845312 
1274	 0.101820194171427 
1275	 0.101868905494848 
1276	 0.101920223135143 
1277	 0.101972456190914 
1278	 0.102028638657689 
1279	 0.102085783971142 
1280	 0.102143026155306 
1281	 0.102200653527227 
1282	 0.102254693818113 
1283	 0.10232063793555 
1284	 0.102387777256463 
1285	 0.102468028168028 
1286	 0.102551685676187 
1287	 0.10263474187 
1288	 0.102714450899547 
1289	 0.10279181285678 
1290	 0.102862884505575 
1291	 0.102933045133945 
1292	 0.102998944248378 
1293	 0.103056570042592 
1294	 0.103117102122265 
1295	 0.103176733688207 
1296	 0.10323501273064 
1297	 0.103293367432887 
1298	 0.103347863931921 
1299	 0.103411666364225 
1300	 0.103453426109714 
1301	 0.103470917003758 
1302	 0.103501918393414 
1303	 0.103533403417577 
1304	 0.103553981891191 
1305	 0.103568476230287 
1306	 0.103581562067074 
1307	 0.103582588247265 
1308	 0.103581865713614 
1309	 0.103586987680318 
1310	 0.103607723627025 
1311	 0.103611532395733 
1312	 0.103603695427254 
1313	 0.103603059765705 
1314	 0.103610121424266 
1315	 0.103599421960363 
1316	 0.103575944378268 
1317	 0.103559992761878 
1318	 0.10353202933303 
1319	 0.103515707678797 
1320	 0.103513409237218 
1321	 0.103505138067113 
1322	 0.103499657875357 
1323	 0.103486402535404 
1324	 0.103466372329217 
1325	 0.103463401806134 
1326	 0.103448574954519 
1327	 0.103418631751464 
1328	 0.103402167758081 
1329	 0.103381905037985 
1330	 0.103375179325885 
1331	 0.103386547162904 
1332	 0.103384134495946 
1333	 0.10338473780372 
1334	 0.103376438005105 
1335	 0.103349522984383 
1336	 0.103341932599725 
1337	 0.103341341060207 
1338	 0.103340650814136 
1339	 0.103353457810362 
1340	 0.103355765902636 
1341	 0.10335106115297 
1342	 0.103348885908244 
1343	 0.103349320755898 
1344	 0.10334109710041 
1345	 0.103332870038421 
1346	 0.103322745626265 
1347	 0.103315119021121 
1348	 0.103321342587363 
1349	 0.103320087431532 
1350	 0.103330234619624 
1351	 0.103334831511699 
1352	 0.103338907874479 
1353	 0.10333040772263 
1354	 0.103308499844352 
1355	 0.103306149846795 
1356	 0.10330422571151 
1357	 0.103308568870468 
1358	 0.103337631895689 
1359	 0.103346636353622 
1360	 0.103332416266697 
1361	 0.103338123750842 
1362	 0.10335068845058 
1363	 0.103364543986135 
1364	 0.103392794086635 
1365	 0.103412682330011 
1366	 0.10342632421135 
1367	 0.103440300433711 
1368	 0.103461710094581 
1369	 0.103489946458003 
1370	 0.103507706589853 
1371	 0.103511434932283 
1372	 0.103503813514279 
1373	 0.103480360324805 
1374	 0.103473031072557 
1375	 0.103474873464721 
1376	 0.103466092305024 
1377	 0.103459944636467 
1378	 0.103446299461015 
1379	 0.103418096581579 
1380	 0.103396444150817 
1381	 0.103376397289618 
1382	 0.103357849018869 
1383	 0.103342080111031 
1384	 0.103324981971301 
1385	 0.103305013325478 
1386	 0.103288961552886 
1387	 0.103283288455991 
1388	 0.103260788133039 
1389	 0.103226130590823 
1390	 0.103203165615175 
1391	 0.1031769670566 
1392	 0.103137406507369 
1393	 0.103111810682275 
1394	 0.103091664209363 
1395	 0.10306211058754 
1396	 0.103033990017267 
1397	 0.103013395624369 
1398	 0.103006442048716 
1399	 0.102977139618495 
1400	 0.102943157104683 
1401	 0.102908863274702 
1402	 0.102857547516242 
1403	 0.102815554503824 
1404	 0.102773111916151 
1405	 0.102746039000034 
1406	 0.102727412723468 
1407	 0.102706967713578 
1408	 0.102703788248935 
1409	 0.102688278592142 
1410	 0.102656364934299 
1411	 0.102638237087599 
1412	 0.102624082585608 
1413	 0.102611560483931 
1414	 0.102617023753799 
1415	 0.102624540199514 
1416	 0.102633761868675 
1417	 0.102654067839574 
1418	 0.102663014661863 
1419	 0.102665237818924 
1420	 0.102677489898822 
1421	 0.102686449963999 
1422	 0.102688997061111 
1423	 0.102698620362319 
1424	 0.102704580630566 
1425	 0.102699557001365 
1426	 0.102713660619735 
1427	 0.102738783380237 
1428	 0.102759155902307 
1429	 0.102783706022022 
1430	 0.102810964019367 
1431	 0.102841856954255 
1432	 0.102868082076972 
1433	 0.102904921313349 
1434	 0.102928067119386 
1435	 0.102928144907999 
1436	 0.102946634077782 
1437	 0.102966147144543 
1438	 0.102991616636933 
1439	 0.103030706304175 
1440	 0.103070129207784 
1441	 0.103094718395857 
1442	 0.103119447111455 
1443	 0.103137023787126 
1444	 0.103156630478966 
1445	 0.103182185086098 
1446	 0.10321232376328 
1447	 0.103257271591903 
1448	 0.103293081500012 
1449	 0.103314503994054 
1450	 0.103339990239073 
1451	 0.10336811399196 
1452	 0.103384786739205 
1453	 0.103416065104988 
1454	 0.103467547471776 
1455	 0.103499192584219 
1456	 0.103527629150404 
1457	 0.10354492830974 
1458	 0.103540904475402 
1459	 0.103563153029762 
1460	 0.103587754055153 
1461	 0.103618300849659 
1462	 0.10367385603006 
1463	 0.103710784656627 
1464	 0.103740707235567 
1465	 0.103766234564806 
1466	 0.103784191523783 
1467	 0.10380428530239 
1468	 0.103816297142466 
1469	 0.103837138254701 
1470	 0.103867619095423 
1471	 0.103888162151495 
1472	 0.103910414908473 
1473	 0.103939267441779 
1474	 0.103974568669822 
1475	 0.104007668801659 
1476	 0.104031352055565 
1477	 0.104055863400762 
1478	 0.104059689019469 
1479	 0.10406529222591 
1480	 0.104095576435569 
1481	 0.104113142328011 
1482	 0.104136156578428 
1483	 0.104170855007594 
1484	 0.104192610726763 
1485	 0.104204838641807 
1486	 0.104226789077751 
1487	 0.104247684623098 
1488	 0.104271165959678 
1489	 0.104302548435699 
1490	 0.104324801815678 
1491	 0.104343957219843 
1492	 0.104366390896266 
1493	 0.104388192011645 
1494	 0.104403088435352 
1495	 0.104410078497019 
1496	 0.10442537220094 
1497	 0.104444237300912 
1498	 0.104460395999059 
1499	 0.104479745298632 
1500	 0.104501884723946 
1501	 0.104520665685478 
1502	 0.10453628880905 
1503	 0.104554937434166 
1504	 0.104578201861924 
1505	 0.104585547601004 
1506	 0.104590055530765 
1507	 0.104601672066971 
1508	 0.104616550058163 
1509	 0.104632471352475 
1510	 0.104653764035151 
1511	 0.10467454367561 
1512	 0.104684360391576 
1513	 0.104693594317279 
1514	 0.104714404583603 
1515	 0.10473880927204 
1516	 0.104757884741596 
1517	 0.104784148664087 
1518	 0.104820175675503 
1519	 0.104846749110056 
1520	 0.104876411502512 
1521	 0.104895386534583 
1522	 0.104904045247156 
1523	 0.104910792607104 
1524	 0.104909031632272 
1525	 0.104913982457317 
1526	 0.104917218316677 
1527	 0.104925783255944 
1528	 0.104936732986785 
1529	 0.10495140675692 
1530	 0.104971172487359 
1531	 0.104994983832857 
1532	 0.105025696345219 
1533	 0.105048378459109 
1534	 0.105074535546331 
1535	 0.105092274298279 
1536	 0.105096364065873 
1537	 0.105110214543 
1538	 0.105125045050228 
1539	 0.105138907303205 
1540	 0.10516507882479 
1541	 0.105180173445989 
1542	 0.105184088028603 
1543	 0.105192865331281 
1544	 0.105186983041955 
1545	 0.105196890139272 
1546	 0.105222813687179 
1547	 0.105247529796667 
1548	 0.105255463882633 
1549	 0.105270982065153 
1550	 0.105280195521562 
1551	 0.105280068539386 
1552	 0.105278388427339 
1553	 0.10529197982431 
1554	 0.105304852981223 
1555	 0.10530625023788 
1556	 0.105329494651906 
1557	 0.105342994542407 
1558	 0.105340900336543 
1559	 0.105348224127674 
1560	 0.105360165042614 
1561	 0.10538212784114 
1562	 0.105381811638705 
1563	 0.105374853634775 
1564	 0.105377322934432 
1565	 0.105360796441008 
1566	 0.105365978856442 
1567	 0.105401899837934 
1568	 0.105405374856621 
1569	 0.105397333291691 
1570	 0.105394485923346 
1571	 0.105378937638086 
1572	 0.105372493305701 
1573	 0.105371325672447 
1574	 0.105370293688524 
1575	 0.105369569346978 
1576	 0.105370810518709 
1577	 0.105377813544216 
1578	 0.105380230769896 
1579	 0.105374709082345 
1580	 0.105383559246531 
1581	 0.105403833393249 
1582	 0.105413939778272 
1583	 0.105430949920476 
1584	 0.10543828613689 
1585	 0.105421943622812 
1586	 0.105428352459116 
1587	 0.105452550837356 
1588	 0.105464016414119 
1589	 0.105489544509939 
1590	 0.105494379062745 
1591	 0.105468696039977 
1592	 0.105461539796016 
1593	 0.10545571932437 
1594	 0.105450934201144 
1595	 0.105455348451651 
1596	 0.105458476606629 
1597	 0.105454962731944 
1598	 0.105458007827422 
1599	 0.105473180951153 
1600	 0.105480506941943 
1601	 0.105483556810889 
1602	 0.105491226283744 
1603	 0.105492614977248 
1604	 0.10550103742436 
1605	 0.105523651804157 
1606	 0.10553670708455 
1607	 0.105548388010387 
1608	 0.105560640714846 
1609	 0.105556706002158 
1610	 0.105546289898494 
1611	 0.105534670609269 
1612	 0.10553220459557 
1613	 0.105548260828865 
1614	 0.105555280367414 
1615	 0.105558069350768 
1616	 0.105557188806316 
1617	 0.105546560724694 
1618	 0.105556684529218 
1619	 0.105594763876194 
1620	 0.105629820547038 
1621	 0.105638698078632 
1622	 0.10563947725534 
1623	 0.105646448567094 
1624	 0.105635602452636 
1625	 0.105627391625983 
1626	 0.105629771232801 
1627	 0.105629718329488 
1628	 0.105607804736225 
1629	 0.105617555588247 
1630	 0.105659671679703 
1631	 0.10566919263388 
1632	 0.105670890413928 
1633	 0.105678374891875 
1634	 0.105680027445399 
1635	 0.105675900583076 
1636	 0.105675141977634 
1637	 0.10566959792525 
1638	 0.105645871052609 
1639	 0.105640473059786 
1640	 0.105647391898699 
1641	 0.105648669382784 
1642	 0.105645767373273 
1643	 0.105659208206433 
1644	 0.105684850271142 
1645	 0.105699199737138 
1646	 0.105722295041534 
1647	 0.105734813157336 
1648	 0.105733488505627 
1649	 0.105738032034067 
1650	 0.10574686328108 
1651	 0.105749207223379 
1652	 0.105742829137215 
1653	 0.105744540205098 
1654	 0.105747463330796 
1655	 0.105752263825532 
1656	 0.105762614170943 
1657	 0.105769810239583 
1658	 0.105781418161456 
1659	 0.105779492969894 
1660	 0.105770058149251 
1661	 0.105761742261929 
1662	 0.105735032178069 
1663	 0.105734463891041 
1664	 0.105753002269627 
1665	 0.105758279192698 
1666	 0.10576781395637 
1667	 0.105779209389415 
1668	 0.105785314185402 
1669	 0.105792478896358 
1670	 0.105813118638474 
1671	 0.105816714948509 
1672	 0.105805811714253 
1673	 0.105799066510601 
1674	 0.10577970650484 
1675	 0.105781151333941 
1676	 0.105792814919677 
1677	 0.105803337250411 
1678	 0.105837859625053 
1679	 0.105841149082627 
1680	 0.105810934994659 
1681	 0.105819017285861 
1682	 0.105836752856598 
1683	 0.105848144084529 
1684	 0.105886187875194 
1685	 0.105902244438122 
1686	 0.105898605856433 
1687	 0.105892200782386 
1688	 0.105871268571175 
1689	 0.10587681690071 
1690	 0.105886844582384 
1691	 0.105896162575295 
1692	 0.105928621541868 
1693	 0.105947330180994 
1694	 0.105947847112122 
1695	 0.105960582346738 
1696	 0.105981987255361 
1697	 0.106003442440328 
1698	 0.106027625725729 
1699	 0.106047638102321 
1700	 0.106074181120771 
1701	 0.106090860162793 
1702	 0.106102863298132 
1703	 0.106102491166376 
1704	 0.106092280261764 
1705	 0.106078388551207 
1706	 0.106041589992887 
1707	 0.106034633898909 
1708	 0.106043653915277 
1709	 0.106044903658639 
1710	 0.10606689457643 
1711	 0.106058247619058 
1712	 0.106016656614269 
1713	 0.106009817156671 
1714	 0.106009344287893 
1715	 0.106004258673825 
1716	 0.106016396458162 
1717	 0.106020025350826 
1718	 0.106004979937727 
1719	 0.106010173790542 
1720	 0.106033395056685 
1721	 0.106050086094418 
1722	 0.106077817924556 
1723	 0.106080715292763 
1724	 0.106068670182357 
1725	 0.106064834932012 
1726	 0.106042990681374 
1727	 0.106038880659527 
1728	 0.106057290298906 
1729	 0.106056339507319 
1730	 0.106049607839656 
1731	 0.106043021391767 
1732	 0.106027007710179 
1733	 0.106022309284451 
1734	 0.106021195721059 
1735	 0.106017295629861 
1736	 0.10602430136912 
1737	 0.106011340304255 
1738	 0.105981220881899 
1739	 0.105975510167361 
1740	 0.105967194373704 
1741	 0.105962354795406 
1742	 0.105976878370452 
1743	 0.105976115338359 
1744	 0.105971650460622 
1745	 0.105963418645781 
1746	 0.105944501907753 
1747	 0.105936591793945 
1748	 0.105932457329043 
1749	 0.105903054037297 
1750	 0.105903669623392 
1751	 0.105909874325855 
1752	 0.105875274238786 
1753	 0.105887987244097 
1754	 0.105920366882547 
1755	 0.10589745383451 
1756	 0.1058866392305 
1757	 0.10585276863177 
1758	 0.105794840612177 
1759	 0.105787098122991 
1760	 0.10578829162366 
1761	 0.105806494553662 
1762	 0.105835718790334 
1763	 0.105831333673716 
1764	 0.105817289092593 
1765	 0.105794718938223 
1766	 0.105762624265389 
1767	 0.105736229280497 
1768	 0.10573794923546 
1769	 0.105741434691406 
1770	 0.105719755596702 
1771	 0.105718449396263 
1772	 0.105710055181416 
1773	 0.105699534200336 
1774	 0.105721610003103 
1775	 0.105729374772171 
1776	 0.105732187071174 
1777	 0.105732192315846 
1778	 0.105728132157158 
1779	 0.105727793180733 
1780	 0.105720689773741 
1781	 0.10571903460884 
1782	 0.105697414580648 
1783	 0.10569109433771 
1784	 0.10569256025914 
1785	 0.105711701311131 
1786	 0.10571736953018 
1787	 0.10571545970148 
1788	 0.105714331571934 
1789	 0.10569169340882 
1790	 0.105696019312495 
1791	 0.105722008827349 
1792	 0.105739748376854 
1793	 0.105775136937788 
1794	 0.105791829214321 
1795	 0.10579318859931 
1796	 0.105801263811038 
1797	 0.105812372396762 
1798	 0.105804002569613 
1799	 0.105784227815734 
1800	 0.105771343225031 
1801	 0.103194195617848 
1802	 0.103263386585842 
1803	 0.103357722720739 
1804	 0.103459629278486 
1805	 0.103554043894012 
1806	 0.103697966281317 
1807	 0.103830477297122 
1808	 0.103946843692493 
1809	 0.104059279437486 
1810	 0.104160921008118 
1811	 0.104251314904456 
1812	 0.10433843397294 
1813	 0.104402925302734 
1814	 0.104439792087856 
1815	 0.104465190631798 
1816	 0.104476804986195 
1817	 0.104493479346894 
1818	 0.104497331551199 
1819	 0.10452222443931 
1820	 0.104552478195801 
1821	 0.10458897265627 
1822	 0.104633130811592 
1823	 0.104672096868943 
1824	 0.104699487909899 
1825	 0.104714859184478 
1826	 0.104720892635079 
1827	 0.104756683612118 
1828	 0.104788758435129 
1829	 0.104828850681387 
1830	 0.104842612293754 
1831	 0.10486435456887 
1832	 0.104854912206096 
1833	 0.104796215128244 
1834	 0.104805810407414 
1835	 0.104840788657954 
1836	 0.104863568500663 
1837	 0.10490152123318 
1838	 0.104931151506178 
1839	 0.104953942138962 
1840	 0.104954042589193 
1841	 0.104973797824893 
1842	 0.105016614800614 
1843	 0.105052222591307 
1844	 0.105100955379673 
1845	 0.105130923728426 
1846	 0.105147026649502 
1847	 0.105183459674186 
1848	 0.105194364107256 
1849	 0.105230763001008 
1850	 0.105273291673258 
1851	 0.105334047732053 
1852	 0.105358680939733 
1853	 0.105404574001945 
1854	 0.105417960533865 
1855	 0.105406911239526 
1856	 0.105424861413239 
1857	 0.105425329080416 
1858	 0.105429023123078 
1859	 0.1054437254194 
1860	 0.105437846539336 
1861	 0.105410590823258 
1862	 0.105387436693063 
1863	 0.105379705517562 
1864	 0.105344861937722 
1865	 0.105325202997549 
1866	 0.105325174750241 
1867	 0.105292017069807 
1868	 0.105262020133314 
1869	 0.10525605705959 
1870	 0.10523188437151 
1871	 0.105199521250784 
1872	 0.105160302485885 
1873	 0.105141680306823 
1874	 0.105114138407946 
1875	 0.105076744706146 
1876	 0.105066301189881 
1877	 0.105067949468115 
1878	 0.105032854143869 
1879	 0.104994837529418 
1880	 0.104955810147388 
1881	 0.104910204363682 
1882	 0.104845902308871 
1883	 0.104773611865661 
1884	 0.104703009377381 
1885	 0.104610589188894 
1886	 0.104522738174997 
1887	 0.104425502782487 
1888	 0.104308687412392 
1889	 0.104184382789733 
1890	 0.104033219911941 
1891	 0.103895876137944 
1892	 0.103761486107047 
1893	 0.103624886311954 
1894	 0.103480999092421 
1895	 0.103365061596991 
1896	 0.10323384784487 
1897	 0.103081738077797 
1898	 0.102923315106058 
1899	 0.1027364336457 
1900	 0.10256518980359 
1901	 0.102398397162746 
1902	 0.102247603511416 
1903	 0.102129265914311 
1904	 0.10199921718525 
1905	 0.101864593802097 
1906	 0.101743377237642 
1907	 0.101630402331173 
1908	 0.1015235111964 
1909	 0.101432435732026 
1910	 0.10132920296408 
1911	 0.101211089498252 
1912	 0.101090478136273 
1913	 0.100977405321431 
1914	 0.100850445197932 
1915	 0.100751839399992 
1916	 0.100675487341618 
1917	 0.100593949808233 
1918	 0.100518920053858 
1919	 0.100454691238287 
1920	 0.100382105087431 
1921	 0.100323732111334 
1922	 0.100286280427408 
1923	 0.100250312945046 
1924	 0.100211482994953 
1925	 0.100172389501679 
1926	 0.100143597358023 
1927	 0.100114137642719 
1928	 0.100097767712097 
1929	 0.100076616628308 
1930	 0.100060106158162 
1931	 0.100045118162441 
1932	 0.100017744342628 
1933	 0.100013564468432 
1934	 0.100018385675575 
1935	 0.100012007656227 
1936	 9.99983722073737E-02 
1937	 9.99947555317409E-02 
1938	 9.99802139514055E-02 
1939	 9.99879878574457E-02 
1940	 0.100018054937441 
1941	 0.100037518580208 
1942	 0.100069264759909 
1943	 0.100100251666319 
1944	 0.100123288154838 
1945	 0.100152698905162 
1946	 0.100169914835704 
1947	 0.100172595797562 
1948	 0.100188522234051 
1949	 0.100200482252839 
1950	 0.100222166142322 
1951	 0.100246146874532 
1952	 0.100290084404032 
1953	 0.100348321348607 
1954	 0.10038056923799 
1955	 0.10043801765067 
1956	 0.100499143267769 
1957	 0.100551982832314 
1958	 0.100606295906801 
1959	 0.100655916540903 
1960	 0.100692248041533 
1961	 0.100742004011155 
1962	 0.100788620359313 
1963	 0.1008415358499 
1964	 0.100901521097784 
1965	 0.100975318007107 
1966	 0.101029492597777 
1967	 0.101108683996587 
1968	 0.101182410929641 
1969	 0.101258169444859 
1970	 0.101325624292813 
1971	 0.101403081759228 
1972	 0.101463815392814 
1973	 0.101510625452587 
1974	 0.101561007094076 
1975	 0.10161146213526 
1976	 0.101638279612583 
1977	 0.101695966561322 
1978	 0.101757430134067 
1979	 0.101806709255773 
1980	 0.101884729728417 
1981	 0.101955794826668 
1982	 0.102018725745552 
1983	 0.102093642977918 
1984	 0.102193170313442 
1985	 0.102266320433952 
1986	 0.102331736349284 
1987	 0.102393032490569 
1988	 0.102432725393729 
1989	 0.10249093687611 
1990	 0.102553612710341 
1991	 0.102603627979631 
1992	 0.102655093721509 
1993	 0.10269996063461 
1994	 0.102759801877911 
1995	 0.102822743926593 
1996	 0.102888712597705 
1997	 0.102969390389239 
1998	 0.103043542435493 
1999	 0.103120814830568 
2000	 0.103187358016279 
2001	 0.103244801398777 
2002	 0.103310092181323 
2003	 0.103372222402178 
2004	 0.10342986177841 
2005	 0.103491674644831 
2006	 0.103564488695637 
2007	 0.103624354149488 
2008	 0.10365975532728 
2009	 0.103731139197564 
2010	 0.103835300028695 
2011	 0.103909515575692 
2012	 0.103987354059962 
2013	 0.104061612222366 
2014	 0.104115463077297 
2015	 0.104163661357023 
2016	 0.104226310574401 
2017	 0.104307376631371 
2018	 0.104377742367383 
2019	 0.104446380685512 
2020	 0.104508306758604 
2021	 0.104572391642667 
2022	 0.104628078485893 
2023	 0.104663171378989 
2024	 0.104718885775831 
2025	 0.104782757840784 
2026	 0.10484314125697 
2027	 0.104910158830348 
2028	 0.104980680942849 
2029	 0.105046142703376 
2030	 0.105102900728999 
2031	 0.105171466688397 
2032	 0.105253976818833 
2033	 0.105316712755693 
2034	 0.105380254481849 
2035	 0.105431513475789 
2036	 0.105463026115197 
2037	 0.105500887874808 
2038	 0.105524647149072 
2039	 0.105565513489812 
2040	 0.10561893241885 
2041	 0.105665751005537 
2042	 0.105729414786519 
2043	 0.105786701180478 
2044	 0.105825192390714 
2045	 0.105842932127792 
2046	 0.105880738246698 
2047	 0.10591207874248 
2048	 0.105948800772332 
2049	 0.106003143946501 
2050	 0.106043426054614 
2051	 0.10607252170274 
2052	 0.106105571851737 
2053	 0.106138383256831 
2054	 0.106172973773954 
2055	 0.106202375644498 
2056	 0.106240135487716 
2057	 0.106278231962714 
2058	 0.106329145892201 
2059	 0.106352545003426 
2060	 0.10635546610734 
2061	 0.106382766279514 
2062	 0.106401310308306 
2063	 0.106430708221666 
2064	 0.106494062916682 
2065	 0.106532727237481 
2066	 0.106550872899244 
2067	 0.10658159019016 
2068	 0.106619202892752 
2069	 0.106640437602408 
2070	 0.106679010554685 
2071	 0.10673175465062 
2072	 0.106764748065044 
2073	 0.106792483831821 
2074	 0.106826528388935 
2075	 0.106851426931015 
2076	 0.106885427880219 
2077	 0.106940628934192 
2078	 0.106968806468424 
2079	 0.106979188473515 
2080	 0.1069976646315 
2081	 0.10699954217718 
2082	 0.107018440453082 
2083	 0.107050902777161 
2084	 0.10707848248993 
2085	 0.107124417967021 
2086	 0.107187769095292 
2087	 0.107231882323989 
2088	 0.107282402518258 
2089	 0.107324977701252 
2090	 0.107349172244691 
2091	 0.10738630584024 
2092	 0.107431982875516 
2093	 0.107473333525701 
2094	 0.107525515221108 
2095	 0.107556471395218 
2096	 0.107566415325645 
2097	 0.107590806452121 
2098	 0.107607565780359 
2099	 0.107627586773962 
2100	 0.107652269431766 
2101	 0.107687573815068 
2102	 0.107728000186294 
2103	 0.107768169604728 
2104	 0.107812796298086 
2105	 0.107875938380902 
2106	 0.107924123762468 
2107	 0.107962300991901 
2108	 0.10800516563821 
2109	 0.108043803668513 
2110	 0.108091617559684 
2111	 0.108130666528311 
2112	 0.108193748386762 
2113	 0.108300869944212 
2114	 0.10836769765362 
2115	 0.108434929120699 
2116	 0.108515724401611 
2117	 0.10856492386355 
2118	 0.108575781425509 
2119	 0.108614615302926 
2120	 0.108644189687721 
2121	 0.108697743180779 
2122	 0.108784031247697 
2123	 0.108838356358324 
2124	 0.108907294125558 
2125	 0.108942964120323 
2126	 0.108927664257315 
2127	 0.108938101834442 
2128	 0.108941020584396 
2129	 0.108952179817029 
2130	 0.108964354818428 
2131	 0.109004837200591 
2132	 0.109033105981979 
2133	 0.109070095075358 
2134	 0.109086402677781 
2135	 0.109098649671798 
2136	 0.109101680872826 
2137	 0.109101480817395 
2138	 0.109073278162032 
2139	 0.109016214983115 
2140	 0.108980584522207 
2141	 0.10892863701125 
2142	 0.108881605321579 
2143	 0.10885994422225 
2144	 0.10882113923705 
2145	 0.108756348728286 
2146	 0.108705125445673 
2147	 0.10865001871446 
2148	 0.108621275175122 
2149	 0.108567492205959 
2150	 0.108510945873902 
2151	 0.10845387414179 
2152	 0.108383334756324 
2153	 0.108322055409579 
2154	 0.108261735915076 
2155	 0.108212923091075 
2156	 0.108188368840965 
2157	 0.108126828711148 
2158	 0.108059758786306 
2159	 0.107982968000847 
2160	 0.107862636433766 
2161	 0.107768240252203 
2162	 0.107693429997295 
2163	 0.107608527398824 
2164	 0.107522962207093 
2165	 0.107432785951762 
2166	 0.107355808903257 
2167	 0.107289870786857 
2168	 0.107194516142472 
2169	 0.107092436003432 
2170	 0.106996882550209 
2171	 0.106869879523009 
2172	 0.106777265766743 
2173	 0.106713847481843 
2174	 0.106643378810349 
2175	 0.106574404162909 
2176	 0.106513439452635 
2177	 0.106480704814638 
2178	 0.106414367224858 
2179	 0.106333382566809 
2180	 0.106252325889664 
2181	 0.106129736238795 
2182	 0.106041594346968 
2183	 0.105982537157389 
2184	 0.105919989650424 
2185	 0.105848826110586 
2186	 0.10579015880035 
2187	 0.105714732702199 
2188	 0.10560713129545 
2189	 0.105541238835575 
2190	 0.105495999661329 
2191	 0.105440787116872 
2192	 0.105399137084447 
2193	 0.105354270714607 
2194	 0.105304397625104 
2195	 0.105256589468194 
2196	 0.105212641909274 
2197	 0.10517194892311 
2198	 0.105140084857183 
2199	 0.105091764193271 
2200	 0.105028844158889 
2201	 0.104982361140229 
2202	 0.104930526962155 
2203	 0.104873829383736 
2204	 0.104852118334848 
2205	 0.104872297643612 
2206	 0.104849398191469 
2207	 0.104819919929481 
2208	 0.104799953130899 
2209	 0.104761944161335 
2210	 0.104746672239928 
2211	 0.104765651432874 
2212	 0.104753286972852 
2213	 0.104727051923684 
2214	 0.104703217204079 
2215	 0.104651889158699 
2216	 0.104637856439637 
2217	 0.104649548061651 
2218	 0.104650390164887 
2219	 0.104683185365322 
2220	 0.104687643578928 
2221	 0.10466535207585 
2222	 0.104645373130968 
2223	 0.10463874652 
2224	 0.104615483739188 
2225	 0.10461731191822 
2226	 0.104638933640457 
2227	 0.10465353846449 
2228	 0.104676420445348 
2229	 0.104686117832148 
2230	 0.104689194059524 
2231	 0.104698684866182 
2232	 0.104704868427292 
2233	 0.104716759444499 
2234	 0.104751138206105 
2235	 0.104748837197502 
2236	 0.104721351477986 
2237	 0.104706145117582 
2238	 0.10465333292161 
2239	 0.104646529182827 
2240	 0.104686129203276 
2241	 0.104701999481507 
2242	 0.104731520876953 
2243	 0.104755338770179 
2244	 0.104774071073633 
2245	 0.104767256654318 
2246	 0.104802504420334 
2247	 0.104820125184263 
2248	 0.104821522783405 
2249	 0.104815589376211 
2250	 0.104811329102652 
2251	 0.104776195026302 
2252	 0.104781281425742 
2253	 0.104814703281151 
2254	 0.104827526999666 
2255	 0.104849790112345 
2256	 0.104858972842009 
2257	 0.104848201845816 
2258	 0.104854029039281 
2259	 0.104866026856597 
2260	 0.104876304080819 
2261	 0.104883098045409 
2262	 0.104907321716217 
2263	 0.104956931814926 
2264	 0.10497462000498 
2265	 0.104986356838399 
2266	 0.104996790917122 
2267	 0.104976042136769 
2268	 0.1049707550972 
2269	 0.104982366264353 
2270	 0.104998148574357 
2271	 0.104975686308207 
2272	 0.104964809504391 
2273	 0.104981453478732 
2274	 0.10496514566158 
2275	 0.104973224228983 
2276	 0.10500741329421 
2277	 0.105021125906658 
2278	 0.105032880798482 
2279	 0.105032559613601 
2280	 0.10501648758403 
2281	 0.105019330201149 
2282	 0.105008655362071 
2283	 0.105029660201865 
2284	 0.105087307973685 
2285	 0.105119467885859 
2286	 0.105162159238187 
2287	 0.105181180067748 
2288	 0.105169587916821 
2289	 0.105183945094077 
2290	 0.105199026307428 
2291	 0.105218583840274 
2292	 0.105266819307581 
2293	 0.105289100654941 
2294	 0.105294045038876 
2295	 0.105303890095554 
2296	 0.105307087644323 
2297	 0.105296597512561 
2298	 0.10532576268107 
2299	 0.105327993028367 
2300	 0.105333874678866 
2301	 0.105355833645061 
2302	 0.105362730456028 
2303	 0.105421236514965 
2304	 0.105474105100983 
2305	 0.105473589614694 
2306	 0.105473604047507 
2307	 0.105421896968114 
2308	 0.10542933115917 
2309	 0.105473244422622 
2310	 0.105482518672801 
2311	 0.105526694518945 
2312	 0.105515139401416 
2313	 0.105417036781717 
2314	 0.105395849961035 
2315	 0.105398817397583 
2316	 0.105390442148428 
2317	 0.105400999376464 
2318	 0.105413782239224 
2319	 0.105426440635814 
2320	 0.10543019393171 
2321	 0.105460008435581 
2322	 0.105467740684784 
2323	 0.105402717443035 
2324	 0.105415024626196 
2325	 0.105502521672831 
2326	 0.105525256328891 
2327	 0.105545555547755 
2328	 0.105594338088888 
2329	 0.105545856741384 
2330	 0.105485891676818 
2331	 0.105531676854788 
2332	 0.105575611990298 
2333	 0.105618450881528 
2334	 0.105704306501651 
2335	 0.105734531729133 
2336	 0.1057166187901 
2337	 0.105727270745211 
2338	 0.105719881061029 
2339	 0.105725920631248 
2340	 0.105771133880446 
2341	 0.10581571907502 
2342	 0.105852303680644 
2343	 0.105839085099191 
2344	 0.105819961360461 
2345	 0.105817526785093 
2346	 0.105804538294676 
2347	 0.105781657184852 
2348	 0.10575899972208 
2349	 0.105761052343381 
2350	 0.105769867559321 
2351	 0.105750779714882 
2352	 0.105751299733756 
2353	 0.105728701623156 
2354	 0.105635353979112 
2355	 0.105609934972406 
2356	 0.105650951106074 
2357	 0.105645733045533 
2358	 0.105637067048313 
2359	 0.105614639073756 
2360	 0.105553604539606 
2361	 0.105518452662487 
2362	 0.105503420864873 
2363	 0.105474508889416 
2364	 0.105400190096829 
2365	 0.105415080891674 
2366	 0.105502552034249 
2367	 0.10552965929987 
2368	 0.105615968206505 
2369	 0.105621481112324 
2370	 0.105501652316634 
2371	 0.105486107054963 
2372	 0.105482220929048 
2373	 0.105475795581255 
2374	 0.105501069068875 
2375	 0.105424050929722 
2376	 0.105314245741227 
2377	 0.10524513141336 
2378	 0.105200099519016 
2379	 0.105161195417282 
2380	 0.105152693993067 
2381	 0.105165015274902 
2382	 0.105114992541262 
2383	 0.105080968223666 
2384	 0.105039648839517 
2385	 0.104981407711044 
2386	 0.105009544576251 
2387	 0.105046295932839 
2388	 0.105081423682714 
2389	 0.105080598129595 
2390	 0.105014310433585 
2391	 0.104931669040763 
2392	 0.104905781046267 
2393	 0.104896690297559 
2394	 0.104863415857276 
2395	 0.10490969684455 
2396	 0.104867391622389 
2397	 0.104845368192567 
2398	 0.104883325875688 
2399	 0.104796591402944 
2400	 0.104762009988104 
2401	 0.104692336846026 
2402	 0.104567702411259 
2403	 0.104559208070369 
2404	 0.104530699505275 
2405	 0.104405265341104 
2406	 0.104358816063528 
2407	 0.104400247467072 
2408	 0.104298908001267 
2409	 0.10417758937271 
2410	 0.104114746412977 
2411	 0.103919173914812 
2412	 0.103811686676929 
2413	 0.103848831721592 
2414	 0.103856795977275 
2415	 0.103890968239229 
2416	 0.103908183185797 
2417	 0.10392721378204 
2418	 0.103937657695926 
2419	 0.103943823439622 
2420	 0.103957655222919 
2421	 0.103967976270792 
2422	 0.103971560625965 
2423	 0.104008605789496 
2424	 0.103948171304375 
2425	 0.103799143215258 
2426	 0.103740603180987 
2427	 0.103668332607009 
2428	 0.103648017039088 
2429	 0.103762725805638 
2430	 0.103716136547561 
2431	 0.103583002757645 
2432	 0.103424952910446 
2433	 0.103098786815169 
2434	 0.102984185135219 
2435	 0.102964909643696 
2436	 0.102980201776476 
2437	 0.103141992279183 
2438	 0.103250086265042 
2439	 0.103400427817459 
2440	 0.103441096358794 
2441	 0.103432581541824 
2442	 0.103409432595871 
2443	 0.103286826930345 
2444	 0.103178085422646 
2445	 0.103010191173399 
2446	 0.102981811101696 
2447	 0.103082104029015 
2448	 0.103014040397016 
2449	 0.102993781596836 
2450	 0.102927456501534 
2451	 0.102611739163929 
2452	 0.102540165033919 
2453	 0.102602122122681 
2454	 0.102616174845153 
2455	 0.1027789730101 
2456	 0.102797488413429 
2457	 0.102754536835109 
2458	 0.102705595329216 
2459	 0.102526102545126 
2460	 0.102391240912117 
2461	 0.102233503400046 
2462	 0.10218463596791 
2463	 0.102243672892707 
2464	 0.102229520394464 
2465	 0.102342873958232 
2466	 0.102321119280282 
2467	 0.102100924109386 
2468	 0.101915012939831 
2469	 0.101602186666177 
2470	 0.101473512980619 
2471	 0.101569304123246 
2472	 0.101711732445305 
2473	 0.101900108282168 
2474	 0.101886114314187 
2475	 0.101776816352743 
2476	 0.101738427129587 
2477	 0.101602147923676 
2478	 0.101501928984613 
2479	 0.101471548555336 
2480	 0.101430537054965 
2481	 0.101328847631821 
2482	 0.101323983723038 
2483	 0.101518609167512 
2484	 0.101491120781293 
2485	 0.101369915977399 
2486	 0.101450699734961 
2487	 0.101199106811351 
2488	 0.100989004557827 
2489	 0.101167166320176 
2490	 0.101118240531602 
2491	 0.101046398402232 
2492	 0.101082821205524 
2493	 0.101018659427957 
2494	 0.101022916772189 
2495	 0.101002039215274 
2496	 0.100920390170026 
2497	 0.100848536652094 
2498	 0.100842433921184 
2499	 0.100874019194464 
2500	 0.100778578509311 
