Wavelength	mm2800014.asd
350	 4.71372101054641E-02 
351	 5.54241816524346E-02 
352	 5.53960128556506E-02 
353	 4.55950913362442E-02 
354	 5.40120835033988E-02 
355	 5.60750411772654E-02 
356	 5.58922831888991E-02 
357	 6.10782406200459E-02 
358	 6.35113379457666E-02 
359	 5.93772567922534E-02 
360	 5.38859576348719E-02 
361	 5.63232022576263E-02 
362	 5.49326282882609E-02 
363	 5.46240887293304E-02 
364	 0.056946660428701 
365	 5.50013641954297E-02 
366	 5.50101460422517E-02 
367	 5.53290927025432E-02 
368	 5.38432728776697E-02 
369	 5.53091495334301E-02 
370	 5.69227490206427E-02 
371	 5.81666033007042E-02 
372	 6.00371982451416E-02 
373	 6.07384321274957E-02 
374	 5.97078459634596E-02 
375	 5.83261178630424E-02 
376	 6.12699232927251E-02 
377	 6.01346696995793E-02 
378	 5.81932313743819E-02 
379	 6.02659016466412E-02 
380	 6.21015744396747E-02 
381	 6.12896670044306E-02 
382	 5.96159380986853E-02 
383	 6.14689636179046E-02 
384	 6.35806063807132E-02 
385	 6.27919665911847E-02 
386	 5.98004604894932E-02 
387	 6.26033734895641E-02 
388	 6.40274754764064E-02 
389	 6.40015323292363E-02 
390	 0.064161583499903 
391	 6.26442265968419E-02 
392	 6.28923478680588E-02 
393	 6.44789759677458E-02 
394	 6.38479092838569E-02 
395	 6.41691397864747E-02 
396	 0.064883894378321 
397	 0.065282218561728 
398	 6.56673907989444E-02 
399	 6.58465893330328E-02 
400	 6.62776961676601E-02 
401	 0.067250688310802 
402	 6.67688239943298E-02 
403	 6.66381131078399E-02 
404	 0.067299631985846 
405	 6.76305995445785E-02 
406	 6.82409303968884E-02 
407	 6.90002330528505E-02 
408	 6.93735158035766E-02 
409	 6.78441961868988E-02 
410	 6.79279814204443E-02 
411	 6.86543423387467E-02 
412	 6.75923292812305E-02 
413	 6.83989760902692E-02 
414	 6.94071141867823E-02 
415	 6.96102472253455E-02 
416	 6.94395308371634E-02 
417	 6.92800697146286E-02 
418	 7.00210827312624E-02 
419	 7.16740797117464E-02 
420	 7.11453087949056E-02 
421	 7.02356987304789E-02 
422	 7.00544045643394E-02 
423	 7.09780025613837E-02 
424	 7.13726159206126E-02 
425	 7.12006404104484E-02 
426	 7.08667852201686E-02 
427	 7.11317420267783E-02 
428	 7.14874267395815E-02 
429	 7.16363688989672E-02 
430	 0.071513469151268 
431	 7.18676319896992E-02 
432	 7.20774320743998E-02 
433	 7.21059848857584E-02 
434	 7.25029029211836E-02 
435	 7.26319087411693E-02 
436	 7.25669211223221E-02 
437	 7.25161823315601E-02 
438	 7.26343279401479E-02 
439	 7.29878186320794E-02 
440	 7.33423787184781E-02 
441	 7.33808199336203E-02 
442	 7.34509974937478E-02 
443	 7.36122862512699E-02 
444	 7.37819395695902E-02 
445	 7.37008852887939E-02 
446	 0.073863991780248 
447	 7.42023442666638E-02 
448	 7.44911934072958E-02 
449	 7.46101457783581E-02 
450	 7.48282232556464E-02 
451	 7.50952023053391E-02 
452	 7.51043146109261E-02 
453	 7.51116422959511E-02 
454	 7.51903122825597E-02 
455	 7.53479049895508E-02 
456	 7.55474514803723E-02 
457	 7.55189211757906E-02 
458	 0.075586382258851 
459	 7.61598069013981E-02 
460	 7.60722401663741E-02 
461	 7.60875156931055E-02 
462	 0.076465568829461 
463	 7.65279165591387E-02 
464	 7.63896107025753E-02 
465	 0.076544634975686 
466	 7.72603284955866E-02 
467	 7.75086755854139E-02 
468	 7.74608390227721E-02 
469	 7.74076649058091E-02 
470	 0.077674411979229 
471	 7.78963030256541E-02 
472	 7.80077319256664E-02 
473	 7.81025877118908E-02 
474	 7.85561089717222E-02 
475	 7.88460089215694E-02 
476	 7.88738504799382E-02 
477	 7.87863925119271E-02 
478	 7.89683424371158E-02 
479	 7.91109258602043E-02 
480	 7.91569950701506E-02 
481	 0.079475860414371 
482	 8.01525602533093E-02 
483	 8.04796254033942E-02 
484	 8.00221656311442E-02 
485	 8.03309345804839E-02 
486	 8.05770342710198E-02 
487	 8.06034333615235E-02 
488	 8.08337744751851E-02 
489	 8.09023231548855E-02 
490	 8.09787005911003E-02 
491	 8.11962477347989E-02 
492	 8.13935169506271E-02 
493	 8.14902421454476E-02 
494	 0.081491873167488 
495	 8.14850212093721E-02 
496	 8.17550925831728E-02 
497	 8.20463921982319E-02 
498	 8.22078642043421E-02 
499	 8.23244681848663E-02 
500	 8.23329547956921E-02 
501	 8.23611845605882E-02 
502	 8.25264651670518E-02 
503	 8.26572400650155E-02 
504	 8.27807492862208E-02 
505	 8.29006259144651E-02 
506	 8.29926080720124E-02 
507	 8.29964413823013E-02 
508	 0.083097376262604 
509	 0.083350225508246 
510	 0.083321113665416 
511	 8.34407184338124E-02 
512	 8.36216910519396E-02 
513	 8.35635196242883E-02 
514	 8.37260285344707E-02 
515	 8.38844799100009E-02 
516	 0.083939903836501 
517	 8.41463051648865E-02 
518	 8.42770947750618E-02 
519	 8.43089480156384E-02 
520	 8.43080277331803E-02 
521	 0.084413451736854 
522	 8.45797791130304E-02 
523	 8.47607790079319E-02 
524	 8.49214494762106E-02 
525	 8.48210797137344E-02 
526	 8.47474180171085E-02 
527	 8.49313818443213E-02 
528	 8.50600262850284E-02 
529	 8.50503265237007E-02 
530	 8.50346358629338E-02 
531	 8.52501923762128E-02 
532	 8.53548973431069E-02 
533	 8.54301247050725E-02 
534	 8.55344478605624E-02 
535	 8.55341201052156E-02 
536	 8.56147695556713E-02 
537	 8.57367126933953E-02 
538	 8.57947086245365E-02 
539	 8.59065119018465E-02 
540	 8.59676782227443E-02 
541	 8.59971600760602E-02 
542	 8.62010277422081E-02 
543	 8.62817476185681E-02 
544	 8.63016658175477E-02 
545	 8.63902706336772E-02 
546	 8.65310731658586E-02 
547	 8.65902911508227E-02 
548	 8.65866560381515E-02 
549	 8.66624947464102E-02 
550	 8.66965108318391E-02 
551	 8.67426806975799E-02 
552	 8.68356720469702E-02 
553	 8.68823805453514E-02 
554	 8.68915777901451E-02 
555	 8.69209016735138E-02 
556	 8.70369253539698E-02 
557	 8.71157899223692E-02 
558	 8.71850254337236E-02 
559	 8.72985870279771E-02 
560	 8.75451626825891E-02 
561	 8.76016385621135E-02 
562	 8.75427012951959E-02 
563	 8.75752837187557E-02 
564	 8.77764903614925E-02 
565	 8.78807772259663E-02 
566	 8.78187106498303E-02 
567	 8.77623711950661E-02 
568	 8.78239119030084E-02 
569	 8.79692966369433E-02 
570	 8.81232077392895E-02 
571	 8.82364635856597E-02 
572	 8.82837718228045E-02 
573	 8.83002862437351E-02 
574	 0.088359254282643 
575	 8.84161490153445E-02 
576	 8.85090484537172E-02 
577	 8.86328312795319E-02 
578	 8.86638888904399E-02 
579	 8.86439795270885E-02 
580	 8.85861553318257E-02 
581	 0.088504784214942 
582	 8.84655755548713E-02 
583	 8.84826336575397E-02 
584	 8.85622236892947E-02 
585	 8.87097756259714E-02 
586	 8.88968476249019E-02 
587	 8.91049938338755E-02 
588	 8.93091274308691E-02 
589	 8.94410940075073E-02 
590	 8.95758451193883E-02 
591	 8.97045646464137E-02 
592	 8.97452128073519E-02 
593	 8.98272981058425E-02 
594	 0.089859182306665 
595	 8.97684823189355E-02 
596	 8.96390991669121E-02 
597	 8.95140670754425E-02 
598	 8.94133788982931E-02 
599	 8.93495369834886E-02 
600	 8.94253944491757E-02 
601	 0.089529273996686 
602	 8.95920349734425E-02 
603	 8.96629622745271E-02 
604	 0.089752907588582 
605	 8.98628684206044E-02 
606	 8.99843322931637E-02 
607	 9.00939028950075E-02 
608	 9.01867233558547E-02 
609	 9.02944229505448E-02 
610	 9.04851454511322E-02 
611	 9.05840439473427E-02 
612	 9.06076415879761E-02 
613	 9.06131874412746E-02 
614	 9.06135147288252E-02 
615	 9.06199048619677E-02 
616	 9.06481834000728E-02 
617	 0.090711748959957 
618	 9.07689651693909E-02 
619	 9.07983892717802E-02 
620	 9.08133701060628E-02 
621	 9.08978999668212E-02 
622	 9.09672452346992E-02 
623	 9.10031211398161E-02 
624	 9.10195477305881E-02 
625	 9.10488400353591E-02 
626	 9.11025968818359E-02 
627	 9.11693237926099E-02 
628	 9.12103141219904E-02 
629	 9.12896620272013E-02 
630	 9.13505642551926E-02 
631	 9.13428456622972E-02 
632	 9.13709869396912E-02 
633	 9.14060629735818E-02 
634	 9.14512094834442E-02 
635	 9.15332022998052E-02 
636	 9.16009003334305E-02 
637	 9.16469796136486E-02 
638	 9.16768385681321E-02 
639	 9.16984838667454E-02 
640	 9.17692160002049E-02 
641	 9.18644297478641E-02 
642	 9.19213455357263E-02 
643	 9.19268465700166E-02 
644	 9.19376792465641E-02 
645	 9.19834653296761E-02 
646	 9.20444153357985E-02 
647	 9.21222356994252E-02 
648	 9.21973912584561E-02 
649	 9.22531987718904E-02 
650	 9.23119420441971E-02 
651	 9.23378517605742E-02 
652	 9.23614790144037E-02 
653	 9.24630256897451E-02 
654	 9.25326572657666E-02 
655	 0.092562086220661 
656	 9.25782642415897E-02 
657	 9.26467537595079E-02 
658	 9.27128626535523E-02 
659	 9.27603848751859E-02 
660	 9.27967044577755E-02 
661	 9.28611404543364E-02 
662	 9.29265254620115E-02 
663	 9.29805231693016E-02 
664	 9.30415825374228E-02 
665	 9.31153538221153E-02 
666	 9.31680973057717E-02 
667	 9.31867878939914E-02 
668	 9.32967308744753E-02 
669	 9.33634925861126E-02 
670	 9.33796066029444E-02 
671	 9.34436576044744E-02 
672	 9.34951995244061E-02 
673	 0.093533533383686 
674	 9.35784391964311E-02 
675	 9.36841731571919E-02 
676	 9.37381580588583E-02 
677	 9.37422481980623E-02 
678	 9.37541532444311E-02 
679	 0.093819568591554 
680	 9.38829517461145E-02 
681	 0.093929438948432 
682	 9.40091142020274E-02 
683	 9.40826495903721E-02 
684	 9.41325408635376E-02 
685	 9.41650264802288E-02 
686	 9.42505550991695E-02 
687	 9.43179455879386E-02 
688	 9.43619705949893E-02 
689	 9.44214611179971E-02 
690	 9.44427419791507E-02 
691	 9.44764629944775E-02 
692	 9.45470637878928E-02 
693	 0.094598080661139 
694	 9.46515706483232E-02 
695	 9.47047963517095E-02 
696	 9.47474572678526E-02 
697	 9.47703653740672E-02 
698	 9.48029091848477E-02 
699	 9.48591400843326E-02 
700	 9.49328038170956E-02 
701	 0.09497001867017 
702	 9.49890622222084E-02 
703	 0.095018217974426 
704	 9.50675923502571E-02 
705	 9.50979352663171E-02 
706	 9.51232980952516E-02 
707	 9.51780932613025E-02 
708	 9.52099027093538E-02 
709	 9.52517557272071E-02 
710	 9.53090981404788E-02 
711	 9.53349945080126E-02 
712	 0.095371405775319 
713	 9.54046817794415E-02 
714	 9.54191893522172E-02 
715	 9.54522114844297E-02 
716	 9.54782712261952E-02 
717	 9.54956171278181E-02 
718	 9.55220167389268E-02 
719	 9.55827908895777E-02 
720	 9.56259794265074E-02 
721	 9.56292549976989E-02 
722	 9.56476473654017E-02 
723	 9.56683986870823E-02 
724	 9.56830045147985E-02 
725	 9.56897681813154E-02 
726	 9.57211351351693E-02 
727	 9.57435682791006E-02 
728	 9.57497540159327E-02 
729	 9.57595925501856E-02 
730	 9.57765003810128E-02 
731	 0.095785003162199 
732	 9.57825327580619E-02 
733	 0.095809268843295 
734	 9.58144258059804E-02 
735	 9.57969086628822E-02 
736	 0.095782596228373 
737	 9.58212332972876E-02 
738	 9.58442544332828E-02 
739	 9.58411598488468E-02 
740	 9.58718377334431E-02 
741	 9.58641237335548E-02 
742	 9.58370033733317E-02 
743	 9.58224605386029E-02 
744	 9.58362688924084E-02 
745	 9.58222843730995E-02 
746	 9.58084031604535E-02 
747	 9.58465616197517E-02 
748	 9.58529520762712E-02 
749	 9.58127656969473E-02 
750	 9.57734160774214E-02 
751	 9.58441816731905E-02 
752	 9.58764345739143E-02 
753	 9.58461324693613E-02 
754	 9.57822284301593E-02 
755	 9.57674580875441E-02 
756	 9.57903990395321E-02 
757	 9.58135089821559E-02 
758	 9.57955366849026E-02 
759	 9.57852455690299E-02 
760	 9.57888949039551E-02 
761	 9.57956908931077E-02 
762	 9.57796967695485E-02 
763	 9.57721588900055E-02 
764	 9.57754924552572E-02 
765	 9.57795812743923E-02 
766	 9.57555596062558E-02 
767	 9.57605565476065E-02 
768	 9.57809781556208E-02 
769	 9.57724058303629E-02 
770	 0.095758362886805 
771	 9.57341652555797E-02 
772	 9.57011379020303E-02 
773	 9.56702875181713E-02 
774	 9.56613539462747E-02 
775	 9.56680507961549E-02 
776	 9.56706653006852E-02 
777	 9.56271752211684E-02 
778	 9.56107611192268E-02 
779	 9.56338414281853E-02 
780	 9.56669487882549E-02 
781	 9.56192779277194E-02 
782	 9.56170708914554E-02 
783	 9.56666119485169E-02 
784	 9.56356614659159E-02 
785	 9.56007229211499E-02 
786	 9.55795336513156E-02 
787	 9.55681563832408E-02 
788	 0.09553262628366 
789	 9.55436697042898E-02 
790	 0.095557880922833 
791	 9.55142445347128E-02 
792	 9.55052169860541E-02 
793	 9.55001383764763E-02 
794	 9.54897401627476E-02 
795	 9.54863777399436E-02 
796	 9.54630666153545E-02 
797	 9.54475167902454E-02 
798	 9.54498842335194E-02 
799	 9.54328496803776E-02 
800	 9.54158898511631E-02 
801	 9.54081822105128E-02 
802	 9.54112371614214E-02 
803	 9.54136014867134E-02 
804	 0.095380382487585 
805	 0.09533919008821 
806	 9.53490726556117E-02 
807	 9.53760219327199E-02 
808	 9.53570393218974E-02 
809	 9.52959763134151E-02 
810	 9.52842547180218E-02 
811	 9.52971841273577E-02 
812	 9.52891188909463E-02 
813	 9.52488460477129E-02 
814	 0.095273044788551 
815	 9.53048657009954E-02 
816	 9.52873348567523E-02 
817	 9.52016279421588E-02 
818	 9.52244210419183E-02 
819	 9.52455303729992E-02 
820	 9.52134375598398E-02 
821	 9.51495289402567E-02 
822	 9.51334028730619E-02 
823	 0.095120013862333 
824	 9.50926955967837E-02 
825	 9.51140489705801E-02 
826	 9.51307426431603E-02 
827	 9.51256229898574E-02 
828	 9.51073227933383E-02 
829	 0.095136786283471 
830	 9.51133874766707E-02 
831	 0.095068613708859 
832	 9.50861438988972E-02 
833	 0.095134105662034 
834	 9.51327529505492E-02 
835	 0.095085777121203 
836	 9.50757329574166E-02 
837	 9.50913006099133E-02 
838	 0.095103385842692 
839	 9.50893978950263E-02 
840	 9.50452561470938E-02 
841	 0.094993108457129 
842	 9.49793341874108E-02 
843	 9.50212955505823E-02 
844	 9.50354997863051E-02 
845	 9.50296975283257E-02 
846	 9.50113702289158E-02 
847	 9.49985402494684E-02 
848	 9.50571100685553E-02 
849	 9.50858934762626E-02 
850	 9.50672616643064E-02 
851	 9.50606054985619E-02 
852	 9.50295171888768E-02 
853	 9.50339171236004E-02 
854	 0.09507535575161 
855	 9.50569119734617E-02 
856	 9.50899764793233E-02 
857	 9.51198236137061E-02 
858	 9.50918155288096E-02 
859	 9.50455934755637E-02 
860	 9.50521643366853E-02 
861	 9.50739379452847E-02 
862	 9.50532240409252E-02 
863	 9.50428231486135E-02 
864	 0.095038384482559 
865	 9.50449381522124E-02 
866	 0.095063567018198 
867	 9.50250383457257E-02 
868	 9.50033790862621E-02 
869	 0.095019631745565 
870	 9.50294543643194E-02 
871	 9.50560816828298E-02 
872	 9.50898229408567E-02 
873	 9.51071733129096E-02 
874	 9.50725333129294E-02 
875	 9.50786867472863E-02 
876	 0.095104369816806 
877	 9.51122346980461E-02 
878	 9.50998312561573E-02 
879	 9.51313626004088E-02 
880	 9.51712757892019E-02 
881	 9.51705890915434E-02 
882	 9.51847377690335E-02 
883	 9.52220856558534E-02 
884	 9.52475317710957E-02 
885	 0.095231428941321 
886	 0.095339632289157 
887	 9.53605971001415E-02 
888	 0.095277381435706 
889	 0.095257321839968 
890	 9.53086699797573E-02 
891	 9.53826043718707E-02 
892	 9.54242079583106E-02 
893	 9.53938329824537E-02 
894	 9.53902988609967E-02 
895	 9.54253201964752E-02 
896	 9.54800026124383E-02 
897	 9.55170118443312E-02 
898	 9.55565942089298E-02 
899	 9.55628840704671E-02 
900	 9.55354488107607E-02 
901	 9.56040416879243E-02 
902	 9.56527932686506E-02 
903	 9.56667591903763E-02 
904	 9.56725721419354E-02 
905	 9.57076395083774E-02 
906	 9.57519085322193E-02 
907	 9.57893714761269E-02 
908	 9.58170784135249E-02 
909	 9.58883709301085E-02 
910	 9.59013246562513E-02 
911	 9.58742476150861E-02 
912	 9.58953759663979E-02 
913	 9.58956330837216E-02 
914	 9.59718033888471E-02 
915	 9.60931923221242E-02 
916	 9.61189873443188E-02 
917	 9.60856882452232E-02 
918	 9.60763786121283E-02 
919	 9.61214666671891E-02 
920	 9.61821733435805E-02 
921	 9.62796424735107E-02 
922	 9.63430991530739E-02 
923	 9.63366435354128E-02 
924	 9.63005520425635E-02 
925	 9.63703924521276E-02 
926	 9.64652774437863E-02 
927	 9.64967974728434E-02 
928	 9.64589734376163E-02 
929	 0.096548229646613 
930	 9.66451289032136E-02 
931	 0.096662288300893 
932	 9.67866492275685E-02 
933	 9.68362203829489E-02 
934	 9.68406665203708E-02 
935	 9.68810200190961E-02 
936	 9.70054447891925E-02 
937	 0.096996725122352 
938	 0.096971855843787 
939	 9.70785393564357E-02 
940	 9.71496549640443E-02 
941	 9.72077677127113E-02 
942	 9.73047678467562E-02 
943	 9.74451849018058E-02 
944	 9.73963809952373E-02 
945	 9.74375430198486E-02 
946	 0.09752481334913 
947	 9.75217237720081E-02 
948	 0.097627664981378 
949	 9.76553368148186E-02 
950	 9.75942013078677E-02 
951	 9.75669641891621E-02 
952	 9.78179053130039E-02 
953	 9.78732411238209E-02 
954	 0.097805445451165 
955	 9.79439290017554E-02 
956	 9.80681824261824E-02 
957	 9.81792030727345E-02 
958	 9.82416251364554E-02 
959	 9.82230048384821E-02 
960	 9.82342216238249E-02 
961	 9.82641683279005E-02 
962	 9.83450659004953E-02 
963	 9.85002868775514E-02 
964	 9.85285094133478E-02 
965	 9.85797875541417E-02 
966	 9.86423790434923E-02 
967	 0.098618238635654 
968	 9.86840037276181E-02 
969	 9.87338969872933E-02 
970	 9.87753900274901E-02 
971	 9.88753768264946E-02 
972	 9.88860449629834E-02 
973	 9.89446822225918E-02 
974	 9.89962797623479E-02 
975	 9.89091234785669E-02 
976	 9.89629456282589E-02 
977	 9.90974941728061E-02 
978	 9.91723144448532E-02 
979	 9.91014671270183E-02 
980	 9.92888215783631E-02 
981	 9.94082961021524E-02 
982	 9.93427825324128E-02 
983	 9.92237338076439E-02 
984	 9.95263619608644E-02 
985	 9.96864776639096E-02 
986	 9.95908335341801E-02 
987	 9.94746148654339E-02 
988	 9.96360488916327E-02 
989	 9.96953192156006E-02 
990	 9.96321102252541E-02 
991	 9.96399145821536E-02 
992	 9.98521566103799E-02 
993	 9.98451078398214E-02 
994	 9.98313647193966E-02 
995	 0.10011121039008 
996	 0.100057774723091 
997	 0.100000692983703 
998	 9.99896595422462E-02 
999	 0.100000457010665 
1000	 0.100214086337962 
1001	 9.85895837412864E-02 
1002	 9.85855506095336E-02 
1003	 0.098645203892809 
1004	 9.86791955300734E-02 
1005	 9.87980065289164E-02 
1006	 9.88559906228556E-02 
1007	 9.89083993040774E-02 
1008	 9.88124898340806E-02 
1009	 9.87501258149013E-02 
1010	 9.87493746190986E-02 
1011	 9.87697014690132E-02 
1012	 9.88287678383232E-02 
1013	 9.88775595647051E-02 
1014	 9.88962671087867E-02 
1015	 9.89319449547036E-02 
1016	 9.89339260483134E-02 
1017	 9.89557358650665E-02 
1018	 9.89925999743807E-02 
1019	 9.90557896193999E-02 
1020	 9.90671485140632E-02 
1021	 9.90763958842534E-02 
1022	 9.90760092118757E-02 
1023	 0.09905238711257 
1024	 0.099042855432131 
1025	 0.099046877939012 
1026	 9.90714486528554E-02 
1027	 0.099076576956234 
1028	 9.90609661842425E-02 
1029	 9.90622772521845E-02 
1030	 9.90793288897032E-02 
1031	 9.90622512234921E-02 
1032	 9.90412248835102E-02 
1033	 9.89751329404034E-02 
1034	 9.89140365976323E-02 
1035	 9.88400564372268E-02 
1036	 9.88116613366274E-02 
1037	 9.88834386431088E-02 
1038	 9.89248796677361E-02 
1039	 9.89585668463475E-02 
1040	 9.89890630922051E-02 
1041	 9.89934460122699E-02 
1042	 9.90322970808974E-02 
1043	 0.099072868749579 
1044	 9.90900878677283E-02 
1045	 9.90977616296207E-02 
1046	 9.90894087525333E-02 
1047	 9.90608582880589E-02 
1048	 9.90600207985507E-02 
1049	 9.90910944191732E-02 
1050	 9.91137068748311E-02 
1051	 0.099145806985129 
1052	 9.91722078367722E-02 
1053	 9.91981228564388E-02 
1054	 9.92466194533017E-02 
1055	 9.93311199021787E-02 
1056	 9.94101512403361E-02 
1057	 9.94332274017543E-02 
1058	 9.93707521928973E-02 
1059	 9.94174201018075E-02 
1060	 9.94784723906502E-02 
1061	 9.95369035243661E-02 
1062	 9.96577082782613E-02 
1063	 9.97564824314319E-02 
1064	 9.97930528689004E-02 
1065	 9.98246528501767E-02 
1066	 9.98900459285916E-02 
1067	 9.99389759921105E-02 
1068	 9.99809425038425E-02 
1069	 0.100042810993123 
1070	 0.100082109383675 
1071	 0.100117746170361 
1072	 0.100138029587562 
1073	 0.100111027101383 
1074	 0.100140391569769 
1075	 0.100192076153552 
1076	 0.100257177747334 
1077	 0.10028634137707 
1078	 0.100268128773209 
1079	 0.100223945830014 
1080	 0.10020227219767 
1081	 0.100243342986595 
1082	 0.100306614891693 
1083	 0.100338775727717 
1084	 0.100365618241536 
1085	 0.100364780703507 
1086	 0.100348432665839 
1087	 0.100332268970017 
1088	 0.100291417963929 
1089	 0.100265455357137 
1090	 0.100272159040363 
1091	 0.100282970094672 
1092	 0.100282076835757 
1093	 0.100290815504093 
1094	 0.100299825521577 
1095	 0.100264356749836 
1096	 0.100250400043866 
1097	 0.100274241170433 
1098	 0.100274166705319 
1099	 0.100263967853403 
1100	 0.100256662924559 
1101	 0.100246045882085 
1102	 0.100240988962959 
1103	 0.100253175437037 
1104	 0.100235717956127 
1105	 0.100191946304313 
1106	 0.100124003580991 
1107	 0.100066746183638 
1108	 0.100052513266184 
1109	 0.100058922681488 
1110	 0.100094206602007 
1111	 0.100111450455199 
1112	 0.100127544007169 
1113	 0.100115854929817 
1114	 0.100093771786834 
1115	 0.100077450060914 
1116	 0.100034959353612 
1117	 0.10001863580918 
1118	 0.10002682014865 
1119	 0.10001552241312 
1120	 0.100027462211952 
1121	 0.100023857634065 
1122	 0.100012984100761 
1123	 0.100026719530687 
1124	 0.100034492412698 
1125	 0.100037674983994 
1126	 0.100038117914909 
1127	 0.100040731051118 
1128	 0.100050690276996 
1129	 0.100064804489794 
1130	 0.100062648862312 
1131	 0.100066786655309 
1132	 0.100064179948227 
1133	 0.100035755305966 
1134	 0.100022916060242 
1135	 0.100030018979185 
1136	 0.100008047470277 
1137	 9.99982507947026E-02 
1138	 0.100012648921406 
1139	 0.100024730164968 
1140	 0.100057585280219 
1141	 0.100064660621731 
1142	 0.100063818354038 
1143	 0.1000626367178 
1144	 0.100046021028865 
1145	 0.100039021438902 
1146	 0.100037064522085 
1147	 0.10003349237343 
1148	 0.100028460628417 
1149	 0.100027413112058 
1150	 0.100026651034302 
1151	 0.100037280383156 
1152	 0.100034042184911 
1153	 0.100018816274768 
1154	 0.100017606161814 
1155	 0.100015582831969 
1156	 0.100013895051196 
1157	 0.100020433614581 
1158	 0.100025023973533 
1159	 0.100025768670435 
1160	 0.10002729163353 
1161	 0.100048368732311 
1162	 0.100039044453656 
1163	 9.99915907493635E-02 
1164	 9.99778863012477E-02 
1165	 0.099968218061276 
1166	 9.99575458043344E-02 
1167	 9.99635479667662E-02 
1168	 9.99668837692798E-02 
1169	 9.99737719554129E-02 
1170	 9.99739476298619E-02 
1171	 9.99724261811198E-02 
1172	 9.99829572165231E-02 
1173	 9.99844143700213E-02 
1174	 9.99605191659779E-02 
1175	 9.99622749322684E-02 
1176	 0.099982908694943 
1177	 9.99938109166107E-02 
1178	 0.100020194477106 
1179	 0.100025600698781 
1180	 9.99978857262263E-02 
1181	 0.100001593604174 
1182	 0.100009931768355 
1183	 0.10002718677242 
1184	 0.100042296140473 
1185	 0.100081801436037 
1186	 0.100096585653524 
1187	 0.10008442527897 
1188	 0.100103247358469 
1189	 0.100144153002586 
1190	 0.100161464679528 
1191	 0.100175022920554 
1192	 0.100194576754813 
1193	 0.100199946218547 
1194	 0.100214817629778 
1195	 0.100244368028977 
1196	 0.100271379484071 
1197	 0.100299679735976 
1198	 0.100322045072103 
1199	 0.100343030301466 
1200	 0.100371498968473 
1201	 0.100381676430451 
1202	 0.100375166132065 
1203	 0.1003813404723 
1204	 0.100376893002617 
1205	 0.100393499674445 
1206	 0.100423017254992 
1207	 0.100453099626521 
1208	 0.100508736439994 
1209	 0.100534722791181 
1210	 0.100539906748096 
1211	 0.100559854713659 
1212	 0.100567033225843 
1213	 0.100585064509987 
1214	 0.100626155267516 
1215	 0.100656544303535 
1216	 0.100683727615632 
1217	 0.100711933531996 
1218	 0.100723689514919 
1219	 0.100717865872622 
1220	 0.100733287241843 
1221	 0.100741641932958 
1222	 0.100764264435869 
1223	 0.100813225023729 
1224	 0.100843265570016 
1225	 0.100863905811306 
1226	 0.100891852624918 
1227	 0.100918778415775 
1228	 0.100947928656507 
1229	 0.100989687116627 
1230	 0.1010181289187 
1231	 0.101044183357923 
1232	 0.101060938197778 
1233	 0.101069768743767 
1234	 0.101062507369663 
1235	 0.1010716150052 
1236	 0.10107393492165 
1237	 0.101094571027905 
1238	 0.101134870398825 
1239	 0.101162614009796 
1240	 0.101196203221585 
1241	 0.101221894240455 
1242	 0.10124128663968 
1243	 0.101259191748231 
1244	 0.101269699752878 
1245	 0.101287708368508 
1246	 0.101304187446785 
1247	 0.101324863275631 
1248	 0.101352451714764 
1249	 0.10138040339601 
1250	 0.101414305579249 
1251	 0.101445245115943 
1252	 0.101469231545682 
1253	 0.101497764439935 
1254	 0.10150872173039 
1255	 0.101498117383648 
1256	 0.101504777535659 
1257	 0.101510005793552 
1258	 0.101515889931509 
1259	 0.101536390510248 
1260	 0.101541162462932 
1261	 0.101520702070236 
1262	 0.101526307119025 
1263	 0.101552741827839 
1264	 0.101558936425053 
1265	 0.101561015094383 
1266	 0.101573218255379 
1267	 0.101578286632516 
1268	 0.101579459531866 
1269	 0.101589379724345 
1270	 0.101615011310172 
1271	 0.101637938168342 
1272	 0.1016490037199 
1273	 0.10168499322012 
1274	 0.101739312234795 
1275	 0.101796525593793 
1276	 0.101874693987247 
1277	 0.101929589784066 
1278	 0.101975764365226 
1279	 0.102031921696125 
1280	 0.102076276951143 
1281	 0.102135448760213 
1282	 0.102214541065357 
1283	 0.102286085580466 
1284	 0.102360088358105 
1285	 0.102425671714406 
1286	 0.102493327727704 
1287	 0.102582464470919 
1288	 0.10265526521053 
1289	 0.102723122969703 
1290	 0.102798191846108 
1291	 0.102875354024293 
1292	 0.102941968916303 
1293	 0.103009998845631 
1294	 0.103078805250508 
1295	 0.103140443234096 
1296	 0.103198282038018 
1297	 0.103266658282107 
1298	 0.103316441480498 
1299	 0.103342404657597 
1300	 0.103380917447291 
1301	 0.103424910193918 
1302	 0.103455072475106 
1303	 0.103488373823392 
1304	 0.103509922109265 
1305	 0.103490756431387 
1306	 0.103485854764073 
1307	 0.103499990015976 
1308	 0.103503641038028 
1309	 0.103516605873203 
1310	 0.103558132795597 
1311	 0.103566386637356 
1312	 0.103557666604105 
1313	 0.103546049329928 
1314	 0.103516310592133 
1315	 0.103500462055996 
1316	 0.103484336599625 
1317	 0.103474571490838 
1318	 0.103469651388039 
1319	 0.103467742627453 
1320	 0.103481473600422 
1321	 0.103474011812697 
1322	 0.103452988272788 
1323	 0.103445748626132 
1324	 0.103430614000431 
1325	 0.103398648719631 
1326	 0.103395890193038 
1327	 0.103402399954497 
1328	 0.103399096567819 
1329	 0.103405755980435 
1330	 0.103393071835459 
1331	 0.103363400868674 
1332	 0.103352695479749 
1333	 0.103339738639203 
1334	 0.103324720173617 
1335	 0.103323191279011 
1336	 0.103310985261628 
1337	 0.103282497781876 
1338	 0.103269919735497 
1339	 0.103261164861546 
1340	 0.103258074781237 
1341	 0.103260485220118 
1342	 0.103268124817301 
1343	 0.103283332349034 
1344	 0.103302438237264 
1345	 0.103323535355072 
1346	 0.103325846884514 
1347	 0.103316812413087 
1348	 0.103303897331384 
1349	 0.103292072472161 
1350	 0.103294493052449 
1351	 0.103290261585737 
1352	 0.10329353370721 
1353	 0.103291735143427 
1354	 0.103278562868651 
1355	 0.103275768254407 
1356	 0.103282872310957 
1357	 0.103281083039936 
1358	 0.1032764216581 
1359	 0.103278536415217 
1360	 0.103274931484128 
1361	 0.103282208212408 
1362	 0.103302403978482 
1363	 0.103316785107248 
1364	 0.103329443334075 
1365	 0.103349404907089 
1366	 0.103377294763662 
1367	 0.103397725521691 
1368	 0.103416251150992 
1369	 0.103424749422617 
1370	 0.103427689739088 
1371	 0.103430806349673 
1372	 0.103427600929029 
1373	 0.103431001571615 
1374	 0.103418949613651 
1375	 0.103386044730877 
1376	 0.103370910381027 
1377	 0.103357675443864 
1378	 0.103344768395975 
1379	 0.103341629168939 
1380	 0.103330931555096 
1381	 0.103318178894679 
1382	 0.103300984410558 
1383	 0.103277384684726 
1384	 0.103255533752012 
1385	 0.103227823041989 
1386	 0.10320524799508 
1387	 0.10318796581333 
1388	 0.103171154729322 
1389	 0.103158294624309 
1390	 0.103140528973325 
1391	 0.103124042806455 
1392	 0.10310748524273 
1393	 0.103087755416194 
1394	 0.10306140480224 
1395	 0.103014912771996 
1396	 0.102973744932594 
1397	 0.102941977281803 
1398	 0.10290743147056 
1399	 0.102881493073206 
1400	 0.102877571459645 
1401	 0.102847381924991 
1402	 0.102804120920714 
1403	 0.102767788890154 
1404	 0.102715631525957 
1405	 0.102687150428295 
1406	 0.102678681520441 
1407	 0.1026604693957 
1408	 0.102646525555791 
1409	 0.102629649622868 
1410	 0.102603154896623 
1411	 0.102586790002004 
1412	 0.102566597710234 
1413	 0.102572310308964 
1414	 0.102590052011822 
1415	 0.102592422657863 
1416	 0.102601060256808 
1417	 0.102615559176461 
1418	 0.102615507911576 
1419	 0.10262650738851 
1420	 0.102640781308351 
1421	 0.102645512540516 
1422	 0.102660964599528 
1423	 0.102670493834166 
1424	 0.102679157912197 
1425	 0.102689294179636 
1426	 0.102698449111651 
1427	 0.102697956148839 
1428	 0.102714921703474 
1429	 0.102739206438594 
1430	 0.102767680312612 
1431	 0.102813993633123 
1432	 0.102842519110854 
1433	 0.102868257213479 
1434	 0.10288740422425 
1435	 0.102882642109757 
1436	 0.102904039941914 
1437	 0.102942066519788 
1438	 0.102971301227005 
1439	 0.103010751317353 
1440	 0.103046345016765 
1441	 0.103067326708402 
1442	 0.103078205154606 
1443	 0.103095291217236 
1444	 0.103124832766494 
1445	 0.103147332454206 
1446	 0.103176815827675 
1447	 0.103216584833971 
1448	 0.103242862822455 
1449	 0.10326569115054 
1450	 0.103290048758664 
1451	 0.103311724065196 
1452	 0.103319692316401 
1453	 0.10334870840843 
1454	 0.103389840504309 
1455	 0.103426624833208 
1456	 0.103477637897352 
1457	 0.103510756836712 
1458	 0.103529939576498 
1459	 0.103557770672962 
1460	 0.103578935850306 
1461	 0.103608069573239 
1462	 0.103648953439402 
1463	 0.103684209669491 
1464	 0.10372212030225 
1465	 0.10375188474319 
1466	 0.103782553558233 
1467	 0.103799447262917 
1468	 0.103788977185316 
1469	 0.103805165123147 
1470	 0.103827702952605 
1471	 0.103851938788497 
1472	 0.103893633903043 
1473	 0.103933562301274 
1474	 0.103954804987042 
1475	 0.103970951530125 
1476	 0.103974348374616 
1477	 0.103991423740154 
1478	 0.104021585634217 
1479	 0.104040254459235 
1480	 0.104070377633181 
1481	 0.104107170557237 
1482	 0.104136454647988 
1483	 0.104163088664101 
1484	 0.104186148785488 
1485	 0.104202446334064 
1486	 0.104224401014268 
1487	 0.104242402498881 
1488	 0.104270225207643 
1489	 0.104312325292401 
1490	 0.104340584265738 
1491	 0.104367977998733 
1492	 0.104389236738235 
1493	 0.104396261199756 
1494	 0.104414135634694 
1495	 0.104433492727166 
1496	 0.104456213229943 
1497	 0.104491592268886 
1498	 0.104513266440754 
1499	 0.104528757644837 
1500	 0.104541883490944 
1501	 0.104547332231479 
1502	 0.104554107165844 
1503	 0.104554413322659 
1504	 0.104567969064377 
1505	 0.104583297006942 
1506	 0.104589683402399 
1507	 0.104611171852085 
1508	 0.104633571429953 
1509	 0.104644978693101 
1510	 0.104652113310059 
1511	 0.10465510608664 
1512	 0.10466079268726 
1513	 0.104678345794263 
1514	 0.104706525878963 
1515	 0.104745920342509 
1516	 0.104774105795073 
1517	 0.104796372740759 
1518	 0.104814837846937 
1519	 0.104830842886502 
1520	 0.104841090586087 
1521	 0.104849676115777 
1522	 0.104852812185157 
1523	 0.10486244283617 
1524	 0.104865949696371 
1525	 0.104880545927173 
1526	 0.1049136288298 
1527	 0.104926190862178 
1528	 0.104926051912844 
1529	 0.104940369750196 
1530	 0.104950084599175 
1531	 0.104966854012517 
1532	 0.105002568309623 
1533	 0.105026872347679 
1534	 0.105045769936518 
1535	 0.105061914488256 
1536	 0.10507196461923 
1537	 0.105087673377767 
1538	 0.105102170699301 
1539	 0.105120319702539 
1540	 0.105147983642506 
1541	 0.105167897768377 
1542	 0.105181839436014 
1543	 0.105198652835919 
1544	 0.105220500165923 
1545	 0.105232822855177 
1546	 0.105241225924646 
1547	 0.10524726147932 
1548	 0.105246881298175 
1549	 0.105241054309307 
1550	 0.105250184066683 
1551	 0.105256370988924 
1552	 0.105254845945444 
1553	 0.105269638810775 
1554	 0.105293799697226 
1555	 0.105313352605318 
1556	 0.105327340273394 
1557	 0.105342758061929 
1558	 0.105361042106565 
1559	 0.10537366712014 
1560	 0.105372877220357 
1561	 0.105367705225489 
1562	 0.105369988060002 
1563	 0.105358058916389 
1564	 0.105357077710834 
1565	 0.10537443048895 
1566	 0.105383474030132 
1567	 0.105384669941798 
1568	 0.105384293951301 
1569	 0.105387610579851 
1570	 0.105389814656512 
1571	 0.105387332341081 
1572	 0.105380700484074 
1573	 0.10537258521725 
1574	 0.105372980732896 
1575	 0.105372194631168 
1576	 0.105366113918813 
1577	 0.105361721768873 
1578	 0.105364191728119 
1579	 0.10535674328275 
1580	 0.105364663432417 
1581	 0.105399276726979 
1582	 0.105414538362199 
1583	 0.105423532745123 
1584	 0.105432580909506 
1585	 0.105435892381207 
1586	 0.105439386443167 
1587	 0.105437168902021 
1588	 0.105445346059728 
1589	 0.105461848104868 
1590	 0.105469375495802 
1591	 0.105479609079762 
1592	 0.105487151671444 
1593	 0.105486717449143 
1594	 0.105488150703408 
1595	 0.105493005591184 
1596	 0.105495802318311 
1597	 0.105490884514345 
1598	 0.105491197414968 
1599	 0.105495034730332 
1600	 0.105499329031051 
1601	 0.105507461046771 
1602	 0.105512854015335 
1603	 0.10551606733243 
1604	 0.105523356820095 
1605	 0.10553554197333 
1606	 0.105541167242837 
1607	 0.105545492495236 
1608	 0.105550056759864 
1609	 0.105542187215954 
1610	 0.105538393954057 
1611	 0.105544470178616 
1612	 0.105543256906029 
1613	 0.10554576851986 
1614	 0.105562286266546 
1615	 0.105580395191368 
1616	 0.105586831711163 
1617	 0.105614210097322 
1618	 0.105644561922993 
1619	 0.105647344143359 
1620	 0.105670731298852 
1621	 0.105679117394586 
1622	 0.105669864935359 
1623	 0.105674111994536 
1624	 0.105689156556384 
1625	 0.105687459090286 
1626	 0.105678697614173 
1627	 0.105673262345747 
1628	 0.105657400848491 
1629	 0.105657772575582 
1630	 0.105666451734806 
1631	 0.105676365968451 
1632	 0.105697342081226 
1633	 0.105703151753573 
1634	 0.105704041738414 
1635	 0.105709563702868 
1636	 0.105707975603337 
1637	 0.105711911044052 
1638	 0.105728157726554 
1639	 0.105726043031453 
1640	 0.105711786304789 
1641	 0.105707734204218 
1642	 0.105699588222462 
1643	 0.10569530966252 
1644	 0.105695021610903 
1645	 0.105699024038092 
1646	 0.105699799318214 
1647	 0.105713389846056 
1648	 0.105740698646873 
1649	 0.105764292280081 
1650	 0.105801711068126 
1651	 0.105813405127596 
1652	 0.105815049780464 
1653	 0.105813666927275 
1654	 0.105789158501465 
1655	 0.105785879742705 
1656	 0.105797993755769 
1657	 0.105791543779389 
1658	 0.105778748829643 
1659	 0.10577382055338 
1660	 0.10575985032952 
1661	 0.105755485095428 
1662	 0.105763033766231 
1663	 0.105769234454489 
1664	 0.105773349673294 
1665	 0.105782505187266 
1666	 0.105796308810218 
1667	 0.105816244429289 
1668	 0.105850765460898 
1669	 0.10586080256742 
1670	 0.105861524543385 
1671	 0.105870380083142 
1672	 0.105869996844287 
1673	 0.105865637077924 
1674	 0.105872650212827 
1675	 0.10586602307015 
1676	 0.105823896603421 
1677	 0.105823965316923 
1678	 0.105844949917204 
1679	 0.105864070962578 
1680	 0.105913636467736 
1681	 0.105931733822962 
1682	 0.10594096404268 
1683	 0.105937775552794 
1684	 0.105899892990899 
1685	 0.105899163740455 
1686	 0.105906733552724 
1687	 0.105916111605734 
1688	 0.105955254392234 
1689	 0.105969603483525 
1690	 0.105966801282724 
1691	 0.10597147952377 
1692	 0.105968897290162 
1693	 0.105978307658606 
1694	 0.105994666723662 
1695	 0.106009921002467 
1696	 0.106031419173951 
1697	 0.106050863421646 
1698	 0.106070907698081 
1699	 0.106087591937635 
1700	 0.106110253611307 
1701	 0.1061196928168 
1702	 0.106113528082981 
1703	 0.106118451186907 
1704	 0.106127538669535 
1705	 0.106121837383134 
1706	 0.106112636830416 
1707	 0.106108218281933 
1708	 0.10609305188873 
1709	 0.10608354162573 
1710	 0.106081777847345 
1711	 0.106077792987542 
1712	 0.106065760336585 
1713	 0.106065580924073 
1714	 0.106080255770427 
1715	 0.106085077159715 
1716	 0.106084923824424 
1717	 0.106090322468557 
1718	 0.106096191153602 
1719	 0.106102082997701 
1720	 0.106117451929835 
1721	 0.106121205290373 
1722	 0.106106131290808 
1723	 0.106119139062805 
1724	 0.10614910475924 
1725	 0.10615474000063 
1726	 0.10617547538379 
1727	 0.106170844251245 
1728	 0.106128120276294 
1729	 0.106111009719255 
1730	 0.106095665606691 
1731	 0.106088956039196 
1732	 0.106097393888005 
1733	 0.106088380526522 
1734	 0.106070488675821 
1735	 0.106063550262186 
1736	 0.10605170411568 
1737	 0.106047091726083 
1738	 0.106063308668186 
1739	 0.106062519217597 
1740	 0.10604596000832 
1741	 0.106041112517896 
1742	 0.106043720863834 
1743	 0.106032474182757 
1744	 0.106015797070619 
1745	 0.106005005382665 
1746	 0.105985762440507 
1747	 0.105977901287378 
1748	 0.105980818175738 
1749	 0.105971736429459 
1750	 0.105975723366469 
1751	 0.105986545180712 
1752	 0.105994157847874 
1753	 0.1060088609864 
1754	 0.105990596198225 
1755	 0.105958035316766 
1756	 0.105925894595056 
1757	 0.105892309154921 
1758	 0.105887913920974 
1759	 0.105890306530458 
1760	 0.105887636051867 
1761	 0.105893918556775 
1762	 0.105891547510915 
1763	 0.105885469488739 
1764	 0.10588015926488 
1765	 0.105843967322021 
1766	 0.105795272852235 
1767	 0.10576058162382 
1768	 0.105743348087659 
1769	 0.105756398657408 
1770	 0.105781330568728 
1771	 0.105795643496077 
1772	 0.105788913096093 
1773	 0.10578013538637 
1774	 0.105779506155404 
1775	 0.105775327716775 
1776	 0.105785352521256 
1777	 0.105802398550619 
1778	 0.10579806857219 
1779	 0.105777993196098 
1780	 0.105761312246873 
1781	 0.105745680527271 
1782	 0.105737668705741 
1783	 0.105751753199449 
1784	 0.105767532208929 
1785	 0.105793690484665 
1786	 0.10580446913661 
1787	 0.105812728396391 
1788	 0.105814802816257 
1789	 0.105797641390149 
1790	 0.105802123034034 
1791	 0.105822025079572 
1792	 0.105839707355352 
1793	 0.105859297832179 
1794	 0.105872790639565 
1795	 0.105890345636331 
1796	 0.105898306533626 
1797	 0.105902379787512 
1798	 0.105906358688179 
1799	 0.105902272855158 
1800	 0.105899586310824 
1801	 0.103134424700303 
1802	 0.103270955410205 
1803	 0.103416579560225 
1804	 0.103536463088797 
1805	 0.103636942639197 
1806	 0.10378254963682 
1807	 0.103921301419473 
1808	 0.104043248460714 
1809	 0.104186542781452 
1810	 0.104288335379038 
1811	 0.104359854199329 
1812	 0.104418404419604 
1813	 0.104472516842971 
1814	 0.104491351856277 
1815	 0.10449387402459 
1816	 0.104503890198254 
1817	 0.104504651397026 
1818	 0.104468484959787 
1819	 0.104487790106888 
1820	 0.104535709148703 
1821	 0.10456235246871 
1822	 0.104608697467878 
1823	 0.104668954762172 
1824	 0.104680240667915 
1825	 0.104706860866333 
1826	 0.104752340658923 
1827	 0.104791283225542 
1828	 0.104820757453693 
1829	 0.104849313431262 
1830	 0.10486886591016 
1831	 0.104878959646115 
1832	 0.1048781348367 
1833	 0.104881071831216 
1834	 0.104906745762389 
1835	 0.104928293704432 
1836	 0.104942846592487 
1837	 0.104976934177979 
1838	 0.104993857283189 
1839	 0.105021514668948 
1840	 0.105055430583785 
1841	 0.105099104346946 
1842	 0.105122603309521 
1843	 0.105171197024241 
1844	 0.105208582128091 
1845	 0.105226068183654 
1846	 0.105232706199212 
1847	 0.105229238160009 
1848	 0.105243533494487 
1849	 0.105260817033421 
1850	 0.105287539392532 
1851	 0.105341525055381 
1852	 0.105386142929287 
1853	 0.105397672341253 
1854	 0.105426490805275 
1855	 0.105459898819592 
1856	 0.105475688887013 
1857	 0.105484963369512 
1858	 0.105493191315767 
1859	 0.105478290926107 
1860	 0.105459733037496 
1861	 0.105431090817434 
1862	 0.105413456357766 
1863	 0.105394009004326 
1864	 0.105375654976018 
1865	 0.105352981546736 
1866	 0.105344405445314 
1867	 0.105317670448815 
1868	 0.105284090236209 
1869	 0.105283740308992 
1870	 0.105248290105605 
1871	 0.105225251944238 
1872	 0.105206234164308 
1873	 0.105206351965965 
1874	 0.105172551759678 
1875	 0.105168382450999 
1876	 0.105165520649215 
1877	 0.10513171068833 
1878	 0.105093394877577 
1879	 0.105047562174792 
1880	 0.104992223801172 
1881	 0.104917045256531 
1882	 0.104849007792444 
1883	 0.104782239405019 
1884	 0.104705213765235 
1885	 0.104630379096739 
1886	 0.104528177087731 
1887	 0.104404995297657 
1888	 0.104272788644852 
1889	 0.104137196717318 
1890	 0.104010108177971 
1891	 0.103874172982718 
1892	 0.103747491855967 
1893	 0.103604758243238 
1894	 0.103444259781721 
1895	 0.103281006122581 
1896	 0.103136341620211 
1897	 0.1029799228549 
1898	 0.102824622146461 
1899	 0.102684176241453 
1900	 0.102527779753161 
1901	 0.102356871013643 
1902	 0.102199371011259 
1903	 0.102039102298831 
1904	 0.101897552413288 
1905	 0.101767378314199 
1906	 0.101641382465329 
1907	 0.101539533578835 
1908	 0.101430922875145 
1909	 0.101300152443415 
1910	 0.101183503211961 
1911	 0.101075696487244 
1912	 0.100976971452424 
1913	 0.100862878403957 
1914	 0.100734852719889 
1915	 0.100634990781011 
1916	 0.10053617746916 
1917	 0.100431451179454 
1918	 0.10038489231617 
1919	 0.100356172304758 
1920	 0.100312908157111 
1921	 0.100271716645181 
1922	 0.100208690266378 
1923	 0.100153990113325 
1924	 0.100115226891764 
1925	 0.100089707544257 
1926	 0.100062695971552 
1927	 0.100051470775746 
1928	 0.100032389543281 
1929	 0.100004627178383 
1930	 9.99747002176015E-02 
1931	 9.99585233688966E-02 
1932	 9.99590829490086E-02 
1933	 9.99589774500037E-02 
1934	 9.99626089501347E-02 
1935	 9.99685156615007E-02 
1936	 9.99792487480267E-02 
1937	 9.99777532302121E-02 
1938	 9.99701344141598E-02 
1939	 9.99748425107758E-02 
1940	 9.99632988263442E-02 
1941	 9.99759255847986E-02 
1942	 0.100041877767181 
1943	 0.100069548661961 
1944	 0.100096905180791 
1945	 0.100134490247899 
1946	 0.100145570465867 
1947	 0.100108235295323 
1948	 0.100123893989609 
1949	 0.100150249350821 
1950	 0.100178432914924 
1951	 0.100230376229407 
1952	 0.100287948044352 
1953	 0.100303078098393 
1954	 0.10031818528279 
1955	 0.100348314648164 
1956	 0.10037645158064 
1957	 0.100428075110553 
1958	 0.100523431643762 
1959	 0.100587088466927 
1960	 0.100641109651776 
1961	 0.100702328165852 
1962	 0.100755289759853 
1963	 0.100815477649143 
1964	 0.100878123755157 
1965	 0.100960760364732 
1966	 0.101033981768669 
1967	 0.101093700965071 
1968	 0.101155941388356 
1969	 0.101211925113744 
1970	 0.101273265378286 
1971	 0.101336367091494 
1972	 0.10139851427649 
1973	 0.101463108707284 
1974	 0.10152864349695 
1975	 0.10159680929558 
1976	 0.101655018371636 
1977	 0.101722330998689 
1978	 0.10178004252475 
1979	 0.101835658531652 
1980	 0.101906185019816 
1981	 0.101967509758002 
1982	 0.102027806022419 
1983	 0.102091341150653 
1984	 0.102150963879964 
1985	 0.10221514962657 
1986	 0.102289840734376 
1987	 0.102355675808075 
1988	 0.102420199126596 
1989	 0.102476211451557 
1990	 0.102539702979036 
1991	 0.102608779357079 
1992	 0.102669846556058 
1993	 0.102741534783898 
1994	 0.102795246981839 
1995	 0.102816141612129 
1996	 0.102868558201819 
1997	 0.102924560977337 
1998	 0.10298842999557 
1999	 0.103083160742475 
2000	 0.103165823058246 
2001	 0.103253632072617 
2002	 0.103321670152249 
2003	 0.103390618933756 
2004	 0.103460899465638 
2005	 0.103526607820963 
2006	 0.103589993971564 
2007	 0.103650243230152 
2008	 0.103699194179624 
2009	 0.10376220992709 
2010	 0.103828077281632 
2011	 0.103894052498792 
2012	 0.10397596348073 
2013	 0.104042844673478 
2014	 0.10408646188234 
2015	 0.104158621464192 
2016	 0.104220090735665 
2017	 0.104292792252441 
2018	 0.104361778255198 
2019	 0.104444104558625 
2020	 0.104505087375492 
2021	 0.104557135827311 
2022	 0.10460484229882 
2023	 0.104614982873951 
2024	 0.104672978060874 
2025	 0.104767998525197 
2026	 0.104840557237779 
2027	 0.104919192737138 
2028	 0.105019637663019 
2029	 0.105089450086175 
2030	 0.10511405288258 
2031	 0.105191265026763 
2032	 0.105305619473475 
2033	 0.105375042833376 
2034	 0.105449178132342 
2035	 0.105505195905427 
2036	 0.105517107249856 
2037	 0.105552083302694 
2038	 0.105598456720173 
2039	 0.105639440575634 
2040	 0.10568116598106 
2041	 0.105716656425033 
2042	 0.1057513862362 
2043	 0.10577958573234 
2044	 0.105814233520814 
2045	 0.105841429087257 
2046	 0.105884983442121 
2047	 0.105945383385688 
2048	 0.105993450678253 
2049	 0.106048266675267 
2050	 0.106093548835082 
2051	 0.106126807740131 
2052	 0.106163732772124 
2053	 0.106202231859275 
2054	 0.106234561850172 
2055	 0.106258782635973 
2056	 0.106284346118519 
2057	 0.106323932199618 
2058	 0.106371057168836 
2059	 0.106412989124693 
2060	 0.106463359037491 
2061	 0.106510377596566 
2062	 0.106554964392671 
2063	 0.106591361487913 
2064	 0.106627030938793 
2065	 0.106665429930224 
2066	 0.106694015039535 
2067	 0.106724632698834 
2068	 0.106764662170343 
2069	 0.10680213169203 
2070	 0.10682654189855 
2071	 0.1068323951579 
2072	 0.106863883027679 
2073	 0.106894056855563 
2074	 0.106937808491927 
2075	 0.107009488608265 
2076	 0.107059177150449 
2077	 0.107112331055132 
2078	 0.107149843692213 
2079	 0.107165739851642 
2080	 0.10719230820966 
2081	 0.107211920040663 
2082	 0.107237165038487 
2083	 0.107259276909455 
2084	 0.107303428873093 
2085	 0.10734067075751 
2086	 0.107382763806478 
2087	 0.10741469231628 
2088	 0.10744446176897 
2089	 0.107476935691734 
2090	 0.107507426719276 
2091	 0.107531521898492 
2092	 0.107554214522151 
2093	 0.107580512918846 
2094	 0.107593867666953 
2095	 0.107619688595094 
2096	 0.107663251962171 
2097	 0.107698047511535 
2098	 0.107729840607681 
2099	 0.107762953685588 
2100	 0.107799394656019 
2101	 0.107829426625436 
2102	 0.107878826187421 
2103	 0.107944022013296 
2104	 0.107999468127624 
2105	 0.108067495684574 
2106	 0.10811880272859 
2107	 0.108157492156576 
2108	 0.10819919756023 
2109	 0.108225251706671 
2110	 0.108271592520049 
2111	 0.108328030201642 
2112	 0.108384285039687 
2113	 0.108455756600074 
2114	 0.108527041528898 
2115	 0.108579253205768 
2116	 0.108619799737322 
2117	 0.108665314061026 
2118	 0.108698727477973 
2119	 0.108743194319173 
2120	 0.108798323108484 
2121	 0.108842355879514 
2122	 0.108878405537076 
2123	 0.108922481426424 
2124	 0.108965552410903 
2125	 0.109010804436907 
2126	 0.109076479669226 
2127	 0.109117683846131 
2128	 0.109145225922188 
2129	 0.109169689337376 
2130	 0.109183057239548 
2131	 0.109186007268546 
2132	 0.109189594573403 
2133	 0.109184221048076 
2134	 0.109195319104307 
2135	 0.109222463328176 
2136	 0.10921712201116 
2137	 0.109215110344351 
2138	 0.109192852323667 
2139	 0.10911710223508 
2140	 0.109083933006307 
2141	 0.109068923000155 
2142	 0.10904824902228 
2143	 0.109056093962599 
2144	 0.109034180292447 
2145	 0.108996259560055 
2146	 0.108951896656363 
2147	 0.108885007788167 
2148	 0.108823614218974 
2149	 0.108756427553531 
2150	 0.10867518589578 
2151	 0.108617419406895 
2152	 0.108576495089926 
2153	 0.108510507914179 
2154	 0.10843980610984 
2155	 0.10837925152693 
2156	 0.108305252695461 
2157	 0.108239024990941 
2158	 0.108211226796846 
2159	 0.10814160214177 
2160	 0.108036585625216 
2161	 0.107943961984486 
2162	 0.107831290467096 
2163	 0.107730533223465 
2164	 0.107627502887916 
2165	 0.107550424922539 
2166	 0.107472143952403 
2167	 0.107409462253072 
2168	 0.107322678699502 
2169	 0.107229417617705 
2170	 0.107146892078596 
2171	 0.107051316216489 
2172	 0.106966164546296 
2173	 0.106899664293045 
2174	 0.106826169369028 
2175	 0.106737643680079 
2176	 0.106668623162452 
2177	 0.106637632557879 
2178	 0.10656411602874 
2179	 0.106460702961121 
2180	 0.106379934438706 
2181	 0.106283501313443 
2182	 0.106193999750027 
2183	 0.106113648654472 
2184	 0.106064591835361 
2185	 0.105992199218647 
2186	 0.105900379149726 
2187	 0.105835210494351 
2188	 0.105783314524965 
2189	 0.105725732556813 
2190	 0.105673444869716 
2191	 0.105626487799977 
2192	 0.105582440430063 
2193	 0.105538385922224 
2194	 0.105503796463515 
2195	 0.105463483224667 
2196	 0.105416371848487 
2197	 0.105373279229165 
2198	 0.105328816023359 
2199	 0.105290357106123 
2200	 0.105269338962349 
2201	 0.105228501440455 
2202	 0.105172218104903 
2203	 0.105124819094634 
2204	 0.105085438996076 
2205	 0.105033644329596 
2206	 0.105007416112216 
2207	 0.105014279953837 
2208	 0.104991036088925 
2209	 0.104967194564138 
2210	 0.104929607616502 
2211	 0.104861073634332 
2212	 0.104831763370735 
2213	 0.10481203879106 
2214	 0.104794875631674 
2215	 0.104807059362029 
2216	 0.104801710669916 
2217	 0.104783787155731 
2218	 0.10477307076926 
2219	 0.104743482830779 
2220	 0.104749869308781 
2221	 0.104787984715793 
2222	 0.104815609450359 
2223	 0.104853200806625 
2224	 0.104897313961616 
2225	 0.104899447576163 
2226	 0.104859523499307 
2227	 0.10485633086705 
2228	 0.104846105547228 
2229	 0.104841457207259 
2230	 0.104846394714077 
2231	 0.104858731813729 
2232	 0.10488834289871 
2233	 0.104882788099043 
2234	 0.104864021170567 
2235	 0.104862189541243 
2236	 0.104838540307634 
2237	 0.104828166997662 
2238	 0.104847357684361 
2239	 0.104854234706243 
2240	 0.104831584011104 
2241	 0.104839313566178 
2242	 0.104890393425162 
2243	 0.104907588866773 
2244	 0.104920480153005 
2245	 0.104927214510525 
2246	 0.104904470008612 
2247	 0.104894817999901 
2248	 0.104894218548581 
2249	 0.104899994142835 
2250	 0.104916585849887 
2251	 0.104953775116885 
2252	 0.104959763589506 
2253	 0.104957211226957 
2254	 0.104966501909534 
2255	 0.104959396987022 
2256	 0.104969175610575 
2257	 0.10500260076579 
2258	 0.105020815959405 
2259	 0.105026219221642 
2260	 0.105044664672652 
2261	 0.105085302687083 
2262	 0.105099379817815 
2263	 0.105108320309063 
2264	 0.105106638489646 
2265	 0.105060605758328 
2266	 0.10505428762721 
2267	 0.105063790880727 
2268	 0.105073778805964 
2269	 0.105092564241663 
2270	 0.105144678285812 
2271	 0.105169206174693 
2272	 0.105179462862171 
2273	 0.10520979267153 
2274	 0.105185279692318 
2275	 0.105171835606913 
2276	 0.105147755460728 
2277	 0.105140239550421 
2278	 0.10511779190578 
2279	 0.105128905033612 
2280	 0.105159295082123 
2281	 0.105186323214417 
2282	 0.105241874331016 
2283	 0.105270257084171 
2284	 0.105283819902341 
2285	 0.105315318721606 
2286	 0.105348501258174 
2287	 0.105369301218761 
2288	 0.105400113420299 
2289	 0.105420666225019 
2290	 0.105418034359914 
2291	 0.105423729665747 
2292	 0.105424597872037 
2293	 0.105435301523976 
2294	 0.105451975157898 
2295	 0.105480021551843 
2296	 0.105537605062099 
2297	 0.10556963418993 
2298	 0.105603026865553 
2299	 0.105573863803895 
2300	 0.105574907460819 
2301	 0.105595314262722 
2302	 0.105581096873157 
2303	 0.105614438929616 
2304	 0.105633312567688 
2305	 0.105603400085721 
2306	 0.105589127265694 
2307	 0.105579935156421 
2308	 0.105571277451847 
2309	 0.105538546899962 
2310	 0.105543684055669 
2311	 0.105587625545349 
2312	 0.105611829404437 
2313	 0.105659404383189 
2314	 0.105665205233219 
2315	 0.105620884649882 
2316	 0.105610524503344 
2317	 0.105591744319718 
2318	 0.105585530045899 
2319	 0.105613818638005 
2320	 0.105638557013032 
2321	 0.105657899782128 
2322	 0.105667589566179 
2323	 0.105688074241246 
2324	 0.105698943620961 
2325	 0.105688822482767 
2326	 0.105694203045976 
2327	 0.105705363221652 
2328	 0.105721665933415 
2329	 0.105710297054649 
2330	 0.105725293256617 
2331	 0.10577072332686 
2332	 0.105769887325547 
2333	 0.105860526329795 
2334	 0.10593311090523 
2335	 0.10595336948564 
2336	 0.105988179142169 
2337	 0.105936090842119 
2338	 0.105915360786116 
2339	 0.10595653910547 
2340	 0.105966444129525 
2341	 0.105994673173683 
2342	 0.105997946667323 
2343	 0.105937811587124 
2344	 0.105919425619114 
2345	 0.105925682769567 
2346	 0.105969818448422 
2347	 0.105965922781623 
2348	 0.10596621695658 
2349	 0.105951906799322 
2350	 0.105914168532084 
2351	 0.105867677952612 
2352	 0.105800118718128 
2353	 0.105783108787815 
2354	 0.105747802563745 
2355	 0.105757405820692 
2356	 0.105886043546462 
2357	 0.105891305612639 
2358	 0.105825383400061 
2359	 0.105786518953703 
2360	 0.105688613495577 
2361	 0.10563100207536 
2362	 0.105612978606945 
2363	 0.105607004561312 
2364	 0.105623824472889 
2365	 0.105626158919209 
2366	 0.105616514612426 
2367	 0.105627190722929 
2368	 0.105660214210901 
2369	 0.105663727883333 
2370	 0.105662479649605 
2371	 0.105691239327204 
2372	 0.105715285252879 
2373	 0.105603505654855 
2374	 0.105488454563144 
2375	 0.105489954851945 
2376	 0.105401265672332 
2377	 0.105309937678327 
2378	 0.105338567551643 
2379	 0.105372348524915 
2380	 0.105389224250697 
2381	 0.105453348571898 
2382	 0.10549187540116 
2383	 0.105433457737738 
2384	 0.105378113984264 
2385	 0.105371917010467 
2386	 0.105362190163255 
2387	 0.105278050821323 
2388	 0.105243689617985 
2389	 0.105233946625294 
2390	 0.105163504944869 
2391	 0.105135108064657 
2392	 0.105092810313824 
2393	 0.105004863268821 
2394	 0.104921105945924 
2395	 0.104896402156256 
2396	 0.104922893351154 
2397	 0.104958887324234 
2398	 0.105043430380237 
2399	 0.105082885817267 
2400	 0.105017109688806 
2401	 0.10492036473051 
2402	 0.10480995464464 
2403	 0.104706051709765 
2404	 0.104596451409824 
2405	 0.104531810828207 
2406	 0.10443648078038 
2407	 0.104329948114243 
2408	 0.104369079439628 
2409	 0.104315844606149 
2410	 0.104256442053486 
2411	 0.104295708302157 
2412	 0.104197984600535 
2413	 0.104203559585239 
2414	 0.104321694562871 
2415	 0.104321923269363 
2416	 0.104303460935715 
2417	 0.104243101297795 
2418	 0.104230564856402 
2419	 0.104208275195468 
2420	 0.104207191771459 
2421	 0.104272240005409 
2422	 0.104266148557135 
2423	 0.104180530086016 
2424	 0.104132695188306 
2425	 0.104133597474833 
2426	 0.104116812069691 
2427	 0.10407777485461 
2428	 0.104000171237327 
2429	 0.103860580187213 
2430	 0.1037625489233 
2431	 0.103712491371993 
2432	 0.103638893430773 
2433	 0.103564341442697 
2434	 0.103533907397395 
2435	 0.10344051409546 
2436	 0.103418959779811 
2437	 0.103551359661863 
2438	 0.103498746773975 
2439	 0.103381929713573 
2440	 0.103277346831748 
2441	 0.103004906654271 
2442	 0.102937265171138 
2443	 0.103023532459933 
2444	 0.103031610027494 
2445	 0.103144669486827 
2446	 0.103108940903216 
2447	 0.102921165344931 
2448	 0.102855160348145 
2449	 0.102752745245485 
2450	 0.102739441689151 
2451	 0.102887530625007 
2452	 0.102870710143343 
2453	 0.102807117154407 
2454	 0.102705320746392 
2455	 0.102478588503819 
2456	 0.102362286964514 
2457	 0.102290494400447 
2458	 0.102246506636496 
2459	 0.102279971165852 
2460	 0.102127698115587 
2461	 0.101872239672925 
2462	 0.101752967906761 
2463	 0.101627125250142 
2464	 0.101552211244682 
2465	 0.101572509604734 
2466	 0.101540070939802 
2467	 0.10139157909839 
2468	 0.101396534485618 
2469	 0.10162419234331 
2470	 0.101563489169814 
2471	 0.101429499143168 
2472	 0.101180522874443 
2473	 0.100984149577518 
2474	 0.100884709729954 
2475	 0.101026325948858 
2476	 0.101202590864146 
2477	 0.101184350487245 
2478	 0.101207857700515 
2479	 0.101087325747319 
2480	 0.1009312003828 
2481	 0.100909438138032 
2482	 0.100839098614888 
2483	 0.100889157950989 
2484	 0.10103067214593 
2485	 0.10107551335025 
2486	 0.101166239481454 
2487	 0.101213389988107 
2488	 0.101125863975424 
2489	 0.101101005569244 
2490	 0.101090802623026 
2491	 0.100909672650456 
2492	 0.100749018776515 
2493	 0.10063857981884 
2494	 0.100525911979102 
2495	 0.100584863442884 
2496	 0.100781376153385 
2497	 0.100875280734494 
2498	 0.100866410132925 
2499	 0.100884177894377 
2500	 0.10057494453786 
