Wavelength	mm2800008.asd
350	 5.55317811759539E-02 
351	 5.31244856571534E-02 
352	 5.15806610989986E-02 
353	 5.19129424835163E-02 
354	 5.14042616201992E-02 
355	 5.23172439669901E-02 
356	 5.53306562619226E-02 
357	 5.95116819181033E-02 
358	 6.00506950928935E-02 
359	 5.73914035101903E-02 
360	 5.47517916800689E-02 
361	 5.61574618167255E-02 
362	 5.57204588283255E-02 
363	 5.45672193796835E-02 
364	 5.42369658057887E-02 
365	 5.56031069056785E-02 
366	 5.61465622197536E-02 
367	 5.47611021703826E-02 
368	 5.25702580912373E-02 
369	 5.76877492191525E-02 
370	 5.79444128936591E-02 
371	 5.51584141032824E-02 
372	 5.97981963609653E-02 
373	 6.16877972093291E-02 
374	 6.08740564043916E-02 
375	 5.93226433303008E-02 
376	 0.059977062365769 
377	 5.83238712265258E-02 
378	 5.82739814695734E-02 
379	 6.29174978365741E-02 
380	 6.10201096418358E-02 
381	 5.97837770711842E-02 
382	 6.08027277822672E-02 
383	 6.10091342007617E-02 
384	 6.03703026268567E-02 
385	 6.11024051210555E-02 
386	 6.33395742129292E-02 
387	 6.25319761242153E-02 
388	 6.30971970250536E-02 
389	 6.42121621619098E-02 
390	 6.38640992203139E-02 
391	 0.062535471464273 
392	 6.28050407318401E-02 
393	 6.46516052729676E-02 
394	 0.065825502449065 
395	 6.59793108991762E-02 
396	 6.47509205167171E-02 
397	 6.32988850499196E-02 
398	 6.63209269170005E-02 
399	 6.69100485825397E-02 
400	 6.66222987113234E-02 
401	 6.89063114111083E-02 
402	 6.88777065672128E-02 
403	 6.87696618607303E-02 
404	 6.90472749000794E-02 
405	 6.80659521428957E-02 
406	 6.84580801699011E-02 
407	 6.97549648052752E-02 
408	 7.06263837374972E-02 
409	 6.89094565049432E-02 
410	 0.068839876969191 
411	 7.01009253441124E-02 
412	 7.04590678266025E-02 
413	 7.11867258743325E-02 
414	 7.07560693213168E-02 
415	 6.94591544901556E-02 
416	 7.01130066324965E-02 
417	 7.06151916082879E-02 
418	 7.13087943101438E-02 
419	 7.24086286004651E-02 
420	 0.071616052611271 
421	 7.10215403383808E-02 
422	 7.15250082607469E-02 
423	 7.29392560098324E-02 
424	 7.28478788316528E-02 
425	 7.22554237514807E-02 
426	 7.21615951335032E-02 
427	 7.28004619543592E-02 
428	 7.28726324294327E-02 
429	 7.27038261511677E-02 
430	 0.072961639619332 
431	 7.31163722298594E-02 
432	 7.30596101352365E-02 
433	 7.30399875199317E-02 
434	 7.35809447198704E-02 
435	 7.40740090123611E-02 
436	 7.41063707627027E-02 
437	 7.36884657200928E-02 
438	 7.37338328994871E-02 
439	 7.40760787944451E-02 
440	 7.43016531264435E-02 
441	 7.40345694910094E-02 
442	 7.43344951533091E-02 
443	 7.49867249569867E-02 
444	 7.54947819211763E-02 
445	 0.07511589656293 
446	 7.52186198157978E-02 
447	 7.55720215844336E-02 
448	 7.56333128458523E-02 
449	 7.56711613660359E-02 
450	 7.58112560363249E-02 
451	 7.59855455841873E-02 
452	 7.59892524410347E-02 
453	 7.61809496159251E-02 
454	 7.63199437617944E-02 
455	 7.63269770867984E-02 
456	 0.076829394162352 
457	 7.69955906560453E-02 
458	 7.68940513290713E-02 
459	 7.69976901587887E-02 
460	 7.74365891957136E-02 
461	 7.76364345930027E-02 
462	 7.75191644486833E-02 
463	 7.77776936893957E-02 
464	 7.80647608833831E-02 
465	 7.81944398049997E-02 
466	 7.81373352753202E-02 
467	 7.82979419356518E-02 
468	 7.85698601952886E-02 
469	 7.88222694862771E-02 
470	 7.89290408404001E-02 
471	 7.89918094571799E-02 
472	 7.91051606309359E-02 
473	 0.079287033588384 
474	 7.93619678012213E-02 
475	 7.96165877371151E-02 
476	 0.07999404150185 
477	 8.02736389999489E-02 
478	 8.02679377380574E-02 
479	 8.03508286049233E-02 
480	 8.06264338985515E-02 
481	 0.080760267307764 
482	 8.10466279979238E-02 
483	 8.13471584586197E-02 
484	 8.14708765889175E-02 
485	 8.14962923966032E-02 
486	 8.15775953404838E-02 
487	 0.081745759298593 
488	 0.081925385351409 
489	 8.21177603095612E-02 
490	 8.22149127578237E-02 
491	 8.22068376846548E-02 
492	 8.23693112839379E-02 
493	 8.24121076640189E-02 
494	 8.24693747515969E-02 
495	 8.28021979538963E-02 
496	 8.30351517677387E-02 
497	 0.083089320522605 
498	 8.30924237884416E-02 
499	 8.34350179139091E-02 
500	 8.36426784393291E-02 
501	 8.36660403288955E-02 
502	 8.36240588881891E-02 
503	 8.37486352939796E-02 
504	 0.0839273582772 
505	 8.40755725853805E-02 
506	 8.41502046990325E-02 
507	 8.41306785672468E-02 
508	 8.42243305129264E-02 
509	 8.44940567945437E-02 
510	 8.45035591642656E-02 
511	 8.45409248741515E-02 
512	 8.46717712783598E-02 
513	 8.48263392276694E-02 
514	 8.48418073661376E-02 
515	 8.48744205066757E-02 
516	 8.50286185839126E-02 
517	 8.52825805546715E-02 
518	 8.53248872062436E-02 
519	 8.52685529793766E-02 
520	 8.53362703706672E-02 
521	 8.54807276030977E-02 
522	 8.56188773899372E-02 
523	 0.085727192942701 
524	 8.58469980908581E-02 
525	 8.59539998404578E-02 
526	 8.60018740392192E-02 
527	 8.59915574569768E-02 
528	 8.60896321003511E-02 
529	 8.61326796055537E-02 
530	 8.61488673562699E-02 
531	 8.62808975364366E-02 
532	 8.64404121785325E-02 
533	 8.65311868840384E-02 
534	 8.65293871576405E-02 
535	 8.65429561720933E-02 
536	 8.66461601089624E-02 
537	 8.68172760384014E-02 
538	 8.69776350512982E-02 
539	 8.70119713577468E-02 
540	 8.70119349673732E-02 
541	 8.70474637256659E-02 
542	 8.71364506560282E-02 
543	 0.087211244314339 
544	 0.087320379769968 
545	 8.74904018494661E-02 
546	 8.75362389730862E-02 
547	 8.75185709565052E-02 
548	 8.75262385903555E-02 
549	 8.76523145412473E-02 
550	 8.77114083271611E-02 
551	 0.087763766272478 
552	 8.78553495178558E-02 
553	 8.78714491507558E-02 
554	 8.78530235791906E-02 
555	 8.78957722343667E-02 
556	 8.80894342800286E-02 
557	 8.81824472622128E-02 
558	 8.82448804141422E-02 
559	 8.83488658900915E-02 
560	 8.85132644868358E-02 
561	 8.85659784428615E-02 
562	 0.088572753928655 
563	 8.86627400165907E-02 
564	 8.88091642278039E-02 
565	 0.088877426172849 
566	 8.88376905607694E-02 
567	 8.87841948990903E-02 
568	 8.88405000479394E-02 
569	 8.89150080775523E-02 
570	 8.89372532639433E-02 
571	 8.91132919452909E-02 
572	 8.92692475932594E-02 
573	 8.93363397431246E-02 
574	 8.93343283959868E-02 
575	 8.93475989794024E-02 
576	 0.089451900020306 
577	 8.96218966385967E-02 
578	 8.96172275279857E-02 
579	 8.96011474077062E-02 
580	 8.95815213048748E-02 
581	 8.95172347493733E-02 
582	 8.94778752382239E-02 
583	 8.94871741649779E-02 
584	 8.95587655366819E-02 
585	 8.97011690337418E-02 
586	 8.98694783719192E-02 
587	 9.00370014816155E-02 
588	 9.01888419049256E-02 
589	 9.03269754997735E-02 
590	 9.04934461290892E-02 
591	 9.06534514981985E-02 
592	 9.07086566859556E-02 
593	 9.07524548249659E-02 
594	 9.07563262715586E-02 
595	 9.06902171949932E-02 
596	 9.05760377365493E-02 
597	 9.04481570517841E-02 
598	 0.090345254495044 
599	 9.03047348877994E-02 
600	 9.03474099623364E-02 
601	 9.04167435037415E-02 
602	 9.04797907181831E-02 
603	 9.05610654105409E-02 
604	 9.06595314909225E-02 
605	 0.090774101452123 
606	 9.08997065389574E-02 
607	 9.10204474665689E-02 
608	 9.11127976120869E-02 
609	 9.11993537352954E-02 
610	 9.13527696180733E-02 
611	 9.14823450214044E-02 
612	 9.15390174770467E-02 
613	 0.091514220354647 
614	 9.14824156139343E-02 
615	 9.14786555566779E-02 
616	 0.091518138140788 
617	 0.091593854504205 
618	 9.16344244708405E-02 
619	 0.091675028363209 
620	 9.17418201064277E-02 
621	 9.18115715926781E-02 
622	 9.18197067093908E-02 
623	 9.18152844277811E-02 
624	 9.18796865078376E-02 
625	 9.19594118098671E-02 
626	 9.19799486005373E-02 
627	 9.19546972420229E-02 
628	 0.092012440358751 
629	 9.20767940675747E-02 
630	 9.21441949598008E-02 
631	 9.22143752154705E-02 
632	 9.22236146366759E-02 
633	 9.22449932527904E-02 
634	 9.23037822722574E-02 
635	 9.23802098146576E-02 
636	 9.24335133555091E-02 
637	 9.24845725197049E-02 
638	 9.25483632609412E-02 
639	 9.25964852696138E-02 
640	 9.26398041333228E-02 
641	 9.26823899707718E-02 
642	 9.27257079542841E-02 
643	 9.27677114601874E-02 
644	 9.28366387213167E-02 
645	 9.29211000960831E-02 
646	 9.29491226312997E-02 
647	 9.29614870800864E-02 
648	 9.29954266988948E-02 
649	 0.093071745623947 
650	 9.31493713395359E-02 
651	 9.32130319647563E-02 
652	 9.32552863448782E-02 
653	 9.32786705932814E-02 
654	 9.33386230558124E-02 
655	 9.34039017993068E-02 
656	 9.34461636492187E-02 
657	 9.34849501900106E-02 
658	 9.35278774449819E-02 
659	 9.35818440830004E-02 
660	 9.36473788865802E-02 
661	 9.36865852157135E-02 
662	 9.37461360912056E-02 
663	 9.38272470511998E-02 
664	 9.38531072128343E-02 
665	 9.39103142791342E-02 
666	 9.39618321995978E-02 
667	 0.093970027107266 
668	 9.40459377182987E-02 
669	 0.094126482134074 
670	 9.41901405318636E-02 
671	 9.42524576374524E-02 
672	 0.094281542274803 
673	 9.43256084448626E-02 
674	 9.44057824567983E-02 
675	 9.44492659672079E-02 
676	 9.44715454788155E-02 
677	 9.45028586725292E-02 
678	 9.45677290434585E-02 
679	 9.45836831608319E-02 
680	 9.46338395256372E-02 
681	 9.47247955486034E-02 
682	 9.47463839659202E-02 
683	 9.48198900402149E-02 
684	 9.49017066259562E-02 
685	 0.094938487433705 
686	 9.50014556523526E-02 
687	 0.095081313687507 
688	 9.51435887435291E-02 
689	 9.51466058697625E-02 
690	 9.51796305192673E-02 
691	 0.095234233810901 
692	 9.52915346335748E-02 
693	 9.53437270326145E-02 
694	 9.53909450640911E-02 
695	 0.095434358525004 
696	 9.54717200186054E-02 
697	 9.54720761310166E-02 
698	 9.55040567412968E-02 
699	 9.55743449080301E-02 
700	 9.56203995120163E-02 
701	 9.56666009506948E-02 
702	 9.57064201806613E-02 
703	 9.57339039753465E-02 
704	 0.095757296367937 
705	 9.57972838215966E-02 
706	 9.58478421563676E-02 
707	 9.58877513299902E-02 
708	 9.59048645965563E-02 
709	 9.59244398965013E-02 
710	 9.59580598842232E-02 
711	 9.59913783006898E-02 
712	 9.60475132325839E-02 
713	 9.60797544851243E-02 
714	 9.60645975574273E-02 
715	 9.61474139682646E-02 
716	 9.61698447067275E-02 
717	 9.61324765872099E-02 
718	 0.096153840560977 
719	 9.62405939933604E-02 
720	 0.09628990289416 
721	 9.62615690324601E-02 
722	 0.096261549470542 
723	 9.63130015881717E-02 
724	 9.63602976910677E-02 
725	 9.63463429789948E-02 
726	 9.63745392390711E-02 
727	 9.63848411045464E-02 
728	 9.63692862181509E-02 
729	 9.63740791216107E-02 
730	 9.63977406447132E-02 
731	 9.64159977070654E-02 
732	 9.64170981919339E-02 
733	 9.64293455676101E-02 
734	 9.64523297796612E-02 
735	 9.64541720534555E-02 
736	 9.64103453066636E-02 
737	 9.64249115504992E-02 
738	 9.64505091122722E-02 
739	 9.64689424758161E-02 
740	 9.65045878655718E-02 
741	 9.64934950357951E-02 
742	 0.096461481769815 
743	 9.64466698630042E-02 
744	 9.64712880660342E-02 
745	 9.64424135489617E-02 
746	 9.64094948691096E-02 
747	 9.64630394127002E-02 
748	 9.64599762616251E-02 
749	 9.64083906891827E-02 
750	 0.09636922683183 
751	 9.64448242571581E-02 
752	 9.64566533547433E-02 
753	 9.64192331350088E-02 
754	 0.096387809294228 
755	 9.63900376768245E-02 
756	 9.64229704528233E-02 
757	 9.64219848448129E-02 
758	 9.63267628313419E-02 
759	 9.63476828701379E-02 
760	 0.096393374042197 
761	 9.64004800123743E-02 
762	 9.63792686042102E-02 
763	 9.63621107003361E-02 
764	 9.63466838917127E-02 
765	 9.63278591289143E-02 
766	 9.63198932894526E-02 
767	 9.63175675705523E-02 
768	 9.63161579055273E-02 
769	 0.096312500536274 
770	 9.63164684167465E-02 
771	 9.63050768924482E-02 
772	 9.62682423677026E-02 
773	 9.62159910794483E-02 
774	 9.62237198444917E-02 
775	 9.62431395000249E-02 
776	 9.62250933974589E-02 
777	 9.61986718135928E-02 
778	 9.61790040437045E-02 
779	 9.61737493224344E-02 
780	 9.61792539085401E-02 
781	 9.61558309224739E-02 
782	 9.61407884101335E-02 
783	 9.61381938049274E-02 
784	 9.61127446289241E-02 
785	 9.60978922619881E-02 
786	 9.60920996059265E-02 
787	 9.60862528629223E-02 
788	 9.60663935622324E-02 
789	 9.60843772549705E-02 
790	 9.60906234177281E-02 
791	 0.096028691998589 
792	 9.60221725683245E-02 
793	 9.60106251885737E-02 
794	 9.59824649098265E-02 
795	 9.59736247727028E-02 
796	 9.59573617924516E-02 
797	 9.59459358376432E-02 
798	 9.59445973885535E-02 
799	 9.59349209897626E-02 
800	 9.59363822029157E-02 
801	 0.09592657696237 
802	 9.58918423812185E-02 
803	 9.59045292346553E-02 
804	 0.095885603153796 
805	 9.58480193408169E-02 
806	 9.58536408028413E-02 
807	 9.58310810649152E-02 
808	 9.57997608969367E-02 
809	 9.57827732282553E-02 
810	 9.57931132321108E-02 
811	 9.57784375070129E-02 
812	 9.57414954325398E-02 
813	 9.57038314694024E-02 
814	 9.56990053721244E-02 
815	 9.56977267166974E-02 
816	 9.56816647692492E-02 
817	 9.56487053350482E-02 
818	 9.56521415174621E-02 
819	 9.56681858927289E-02 
820	 9.56623144060418E-02 
821	 9.56070857825879E-02 
822	 9.56196724929165E-02 
823	 9.56240624820925E-02 
824	 9.55844664094542E-02 
825	 9.55790393102339E-02 
826	 0.095590019158805 
827	 9.55931580812554E-02 
828	 9.55775806446936E-02 
829	 9.55890585742331E-02 
830	 9.55608250397402E-02 
831	 9.55084957712842E-02 
832	 9.54889910384571E-02 
833	 9.55366799144696E-02 
834	 9.55498620303785E-02 
835	 9.55110004417525E-02 
836	 9.54912551999782E-02 
837	 0.095497322848379 
838	 9.55319492795628E-02 
839	 9.55609423845286E-02 
840	 9.54937070345236E-02 
841	 9.54307759021715E-02 
842	 0.095420869227752 
843	 9.54652490198964E-02 
844	 9.54751161376212E-02 
845	 9.54748247131708E-02 
846	 9.54588820104414E-02 
847	 9.54287743428234E-02 
848	 9.55000722902556E-02 
849	 9.55189560886632E-02 
850	 9.54713091057278E-02 
851	 9.54691368730727E-02 
852	 9.54623124275985E-02 
853	 9.54683654247461E-02 
854	 9.54887958941068E-02 
855	 9.54915243886509E-02 
856	 9.55182276397736E-02 
857	 9.55235230806793E-02 
858	 0.095481425155475 
859	 9.54646304830305E-02 
860	 9.54560286569712E-02 
861	 9.54540129029314E-02 
862	 9.54543522241051E-02 
863	 9.54241511106852E-02 
864	 9.54240753075159E-02 
865	 0.095444220806258 
866	 9.54378166021308E-02 
867	 9.54503301296937E-02 
868	 9.54410770455916E-02 
869	 0.095408265281198 
870	 9.53957942893954E-02 
871	 9.54097242449328E-02 
872	 9.54397593335428E-02 
873	 9.54651889600538E-02 
874	 9.54567752399777E-02 
875	 9.54564785854986E-02 
876	 0.095459943970408 
877	 0.095462117588092 
878	 9.54888946485021E-02 
879	 9.55178634094778E-02 
880	 9.55296697889365E-02 
881	 9.55202777104119E-02 
882	 9.55325355092865E-02 
883	 9.56006643860045E-02 
884	 0.095665437952857 
885	 9.56458740273187E-02 
886	 9.56715244250735E-02 
887	 9.56660476521362E-02 
888	 9.56326532592952E-02 
889	 9.56471560122962E-02 
890	 9.56859058079438E-02 
891	 9.56753477874787E-02 
892	 9.56547170342218E-02 
893	 9.57907724301715E-02 
894	 9.58254917912194E-02 
895	 9.57782614757545E-02 
896	 9.57479648835679E-02 
897	 9.58657346247739E-02 
898	 9.59266687941193E-02 
899	 9.59033853614596E-02 
900	 9.58510869098043E-02 
901	 9.58958517186944E-02 
902	 9.60105458767598E-02 
903	 9.60759864690974E-02 
904	 9.60123006586465E-02 
905	 9.60028139129487E-02 
906	 9.60448290705423E-02 
907	 9.61091135013138E-02 
908	 9.61623785806207E-02 
909	 9.62455353049088E-02 
910	 9.62416913560863E-02 
911	 9.61999641757054E-02 
912	 9.62540613905463E-02 
913	 9.62784201569262E-02 
914	 9.62920660601762E-02 
915	 9.63230596756404E-02 
916	 9.63880128046214E-02 
917	 9.64304803948063E-02 
918	 9.64276819662168E-02 
919	 9.64131629198842E-02 
920	 9.64689628717633E-02 
921	 9.65375082215705E-02 
922	 9.66264690663058E-02 
923	 9.67033680689975E-02 
924	 9.66741756292413E-02 
925	 9.66878288555253E-02 
926	 9.67656582751499E-02 
927	 9.68595787131311E-02 
928	 9.68563677865036E-02 
929	 9.69017990952018E-02 
930	 0.096981461965738 
931	 9.70342666853075E-02 
932	 0.096991873320294 
933	 9.70136877171153E-02 
934	 9.70971030243862E-02 
935	 9.71834354783654E-02 
936	 9.72131597577252E-02 
937	 9.72364372029076E-02 
938	 9.72702777339724E-02 
939	 9.73352394974518E-02 
940	 9.75124920375158E-02 
941	 9.76064417228902E-02 
942	 9.76424960263226E-02 
943	 9.77137007487227E-02 
944	 0.097787517303338 
945	 9.77821861534267E-02 
946	 9.77490238313132E-02 
947	 9.77722930359047E-02 
948	 0.097777847896949 
949	 9.77910607286441E-02 
950	 9.78847993632283E-02 
951	 9.80876686964959E-02 
952	 9.81332476195053E-02 
953	 9.81295250402125E-02 
954	 9.81444747474365E-02 
955	 9.82045317415088E-02 
956	 9.83144636044191E-02 
957	 9.83632471179316E-02 
958	 9.83658172415983E-02 
959	 9.84137998931768E-02 
960	 0.098523878194392 
961	 9.86022283217242E-02 
962	 9.86422606979563E-02 
963	 9.86920360952053E-02 
964	 9.87122033717575E-02 
965	 9.87820722879329E-02 
966	 9.88901677554362E-02 
967	 9.89612166591162E-02 
968	 9.89719598150391E-02 
969	 9.89802425929757E-02 
970	 9.89936661270433E-02 
971	 9.89934506044274E-02 
972	 9.90607328142656E-02 
973	 0.099070002721435 
974	 9.90415045318774E-02 
975	 9.91005416571148E-02 
976	 9.93249462547173E-02 
977	 9.93441636978372E-02 
978	 9.92362403819062E-02 
979	 9.93239370839748E-02 
980	 9.93891678978451E-02 
981	 9.95036931987719E-02 
982	 0.099576802005929 
983	 9.95070104422074E-02 
984	 9.97151928592911E-02 
985	 9.98372475975115E-02 
986	 9.97939318549479E-02 
987	 9.97345367853828E-02 
988	 9.98776167679223E-02 
989	 9.99473633802551E-02 
990	 9.99159207664095E-02 
991	 0.099918805404097 
992	 0.100106348825666 
993	 0.100167123964948 
994	 0.100196930059796 
995	 0.100348678982734 
996	 0.100154459142714 
997	 0.100138561252718 
998	 0.100229853383711 
999	 0.10022346252141 
1000	 0.100394129436436 
1001	 9.87251941073243E-02 
1002	 9.88035119632492E-02 
1003	 9.88046009074444E-02 
1004	 9.88013003110992E-02 
1005	 9.88052710905744E-02 
1006	 9.88235592350565E-02 
1007	 9.88067147442363E-02 
1008	 9.88350166400811E-02 
1009	 9.88953866530928E-02 
1010	 9.89035734074567E-02 
1011	 9.89479536141339E-02 
1012	 9.90020315264996E-02 
1013	 9.89509637177934E-02 
1014	 9.89740994106661E-02 
1015	 9.90577253698515E-02 
1016	 9.90577919956839E-02 
1017	 9.90751582417882E-02 
1018	 9.91396982562809E-02 
1019	 9.92147038671755E-02 
1020	 9.91650740039777E-02 
1021	 9.91169942816196E-02 
1022	 9.91115855642416E-02 
1023	 0.099080706802426 
1024	 9.90949878627725E-02 
1025	 9.91438120206576E-02 
1026	 9.91504649646167E-02 
1027	 9.91849342062305E-02 
1028	 9.91966722399199E-02 
1029	 0.099173115628265 
1030	 9.91840429689617E-02 
1031	 0.09916605541844 
1032	 9.91345350577843E-02 
1033	 9.90819405335855E-02 
1034	 9.90254040725582E-02 
1035	 0.099004764939963 
1036	 9.89801849771677E-02 
1037	 9.89641164960289E-02 
1038	 9.90186636660498E-02 
1039	 9.90199609483343E-02 
1040	 9.90341812857129E-02 
1041	 9.90693361861195E-02 
1042	 9.90320648365205E-02 
1043	 9.90003606326904E-02 
1044	 9.90121893604054E-02 
1045	 9.90339830213662E-02 
1046	 9.90796790223801E-02 
1047	 9.91727057350652E-02 
1048	 9.92669692471716E-02 
1049	 9.92755812752099E-02 
1050	 9.92914917535374E-02 
1051	 9.93381440610521E-02 
1052	 9.93527592654728E-02 
1053	 9.94102603902547E-02 
1054	 0.099463599772207 
1055	 9.94841483679696E-02 
1056	 9.95450408879182E-02 
1057	 9.95997529467054E-02 
1058	 9.96747943347738E-02 
1059	 9.97302769322471E-02 
1060	 9.97907867066973E-02 
1061	 9.98074608359086E-02 
1062	 0.099841065647937 
1063	 9.98759140633539E-02 
1064	 9.98585045404634E-02 
1065	 9.98503887055016E-02 
1066	 9.98692513974895E-02 
1067	 9.99070850533526E-02 
1068	 9.99798810642485E-02 
1069	 0.100043162103946 
1070	 0.100098560750155 
1071	 0.100138970799484 
1072	 0.100171148686336 
1073	 0.100199810578008 
1074	 0.100239135439728 
1075	 0.100281595467206 
1076	 0.10029913531063 
1077	 0.100313633643344 
1078	 0.100307392728015 
1079	 0.100284443278982 
1080	 0.100268472355385 
1081	 0.100291306041314 
1082	 0.100374434573403 
1083	 0.100393779711234 
1084	 0.100390054581487 
1085	 0.100385697473756 
1086	 0.100340495211276 
1087	 0.100322485641623 
1088	 0.100293668227272 
1089	 0.100356301972965 
1090	 0.100393085814989 
1091	 0.100363830093024 
1092	 0.100376340169642 
1093	 0.100379172652402 
1094	 0.100323618437872 
1095	 0.100320340713806 
1096	 0.10031522059468 
1097	 0.100262507890061 
1098	 0.10025396672579 
1099	 0.100285209387484 
1100	 0.100293748655646 
1101	 0.100312944094942 
1102	 0.100317046954578 
1103	 0.100326677802966 
1104	 0.100296539915528 
1105	 0.100250458691125 
1106	 0.100222048276924 
1107	 0.100185315424963 
1108	 0.100173427849689 
1109	 0.100180898659079 
1110	 0.100183961425448 
1111	 0.100174394185128 
1112	 0.100152077539203 
1113	 0.100141154477912 
1114	 0.100125356579125 
1115	 0.100118695841311 
1116	 0.100126292919861 
1117	 0.100130098509579 
1118	 0.100143560872446 
1119	 0.100128776534266 
1120	 0.100121858698763 
1121	 0.10012976535949 
1122	 0.100144952280007 
1123	 0.100158835603424 
1124	 0.100145154608237 
1125	 0.100113272090631 
1126	 0.100106875193527 
1127	 0.100080085787931 
1128	 0.100076713370831 
1129	 0.100118668596402 
1130	 0.10012418357785 
1131	 0.100110903809178 
1132	 0.100105543284514 
1133	 0.100081991136183 
1134	 0.100081265996842 
1135	 0.100103255552492 
1136	 0.100109457361907 
1137	 0.100118289836662 
1138	 0.100129110427845 
1139	 0.100122236961065 
1140	 0.100085584644487 
1141	 0.100085318535702 
1142	 0.100098991593682 
1143	 0.100099314557674 
1144	 0.100117219851463 
1145	 0.100111031999757 
1146	 0.100078289461779 
1147	 0.100059134241649 
1148	 0.100024584812257 
1149	 0.100014125486709 
1150	 0.100020828280115 
1151	 0.100034975660629 
1152	 0.10003245054478 
1153	 0.100039371268632 
1154	 0.100032649556118 
1155	 9.99947223564443E-02 
1156	 9.99954867977101E-02 
1157	 0.100018857518357 
1158	 0.10002664866344 
1159	 0.100052178951921 
1160	 0.100053545461466 
1161	 0.100036430971016 
1162	 0.100020674912931 
1163	 9.99817863984333E-02 
1164	 9.99686779696895E-02 
1165	 9.99722830067669E-02 
1166	 9.99673913087242E-02 
1167	 9.99624650236985E-02 
1168	 9.99609474393995E-02 
1169	 0.099959784746573 
1170	 9.99457676270464E-02 
1171	 9.99451058386254E-02 
1172	 0.099961862986145 
1173	 9.99661890411971E-02 
1174	 9.99605797754188E-02 
1175	 9.99658877823962E-02 
1176	 9.99765499957473E-02 
1177	 0.099983540455277 
1178	 9.99968893089792E-02 
1179	 0.100002969454394 
1180	 0.100002333188662 
1181	 0.100004295159001 
1182	 0.100002739409726 
1183	 9.99991449815195E-02 
1184	 0.100013765234318 
1185	 0.100041369160049 
1186	 0.100055009605279 
1187	 0.100072020578542 
1188	 0.10009373067128 
1189	 0.100101792797191 
1190	 0.100128488053053 
1191	 0.100190283655668 
1192	 0.100215277879406 
1193	 0.100218781814891 
1194	 0.100237611092495 
1195	 0.100249032967631 
1196	 0.100259189027423 
1197	 0.100283891285977 
1198	 0.100299617384079 
1199	 0.100309020554494 
1200	 0.100297695853249 
1201	 0.100314426849222 
1202	 0.100342485788411 
1203	 0.100366011054348 
1204	 0.100396624310576 
1205	 0.100427929955209 
1206	 0.100460293768637 
1207	 0.100488946138151 
1208	 0.10052390421298 
1209	 0.100552346764284 
1210	 0.100571403536332 
1211	 0.100593561290588 
1212	 0.100618725530016 
1213	 0.100639788928402 
1214	 0.100651208106769 
1215	 0.100672346779639 
1216	 0.100696881610363 
1217	 0.100728315294219 
1218	 0.100744461391301 
1219	 0.100760730696552 
1220	 0.100774271052195 
1221	 0.100769849953684 
1222	 0.100783022023485 
1223	 0.100809202448739 
1224	 0.100828448317737 
1225	 0.100840754174326 
1226	 0.100867590666175 
1227	 0.100916567708602 
1228	 0.100938996908618 
1229	 0.100954547880181 
1230	 0.100972293847681 
1231	 0.100957649425409 
1232	 0.100967381291405 
1233	 0.100989751662217 
1234	 0.101039444423373 
1235	 0.101059425494023 
1236	 0.101075902537488 
1237	 0.101096046507603 
1238	 0.101098849271596 
1239	 0.101120955663561 
1240	 0.101167976867367 
1241	 0.10119338417749 
1242	 0.101209253502077 
1243	 0.101230768031985 
1244	 0.101241920058869 
1245	 0.101263570271159 
1246	 0.1013045097004 
1247	 0.101328975702907 
1248	 0.10134954504038 
1249	 0.101365405601651 
1250	 0.101362448885415 
1251	 0.101377819819088 
1252	 0.101397676901039 
1253	 0.101433305483264 
1254	 0.101444132533145 
1255	 0.101448368460466 
1256	 0.101458988526023 
1257	 0.101457175447427 
1258	 0.101464237411267 
1259	 0.1014827959333 
1260	 0.101496687780674 
1261	 0.101512820148153 
1262	 0.101516874674774 
1263	 0.101520183823033 
1264	 0.101520832449171 
1265	 0.101490114398963 
1266	 0.101487598457195 
1267	 0.101505836882196 
1268	 0.101520712630877 
1269	 0.101539025043471 
1270	 0.101569837697769 
1271	 0.101602723576854 
1272	 0.101631531364449 
1273	 0.101671031720865 
1274	 0.101731399308434 
1275	 0.101773791905076 
1276	 0.101804058819565 
1277	 0.101847112140587 
1278	 0.101889278453576 
1279	 0.101938355888602 
1280	 0.101994043093018 
1281	 0.102058278004027 
1282	 0.102131781064996 
1283	 0.102199615198823 
1284	 0.102269173030504 
1285	 0.102348854319573 
1286	 0.102414203811436 
1287	 0.10248676329552 
1288	 0.102560608826502 
1289	 0.102639005474937 
1290	 0.102714567355214 
1291	 0.102796501022234 
1292	 0.102861913044131 
1293	 0.102917962141664 
1294	 0.102977702138679 
1295	 0.10302712925273 
1296	 0.103085469135297 
1297	 0.103161158431356 
1298	 0.103214216080104 
1299	 0.103256316756486 
1300	 0.103293523277971 
1301	 0.103309868743604 
1302	 0.103338556063991 
1303	 0.103367080255746 
1304	 0.103405194674964 
1305	 0.10344891481768 
1306	 0.10348162248655 
1307	 0.103495520320538 
1308	 0.103496230137037 
1309	 0.103493145140699 
1310	 0.103468828200964 
1311	 0.103459288611784 
1312	 0.103451849109054 
1313	 0.103443577952122 
1314	 0.103440102930236 
1315	 0.10342881931762 
1316	 0.10340868327153 
1317	 0.103399301198381 
1318	 0.103390089096703 
1319	 0.103382606411492 
1320	 0.103389722458272 
1321	 0.103384365687241 
1322	 0.10337840917435 
1323	 0.103356204736391 
1324	 0.103329625398526 
1325	 0.10331681114671 
1326	 0.103305691755789 
1327	 0.103307035579655 
1328	 0.103303470784251 
1329	 0.10327322836899 
1330	 0.103253606404702 
1331	 0.103217934195593 
1332	 0.103207497715943 
1333	 0.103224475963411 
1334	 0.103208644336281 
1335	 0.103176066861706 
1336	 0.103166767772012 
1337	 0.103146376417578 
1338	 0.103138796219507 
1339	 0.103162410426282 
1340	 0.103170449703836 
1341	 0.103170870191739 
1342	 0.103170624900066 
1343	 0.10316734067563 
1344	 0.10316993439264 
1345	 0.10318422070217 
1346	 0.103184289092158 
1347	 0.103172652042502 
1348	 0.103164418067085 
1349	 0.103136055672928 
1350	 0.103112555302141 
1351	 0.103108777968745 
1352	 0.103124868480572 
1353	 0.103135090310004 
1354	 0.103161107315223 
1355	 0.103164594996925 
1356	 0.103156346197344 
1357	 0.103157655762711 
1358	 0.103140942770344 
1359	 0.103149951115456 
1360	 0.103186438829058 
1361	 0.103205805246053 
1362	 0.103234037258772 
1363	 0.103251366397667 
1364	 0.103249866368419 
1365	 0.103257555396371 
1366	 0.103264258086167 
1367	 0.103273965357151 
1368	 0.10329171289063 
1369	 0.103316743940383 
1370	 0.103334760607124 
1371	 0.10332585233455 
1372	 0.103321271887423 
1373	 0.103313247944703 
1374	 0.103303953567862 
1375	 0.103298319034506 
1376	 0.103291081373548 
1377	 0.103278969043258 
1378	 0.10326557314948 
1379	 0.10325922346363 
1380	 0.103236541556391 
1381	 0.103189621813355 
1382	 0.103165517966811 
1383	 0.103145875121494 
1384	 0.10312873073414 
1385	 0.103129982126942 
1386	 0.103122526007273 
1387	 0.103112110118881 
1388	 0.103093679099127 
1389	 0.103070460385043 
1390	 0.10304562680483 
1391	 0.103017506028717 
1392	 0.102993516344563 
1393	 0.102981300278804 
1394	 0.102963303641189 
1395	 0.102927784086937 
1396	 0.102883552911099 
1397	 0.102851375126627 
1398	 0.102814836643128 
1399	 0.102784306520114 
1400	 0.102766842089416 
1401	 0.102741793605148 
1402	 0.1027098451791 
1403	 0.102679729772821 
1404	 0.102647847181404 
1405	 0.102623934757759 
1406	 0.102602089578927 
1407	 0.102579402007169 
1408	 0.102571090057225 
1409	 0.102551401993383 
1410	 0.102512822785037 
1411	 0.102493103176469 
1412	 0.102478855569327 
1413	 0.102461937697149 
1414	 0.102470246698333 
1415	 0.102489251477586 
1416	 0.102506162140824 
1417	 0.102529701851004 
1418	 0.102536142193936 
1419	 0.10253499312375 
1420	 0.102547664176841 
1421	 0.102546519594767 
1422	 0.102553931881501 
1423	 0.102582197776783 
1424	 0.102601537146018 
1425	 0.102623082301835 
1426	 0.102636939530907 
1427	 0.102641899262175 
1428	 0.102659921152923 
1429	 0.102678329730582 
1430	 0.102698600700264 
1431	 0.102736094815891 
1432	 0.102757992756063 
1433	 0.102770796742221 
1434	 0.102781392130219 
1435	 0.102775700393874 
1436	 0.10279075221947 
1437	 0.102811649637722 
1438	 0.102833476174428 
1439	 0.102861895749814 
1440	 0.102907729968807 
1441	 0.102948073629653 
1442	 0.102981876093961 
1443	 0.103003868207515 
1444	 0.10302057822341 
1445	 0.103040158739545 
1446	 0.103057661293206 
1447	 0.103090588668763 
1448	 0.103138046397324 
1449	 0.103163661476211 
1450	 0.103181126967226 
1451	 0.103208526533942 
1452	 0.103237971268235 
1453	 0.103261989292858 
1454	 0.103286257279802 
1455	 0.103316328454381 
1456	 0.103345085610484 
1457	 0.103374915147986 
1458	 0.1034172107455 
1459	 0.103444037287361 
1460	 0.103453254502037 
1461	 0.103481602721071 
1462	 0.103516544940549 
1463	 0.103544823275248 
1464	 0.103584250067901 
1465	 0.103610857290045 
1466	 0.103624121293666 
1467	 0.103642398032918 
1468	 0.103656618009076 
1469	 0.103674429422859 
1470	 0.103690211983244 
1471	 0.103711087872069 
1472	 0.103739589176835 
1473	 0.103778512392495 
1474	 0.103816444409611 
1475	 0.103836063977354 
1476	 0.103845994698831 
1477	 0.103859458765312 
1478	 0.103869210140109 
1479	 0.103891248917946 
1480	 0.103936396625664 
1481	 0.103972403520031 
1482	 0.103998348650328 
1483	 0.104028749774313 
1484	 0.104046411524325 
1485	 0.104036830830863 
1486	 0.104056514005031 
1487	 0.104090588829651 
1488	 0.104112114134496 
1489	 0.10413917280551 
1490	 0.104161920219181 
1491	 0.104175824242472 
1492	 0.104190949622171 
1493	 0.104204695665783 
1494	 0.104226117834477 
1495	 0.104251375257456 
1496	 0.104271351012051 
1497	 0.10429523624468 
1498	 0.104317992257546 
1499	 0.104337414940281 
1500	 0.10435279173132 
1501	 0.104365899671799 
1502	 0.104382230872803 
1503	 0.104396748855959 
1504	 0.104406401611005 
1505	 0.104415805916282 
1506	 0.104438086588921 
1507	 0.104462183796394 
1508	 0.104468805853392 
1509	 0.104478826596952 
1510	 0.10449762528826 
1511	 0.10450384054816 
1512	 0.104512361174452 
1513	 0.104531614208025 
1514	 0.104554604423101 
1515	 0.104572924664673 
1516	 0.104592370050025 
1517	 0.104607569882993 
1518	 0.10461864887076 
1519	 0.104626815724443 
1520	 0.10462826828678 
1521	 0.104640295289835 
1522	 0.104655895385204 
1523	 0.104668719049958 
1524	 0.104687212241284 
1525	 0.104700389771753 
1526	 0.104704448947236 
1527	 0.104717633438166 
1528	 0.104738648468812 
1529	 0.104755666433786 
1530	 0.104769366768919 
1531	 0.104788417863028 
1532	 0.104817218429866 
1533	 0.104829456500082 
1534	 0.10483545384674 
1535	 0.104844878070665 
1536	 0.104835451898555 
1537	 0.104844436003466 
1538	 0.104873032624615 
1539	 0.104894035399157 
1540	 0.104917543207881 
1541	 0.104936721589012 
1542	 0.104949940761452 
1543	 0.104967132217007 
1544	 0.104992966612582 
1545	 0.105009709727719 
1546	 0.105027145927486 
1547	 0.105030444269601 
1548	 0.105036752402358 
1549	 0.105035265917279 
1550	 0.105027744972564 
1551	 0.105034285164903 
1552	 0.105033203354277 
1553	 0.105026223691068 
1554	 0.10503573911702 
1555	 0.105046485061622 
1556	 0.105060304106128 
1557	 0.105068265893923 
1558	 0.105070635223539 
1559	 0.105087058538208 
1560	 0.105101332223719 
1561	 0.105122193854315 
1562	 0.105129726882167 
1563	 0.10513470401882 
1564	 0.105134053840342 
1565	 0.105117329748565 
1566	 0.105120926991987 
1567	 0.105131859325719 
1568	 0.105140741691532 
1569	 0.105161176234032 
1570	 0.105167442120852 
1571	 0.105165105345646 
1572	 0.105170699060784 
1573	 0.105174664082209 
1574	 0.105178110260576 
1575	 0.105184321332278 
1576	 0.105189479445821 
1577	 0.105193738320623 
1578	 0.105193235825187 
1579	 0.105191499488136 
1580	 0.105192658272079 
1581	 0.105184081561746 
1582	 0.105189760354539 
1583	 0.105213651160926 
1584	 0.105220593975892 
1585	 0.105225083885441 
1586	 0.10522769204795 
1587	 0.105219936406526 
1588	 0.105216355997169 
1589	 0.105211993240968 
1590	 0.105214239981472 
1591	 0.105221847862727 
1592	 0.105223537340171 
1593	 0.105226545665829 
1594	 0.105231624332695 
1595	 0.105232497876294 
1596	 0.105234804087209 
1597	 0.105244200646715 
1598	 0.105248488178401 
1599	 0.105247013368653 
1600	 0.105247394213698 
1601	 0.105247350860967 
1602	 0.105249835239721 
1603	 0.105247746776431 
1604	 0.105254250558793 
1605	 0.105270747448912 
1606	 0.105281886533859 
1607	 0.105292065484112 
1608	 0.105311645804936 
1609	 0.105320311175138 
1610	 0.105336344973956 
1611	 0.105345853148021 
1612	 0.105349809094485 
1613	 0.105338747347647 
1614	 0.105322294687209 
1615	 0.105326553196977 
1616	 0.105336064569046 
1617	 0.105355142778427 
1618	 0.105372898464405 
1619	 0.10538170724461 
1620	 0.105385360191321 
1621	 0.10538981407656 
1622	 0.105398345059019 
1623	 0.105395547521567 
1624	 0.105382727760993 
1625	 0.105378089202479 
1626	 0.105366996642772 
1627	 0.105368716294906 
1628	 0.105380465574521 
1629	 0.105389812021841 
1630	 0.105400416902226 
1631	 0.105419951403393 
1632	 0.105449517299303 
1633	 0.105462799918994 
1634	 0.105481929243134 
1635	 0.105480706597042 
1636	 0.105456595433556 
1637	 0.105447585637419 
1638	 0.105431214491097 
1639	 0.105431756927119 
1640	 0.105442750293606 
1641	 0.105450459019211 
1642	 0.105467676166611 
1643	 0.105479055656153 
1644	 0.105487555002249 
1645	 0.10549673862328 
1646	 0.10550711835317 
1647	 0.10551422759682 
1648	 0.10551981829085 
1649	 0.105523431304009 
1650	 0.105525971223984 
1651	 0.105524565908988 
1652	 0.105519829052426 
1653	 0.105514407508993 
1654	 0.105496774631937 
1655	 0.105502263838699 
1656	 0.105525105614562 
1657	 0.105529403700303 
1658	 0.105535512345837 
1659	 0.105545937872394 
1660	 0.105554895670084 
1661	 0.10554610768923 
1662	 0.10553358336682 
1663	 0.105528835820335 
1664	 0.105497982550131 
1665	 0.105496021518403 
1666	 0.105525348341112 
1667	 0.105542131877877 
1668	 0.105562727528009 
1669	 0.105573657929344 
1670	 0.105588118111629 
1671	 0.105588833264742 
1672	 0.105566016137908 
1673	 0.105565707988007 
1674	 0.105575729267352 
1675	 0.105572906460109 
1676	 0.105568913263504 
1677	 0.105573992439868 
1678	 0.105581120127406 
1679	 0.105572836113722 
1680	 0.105556623528169 
1681	 0.105564865201594 
1682	 0.105566909746719 
1683	 0.10557808327001 
1684	 0.105630696349527 
1685	 0.105646779290925 
1686	 0.105632658604433 
1687	 0.105637152884813 
1688	 0.10564086735482 
1689	 0.105648951204671 
1690	 0.105661225212364 
1691	 0.105677225255774 
1692	 0.105701396033106 
1693	 0.105717108955936 
1694	 0.105734772523774 
1695	 0.105744762413353 
1696	 0.105743242062699 
1697	 0.105750004435016 
1698	 0.105758772711719 
1699	 0.105767867943029 
1700	 0.105782316229157 
1701	 0.105785423995771 
1702	 0.105781688437431 
1703	 0.105781549373965 
1704	 0.10578608502398 
1705	 0.105772510220933 
1706	 0.105737640899264 
1707	 0.105730926574679 
1708	 0.105719269315113 
1709	 0.105724197552039 
1710	 0.105772809511123 
1711	 0.105782349466774 
1712	 0.105769828540932 
1713	 0.10576909572474 
1714	 0.105758639564002 
1715	 0.105757389713351 
1716	 0.105764087429873 
1717	 0.105773069319084 
1718	 0.105783228293635 
1719	 0.105794158293129 
1720	 0.105822259913113 
1721	 0.105824490857953 
1722	 0.105806095510903 
1723	 0.105799712351765 
1724	 0.105782904767463 
1725	 0.105780655221757 
1726	 0.105795942916843 
1727	 0.105801020070997 
1728	 0.105805511566983 
1729	 0.105804471870622 
1730	 0.105798180552115 
1731	 0.105792949644355 
1732	 0.105777801888212 
1733	 0.105784045497539 
1734	 0.105817420294186 
1735	 0.10580303814983 
1736	 0.10577300167222 
1737	 0.105758501713812 
1738	 0.105707756371811 
1739	 0.105698202987386 
1740	 0.105734467798654 
1741	 0.105737164560075 
1742	 0.105729984709429 
1743	 0.105724422090007 
1744	 0.105713169709342 
1745	 0.10571527025225 
1746	 0.105723903543453 
1747	 0.105730853973406 
1748	 0.105724872239675 
1749	 0.10571742765841 
1750	 0.105709836154973 
1751	 0.105718422662834 
1752	 0.1057339992189 
1753	 0.105717364000217 
1754	 0.105684124800136 
1755	 0.105658967919309 
1756	 0.105629275143006 
1757	 0.105594797370292 
1758	 0.105592700502322 
1759	 0.105581758263359 
1760	 0.105555079314436 
1761	 0.105556397831804 
1762	 0.105561212573159 
1763	 0.105549948403614 
1764	 0.105531574744038 
1765	 0.105524128142038 
1766	 0.105513116679001 
1767	 0.105513773285963 
1768	 0.105524907724488 
1769	 0.105525525606365 
1770	 0.105531085751708 
1771	 0.105527409329662 
1772	 0.105524903135661 
1773	 0.105530298386232 
1774	 0.105520826313013 
1775	 0.105523689551818 
1776	 0.105546708527086 
1777	 0.105547807574862 
1778	 0.105532322051553 
1779	 0.105524951623014 
1780	 0.105519717770455 
1781	 0.105503548769037 
1782	 0.105492567217049 
1783	 0.105446965400112 
1784	 0.105438233100339 
1785	 0.105467365630039 
1786	 0.105480117887163 
1787	 0.10551929356381 
1788	 0.105535244378681 
1789	 0.105514457431848 
1790	 0.105513949136589 
1791	 0.105512802746959 
1792	 0.105517351445376 
1793	 0.10553971206505 
1794	 0.105548702561802 
1795	 0.105559859414075 
1796	 0.105559733006955 
1797	 0.105535206557923 
1798	 0.105540600575103 
1799	 0.105558719857105 
1800	 0.10556406490943 
1801	 0.102882029187723 
1802	 0.102966608056417 
1803	 0.10307829375277 
1804	 0.103195942186616 
1805	 0.103338939823317 
1806	 0.103496185945113 
1807	 0.103617477553534 
1808	 0.103717502477377 
1809	 0.103781206407737 
1810	 0.103858580199318 
1811	 0.103913953569756 
1812	 0.103989734358689 
1813	 0.10409313635996 
1814	 0.104171904544775 
1815	 0.104223508487455 
1816	 0.104261393274596 
1817	 0.104278722281857 
1818	 0.104236627237073 
1819	 0.104241267425665 
1820	 0.104244487000177 
1821	 0.104276695368867 
1822	 0.104324729083054 
1823	 0.104384278135381 
1824	 0.104447767296966 
1825	 0.104492543084974 
1826	 0.104518451765661 
1827	 0.104537525143313 
1828	 0.104557194236375 
1829	 0.104557905144975 
1830	 0.104572151496145 
1831	 0.104586437338586 
1832	 0.104629142926663 
1833	 0.104645163695368 
1834	 0.104670649249089 
1835	 0.104713434704385 
1836	 0.104710599222649 
1837	 0.104712895945012 
1838	 0.104717350002429 
1839	 0.104723824786837 
1840	 0.104715501269922 
1841	 0.104733224731313 
1842	 0.104766569884112 
1843	 0.104818671526815 
1844	 0.104854900085959 
1845	 0.104866516184471 
1846	 0.10489574482638 
1847	 0.104918062591168 
1848	 0.104942401808841 
1849	 0.104984379538771 
1850	 0.10501891831641 
1851	 0.105048909538424 
1852	 0.105072321749388 
1853	 0.105097372297964 
1854	 0.105118647174424 
1855	 0.105142374284885 
1856	 0.105154592199101 
1857	 0.10516422067492 
1858	 0.105180376361774 
1859	 0.105186654102455 
1860	 0.105180851819721 
1861	 0.105167756898472 
1862	 0.105135286554237 
1863	 0.105110713726313 
1864	 0.10508581356179 
1865	 0.105055248507551 
1866	 0.105057292926553 
1867	 0.105052204327871 
1868	 0.105016966979763 
1869	 0.104980703728323 
1870	 0.104954560613057 
1871	 0.104934331032087 
1872	 0.104915028865969 
1873	 0.104908759492699 
1874	 0.104899428410674 
1875	 0.104877434108765 
1876	 0.1048301874367 
1877	 0.104782026085925 
1878	 0.104744458910739 
1879	 0.104697566754129 
1880	 0.104655421189478 
1881	 0.104624382955881 
1882	 0.104573799411708 
1883	 0.104518597378473 
1884	 0.104458149226501 
1885	 0.104376077651495 
1886	 0.104287985676792 
1887	 0.104189625922461 
1888	 0.104079423677114 
1889	 0.103979735926505 
1890	 0.10385888509952 
1891	 0.103731093024106 
1892	 0.103601593219332 
1893	 0.103464679605525 
1894	 0.103303080815687 
1895	 0.103160050790797 
1896	 0.103029918762245 
1897	 0.102869564920381 
1898	 0.102719740445163 
1899	 0.102565681337541 
1900	 0.102403582029775 
1901	 0.102256965517428 
1902	 0.102104569614359 
1903	 0.101947510441321 
1904	 0.101801785446145 
1905	 0.101657099039656 
1906	 0.101512946520078 
1907	 0.101402000207034 
1908	 0.101305545380523 
1909	 0.10119727063614 
1910	 0.101088483007764 
1911	 0.100966951421326 
1912	 0.100842036093738 
1913	 0.100739794247715 
1914	 0.10065719020901 
1915	 0.100572015210622 
1916	 0.100495824680175 
1917	 0.100432515104302 
1918	 0.100361859729469 
1919	 0.100278045131102 
1920	 0.10019046899605 
1921	 0.100102487069122 
1922	 0.100032030101042 
1923	 0.099983261215349 
1924	 9.99401778539071E-02 
1925	 9.99254470840109E-02 
1926	 9.99042996502559E-02 
1927	 9.98854177718788E-02 
1928	 9.98631332081087E-02 
1929	 9.98570088989901E-02 
1930	 9.98447035760086E-02 
1931	 9.98434555051111E-02 
1932	 9.98546132378233E-02 
1933	 9.98326274966171E-02 
1934	 9.98127024439647E-02 
1935	 9.97982574997976E-02 
1936	 9.97529406626917E-02 
1937	 9.97444377026571E-02 
1938	 9.97680395737625E-02 
1939	 9.97874598588261E-02 
1940	 9.98171164707483E-02 
1941	 9.98553419260281E-02 
1942	 9.98836131580872E-02 
1943	 9.99061739061231E-02 
1944	 9.99199118315054E-02 
1945	 9.99288007319182E-02 
1946	 9.99382657883846E-02 
1947	 9.99376930723465E-02 
1948	 9.99492292971833E-02 
1949	 9.99693386429356E-02 
1950	 9.99803925477693E-02 
1951	 9.99750372629842E-02 
1952	 0.100008920815975 
1953	 0.100039549587337 
1954	 0.100078509473574 
1955	 0.100158283807445 
1956	 0.100225035175474 
1957	 0.100282379619702 
1958	 0.100329699368658 
1959	 0.100391889298608 
1960	 0.100454832114632 
1961	 0.100511986688074 
1962	 0.100579086056216 
1963	 0.10064161960085 
1964	 0.100685995961666 
1965	 0.100742094632375 
1966	 0.10083505839457 
1967	 0.100903810741044 
1968	 0.100959248508392 
1969	 0.10100712151508 
1970	 0.101062244398454 
1971	 0.101090729360431 
1972	 0.101145769243805 
1973	 0.101229016794671 
1974	 0.101299074831151 
1975	 0.101366950366065 
1976	 0.10143885844132 
1977	 0.101516307703194 
1978	 0.101566680367805 
1979	 0.101628466239692 
1980	 0.101693648564168 
1981	 0.101750948440153 
1982	 0.101807133676935 
1983	 0.101865236733006 
1984	 0.101903367613883 
1985	 0.101970413938106 
1986	 0.102057584540518 
1987	 0.102134711477877 
1988	 0.102226089934991 
1989	 0.102321204558824 
1990	 0.102374860087142 
1991	 0.102423037842704 
1992	 0.10247000520153 
1993	 0.102496753519518 
1994	 0.10253568826668 
1995	 0.102571605526005 
1996	 0.102622844037519 
1997	 0.102679892852015 
1998	 0.102744032569393 
1999	 0.102834059366068 
2000	 0.102906170110102 
2001	 0.102973708810504 
2002	 0.103027136562661 
2003	 0.103109318115102 
2004	 0.103188047232296 
2005	 0.103260026381542 
2006	 0.103351048365477 
2007	 0.103411973257812 
2008	 0.103436322075975 
2009	 0.103493522701167 
2010	 0.103549118166248 
2011	 0.103617528580168 
2012	 0.103711164965653 
2013	 0.103789293692152 
2014	 0.103861252748492 
2015	 0.103949393696505 
2016	 0.104013455393045 
2017	 0.104071900515975 
2018	 0.104141608463698 
2019	 0.104211026248484 
2020	 0.104278632309363 
2021	 0.104369738753687 
2022	 0.104425372473414 
2023	 0.104441055261582 
2024	 0.104490403170366 
2025	 0.104535672834963 
2026	 0.104588847263813 
2027	 0.104664942822704 
2028	 0.104745379420586 
2029	 0.104807905475331 
2030	 0.104858209962869 
2031	 0.10491401169586 
2032	 0.104967528884426 
2033	 0.105018382967497 
2034	 0.105064742239676 
2035	 0.105117475972754 
2036	 0.105174513623394 
2037	 0.105224918860036 
2038	 0.105275996782021 
2039	 0.105325174757568 
2040	 0.105375311200323 
2041	 0.105408092429632 
2042	 0.105449056502685 
2043	 0.105490074733671 
2044	 0.105538128690398 
2045	 0.105592787655082 
2046	 0.105638351787999 
2047	 0.105682860718353 
2048	 0.105730439483041 
2049	 0.105779816767994 
2050	 0.105817700728209 
2051	 0.105852631896935 
2052	 0.105890680645857 
2053	 0.105922331415681 
2054	 0.105947175540078 
2055	 0.105968501678598 
2056	 0.105996782493584 
2057	 0.106025146845351 
2058	 0.106044126393114 
2059	 0.106071610125001 
2060	 0.106110151627733 
2061	 0.106147322563452 
2062	 0.106182442921847 
2063	 0.106219457321897 
2064	 0.106273977213857 
2065	 0.106304219495228 
2066	 0.106307580671037 
2067	 0.106332257988628 
2068	 0.106354256329601 
2069	 0.106382730278343 
2070	 0.106411819848774 
2071	 0.106453462943844 
2072	 0.106495816120528 
2073	 0.106531922268122 
2074	 0.10657903996039 
2075	 0.106653275758987 
2076	 0.106698141309064 
2077	 0.106724554620309 
2078	 0.106762689746273 
2079	 0.106794762850266 
2080	 0.106828912267962 
2081	 0.106873716738495 
2082	 0.106911311880326 
2083	 0.106936822240212 
2084	 0.106968779183845 
2085	 0.10700693641823 
2086	 0.107051786316171 
2087	 0.107087702561402 
2088	 0.107125469700339 
2089	 0.107164606057007 
2090	 0.107204620860227 
2091	 0.107232962785845 
2092	 0.10725264542865 
2093	 0.107281480248263 
2094	 0.107300317152291 
2095	 0.10732835689726 
2096	 0.107379224656421 
2097	 0.107416731616503 
2098	 0.107448617480538 
2099	 0.107477813324298 
2100	 0.107497306036779 
2101	 0.107502768983097 
2102	 0.107524548500448 
2103	 0.107538310707001 
2104	 0.107572594122087 
2105	 0.107631710889358 
2106	 0.107674971799017 
2107	 0.107716526283962 
2108	 0.107762205997339 
2109	 0.107800693765659 
2110	 0.107851794033905 
2111	 0.107916700003031 
2112	 0.107978219464938 
2113	 0.108056848442816 
2114	 0.108105433193676 
2115	 0.108173407998225 
2116	 0.108249952811656 
2117	 0.108306524321669 
2118	 0.108356290588912 
2119	 0.108412817428495 
2120	 0.108462067464145 
2121	 0.108508280588861 
2122	 0.108564198665755 
2123	 0.108608457213623 
2124	 0.108636427241701 
2125	 0.108666140481312 
2126	 0.108702727111183 
2127	 0.108725867810084 
2128	 0.108727281126793 
2129	 0.108742712074949 
2130	 0.108763220835177 
2131	 0.108776480822164 
2132	 0.108792031377076 
2133	 0.108823014163524 
2134	 0.108823277292425 
2135	 0.10880801744142 
2136	 0.108791072411441 
2137	 0.10874958287376 
2138	 0.108729591162727 
2139	 0.108718442179559 
2140	 0.108699204206244 
2141	 0.108694324792366 
2142	 0.108669423285654 
2143	 0.108620596270479 
2144	 0.10858598496578 
2145	 0.108549949154061 
2146	 0.108511926275666 
2147	 0.108483944134856 
2148	 0.108456150600993 
2149	 0.108401329794736 
2150	 0.108321384606519 
2151	 0.108262604331999 
2152	 0.108190562993754 
2153	 0.108136744502851 
2154	 0.108120646706171 
2155	 0.108058992026558 
2156	 0.107974492832957 
2157	 0.107897770932679 
2158	 0.107802326503907 
2159	 0.107710708456103 
2160	 0.107639729773071 
2161	 0.107541967816976 
2162	 0.107397497839702 
2163	 0.107292739756082 
2164	 0.107187484093072 
2165	 0.10710007957083 
2166	 0.107036985025914 
2167	 0.107026579653564 
2168	 0.106961486912259 
2169	 0.106891295494524 
2170	 0.106812735274482 
2171	 0.106713175181713 
2172	 0.106610905145716 
2173	 0.106494660422879 
2174	 0.106399470118305 
2175	 0.106293542064038 
2176	 0.10620748007103 
2177	 0.106146058822549 
2178	 0.106086175414775 
2179	 0.106045563024172 
2180	 0.10598523866452 
2181	 0.105929478002189 
2182	 0.105863450199928 
2183	 0.10576546198402 
2184	 0.105684802031847 
2185	 0.105608684877065 
2186	 0.105533482630018 
2187	 0.105473606505633 
2188	 0.105429450519954 
2189	 0.105374131161225 
2190	 0.10532713369312 
2191	 0.105272628644739 
2192	 0.105198423973688 
2193	 0.105152599322921 
2194	 0.105134418574132 
2195	 0.105089250647459 
2196	 0.10503791536907 
2197	 0.104997428283062 
2198	 0.104943545195613 
2199	 0.104893927633705 
2200	 0.104861707817325 
2201	 0.104827185700598 
2202	 0.104772199432063 
2203	 0.104743547535902 
2204	 0.104716460810669 
2205	 0.104704307426398 
2206	 0.10468027324916 
2207	 0.104663470463553 
2208	 0.104631167891011 
2209	 0.104582140397941 
2210	 0.104551587952366 
2211	 0.104519086931253 
2212	 0.1044922465232 
2213	 0.10447260246716 
2214	 0.104463099763027 
2215	 0.104461509341187 
2216	 0.104459627547599 
2217	 0.104478317327678 
2218	 0.10447820108282 
2219	 0.104463672883718 
2220	 0.104451554859747 
2221	 0.104426524055482 
2222	 0.104412837661497 
2223	 0.104405780500442 
2224	 0.104419383222602 
2225	 0.104430017141036 
2226	 0.104455249984158 
2227	 0.104468527930634 
2228	 0.10447967184217 
2229	 0.104492133295059 
2230	 0.104503560166606 
2231	 0.104513826353877 
2232	 0.104523479833004 
2233	 0.104532048205039 
2234	 0.104552004864323 
2235	 0.104544860662918 
2236	 0.10451855998853 
2237	 0.104499785130345 
2238	 0.10445233291455 
2239	 0.104433332652417 
2240	 0.104436182237922 
2241	 0.104441170888077 
2242	 0.104463480612402 
2243	 0.104474026720573 
2244	 0.104489077325997 
2245	 0.104490927651893 
2246	 0.104490786685856 
2247	 0.104501599607027 
2248	 0.104509009626661 
2249	 0.104515987171201 
2250	 0.104531485002758 
2251	 0.104555389103337 
2252	 0.104569643154458 
2253	 0.104586749734074 
2254	 0.104600453974988 
2255	 0.104605297136941 
2256	 0.104609362053478 
2257	 0.104614523740134 
2258	 0.104625181297678 
2259	 0.10462252633029 
2260	 0.104642795526246 
2261	 0.104680247456105 
2262	 0.104716187379419 
2263	 0.104786201379293 
2264	 0.10481447477581 
2265	 0.104815206994643 
2266	 0.104827673890437 
2267	 0.104813229831477 
2268	 0.104813134267882 
2269	 0.104826612178996 
2270	 0.104849764136667 
2271	 0.10485882398521 
2272	 0.104870226414593 
2273	 0.104873593766509 
2274	 0.104881250953926 
2275	 0.104891961588265 
2276	 0.104904173735468 
2277	 0.104907417223153 
2278	 0.104907196893205 
2279	 0.104918509846498 
2280	 0.104923525695255 
2281	 0.104942852065166 
2282	 0.104994812566786 
2283	 0.105008640529902 
2284	 0.105011830916579 
2285	 0.105007465399139 
2286	 0.104971811956547 
2287	 0.104952092514048 
2288	 0.104922837639206 
2289	 0.10491854548705 
2290	 0.104931844627952 
2291	 0.104952149621257 
2292	 0.104989991346527 
2293	 0.10503081210798 
2294	 0.105102215555533 
2295	 0.105128939630793 
2296	 0.10513498878932 
2297	 0.1051399721942 
2298	 0.105130407662386 
2299	 0.105134577819126 
2300	 0.105174588312724 
2301	 0.105202978363058 
2302	 0.105195942572848 
2303	 0.105200842037451 
2304	 0.105219999610638 
2305	 0.105207776723511 
2306	 0.105188603168927 
2307	 0.105154073595061 
2308	 0.105145835278259 
2309	 0.105125251982751 
2310	 0.105124829659421 
2311	 0.105170824061449 
2312	 0.105170740854434 
2313	 0.1051415567086 
2314	 0.105136242842873 
2315	 0.105124249215388 
2316	 0.105124041620016 
2317	 0.105140050692563 
2318	 0.105148002744829 
2319	 0.105167732753185 
2320	 0.105165382166504 
2321	 0.105138080045135 
2322	 0.105139748001525 
2323	 0.105132202926082 
2324	 0.105145453622783 
2325	 0.105206301025997 
2326	 0.105223457875334 
2327	 0.105209576218605 
2328	 0.105237425944021 
2329	 0.105213411394513 
2330	 0.105251590906048 
2331	 0.105303430728543 
2332	 0.105290712818581 
2333	 0.105336975387323 
2334	 0.105380692745934 
2335	 0.105431458990513 
2336	 0.105474148801788 
2337	 0.105486318215383 
2338	 0.105482540673559 
2339	 0.105451052280321 
2340	 0.105450880847194 
2341	 0.105468904934971 
2342	 0.105502948370664 
2343	 0.10555540220262 
2344	 0.105582479932391 
2345	 0.105600918966091 
2346	 0.105595662442066 
2347	 0.105600162039154 
2348	 0.105607757854904 
2349	 0.105607397610293 
2350	 0.105607483999331 
2351	 0.105571668617085 
2352	 0.10549129858916 
2353	 0.105452367643483 
2354	 0.105414099591266 
2355	 0.105386845784329 
2356	 0.105390930797633 
2357	 0.105396025269128 
2358	 0.105389188355652 
2359	 0.10538265448941 
2360	 0.105394216254783 
2361	 0.105402954179144 
2362	 0.105424056709739 
2363	 0.105427029148343 
2364	 0.105413653569594 
2365	 0.105403906219676 
2366	 0.105365503981376 
2367	 0.10536454960989 
2368	 0.105426316343195 
2369	 0.105419104996018 
2370	 0.105396666448521 
2371	 0.105341888635159 
2372	 0.105262451020387 
2373	 0.105243235165078 
2374	 0.105227226939104 
2375	 0.105192717106605 
2376	 0.10518016060606 
2377	 0.105118768144687 
2378	 0.105129716769834 
2379	 0.105168825214031 
2380	 0.10507949841138 
2381	 0.10504976069297 
2382	 0.105088830061397 
2383	 0.105052568443486 
2384	 0.105064508896698 
2385	 0.105076387562725 
2386	 0.10493734619603 
2387	 0.104809269003565 
2388	 0.10472274357682 
2389	 0.104649700718954 
2390	 0.104657315126624 
2391	 0.104704719922054 
2392	 0.104764217707336 
2393	 0.104842713705724 
2394	 0.104884155752979 
2395	 0.104827023396359 
2396	 0.104773734472647 
2397	 0.104685401708544 
2398	 0.104601933952929 
2399	 0.104588408603065 
2400	 0.104547671311368 
2401	 0.104553206532907 
2402	 0.104499859302314 
2403	 0.104416042385229 
2404	 0.104419186527128 
2405	 0.104350934515801 
2406	 0.104266471649343 
2407	 0.104250182093453 
2408	 0.10411172975472 
2409	 0.103967588442325 
2410	 0.103950260192684 
2411	 0.103860099493955 
2412	 0.10387555225249 
2413	 0.104005680768309 
2414	 0.104027248981729 
2415	 0.104063612942618 
2416	 0.104114022204916 
2417	 0.104164295079068 
2418	 0.104150435410468 
2419	 0.104139437291231 
2420	 0.104118389175068 
2421	 0.104028320224939 
2422	 0.10393996761202 
2423	 0.103857930141314 
2424	 0.103799521982059 
2425	 0.103714112751355 
2426	 0.103638956456234 
2427	 0.103617743198673 
2428	 0.103548767515078 
2429	 0.103412376452149 
2430	 0.103369222892753 
2431	 0.103366620215414 
2432	 0.10336662985058 
2433	 0.103380692594635 
2434	 0.103418390969628 
2435	 0.103555950550217 
2436	 0.103522094038892 
2437	 0.103456449717113 
2438	 0.103392296884765 
2439	 0.103143632490693 
2440	 0.103029363754596 
2441	 0.102973061511485 
2442	 0.10292866190629 
2443	 0.102957176446999 
2444	 0.102939060189475 
2445	 0.102958951633201 
2446	 0.102897079284876 
2447	 0.102759189987138 
2448	 0.102672383662468 
2449	 0.102552280469726 
2450	 0.102507582966159 
2451	 0.102521962667745 
2452	 0.102467992566926 
2453	 0.102408662477532 
2454	 0.102404674498524 
2455	 0.102392274033277 
2456	 0.102325743764953 
2457	 0.102340222459067 
2458	 0.102247597595452 
2459	 0.101959288653726 
2460	 0.101916701127337 
2461	 0.102020243122993 
2462	 0.101950933065349 
2463	 0.101926700125811 
2464	 0.101913751482322 
2465	 0.101738255179812 
2466	 0.101648117727989 
2467	 0.101652376851347 
2468	 0.101614602400962 
2469	 0.101580225742176 
2470	 0.101637611517236 
2471	 0.101635729599616 
2472	 0.101678377897042 
2473	 0.101619787179282 
2474	 0.101574096343878 
2475	 0.10168818955172 
2476	 0.101556702603455 
2477	 0.101403599206856 
2478	 0.101429688040922 
2479	 0.101324648174731 
2480	 0.101277837834195 
2481	 0.101274020082378 
2482	 0.101139193257926 
2483	 0.100948328616161 
2484	 0.100860127074996 
2485	 0.100899955556105 
2486	 0.100970173247588 
2487	 0.101055846238028 
2488	 0.101111077380787 
2489	 0.101120400632308 
2490	 0.100995840756832 
2491	 0.100870065847437 
2492	 0.100777830147922 
2493	 0.100664790808061 
2494	 0.100655396706943 
2495	 0.100680590074337 
2496	 0.100832845375902 
2497	 0.100814489810748 
2498	 0.100666699717537 
2499	 0.100683810627911 
2500	 0.10060438376361 
