Wavelength	LMW_1900009.asd
350	 4.63501264585277E-02 
351	 5.90548979760021E-02 
352	 5.69377523760712E-02 
353	 3.69845683501816E-02 
354	 4.51206659052675E-02 
355	 0.045766829863355 
356	 4.40721713361307E-02 
357	 4.99212258107705E-02 
358	 5.17267948896813E-02 
359	 4.41366913689798E-02 
360	 3.74570568148318E-02 
361	 0.048136533262526 
362	 0.046322273201496 
363	 4.40026311324721E-02 
364	 4.76530006596439E-02 
365	 4.70617848024979E-02 
366	 4.67680404278919E-02 
367	 4.68255152382555E-02 
368	 4.63565832132379E-02 
369	 0.0451669145552 
370	 4.56859509100462E-02 
371	 4.72984467961134E-02 
372	 4.76170792062904E-02 
373	 0.049846403436104 
374	 5.13648404407078E-02 
375	 5.10223249477914E-02 
376	 5.15283924384015E-02 
377	 4.87320482709532E-02 
378	 4.76132963664384E-02 
379	 5.24867030349949E-02 
380	 5.40225215278582E-02 
381	 5.20734606315813E-02 
382	 5.06692353161241E-02 
383	 5.56283001449776E-02 
384	 5.69287170894204E-02 
385	 5.64451616633341E-02 
386	 5.62796034470878E-02 
387	 5.53475009184396E-02 
388	 5.62561965639876E-02 
389	 5.74562940558629E-02 
390	 5.70279418435249E-02 
391	 5.83647987415819E-02 
392	 5.85772259017916E-02 
393	 5.80902811650925E-02 
394	 6.00104446652719E-02 
395	 6.06509938690763E-02 
396	 6.07529060940545E-02 
397	 6.12167639700919E-02 
398	 6.15940047993944E-02 
399	 6.26400977159036E-02 
400	 6.44222783240834E-02 
401	 0.066296011127491 
402	 6.53367697154532E-02 
403	 6.52668836060002E-02 
404	 6.61274923033035E-02 
405	 6.41222021259545E-02 
406	 6.51476256101287E-02 
407	 0.06716995824871 
408	 6.77391705391737E-02 
409	 6.74505125783987E-02 
410	 6.67807542870991E-02 
411	 6.67211736183311E-02 
412	 6.80957235875823E-02 
413	 6.92475931724194E-02 
414	 6.94589104280241E-02 
415	 6.91348666498825E-02 
416	 6.99309571399073E-02 
417	 6.96158897209174E-02 
418	 0.069210805590345 
419	 6.98172738080464E-02 
420	 7.00873131989795E-02 
421	 7.02043591142357E-02 
422	 7.05231980906415E-02 
423	 7.13488249989532E-02 
424	 7.12362285191409E-02 
425	 0.071276227433274 
426	 7.19318005300487E-02 
427	 7.19966547146861E-02 
428	 7.16170522657265E-02 
429	 7.13953215126887E-02 
430	 7.18531984459891E-02 
431	 7.22915512799803E-02 
432	 7.24227840527797E-02 
433	 7.25129719977109E-02 
434	 7.32678157805488E-02 
435	 7.35534584215191E-02 
436	 0.073441871319931 
437	 7.33225295752394E-02 
438	 7.37653338656147E-02 
439	 7.41401319281749E-02 
440	 7.43589810957336E-02 
441	 7.46127279370624E-02 
442	 7.49408570782486E-02 
443	 7.53201800788019E-02 
444	 7.55826626380571E-02 
445	 7.53310140552249E-02 
446	 7.54090320936503E-02 
447	 7.58408059387693E-02 
448	 7.62998556408491E-02 
449	 7.60948562785823E-02 
450	 7.62380220115212E-02 
451	 7.68231680123926E-02 
452	 7.71395786586371E-02 
453	 7.72885428303097E-02 
454	 7.74007178760394E-02 
455	 7.75902326222292E-02 
456	 7.79332227976929E-02 
457	 0.078004217745545 
458	 7.79069730064386E-02 
459	 7.79829374347585E-02 
460	 0.078290172418018 
461	 7.85946739302824E-02 
462	 7.87283062573363E-02 
463	 7.86426816273368E-02 
464	 0.078843511688737 
465	 7.92147805699359E-02 
466	 7.95047790126404E-02 
467	 7.97201101040461E-02 
468	 7.99830805832264E-02 
469	 8.02276221312718E-02 
470	 8.02594518148058E-02 
471	 8.04002692782164E-02 
472	 8.05359101632315E-02 
473	 8.06246656875974E-02 
474	 8.10105529172745E-02 
475	 8.11940084359612E-02 
476	 8.11906216511158E-02 
477	 0.081253168617339 
478	 8.15121025393568E-02 
479	 8.17386637934024E-02 
480	 8.18612193493726E-02 
481	 0.082068959632351 
482	 8.22715436906282E-02 
483	 8.24420741910065E-02 
484	 8.25751242983992E-02 
485	 8.26757970469671E-02 
486	 8.28336431343595E-02 
487	 8.30040454596987E-02 
488	 8.30517958016486E-02 
489	 8.33064949658052E-02 
490	 8.35660168446826E-02 
491	 8.36516574701839E-02 
492	 8.36662371192998E-02 
493	 8.36212165388722E-02 
494	 8.36661019804221E-02 
495	 8.39438316871111E-02 
496	 8.40514594308852E-02 
497	 0.084212710510058 
498	 8.44590589522604E-02 
499	 8.44359046724329E-02 
500	 8.46647260562879E-02 
501	 8.48929553343651E-02 
502	 8.48182428693568E-02 
503	 8.49745143706789E-02 
504	 8.51509891444543E-02 
505	 8.51917187011505E-02 
506	 8.50400929700178E-02 
507	 0.085236826517856 
508	 8.54759818917894E-02 
509	 8.54843890257864E-02 
510	 8.55186117986024E-02 
511	 8.56898862865578E-02 
512	 8.58753323774411E-02 
513	 8.58592535912446E-02 
514	 8.58718306357249E-02 
515	 8.59110996312885E-02 
516	 0.086000196316594 
517	 8.62730433782637E-02 
518	 0.086395402866016 
519	 8.64199530325239E-02 
520	 8.65097762466812E-02 
521	 8.66570722075531E-02 
522	 8.67658594082665E-02 
523	 8.68195012484101E-02 
524	 8.68882245408777E-02 
525	 8.69058968274566E-02 
526	 8.69698949063181E-02 
527	 0.087126411720776 
528	 8.71504914539745E-02 
529	 0.087179973871983 
530	 8.72433420859913E-02 
531	 8.72953332708761E-02 
532	 8.73158140318814E-02 
533	 8.74316902814211E-02 
534	 8.76508482726198E-02 
535	 8.76956348972309E-02 
536	 8.76866128180571E-02 
537	 8.77067508373331E-02 
538	 8.78125735469275E-02 
539	 8.79514600687573E-02 
540	 0.088015503926917 
541	 8.80246144434021E-02 
542	 8.81720200353227E-02 
543	 8.82026255681208E-02 
544	 8.82230814898524E-02 
545	 8.83733990600294E-02 
546	 8.85243383835734E-02 
547	 8.86086435721434E-02 
548	 8.86223764258173E-02 
549	 8.86165288036044E-02 
550	 8.86346214532365E-02 
551	 8.86922120292949E-02 
552	 8.87909731893943E-02 
553	 8.89353059786517E-02 
554	 8.89810943638753E-02 
555	 8.90057455430877E-02 
556	 8.91753204948675E-02 
557	 8.92823037817987E-02 
558	 8.93879779426567E-02 
559	 8.95328875882205E-02 
560	 8.96758992408668E-02 
561	 8.97117238886202E-02 
562	 8.97163019340573E-02 
563	 8.98004984196236E-02 
564	 0.089873276109985 
565	 8.99010539086064E-02 
566	 8.98970440243952E-02 
567	 8.99222143997365E-02 
568	 9.00563097182113E-02 
569	 9.02167874292451E-02 
570	 9.03308272867041E-02 
571	 9.05125876799405E-02 
572	 9.06526517025986E-02 
573	 9.07295731685677E-02 
574	 9.07928464833433E-02 
575	 9.09321015531737E-02 
576	 9.10389874687858E-02 
577	 9.10464025708641E-02 
578	 9.10442467629345E-02 
579	 9.10275236539159E-02 
580	 9.10045810460044E-02 
581	 9.09826234914194E-02 
582	 9.09295976221495E-02 
583	 9.09455512947374E-02 
584	 9.10419816410486E-02 
585	 9.10891536274222E-02 
586	 9.12543203440412E-02 
587	 9.14106957730301E-02 
588	 9.14201015696641E-02 
589	 9.14745919148112E-02 
590	 9.16221678832881E-02 
591	 9.17872425177215E-02 
592	 0.091801796457002 
593	 9.19139418425652E-02 
594	 9.20579517873267E-02 
595	 9.21459366850395E-02 
596	 9.22038118005625E-02 
597	 9.22411731518326E-02 
598	 9.22409873487006E-02 
599	 9.21890646367778E-02 
600	 9.22343232448115E-02 
601	 0.092302158663799 
602	 9.23267953109033E-02 
603	 9.23023619004363E-02 
604	 9.22934309454243E-02 
605	 9.23348225603414E-02 
606	 9.24229634985421E-02 
607	 9.24201440336597E-02 
608	 9.24486425950828E-02 
609	 9.25610061125045E-02 
610	 9.27109369497075E-02 
611	 9.27299053742208E-02 
612	 9.27119020541648E-02 
613	 9.27703863776456E-02 
614	 9.28534171089779E-02 
615	 9.28576981971987E-02 
616	 9.28234975185559E-02 
617	 9.28858237328365E-02 
618	 9.30191069931863E-02 
619	 9.30637757578187E-02 
620	 9.29819920493679E-02 
621	 9.30375989985206E-02 
622	 9.31127868475538E-02 
623	 9.31467002427583E-02 
624	 9.31186279143225E-02 
625	 9.31567316368057E-02 
626	 9.32013580018866E-02 
627	 9.32212319105948E-02 
628	 9.32424497887779E-02 
629	 9.32962858494809E-02 
630	 9.33591069055519E-02 
631	 9.34021316524555E-02 
632	 9.34477791665282E-02 
633	 9.34598147446095E-02 
634	 9.34664113409712E-02 
635	 9.35419637906946E-02 
636	 9.36131278103837E-02 
637	 0.093653230516623 
638	 0.093671317026819 
639	 9.37452189710748E-02 
640	 0.093797539392967 
641	 9.38262783819609E-02 
642	 9.38625764797647E-02 
643	 9.39028920965383E-02 
644	 9.39359623715822E-02 
645	 9.39661527201827E-02 
646	 9.40231098225651E-02 
647	 9.40414658630083E-02 
648	 9.40454154153961E-02 
649	 9.40735572856736E-02 
650	 9.41042412134631E-02 
651	 9.41266983483267E-02 
652	 9.41528683905522E-02 
653	 9.42121793072149E-02 
654	 0.094294996138474 
655	 9.43321278848504E-02 
656	 9.43107523247818E-02 
657	 0.094382530980985 
658	 9.44678426294068E-02 
659	 9.45482278705407E-02 
660	 9.46218287840022E-02 
661	 9.45955368075027E-02 
662	 9.46150615961551E-02 
663	 9.47210954261911E-02 
664	 9.47720073533987E-02 
665	 9.48088223514744E-02 
666	 9.48401750713467E-02 
667	 9.48685265043429E-02 
668	 0.094890783229109 
669	 9.49486906336524E-02 
670	 9.50296764125296E-02 
671	 9.50755904352147E-02 
672	 9.50633520561071E-02 
673	 9.50759730204121E-02 
674	 9.51619195918312E-02 
675	 9.52549969275765E-02 
676	 9.52878732856975E-02 
677	 9.52885133555352E-02 
678	 9.53227024899667E-02 
679	 9.53648310271204E-02 
680	 0.095392089079213 
681	 9.54181686910101E-02 
682	 9.55041008627235E-02 
683	 9.55439581497666E-02 
684	 9.55415242371974E-02 
685	 9.55368770042832E-02 
686	 9.55811719658552E-02 
687	 9.56467096697514E-02 
688	 9.57097042745276E-02 
689	 9.57499782499084E-02 
690	 9.57454553644461E-02 
691	 9.57377729067172E-02 
692	 9.57581738920211E-02 
693	 9.58018956133012E-02 
694	 9.58316325263133E-02 
695	 9.58435931725411E-02 
696	 9.58521726149013E-02 
697	 9.58855959294432E-02 
698	 9.59366073594957E-02 
699	 9.59870632668406E-02 
700	 9.60112694498267E-02 
701	 9.60129130418367E-02 
702	 9.60078568574061E-02 
703	 9.60169216169591E-02 
704	 9.60714801244012E-02 
705	 9.61003033241572E-02 
706	 9.61097800970815E-02 
707	 0.09614186905788 
708	 9.61566809703408E-02 
709	 9.61820119752446E-02 
710	 9.62219500500072E-02 
711	 9.62372272167226E-02 
712	 9.62462254714922E-02 
713	 9.62602695263756E-02 
714	 9.62876201079034E-02 
715	 9.63348647583249E-02 
716	 9.63609335518013E-02 
717	 9.63609383237099E-02 
718	 9.63585791520698E-02 
719	 9.63727115970995E-02 
720	 9.63553968132956E-02 
721	 9.63039989550304E-02 
722	 9.63219806246065E-02 
723	 9.63422240530609E-02 
724	 9.63761938861176E-02 
725	 9.64335198117251E-02 
726	 9.63793434062927E-02 
727	 9.63688564798078E-02 
728	 9.64242704546379E-02 
729	 9.64348592426357E-02 
730	 9.64363345583102E-02 
731	 9.64216729104188E-02 
732	 9.63874051397592E-02 
733	 9.63447893995267E-02 
734	 9.63645461544403E-02 
735	 9.63989942218428E-02 
736	 9.63680887865659E-02 
737	 9.63337853444404E-02 
738	 0.096326366100345 
739	 9.63372521217042E-02 
740	 9.63201017490084E-02 
741	 9.63320207500463E-02 
742	 9.63337891659479E-02 
743	 9.62948485168262E-02 
744	 0.096260107061127 
745	 9.62385643562275E-02 
746	 9.62490486045436E-02 
747	 9.62950527869684E-02 
748	 9.62597980694156E-02 
749	 9.62256162345442E-02 
750	 9.62285451616544E-02 
751	 9.62264194762331E-02 
752	 9.62043655903406E-02 
753	 9.61675845108992E-02 
754	 9.61310909920872E-02 
755	 9.61196181804791E-02 
756	 0.096110327418146 
757	 9.60988132318414E-02 
758	 9.60902100454511E-02 
759	 9.60882357702572E-02 
760	 9.60543066556923E-02 
761	 9.60020760107619E-02 
762	 9.60120111518901E-02 
763	 9.60000409468044E-02 
764	 9.59718200971978E-02 
765	 9.59498845620108E-02 
766	 9.59383501047015E-02 
767	 9.59517245380896E-02 
768	 9.59707943921907E-02 
769	 0.095964023348418 
770	 9.59525582383269E-02 
771	 9.59091718760344E-02 
772	 9.58551750588455E-02 
773	 9.58702941343832E-02 
774	 9.58785795800302E-02 
775	 9.58582871559245E-02 
776	 0.095815339000399 
777	 9.57951783873873E-02 
778	 9.57602762259616E-02 
779	 9.57395846300853E-02 
780	 9.57722844262701E-02 
781	 9.57640885602838E-02 
782	 9.57492383097628E-02 
783	 0.095723818576033 
784	 9.56401755143081E-02 
785	 9.56350283542771E-02 
786	 9.56456159915134E-02 
787	 9.56195360709848E-02 
788	 9.56301423488593E-02 
789	 9.56199529340255E-02 
790	 9.55883843693757E-02 
791	 9.55546314630833E-02 
792	 0.095518263186513 
793	 9.54880969429077E-02 
794	 9.54683378340269E-02 
795	 9.54579904552617E-02 
796	 9.54510952589242E-02 
797	 9.54374933705064E-02 
798	 9.54154966139022E-02 
799	 9.53996299148176E-02 
800	 9.53711871657974E-02 
801	 9.53456258864639E-02 
802	 0.095337493634651 
803	 0.095316835867307 
804	 9.52935359666436E-02 
805	 9.52750077578692E-02 
806	 9.52658713750858E-02 
807	 9.52685228653443E-02 
808	 0.09524737102315 
809	 9.52012653231418E-02 
810	 9.51775805012605E-02 
811	 9.51856769838624E-02 
812	 0.095198108408617 
813	 9.51914888153579E-02 
814	 9.51820775836564E-02 
815	 9.51457015786704E-02 
816	 0.095088660950036 
817	 9.50389792967423E-02 
818	 9.50610625594681E-02 
819	 9.50725861300539E-02 
820	 9.50343848642609E-02 
821	 9.49621742038124E-02 
822	 9.49576621765077E-02 
823	 9.49453512092215E-02 
824	 9.49030613543769E-02 
825	 9.49414047722941E-02 
826	 0.094958142030242 
827	 9.49398650429631E-02 
828	 9.49050305296478E-02 
829	 9.48864966011317E-02 
830	 9.48862304375399E-02 
831	 9.48837070701106E-02 
832	 9.48573566960491E-02 
833	 9.48549824683879E-02 
834	 0.094848077298776 
835	 9.48301129427111E-02 
836	 9.48190406414196E-02 
837	 9.48003142828872E-02 
838	 9.47928996558624E-02 
839	 9.47903789387507E-02 
840	 9.47350675318449E-02 
841	 9.46910589195449E-02 
842	 9.46858462740306E-02 
843	 9.47184217837307E-02 
844	 9.47417081927615E-02 
845	 9.47383975248383E-02 
846	 9.47247892435323E-02 
847	 9.47254819770171E-02 
848	 9.47071061230218E-02 
849	 9.46701550985578E-02 
850	 9.46288190408101E-02 
851	 0.094606699790838 
852	 9.46211524339354E-02 
853	 9.46272939292824E-02 
854	 9.46066951526196E-02 
855	 9.45923888655391E-02 
856	 9.45965334382907E-02 
857	 9.46218682665381E-02 
858	 9.46455673778526E-02 
859	 9.45829110593119E-02 
860	 9.45754216537114E-02 
861	 9.45850098213905E-02 
862	 9.45372226652394E-02 
863	 9.44987741987804E-02 
864	 9.45286101553383E-02 
865	 0.094581738965942 
866	 9.45642705363684E-02 
867	 9.45317592039156E-02 
868	 9.45229014544016E-02 
869	 9.45361185610211E-02 
870	 9.45330078975097E-02 
871	 9.45453988375999E-02 
872	 0.094551666917725 
873	 9.45355848122682E-02 
874	 9.45034582148331E-02 
875	 9.44807180614315E-02 
876	 9.44586376993334E-02 
877	 0.09443084442376 
878	 9.44199393947574E-02 
879	 9.44382026168537E-02 
880	 9.44605859209854E-02 
881	 9.44664806475271E-02 
882	 9.45199619738152E-02 
883	 9.45267306212319E-02 
884	 9.44795872670601E-02 
885	 9.44293943150421E-02 
886	 9.44231506654608E-02 
887	 9.44417612348325E-02 
888	 9.44563956883741E-02 
889	 0.094445832023663 
890	 9.44997989878251E-02 
891	 9.44819056769119E-02 
892	 9.44027523099342E-02 
893	 9.44717187726542E-02 
894	 9.44532293127557E-02 
895	 0.094422295986856 
896	 0.094444955302701 
897	 9.44603799496406E-02 
898	 0.094532867556659 
899	 9.45486750362796E-02 
900	 9.44585084574259E-02 
901	 9.45034363907187E-02 
902	 9.45267571205779E-02 
903	 9.44880415743295E-02 
904	 9.44213144947282E-02 
905	 9.44753593517441E-02 
906	 9.45251344354765E-02 
907	 9.45358603267078E-02 
908	 9.45247724675304E-02 
909	 9.45046474500515E-02 
910	 9.45171817230288E-02 
911	 9.45515796477322E-02 
912	 9.45623215440649E-02 
913	 9.45346198861576E-02 
914	 9.45113122078332E-02 
915	 9.45216308033515E-02 
916	 9.45634103142771E-02 
917	 9.45179254340465E-02 
918	 9.45246680729443E-02 
919	 9.45983790166672E-02 
920	 9.45843345604626E-02 
921	 9.45615301503487E-02 
922	 0.09455047761727 
923	 9.45565628650757E-02 
924	 9.45736211742478E-02 
925	 9.45377418274785E-02 
926	 9.45186311477044E-02 
927	 9.45491314803535E-02 
928	 9.45426023318628E-02 
929	 9.45331907979506E-02 
930	 9.45477514469427E-02 
931	 9.45803130756448E-02 
932	 9.45503189755515E-02 
933	 0.094628507989277 
934	 9.46926069414831E-02 
935	 9.46289712966737E-02 
936	 9.46056352413604E-02 
937	 9.45805198348786E-02 
938	 9.45597978506997E-02 
939	 9.45717110058894E-02 
940	 9.46813851622393E-02 
941	 0.094719286335186 
942	 0.094747714998548 
943	 9.48524725189998E-02 
944	 0.094818037915323 
945	 9.47608249915278E-02 
946	 9.47308911983078E-02 
947	 9.47310778540167E-02 
948	 9.47229756383466E-02 
949	 9.46946262010608E-02 
950	 9.46886556515097E-02 
951	 9.47570234484575E-02 
952	 9.48749783129597E-02 
953	 9.48512076789322E-02 
954	 9.47347614014664E-02 
955	 9.47017183839858E-02 
956	 0.094760962576331 
957	 9.48350085378717E-02 
958	 0.094840403947276 
959	 9.47542808786364E-02 
960	 9.48423908048363E-02 
961	 9.49105324129582E-02 
962	 9.49264704874686E-02 
963	 9.49564876148167E-02 
964	 9.48428416576034E-02 
965	 9.48350194660127E-02 
966	 0.094910248935964 
967	 9.48820752651878E-02 
968	 9.48952930883056E-02 
969	 9.48661599182773E-02 
970	 9.48294059161148E-02 
971	 9.48763669015997E-02 
972	 9.48798952159447E-02 
973	 9.48453360712214E-02 
974	 9.48206608454126E-02 
975	 9.48650115733658E-02 
976	 9.49787779087087E-02 
977	 9.50020255516635E-02 
978	 9.49513398136483E-02 
979	 9.49496479125175E-02 
980	 9.49490871763897E-02 
981	 9.49983913482543E-02 
982	 9.51108123660524E-02 
983	 9.52261250538932E-02 
984	 9.50541072849147E-02 
985	 9.50088094357596E-02 
986	 9.50228386008674E-02 
987	 9.48582343683505E-02 
988	 9.50243079074178E-02 
989	 9.50919105601098E-02 
990	 9.50151019109923E-02 
991	 9.49788108762581E-02 
992	 9.50940670173154E-02 
993	 9.50806665731758E-02 
994	 9.50631700498636E-02 
995	 9.52038945868835E-02 
996	 9.49839944690962E-02 
997	 9.50108507708171E-02 
998	 9.50869752250422E-02 
999	 9.49240847008403E-02 
1000	 9.51608633610787E-02 
1001	 9.44799967222786E-02 
1002	 9.44866803109122E-02 
1003	 9.44724467456757E-02 
1004	 0.094455215241456 
1005	 9.44290042070559E-02 
1006	 9.44190486996531E-02 
1007	 9.44135061630701E-02 
1008	 9.43805143997583E-02 
1009	 9.43548171251449E-02 
1010	 0.094320882187486 
1011	 9.43018739594215E-02 
1012	 9.43086913201725E-02 
1013	 9.43057613021817E-02 
1014	 9.43176987351273E-02 
1015	 9.43548718743989E-02 
1016	 9.44002240767862E-02 
1017	 9.44092604073618E-02 
1018	 9.44251600036709E-02 
1019	 9.44358996388896E-02 
1020	 9.44153114900702E-02 
1021	 9.43346387074532E-02 
1022	 9.43148942891855E-02 
1023	 9.43435033758423E-02 
1024	 9.43294826876437E-02 
1025	 9.43517837662399E-02 
1026	 9.44058365076333E-02 
1027	 9.44064893177366E-02 
1028	 0.09439066348943 
1029	 9.44079869280289E-02 
1030	 9.43974080435858E-02 
1031	 9.43952926816662E-02 
1032	 9.43986613246131E-02 
1033	 0.094430433238538 
1034	 9.44300943203355E-02 
1035	 9.44380651679205E-02 
1036	 9.44356116988221E-02 
1037	 9.43972300758046E-02 
1038	 9.43548874522493E-02 
1039	 9.43198029911718E-02 
1040	 9.43120749517351E-02 
1041	 9.43608051488938E-02 
1042	 9.44311942411135E-02 
1043	 0.094482543723149 
1044	 9.44841543405379E-02 
1045	 9.44556560977065E-02 
1046	 0.094374704000721 
1047	 9.43309940449782E-02 
1048	 9.43335547471988E-02 
1049	 9.43656877983717E-02 
1050	 9.44205073847731E-02 
1051	 9.44295113225462E-02 
1052	 9.44340022551162E-02 
1053	 9.44453010177506E-02 
1054	 0.094450583915316 
1055	 9.45033816418125E-02 
1056	 9.45505749710541E-02 
1057	 9.45763280942617E-02 
1058	 9.45932388538192E-02 
1059	 9.46175701157331E-02 
1060	 9.46278365404351E-02 
1061	 0.094660341197061 
1062	 9.46480126722169E-02 
1063	 9.46029218234918E-02 
1064	 9.46542270744186E-02 
1065	 9.46442962492733E-02 
1066	 9.46016084361803E-02 
1067	 9.46491364612344E-02 
1068	 9.46470285736199E-02 
1069	 9.46105222518818E-02 
1070	 9.46164932069671E-02 
1071	 9.46869987614524E-02 
1072	 9.47182255755454E-02 
1073	 9.47481652667336E-02 
1074	 9.47561706605997E-02 
1075	 9.47470639563444E-02 
1076	 9.47416122781144E-02 
1077	 9.47281295774765E-02 
1078	 9.47106986219251E-02 
1079	 9.47047731300338E-02 
1080	 9.46982250343659E-02 
1081	 9.46876779172928E-02 
1082	 9.46741714439079E-02 
1083	 9.46777356558791E-02 
1084	 9.47036856510875E-02 
1085	 9.47026949351473E-02 
1086	 9.46974411042279E-02 
1087	 9.47016971484382E-02 
1088	 9.47046386192349E-02 
1089	 9.46944031852422E-02 
1090	 9.46859217538169E-02 
1091	 9.46746406852502E-02 
1092	 9.46487518506031E-02 
1093	 9.46404112145603E-02 
1094	 9.46792628115879E-02 
1095	 9.47352399888771E-02 
1096	 0.094745586363643 
1097	 9.47342947091936E-02 
1098	 0.094729603143556 
1099	 9.46858606837019E-02 
1100	 9.46677549435503E-02 
1101	 9.46765202367611E-02 
1102	 9.46789672462632E-02 
1103	 9.46779668372616E-02 
1104	 9.46722694488452E-02 
1105	 9.46928500532789E-02 
1106	 9.47218295604448E-02 
1107	 9.47220021052821E-02 
1108	 9.47160772547462E-02 
1109	 0.094725935074249 
1110	 9.47260444445947E-02 
1111	 9.47404312136953E-02 
1112	 9.47889266777947E-02 
1113	 0.094808278794456 
1114	 9.48053877381227E-02 
1115	 9.48202017028284E-02 
1116	 9.48239997316749E-02 
1117	 9.48550375048544E-02 
1118	 9.49148735641682E-02 
1119	 9.49683230315013E-02 
1120	 9.49845290803134E-02 
1121	 9.50063302117454E-02 
1122	 9.50218193757256E-02 
1123	 9.50278083533788E-02 
1124	 9.50606310700332E-02 
1125	 9.51377201025135E-02 
1126	 9.51702725716126E-02 
1127	 9.51814184129599E-02 
1128	 9.52061102605716E-02 
1129	 9.52259233273812E-02 
1130	 9.52440088009765E-02 
1131	 9.52580454654282E-02 
1132	 0.095294804867021 
1133	 9.53332233249324E-02 
1134	 9.53713265771416E-02 
1135	 9.54445154907764E-02 
1136	 9.54965526608543E-02 
1137	 9.54780109419742E-02 
1138	 9.55000704375147E-02 
1139	 9.55124693292272E-02 
1140	 9.54935988763946E-02 
1141	 9.55130307946042E-02 
1142	 9.55690171918577E-02 
1143	 9.55936289232131E-02 
1144	 9.56154984822237E-02 
1145	 9.56380991804129E-02 
1146	 0.095646795383903 
1147	 9.56695828643765E-02 
1148	 0.095703557899988 
1149	 9.57303718456158E-02 
1150	 9.57698283468112E-02 
1151	 0.09578350527448 
1152	 9.57899118084267E-02 
1153	 9.58142372763515E-02 
1154	 9.58291094353199E-02 
1155	 9.58439019355233E-02 
1156	 9.58483893507456E-02 
1157	 9.58444679001137E-02 
1158	 9.58476319321815E-02 
1159	 9.58383133896587E-02 
1160	 9.58496578417364E-02 
1161	 9.58794535572807E-02 
1162	 9.58967058742013E-02 
1163	 9.59249569703575E-02 
1164	 9.59397615361605E-02 
1165	 9.59270778203851E-02 
1166	 9.59448405652498E-02 
1167	 9.59720031240628E-02 
1168	 9.59775633120136E-02 
1169	 9.59919141740507E-02 
1170	 9.60177347702977E-02 
1171	 9.60296642320404E-02 
1172	 0.096024601694423 
1173	 9.60389338549493E-02 
1174	 9.60596764503338E-02 
1175	 9.60804196013882E-02 
1176	 9.61103373829578E-02 
1177	 9.61370035185023E-02 
1178	 9.61680162111933E-02 
1179	 9.61883006155458E-02 
1180	 9.61938547844194E-02 
1181	 9.62146647954234E-02 
1182	 9.62335574264161E-02 
1183	 9.62610494945876E-02 
1184	 9.62874780337092E-02 
1185	 9.63311219235737E-02 
1186	 9.63578257656033E-02 
1187	 9.63711064154872E-02 
1188	 0.096394288120837 
1189	 9.64214935624873E-02 
1190	 9.64436267006751E-02 
1191	 9.64635158322366E-02 
1192	 9.64867663801171E-02 
1193	 9.65009055965832E-02 
1194	 9.65304272813304E-02 
1195	 9.65873782750695E-02 
1196	 9.66167250403071E-02 
1197	 9.66326394588664E-02 
1198	 9.66570364243859E-02 
1199	 9.66779715165557E-02 
1200	 9.66794609605698E-02 
1201	 9.67011044758326E-02 
1202	 9.67408795841666E-02 
1203	 9.67673526105493E-02 
1204	 0.096790711718201 
1205	 9.68123211317517E-02 
1206	 9.68264668096268E-02 
1207	 0.096853211740643 
1208	 9.68843957102279E-02 
1209	 0.096913746932016 
1210	 9.69575649193343E-02 
1211	 9.69872439033513E-02 
1212	 9.69979185748701E-02 
1213	 0.097023326575077 
1214	 9.70570458049882E-02 
1215	 9.70833136687494E-02 
1216	 9.71095413822422E-02 
1217	 9.71410025765169E-02 
1218	 9.71709618987687E-02 
1219	 0.09719439505355 
1220	 0.097221419503041 
1221	 0.097259032829697 
1222	 9.72835206633772E-02 
1223	 9.72997073173202E-02 
1224	 9.73158425376684E-02 
1225	 9.73276013017303E-02 
1226	 9.73396455743082E-02 
1227	 9.73426025577619E-02 
1228	 9.73571960225605E-02 
1229	 9.73790333545579E-02 
1230	 9.73988191666949E-02 
1231	 9.74251146011909E-02 
1232	 0.097449960831228 
1233	 9.74739008730351E-02 
1234	 0.097491458966597 
1235	 9.75229554356944E-02 
1236	 9.75647723742269E-02 
1237	 0.097594721646571 
1238	 9.76270282514703E-02 
1239	 9.76557683746658E-02 
1240	 0.097676275993751 
1241	 9.76995397603268E-02 
1242	 9.77287994585257E-02 
1243	 9.77499918265094E-02 
1244	 9.77661035180902E-02 
1245	 9.77791790526063E-02 
1246	 9.77844146048042E-02 
1247	 0.097793972678899 
1248	 9.77923068515591E-02 
1249	 9.78105069540044E-02 
1250	 9.78238608756192E-02 
1251	 0.097838292136778 
1252	 9.78617457233733E-02 
1253	 9.78918856144184E-02 
1254	 9.79160898465972E-02 
1255	 9.79486453699696E-02 
1256	 9.79728088620545E-02 
1257	 0.097992888048893 
1258	 9.80064139948641E-02 
1259	 9.80085964529716E-02 
1260	 9.80221951364578E-02 
1261	 9.80415923069752E-02 
1262	 9.80503256140222E-02 
1263	 9.80560246495509E-02 
1264	 9.80683671873133E-02 
1265	 0.098061609596786 
1266	 9.80759101408168E-02 
1267	 9.81061787031262E-02 
1268	 9.81564623921355E-02 
1269	 9.81850258460545E-02 
1270	 9.82170677821294E-02 
1271	 0.09823518200988 
1272	 9.82318392712444E-02 
1273	 9.82500596796661E-02 
1274	 9.82707730376622E-02 
1275	 9.83001409005433E-02 
1276	 0.098346169042602 
1277	 9.83788341084307E-02 
1278	 9.84088526847964E-02 
1279	 9.84406301001441E-02 
1280	 9.84571723076717E-02 
1281	 9.84952213198101E-02 
1282	 9.85551988856163E-02 
1283	 9.86030998175775E-02 
1284	 9.86497865010637E-02 
1285	 9.87042442478255E-02 
1286	 0.098770813725668 
1287	 0.09882586976458 
1288	 9.88890661500697E-02 
1289	 9.89820837994238E-02 
1290	 9.90292230957337E-02 
1291	 0.099041175976909 
1292	 9.90824492390657E-02 
1293	 0.099111022690998 
1294	 9.91555177034573E-02 
1295	 9.92339992444485E-02 
1296	 9.92852672986031E-02 
1297	 9.93313449263926E-02 
1298	 9.93646903581519E-02 
1299	 0.099374060235925 
1300	 9.93981922212864E-02 
1301	 9.94256121533947E-02 
1302	 9.94451649959866E-02 
1303	 9.94721054696623E-02 
1304	 0.099486609573664 
1305	 9.94978420781688E-02 
1306	 9.95066721727177E-02 
1307	 9.94972580307441E-02 
1308	 9.94919751779844E-02 
1309	 9.94861738058173E-02 
1310	 9.94605585540994E-02 
1311	 9.94609496977177E-02 
1312	 9.94861414900541E-02 
1313	 9.94905685805804E-02 
1314	 9.94893270946487E-02 
1315	 9.94927872496568E-02 
1316	 9.94911485863958E-02 
1317	 9.94932178923649E-02 
1318	 9.95059620112319E-02 
1319	 0.099510578177478 
1320	 0.099513063259533 
1321	 9.95112901320669E-02 
1322	 9.95053219651616E-02 
1323	 9.94895852223334E-02 
1324	 9.95040357552775E-02 
1325	 9.95101824095286E-02 
1326	 9.95148639213049E-02 
1327	 9.95513047665616E-02 
1328	 0.099575105329887 
1329	 9.95779421770902E-02 
1330	 9.95900774936422E-02 
1331	 9.95983905737637E-02 
1332	 9.96237494611876E-02 
1333	 9.96564408198422E-02 
1334	 9.96862191013312E-02 
1335	 9.97343082061267E-02 
1336	 9.97645180828447E-02 
1337	 9.97756330488731E-02 
1338	 9.98013410553303E-02 
1339	 9.98237401682316E-02 
1340	 9.98591638878747E-02 
1341	 9.99162530090114E-02 
1342	 9.99557055892569E-02 
1343	 9.99958585403854E-02 
1344	 0.100029153904276 
1345	 0.100046046604693 
1346	 0.100072439421743 
1347	 0.100112074207622 
1348	 0.100143759988291 
1349	 0.100185644359608 
1350	 0.100232049847304 
1351	 0.100280547718343 
1352	 0.10033613896368 
1353	 0.100386751643703 
1354	 0.100439084596288 
1355	 0.100488637875394 
1356	 0.100540437983399 
1357	 0.100575861850336 
1358	 0.100595416171437 
1359	 0.10063072655292 
1360	 0.100656981657252 
1361	 0.100695784255332 
1362	 0.100761016207625 
1363	 0.100810548519236 
1364	 0.100859789668738 
1365	 0.100897947696504 
1366	 0.100931426422087 
1367	 0.100945168844673 
1368	 0.100975000306079 
1369	 0.101003689898777 
1370	 0.101017252209085 
1371	 0.101039462750287 
1372	 0.101049270420983 
1373	 0.101042769867785 
1374	 0.101047864256015 
1375	 0.101061221780165 
1376	 0.101070379730867 
1377	 0.101080309261069 
1378	 0.101086926842285 
1379	 0.101096277433722 
1380	 0.101092522886044 
1381	 0.101078306511455 
1382	 0.101063933923344 
1383	 0.101039754758947 
1384	 0.101022660657076 
1385	 0.101015097632389 
1386	 0.100996712568976 
1387	 0.100982493246976 
1388	 0.100951543572343 
1389	 0.100903070408044 
1390	 0.100849935519621 
1391	 0.100814639890794 
1392	 0.100774982495164 
1393	 0.100735506753283 
1394	 0.100692148535273 
1395	 0.100616491482053 
1396	 0.100529427336388 
1397	 0.100455481254038 
1398	 0.100388662172065 
1399	 0.10029827374094 
1400	 0.100203973010562 
1401	 0.100105450606996 
1402	 9.99790493559388E-02 
1403	 0.099883187502913 
1404	 9.98011490581164E-02 
1405	 9.97192587054913E-02 
1406	 9.96504441267006E-02 
1407	 9.95730434750483E-02 
1408	 9.94895635686425E-02 
1409	 9.94171128946573E-02 
1410	 9.93471014711635E-02 
1411	 9.92804350880809E-02 
1412	 9.92176792937471E-02 
1413	 9.91620486084132E-02 
1414	 9.91180244868397E-02 
1415	 9.90804428169167E-02 
1416	 9.90701202640059E-02 
1417	 9.90664247579182E-02 
1418	 0.09905481853439 
1419	 9.90600780154765E-02 
1420	 9.90560058674336E-02 
1421	 9.90558436222489E-02 
1422	 9.90647390644515E-02 
1423	 9.90595535172757E-02 
1424	 9.90675571581411E-02 
1425	 9.90824171713337E-02 
1426	 9.90937576258973E-02 
1427	 9.91069131883653E-02 
1428	 9.91255234301733E-02 
1429	 0.099141423208695 
1430	 9.91668890825022E-02 
1431	 9.92054714614187E-02 
1432	 9.92378124436634E-02 
1433	 9.92719834237266E-02 
1434	 9.93029628028243E-02 
1435	 9.93321640873619E-02 
1436	 9.93641605457134E-02 
1437	 9.93944025590972E-02 
1438	 9.94237560906148E-02 
1439	 9.94557961364981E-02 
1440	 9.94833449297513E-02 
1441	 9.95100284914589E-02 
1442	 9.95482541485982E-02 
1443	 9.95779906082134E-02 
1444	 9.95989592404801E-02 
1445	 9.96296828280384E-02 
1446	 9.96737472034928E-02 
1447	 9.97242635170006E-02 
1448	 9.97812341847637E-02 
1449	 9.98322025371013E-02 
1450	 9.98680860557491E-02 
1451	 9.99054834037219E-02 
1452	 9.99385714725592E-02 
1453	 9.99758379325801E-02 
1454	 0.100012138235549 
1455	 0.100047946163893 
1456	 0.100086366480049 
1457	 0.100121556831344 
1458	 0.100153235932258 
1459	 0.100183466243215 
1460	 0.100210562077222 
1461	 0.100242284120318 
1462	 0.100269966286131 
1463	 0.100307779647522 
1464	 0.10035921813618 
1465	 0.100401340673803 
1466	 0.100445078325463 
1467	 0.100485416054457 
1468	 0.100513431849787 
1469	 0.100552656903304 
1470	 0.100604921200484 
1471	 0.100641469878584 
1472	 0.100673193325738 
1473	 0.100718722363482 
1474	 0.10075816767359 
1475	 0.100799463223889 
1476	 0.100851527339731 
1477	 0.100905532451452 
1478	 0.100956408385315 
1479	 0.100991419850586 
1480	 0.101025801978943 
1481	 0.101067920102701 
1482	 0.101111868576932 
1483	 0.10115740596215 
1484	 0.1012079788552 
1485	 0.101267168733041 
1486	 0.101313275124344 
1487	 0.101354883693859 
1488	 0.101397836123389 
1489	 0.101429362478727 
1490	 0.10147965288028 
1491	 0.10154346805746 
1492	 0.101596629967394 
1493	 0.10166623658256 
1494	 0.101709781063556 
1495	 0.10172605795782 
1496	 0.101759519348274 
1497	 0.101783807486267 
1498	 0.101819154919317 
1499	 0.101876399369981 
1500	 0.101918447398816 
1501	 0.101950641434284 
1502	 0.10198798320659 
1503	 0.102022639950537 
1504	 0.102058130567465 
1505	 0.10209834647846 
1506	 0.102140433615099 
1507	 0.102181269355896 
1508	 0.102214697041583 
1509	 0.102244283341328 
1510	 0.102288788333259 
1511	 0.102326257155178 
1512	 0.102357643420929 
1513	 0.102401907896852 
1514	 0.102435638653884 
1515	 0.102469500327341 
1516	 0.102510039448636 
1517	 0.102546072747428 
1518	 0.102578684365145 
1519	 0.102616397533402 
1520	 0.102657219995899 
1521	 0.102689215816923 
1522	 0.102718219279663 
1523	 0.102747315046428 
1524	 0.102772111028079 
1525	 0.102797982061788 
1526	 0.102825222271383 
1527	 0.102850286612555 
1528	 0.102870494445413 
1529	 0.102897334279059 
1530	 0.102931519893148 
1531	 0.10295465135322 
1532	 0.102971226272353 
1533	 0.102994535254111 
1534	 0.10301543790205 
1535	 0.103039529122432 
1536	 0.103075115712511 
1537	 0.103097183352526 
1538	 0.10309883885722 
1539	 0.103122782223245 
1540	 0.103158411457608 
1541	 0.10319156967267 
1542	 0.103238389664669 
1543	 0.103277544933541 
1544	 0.10331379570486 
1545	 0.103339867611578 
1546	 0.103354353351479 
1547	 0.103383062094289 
1548	 0.10340419356717 
1549	 0.103413597800555 
1550	 0.10343100694052 
1551	 0.103458467746222 
1552	 0.103483571650031 
1553	 0.103501062914203 
1554	 0.103532319200971 
1555	 0.103564746232963 
1556	 0.103583437787072 
1557	 0.103605467930268 
1558	 0.103622750030321 
1559	 0.103640630225013 
1560	 0.10366228577584 
1561	 0.103689635606471 
1562	 0.103712786319627 
1563	 0.103739725185295 
1564	 0.103754368697069 
1565	 0.103759516970017 
1566	 0.103777238829408 
1567	 0.103792402721514 
1568	 0.103806181192775 
1569	 0.103831566776563 
1570	 0.103847461815773 
1571	 0.103849958081392 
1572	 0.103862976521681 
1573	 0.103876910946985 
1574	 0.1038962745391 
1575	 0.103925576533072 
1576	 0.103946935726769 
1577	 0.103969983863049 
1578	 0.103989675935151 
1579	 0.10400384733728 
1580	 0.104015110630239 
1581	 0.104020109815748 
1582	 0.104036388020704 
1583	 0.104055784116088 
1584	 0.104071545299371 
1585	 0.104096751664578 
1586	 0.104115806307832 
1587	 0.104121033100928 
1588	 0.104136541952056 
1589	 0.104158200490835 
1590	 0.104179449730811 
1591	 0.10421127002314 
1592	 0.104231470501202 
1593	 0.104238277181969 
1594	 0.104255052039248 
1595	 0.104271564352928 
1596	 0.104289224989423 
1597	 0.104322093861581 
1598	 0.104344877259786 
1599	 0.104354112310751 
1600	 0.104367653460661 
1601	 0.104383253784043 
1602	 0.10439480389126 
1603	 0.104410444671906 
1604	 0.104417453872435 
1605	 0.104407252438911 
1606	 0.104409325087258 
1607	 0.104418485004317 
1608	 0.104420486739603 
1609	 0.104419075810247 
1610	 0.104435863717739 
1611	 0.104440493400132 
1612	 0.104446276610786 
1613	 0.104452973375326 
1614	 0.104446078489161 
1615	 0.104470281028851 
1616	 0.104512228273331 
1617	 0.10454048134588 
1618	 0.104569138145472 
1619	 0.104574877550168 
1620	 0.104565507727904 
1621	 0.104574926420607 
1622	 0.104598638350662 
1623	 0.10461361994567 
1624	 0.10462673378 
1625	 0.104639025792572 
1626	 0.104656613958043 
1627	 0.104662019077251 
1628	 0.104651631812298 
1629	 0.104670145932951 
1630	 0.104698864731015 
1631	 0.104711517346276 
1632	 0.104740208017852 
1633	 0.104747606012808 
1634	 0.104720102034742 
1635	 0.10473377812469 
1636	 0.104767237200357 
1637	 0.104787489505203 
1638	 0.104826412826813 
1639	 0.104832513931233 
1640	 0.104810835904647 
1641	 0.104812073857804 
1642	 0.104807007914642 
1643	 0.104810979324741 
1644	 0.104826997856838 
1645	 0.104846048533533 
1646	 0.10487391412341 
1647	 0.104884018319168 
1648	 0.104890890458825 
1649	 0.104903542856499 
1650	 0.104903592522816 
1651	 0.104910952549236 
1652	 0.104935548192214 
1653	 0.104946748628421 
1654	 0.1049536700053 
1655	 0.104944555744122 
1656	 0.10491889806173 
1657	 0.104913457226029 
1658	 0.104893935151912 
1659	 0.104898636944006 
1660	 0.104937050462225 
1661	 0.104955112933556 
1662	 0.10497161597935 
1663	 0.104984710481594 
1664	 0.104991176906878 
1665	 0.105003616138431 
1666	 0.105017982814949 
1667	 0.105028748372666 
1668	 0.105042680956252 
1669	 0.105050693375669 
1670	 0.105048506864483 
1671	 0.105056440805921 
1672	 0.105061753453617 
1673	 0.105080330456416 
1674	 0.105120010219132 
1675	 0.1051356939292 
1676	 0.105151349536527 
1677	 0.105156679988152 
1678	 0.105135933892591 
1679	 0.105135057749309 
1680	 0.105142521142642 
1681	 0.105145296065542 
1682	 0.105148166311101 
1683	 0.105156990927591 
1684	 0.105167713837006 
1685	 0.105177630577301 
1686	 0.1051957096542 
1687	 0.10520647107957 
1688	 0.105210873048562 
1689	 0.105217527588508 
1690	 0.105221557260097 
1691	 0.105230020976063 
1692	 0.105242580248922 
1693	 0.105250565662492 
1694	 0.105260077443448 
1695	 0.105267335873025 
1696	 0.105273105706588 
1697	 0.105270125526524 
1698	 0.10525964263236 
1699	 0.105256444058543 
1700	 0.105244050860157 
1701	 0.105246174140424 
1702	 0.105270696998279 
1703	 0.105274020855207 
1704	 0.105273184184502 
1705	 0.105266417830788 
1706	 0.105230815496209 
1707	 0.105232015133566 
1708	 0.105254021764323 
1709	 0.105268565267295 
1710	 0.10530157625007 
1711	 0.105324006065669 
1712	 0.10533857991036 
1713	 0.105348360207558 
1714	 0.105365336683522 
1715	 0.105363394813784 
1716	 0.105337122930265 
1717	 0.105329860187894 
1718	 0.105321775959988 
1719	 0.105314068460322 
1720	 0.105311710431529 
1721	 0.10531115717443 
1722	 0.105308192024763 
1723	 0.105314056742471 
1724	 0.105336499883265 
1725	 0.105341197209738 
1726	 0.105337077460132 
1727	 0.105336774631538 
1728	 0.105328109098333 
1729	 0.105327415080044 
1730	 0.105337771040617 
1731	 0.105337495964031 
1732	 0.105335631398574 
1733	 0.105326767000032 
1734	 0.105309306749082 
1735	 0.105290181972529 
1736	 0.105265761799371 
1737	 0.105246225943514 
1738	 0.105225961293422 
1739	 0.105212573760343 
1740	 0.105200828161944 
1741	 0.105188074843984 
1742	 0.105184329247438 
1743	 0.105168544391209 
1744	 0.105142906222316 
1745	 0.105132390267985 
1746	 0.105117839257701 
1747	 0.105107405515906 
1748	 0.105110672433873 
1749	 0.105101043294469 
1750	 0.105106227588243 
1751	 0.105096564787316 
1752	 0.105089097429055 
1753	 0.105076450309555 
1754	 0.105054769506388 
1755	 0.105044310812859 
1756	 0.10502237319566 
1757	 0.105009809281705 
1758	 0.104985750278368 
1759	 0.104941998227906 
1760	 0.104934057608165 
1761	 0.104909167128084 
1762	 0.104875644473939 
1763	 0.104886046318951 
1764	 0.104873446855824 
1765	 0.104863254873031 
1766	 0.104881043140446 
1767	 0.104891549829344 
1768	 0.104911744691173 
1769	 0.104908402057633 
1770	 0.104889161524445 
1771	 0.104871777248901 
1772	 0.104846734587308 
1773	 0.104845701833639 
1774	 0.104864393343488 
1775	 0.104875630087434 
1776	 0.104849853143443 
1777	 0.10484022892091 
1778	 0.104862854472544 
1779	 0.104856028958935 
1780	 0.104868139071029 
1781	 0.104893287525935 
1782	 0.104882797891231 
1783	 0.104871533439046 
1784	 0.104867097156208 
1785	 0.104846732170644 
1786	 0.10482755088444 
1787	 0.10482353883422 
1788	 0.104824008536202 
1789	 0.104811788320892 
1790	 0.104816238920955 
1791	 0.104835690617415 
1792	 0.104844183555093 
1793	 0.104859689377416 
1794	 0.104872145391739 
1795	 0.104885774306957 
1796	 0.104880473844494 
1797	 0.104858824538507 
1798	 0.104851591816175 
1799	 0.104836316720517 
1800	 0.10483259541788 
1801	 0.101752396046642 
1802	 0.101816008515685 
1803	 0.101842579735399 
1804	 0.101865341929796 
1805	 0.101905179397133 
1806	 0.101909423879367 
1807	 0.10191672229248 
1808	 0.101934664820043 
1809	 0.10197127271037 
1810	 0.101984985206768 
1811	 0.101980349472663 
1812	 0.102001266914585 
1813	 0.102024911053851 
1814	 0.10205670510129 
1815	 0.10209794357694 
1816	 0.102118994601661 
1817	 0.102128600339252 
1818	 0.102105910561607 
1819	 0.102114534552279 
1820	 0.102124743125418 
1821	 0.102147905184387 
1822	 0.102174142626357 
1823	 0.102185708267308 
1824	 0.10221129501764 
1825	 0.102239293832291 
1826	 0.10224129374637 
1827	 0.102245026170768 
1828	 0.102244509748595 
1829	 0.102213467305008 
1830	 0.102201096729228 
1831	 0.102194091724105 
1832	 0.102198593776388 
1833	 0.102218972974203 
1834	 0.102241369592619 
1835	 0.102279414481664 
1836	 0.10232707099161 
1837	 0.102340168418075 
1838	 0.102324460241701 
1839	 0.102318336517804 
1840	 0.102298759769151 
1841	 0.102286238185931 
1842	 0.102282667425737 
1843	 0.102282535352102 
1844	 0.10228692245905 
1845	 0.102289069161834 
1846	 0.102310573501184 
1847	 0.102352697004992 
1848	 0.102344921934709 
1849	 0.102333415817141 
1850	 0.102325797790247 
1851	 0.102306523426022 
1852	 0.10225838913597 
1853	 0.102248622038213 
1854	 0.102225617603821 
1855	 0.102201377262415 
1856	 0.102195686716276 
1857	 0.102174902356716 
1858	 0.102166894726734 
1859	 0.102165436245211 
1860	 0.102144444058425 
1861	 0.102114679362994 
1862	 0.102063790423732 
1863	 0.102008831618896 
1864	 0.101947129158847 
1865	 0.101871850737706 
1866	 0.101831800722542 
1867	 0.101787577772271 
1868	 0.10171379449326 
1869	 0.101644969333094 
1870	 0.101554780771547 
1871	 0.101461075530967 
1872	 0.101361372173664 
1873	 0.101264792605896 
1874	 0.101152617188181 
1875	 0.101035282986279 
1876	 0.100902464249918 
1877	 0.100749336243263 
1878	 0.100569281828716 
1879	 0.100395259401147 
1880	 0.100215232187635 
1881	 0.10002817988174 
1882	 9.98286159837999E-02 
1883	 9.96348531936301E-02 
1884	 0.099409342243031 
1885	 9.91469250887493E-02 
1886	 9.88706667561696E-02 
1887	 9.85875460559502E-02 
1888	 9.82978781681805E-02 
1889	 9.79936134085349E-02 
1890	 0.097683941740937 
1891	 9.73522030696219E-02 
1892	 9.69800233017058E-02 
1893	 9.66132878219698E-02 
1894	 9.62343589230269E-02 
1895	 9.58605874953971E-02 
1896	 9.54722270524309E-02 
1897	 9.51135524520734E-02 
1898	 9.47566835594612E-02 
1899	 9.43954133186245E-02 
1900	 9.40445597988128E-02 
1901	 9.36984060483128E-02 
1902	 0.093365868926154 
1903	 9.30381134437478E-02 
1904	 9.27269493957916E-02 
1905	 9.24314343187729E-02 
1906	 9.21493807726035E-02 
1907	 9.18768033066237E-02 
1908	 9.16337300650466E-02 
1909	 9.14071579358383E-02 
1910	 9.11757133681234E-02 
1911	 9.09517698496336E-02 
1912	 9.07449437053448E-02 
1913	 0.090556855178973 
1914	 9.03847162452517E-02 
1915	 9.02295405140406E-02 
1916	 9.00998926269403E-02 
1917	 8.99690887349634E-02 
1918	 8.98518717515376E-02 
1919	 8.97412496669455E-02 
1920	 8.96337380760722E-02 
1921	 8.95516959615162E-02 
1922	 8.94902275569062E-02 
1923	 8.94300145362907E-02 
1924	 8.93799672230071E-02 
1925	 8.93499040957214E-02 
1926	 8.93151155051854E-02 
1927	 8.92741622754732E-02 
1928	 8.92606016576894E-02 
1929	 8.92362831555302E-02 
1930	 8.92133087994351E-02 
1931	 0.089218420113161 
1932	 8.92260986422818E-02 
1933	 0.08924816755576 
1934	 8.92955528036373E-02 
1935	 8.93325614210016E-02 
1936	 8.93714950160264E-02 
1937	 8.94028073860275E-02 
1938	 8.94307154043563E-02 
1939	 0.089459030829146 
1940	 8.94776306863086E-02 
1941	 8.95073733639045E-02 
1942	 8.95418145029906E-02 
1943	 8.95954329180419E-02 
1944	 8.96547008765589E-02 
1945	 0.089721602466626 
1946	 8.97958070669374E-02 
1947	 8.98793742909779E-02 
1948	 8.99617791848629E-02 
1949	 9.00633020577723E-02 
1950	 9.01482354684583E-02 
1951	 9.02257879676358E-02 
1952	 9.02980470162207E-02 
1953	 9.03845286395095E-02 
1954	 9.04551972066992E-02 
1955	 9.05244895078779E-02 
1956	 9.06150411814715E-02 
1957	 9.07070197736782E-02 
1958	 9.07944384641308E-02 
1959	 9.09003378029151E-02 
1960	 9.10296334113299E-02 
1961	 9.11441971655119E-02 
1962	 9.12669418675427E-02 
1963	 9.13775034037399E-02 
1964	 9.14668644297003E-02 
1965	 9.15712362713548E-02 
1966	 0.091701435900628 
1967	 0.091847747501623 
1968	 9.19834676065406E-02 
1969	 9.21504779841087E-02 
1970	 9.22824175054551E-02 
1971	 9.23841670577879E-02 
1972	 9.24971316450159E-02 
1973	 9.26037365309393E-02 
1974	 9.27089332278837E-02 
1975	 9.28071326507163E-02 
1976	 9.29178616093204E-02 
1977	 0.093019777688105 
1978	 0.093146991618695 
1979	 9.33095020880866E-02 
1980	 9.34442941346621E-02 
1981	 9.35592538520468E-02 
1982	 9.36617376114225E-02 
1983	 0.093770839703618 
1984	 9.38415311831278E-02 
1985	 0.093947359183146 
1986	 9.40954653685043E-02 
1987	 9.42107135831847E-02 
1988	 9.43139169730793E-02 
1989	 9.44218381064462E-02 
1990	 9.45199010259584E-02 
1991	 9.46141112889736E-02 
1992	 9.47329176561375E-02 
1993	 9.48720801377075E-02 
1994	 9.50063878106699E-02 
1995	 9.51584287807256E-02 
1996	 0.095291613688237 
1997	 9.54331164008045E-02 
1998	 9.55465000260633E-02 
1999	 9.56288133937475E-02 
2000	 0.095725864182746 
2001	 9.58138920762006E-02 
2002	 9.58893953717145E-02 
2003	 9.60010673335499E-02 
2004	 9.61245023239935E-02 
2005	 9.62429766609089E-02 
2006	 9.63764556808927E-02 
2007	 9.64935873403972E-02 
2008	 9.66081653575433E-02 
2009	 9.67130248614466E-02 
2010	 9.67870825398033E-02 
2011	 9.68993415840964E-02 
2012	 0.097043183777069 
2013	 0.09715270318023 
2014	 9.72672696974405E-02 
2015	 9.73805739957532E-02 
2016	 9.74446849605202E-02 
2017	 9.75214356261205E-02 
2018	 0.097616516617748 
2019	 9.77390074859942E-02 
2020	 9.78351931916969E-02 
2021	 9.79199040271609E-02 
2022	 9.80247510585402E-02 
2023	 9.81337423769523E-02 
2024	 9.82351006021178E-02 
2025	 9.83603731664622E-02 
2026	 9.84644895692931E-02 
2027	 9.85403854452901E-02 
2028	 9.86213015379763E-02 
2029	 9.87170113131635E-02 
2030	 9.88194628304775E-02 
2031	 9.89162934273319E-02 
2032	 9.90215696014514E-02 
2033	 9.91220551169952E-02 
2034	 9.92206684125512E-02 
2035	 9.93103467174692E-02 
2036	 9.94040059015675E-02 
2037	 9.94849609104602E-02 
2038	 9.95459946433011E-02 
2039	 9.96143723659036E-02 
2040	 9.96771488732643E-02 
2041	 9.97437227897999E-02 
2042	 9.98105521044138E-02 
2043	 0.099890701607419 
2044	 9.99841961850666E-02 
2045	 0.100108131071622 
2046	 0.100187404498965 
2047	 0.100261509548677 
2048	 0.100330785854661 
2049	 0.100362722199568 
2050	 0.10042236711079 
2051	 0.100495327892369 
2052	 0.100569760893209 
2053	 0.10066556837766 
2054	 0.100735709536005 
2055	 0.100785414044669 
2056	 0.100855812512952 
2057	 0.100918170400409 
2058	 0.100961242831533 
2059	 0.101015734995803 
2060	 0.10108952956964 
2061	 0.101144391520822 
2062	 0.10118087814634 
2063	 0.101232484858954 
2064	 0.101279037564056 
2065	 0.101339666342293 
2066	 0.101411796223871 
2067	 0.101484257831369 
2068	 0.101554979018236 
2069	 0.101658210992754 
2070	 0.10172989474207 
2071	 0.101798948394677 
2072	 0.101856269604503 
2073	 0.101895920771261 
2074	 0.101938950711743 
2075	 0.101954234775211 
2076	 0.102020413651237 
2077	 0.102123670795949 
2078	 0.102199217553745 
2079	 0.10229580079809 
2080	 0.102378516885431 
2081	 0.102430037563192 
2082	 0.102492513320585 
2083	 0.102567517303416 
2084	 0.102639875582122 
2085	 0.10270626048827 
2086	 0.102764149974003 
2087	 0.102823419112028 
2088	 0.102884706070003 
2089	 0.102940192596843 
2090	 0.102987788281486 
2091	 0.103040232544511 
2092	 0.10309555843513 
2093	 0.103143273623995 
2094	 0.103180216993068 
2095	 0.103230981023107 
2096	 0.103281575438414 
2097	 0.103336905440476 
2098	 0.103405507083857 
2099	 0.103478639785385 
2100	 0.103535854645379 
2101	 0.103587290432674 
2102	 0.103634537380313 
2103	 0.103660788802493 
2104	 0.103717637773038 
2105	 0.103791480533096 
2106	 0.103849322125329 
2107	 0.103920711726781 
2108	 0.10397985516079 
2109	 0.103999848000834 
2110	 0.104061893313442 
2111	 0.104163750453857 
2112	 0.104237541820425 
2113	 0.104314445375488 
2114	 0.104392277715406 
2115	 0.104461336501829 
2116	 0.104506313352669 
2117	 0.104570768951757 
2118	 0.104644544881847 
2119	 0.104717587061902 
2120	 0.104798665825049 
2121	 0.104861179423642 
2122	 0.104926234082594 
2123	 0.104977728491079 
2124	 0.104993810806986 
2125	 0.105038751718852 
2126	 0.1051064438906 
2127	 0.105151121640254 
2128	 0.105201763262288 
2129	 0.105239590682115 
2130	 0.105252445933847 
2131	 0.105259561856395 
2132	 0.105285710476134 
2133	 0.105326180873214 
2134	 0.105345222405725 
2135	 0.105366320149632 
2136	 0.105377984627973 
2137	 0.105364699130587 
2138	 0.105371586171293 
2139	 0.105391307338108 
2140	 0.105400936104273 
2141	 0.105433267956098 
2142	 0.105421634377054 
2143	 0.105372607485309 
2144	 0.105337166511916 
2145	 0.105278848330572 
2146	 0.105225712946997 
2147	 0.105165512337813 
2148	 0.105130488603989 
2149	 0.105109463665886 
2150	 0.105096958332385 
2151	 0.105079391916598 
2152	 0.105105524506057 
2153	 0.105071619613072 
2154	 0.10498985263676 
2155	 0.104936105570768 
2156	 0.104872266056324 
2157	 0.104811071403068 
2158	 0.104772256253644 
2159	 0.104706167869904 
2160	 0.104608884775867 
2161	 0.104530608410191 
2162	 0.10445212112848 
2163	 0.104372131290874 
2164	 0.104300663029316 
2165	 0.104235660336951 
2166	 0.104146321944974 
2167	 0.104031353758098 
2168	 0.10395108108695 
2169	 0.103874255537066 
2170	 0.10379591178799 
2171	 0.103749118404175 
2172	 0.103663526220553 
2173	 0.103542033378263 
2174	 0.103447966991319 
2175	 0.103340803808513 
2176	 0.103259832546758 
2177	 0.103219544139921 
2178	 0.103150472398676 
2179	 0.1030814753786 
2180	 0.103005432025979 
2181	 0.1029020441899 
2182	 0.102814181427121 
2183	 0.102717037440757 
2184	 0.102652946756429 
2185	 0.102589741073471 
2186	 0.102542396645186 
2187	 0.102480891058731 
2188	 0.102420986616185 
2189	 0.10236549456399 
2190	 0.102308197889763 
2191	 0.102250655811576 
2192	 0.10220068220096 
2193	 0.102150514863559 
2194	 0.102087919252261 
2195	 0.102037517550513 
2196	 0.101990143472998 
2197	 0.101961021879203 
2198	 0.10196704408372 
2199	 0.101936635518903 
2200	 0.101898649979511 
2201	 0.101863228004708 
2202	 0.101789645331413 
2203	 0.101736340098048 
2204	 0.101707452990288 
2205	 0.101701222919966 
2206	 0.101697595330888 
2207	 0.101718831456218 
2208	 0.101721892430925 
2209	 0.101724491509404 
2210	 0.101734681243727 
2211	 0.101747190268404 
2212	 0.101747194878427 
2213	 0.101752870423474 
2214	 0.101749542159908 
2215	 0.1017195145929 
2216	 0.101711374523025 
2217	 0.101709370693904 
2218	 0.101716423219053 
2219	 0.1017379929286 
2220	 0.101757210638067 
2221	 0.101801631067 
2222	 0.101812001544768 
2223	 0.101817140301532 
2224	 0.101816746966541 
2225	 0.101807407847621 
2226	 0.101775124171559 
2227	 0.101773254525678 
2228	 0.101772714227566 
2229	 0.101787301667273 
2230	 0.101824108148951 
2231	 0.101848912298578 
2232	 0.101882813031133 
2233	 0.101902585517912 
2234	 0.10190806265785 
2235	 0.101926440957408 
2236	 0.101941700641534 
2237	 0.10196735499973 
2238	 0.102006039718858 
2239	 0.102042635744867 
2240	 0.102097995421977 
2241	 0.102123413552668 
2242	 0.10212903220978 
2243	 0.102142864581519 
2244	 0.102148595601702 
2245	 0.102134835685973 
2246	 0.102151831046465 
2247	 0.102178991946226 
2248	 0.102199771876623 
2249	 0.102221057735483 
2250	 0.102250420295077 
2251	 0.102295183791212 
2252	 0.102303551942956 
2253	 0.10229165916333 
2254	 0.102302329539031 
2255	 0.102295488980009 
2256	 0.1023070536115 
2257	 0.102350558835634 
2258	 0.10237770749232 
2259	 0.102393985331092 
2260	 0.102414087473551 
2261	 0.102437034270714 
2262	 0.102460394874325 
2263	 0.102480936189762 
2264	 0.102508068944969 
2265	 0.102543385700902 
2266	 0.102576271787046 
2267	 0.102603800411566 
2268	 0.10263768506555 
2269	 0.102679751965397 
2270	 0.102720712722998 
2271	 0.102742422968373 
2272	 0.102780316838998 
2273	 0.102777126377797 
2274	 0.102759931837125 
2275	 0.102768978500571 
2276	 0.102782669187502 
2277	 0.10278556290553 
2278	 0.102804087065086 
2279	 0.102811269646881 
2280	 0.102782079058103 
2281	 0.102810346307139 
2282	 0.102884812397413 
2283	 0.102916618355634 
2284	 0.102953286348297 
2285	 0.102994287540431 
2286	 0.103011238907843 
2287	 0.103033756139439 
2288	 0.103100098657104 
2289	 0.103108766889872 
2290	 0.103045802774896 
2291	 0.103045729889369 
2292	 0.103056756250728 
2293	 0.103064041159244 
2294	 0.103103685164932 
2295	 0.103136187418268 
2296	 0.103174344043832 
2297	 0.10317127006617 
2298	 0.10316947175449 
2299	 0.103206396641928 
2300	 0.103225007946731 
2301	 0.103255282361604 
2302	 0.103288741588842 
2303	 0.103290198688371 
2304	 0.103275288515824 
2305	 0.103274630287126 
2306	 0.103257305142543 
2307	 0.103234146816892 
2308	 0.103231751107185 
2309	 0.103218421112319 
2310	 0.103212118855569 
2311	 0.103245220091968 
2312	 0.10324743375545 
2313	 0.103212453629225 
2314	 0.103212114879886 
2315	 0.103231260286825 
2316	 0.103226411639957 
2317	 0.103235471460678 
2318	 0.10323120562339 
2319	 0.10317778290665 
2320	 0.103175613513254 
2321	 0.103228933984336 
2322	 0.103215571760907 
2323	 0.103181604464188 
2324	 0.103180187803968 
2325	 0.103124524828698 
2326	 0.103116091525694 
2327	 0.103184687350901 
2328	 0.103205766173717 
2329	 0.103226109878989 
2330	 0.103266465513889 
2331	 0.103262709564273 
2332	 0.103263477056533 
2333	 0.103255294206329 
2334	 0.103220214058665 
2335	 0.10321539923912 
2336	 0.103224145283192 
2337	 0.103197514843756 
2338	 0.103181082288508 
2339	 0.103188692953282 
2340	 0.103179709882059 
2341	 0.103176577892983 
2342	 0.103191065621974 
2343	 0.103137343334764 
2344	 0.103148262213677 
2345	 0.103194033739484 
2346	 0.103284194953979 
2347	 0.103337884125285 
2348	 0.10344538706197 
2349	 0.103473251669675 
2350	 0.103448894151552 
2351	 0.103397093880395 
2352	 0.103298615834969 
2353	 0.103228696797508 
2354	 0.103107716129444 
2355	 0.103077161449723 
2356	 0.103141189906167 
2357	 0.103112141420523 
2358	 0.103058637261355 
2359	 0.103022455639586 
2360	 0.102911353504865 
2361	 0.102893521088935 
2362	 0.103015469600777 
2363	 0.103012481919034 
2364	 0.102970256012031 
2365	 0.102923213661136 
2366	 0.102786984056812 
2367	 0.10270779181393 
2368	 0.102655844620616 
2369	 0.102620923291447 
2370	 0.102620307307675 
2371	 0.102570910809633 
2372	 0.102583495072806 
2373	 0.102633555043412 
2374	 0.102524343676216 
2375	 0.102472042462624 
2376	 0.102497006898916 
2377	 0.102431053140323 
2378	 0.10247271245069 
2379	 0.102488239368733 
2380	 0.102364678842276 
2381	 0.102288258892584 
2382	 0.102222132756002 
2383	 0.102168204517355 
2384	 0.102112704374721 
2385	 0.102065212391191 
2386	 0.102016787008561 
2387	 0.101944167163852 
2388	 0.10191561323045 
2389	 0.101892259570355 
2390	 0.101925582765529 
2391	 0.101960360414756 
2392	 0.101865297115035 
2393	 0.101765993898682 
2394	 0.101649487230905 
2395	 0.101531405950543 
2396	 0.101510737053279 
2397	 0.10147687402676 
2398	 0.101450849552305 
2399	 0.101471785663622 
2400	 0.101364706010011 
2401	 0.101271833717192 
2402	 0.101218415040697 
2403	 0.101121209862465 
2404	 0.101172155343834 
2405	 0.101183236215406 
2406	 0.101110099740028 
2407	 0.101018179851664 
2408	 0.100888974240499 
2409	 0.100796099964458 
2410	 0.100746297690835 
2411	 0.100688767810455 
2412	 0.100659720131128 
2413	 0.100713787598465 
2414	 0.100704940344385 
2415	 0.100664789433172 
2416	 0.100603551832508 
2417	 0.100460123978228 
2418	 0.100369235709574 
2419	 0.100289419853389 
2420	 0.100178093163921 
2421	 0.100063466639363 
2422	 9.99851621893522E-02 
2423	 9.98855990404759E-02 
2424	 0.099867564213593 
2425	 9.99810361254135E-02 
2426	 9.99259219478403E-02 
2427	 9.97969265691657E-02 
2428	 9.97207959005405E-02 
2429	 9.95336614880052E-02 
2430	 9.94029819688652E-02 
2431	 9.93276601819931E-02 
2432	 9.93348613791792E-02 
2433	 0.099500125287945 
2434	 9.94688243000389E-02 
2435	 9.93996394446075E-02 
2436	 9.93327764937886E-02 
2437	 9.90488344528452E-02 
2438	 9.89152013302367E-02 
2439	 9.89431718725299E-02 
2440	 9.88305231668958E-02 
2441	 0.098638206326894 
2442	 9.85800731709905E-02 
2443	 9.85915797355319E-02 
2444	 9.85934072025362E-02 
2445	 9.86675559384291E-02 
2446	 9.85450250439704E-02 
2447	 9.82915182801173E-02 
2448	 9.81967655013702E-02 
2449	 9.80676277134616E-02 
2450	 9.80058491285132E-02 
2451	 9.81088794500405E-02 
2452	 9.79660089444562E-02 
2453	 9.76912006576005E-02 
2454	 9.75822360217965E-02 
2455	 0.097357907870588 
2456	 9.73458543027201E-02 
2457	 9.76203786422951E-02 
2458	 0.097600669452094 
2459	 9.75544916146438E-02 
2460	 0.097459842751833 
2461	 9.70975542025494E-02 
2462	 9.69822301000521E-02 
2463	 9.70697804014708E-02 
2464	 9.71022066701006E-02 
2465	 9.72189216441049E-02 
2466	 0.097232716047609 
2467	 9.71466217617872E-02 
2468	 9.70722709063883E-02 
2469	 9.69450462306805E-02 
2470	 9.67546435269139E-02 
2471	 9.66852783453111E-02 
2472	 9.64478793364618E-02 
2473	 9.63224227468212E-02 
2474	 9.63691952315871E-02 
2475	 0.096253760186593 
2476	 9.61705619014376E-02 
2477	 9.60983941552699E-02 
2478	 9.59572032930358E-02 
2479	 9.59480346782144E-02 
2480	 9.59126114346641E-02 
2481	 9.58400674661592E-02 
2482	 9.57828220832738E-02 
2483	 9.56851211796176E-02 
2484	 9.56733974067019E-02 
2485	 9.56095524294431E-02 
2486	 9.54972514325572E-02 
2487	 9.54654286703875E-02 
2488	 9.54420966209578E-02 
2489	 9.53947914039913E-02 
2490	 0.095235794266559 
2491	 9.50670633074458E-02 
2492	 9.48928572924592E-02 
2493	 9.47777979073303E-02 
2494	 9.48989422954896E-02 
2495	 9.49192710855406E-02 
2496	 9.47467699384065E-02 
2497	 0.094809456143181 
2498	 9.50296513377514E-02 
2499	 9.51360179103862E-02 
2500	 9.55179254448404E-02 
