Wavelength	LMW_2200001.asd
350	 7.08939671670559E-02 
351	 7.83813426954586E-02 
352	 0.074656316851405 
353	 6.17734466012661E-02 
354	 6.52220964216222E-02 
355	 6.64726113658654E-02 
356	 6.39175853340917E-02 
357	 0.061494035194141 
358	 6.67995463581166E-02 
359	 6.96292935357937E-02 
360	 6.81369997050987E-02 
361	 6.60255902532909E-02 
362	 6.06754962953548E-02 
363	 5.81997177543174E-02 
364	 6.10062502532981E-02 
365	 6.48295371482497E-02 
366	 6.44593951126206E-02 
367	 6.16407955483189E-02 
368	 6.01530511993411E-02 
369	 6.26511871638704E-02 
370	 6.28734944929546E-02 
371	 6.19493730290099E-02 
372	 6.53977936220982E-02 
373	 6.59270039706896E-02 
374	 6.63158307617348E-02 
375	 6.81588871918863E-02 
376	 6.89431547593792E-02 
377	 6.57504346728708E-02 
378	 6.38769383388353E-02 
379	 6.79450522932528E-02 
380	 6.96497283228512E-02 
381	 0.066910309203816 
382	 6.37498994688835E-02 
383	 6.75963369270855E-02 
384	 7.00496811123266E-02 
385	 6.99884764313406E-02 
386	 6.89116380568437E-02 
387	 7.12918167615188E-02 
388	 0.071810300549387 
389	 7.11368994090669E-02 
390	 7.14400209585358E-02 
391	 7.22574589264512E-02 
392	 7.19126689750243E-02 
393	 7.26046252898983E-02 
394	 7.89397244583812E-02 
395	 7.96603506889313E-02 
396	 7.84330467955665E-02 
397	 7.91637295819971E-02 
398	 8.07170619731983E-02 
399	 8.32563764528062E-02 
400	 8.60787264423627E-02 
401	 8.81482165937176E-02 
402	 8.83927057287579E-02 
403	 8.84543128334847E-02 
404	 8.92129077866543E-02 
405	 9.05831239919691E-02 
406	 9.28314567891051E-02 
407	 9.47208236791643E-02 
408	 9.53544310894446E-02 
409	 9.51943817117281E-02 
410	 9.55437622776771E-02 
411	 9.66015657304861E-02 
412	 9.79321531554625E-02 
413	 9.91120488637433E-02 
414	 0.099700320374734 
415	 9.96017472576629E-02 
416	 9.90817715763461E-02 
417	 9.89810135414047E-02 
418	 9.93698583762205E-02 
419	 9.99332924934036E-02 
420	 0.100015513483239 
421	 9.91776134946315E-02 
422	 9.84636810905345E-02 
423	 9.94505874101864E-02 
424	 0.098710315692709 
425	 0.097569147463731 
426	 9.70408025490794E-02 
427	 0.096465235883639 
428	 9.56030298645246E-02 
429	 9.48344832164571E-02 
430	 9.45288626977745E-02 
431	 9.39129456834936E-02 
432	 9.31004728608113E-02 
433	 9.23547679945798E-02 
434	 9.20032157144525E-02 
435	 9.15074708315815E-02 
436	 9.14416356205896E-02 
437	 9.20419712034655E-02 
438	 9.20939178927805E-02 
439	 9.24826035336772E-02 
440	 9.33006951702451E-02 
441	 9.41819136968418E-02 
442	 9.44692898472504E-02 
443	 9.50286007995214E-02 
444	 9.61403084922747E-02 
445	 9.70034317390965E-02 
446	 9.78081539222656E-02 
447	 9.86778109287642E-02 
448	 9.96750270995034E-02 
449	 0.100646665107373 
450	 0.101523384924149 
451	 0.10236374939627 
452	 0.103304401261211 
453	 0.103820823802002 
454	 0.104335471567193 
455	 0.105175060706075 
456	 0.106063443156109 
457	 0.106726653507073 
458	 0.107301290812008 
459	 0.108028367973269 
460	 0.108303917121298 
461	 0.108542178471934 
462	 0.108979328347212 
463	 0.109479534905398 
464	 0.109790794952568 
465	 0.110251646194102 
466	 0.111045706509396 
467	 0.111056946213766 
468	 0.11105177165735 
469	 0.111345671480585 
470	 0.111804214900313 
471	 0.111775458429802 
472	 0.111732942538443 
473	 0.112015917582862 
474	 0.112175463597594 
475	 0.112439974907436 
476	 0.112739999958657 
477	 0.112894744848934 
478	 0.112866301157855 
479	 0.113008833957979 
480	 0.113331714973112 
481	 0.113325380498139 
482	 0.113571699432579 
483	 0.113881296040057 
484	 0.113978545334932 
485	 0.114163704001102 
486	 0.11419214738179 
487	 0.114131977245486 
488	 0.114293784104228 
489	 0.114350389426203 
490	 0.114507421964074 
491	 0.114832775230201 
492	 0.114828962154123 
493	 0.114813700539702 
494	 0.114895450336223 
495	 0.115080999014658 
496	 0.115391959949549 
497	 0.115547173275124 
498	 0.115499138363529 
499	 0.115569963934297 
500	 0.115754426849625 
501	 0.115980471656282 
502	 0.116146905723021 
503	 0.116167320654816 
504	 0.116188531852379 
505	 0.11626136124762 
506	 0.116344170929553 
507	 0.116533479730158 
508	 0.116769891517942 
509	 0.116937676652697 
510	 0.116827320935993 
511	 0.116807778123399 
512	 0.116900835202886 
513	 0.116955576213387 
514	 0.117112186331843 
515	 0.117289045966004 
516	 0.117414784950095 
517	 0.117474097147542 
518	 0.11749427877523 
519	 0.1175555651104 
520	 0.117718852976749 
521	 0.117882610519109 
522	 0.117912820234846 
523	 0.117850868478932 
524	 0.117915811589496 
525	 0.118113195290786 
526	 0.118263113810963 
527	 0.118261960821205 
528	 0.118389859899698 
529	 0.118469872249485 
530	 0.118526287133472 
531	 0.118694159784467 
532	 0.118729077160314 
533	 0.118829902259036 
534	 0.119065628976901 
535	 0.119096353242527 
536	 0.119177866546479 
537	 0.119321160530386 
538	 0.119450582178338 
539	 0.119581167567209 
540	 0.119712649846187 
541	 0.119838326543694 
542	 0.119941231751809 
543	 0.1201313762089 
544	 0.120297487508865 
545	 0.120346924691942 
546	 0.120509552976667 
547	 0.120725637898468 
548	 0.120955257672998 
549	 0.12118281478299 
550	 0.121402155374481 
551	 0.121585933224211 
552	 0.121749021073463 
553	 0.122016860926074 
554	 0.122355366732199 
555	 0.122720528490705 
556	 0.123061651645427 
557	 0.123348849467941 
558	 0.123689725436204 
559	 0.124127714178083 
560	 0.124572277601868 
561	 0.125016290680744 
562	 0.125495156670017 
563	 0.126037989721902 
564	 0.126548040064233 
565	 0.127012735097868 
566	 0.127457700033764 
567	 0.127943457330544 
568	 0.128571854620933 
569	 0.129289862653624 
570	 0.130023398684148 
571	 0.130779440915937 
572	 0.131571957649901 
573	 0.132385342478239 
574	 0.133191629040566 
575	 0.134090006757392 
576	 0.135043186041898 
577	 0.136002656862294 
578	 0.136962307976972 
579	 0.137800371541524 
580	 0.138523909323743 
581	 0.139215288890042 
582	 0.139986063252578 
583	 0.14080163146625 
584	 0.141667130812682 
585	 0.142668921928467 
586	 0.143774771032403 
587	 0.144947472806793 
588	 0.146151042508487 
589	 0.147397137940186 
590	 0.148598858306867 
591	 0.149796197441205 
592	 0.151138024544229 
593	 0.152400878310912 
594	 0.153667951394225 
595	 0.154964514342621 
596	 0.156000762206633 
597	 0.156909217030747 
598	 0.157782439340617 
599	 0.158688408465545 
600	 0.159587537316943 
601	 0.160497977429038 
602	 0.161410877303125 
603	 0.16226048811057 
604	 0.163141949992826 
605	 0.164052520150508 
606	 0.164942012140542 
607	 0.165699901277138 
608	 0.166543922494843 
609	 0.167484348365367 
610	 0.168277202827618 
611	 0.168967309571453 
612	 0.169585257581001 
613	 0.170159197589482 
614	 0.17070438145641 
615	 0.171200509946851 
616	 0.171668735588198 
617	 0.172152613441614 
618	 0.17263348713686 
619	 0.173052613840358 
620	 0.173412114474173 
621	 0.173864521104083 
622	 0.174242973447655 
623	 0.174556698269493 
624	 0.174885016616894 
625	 0.17526052077672 
626	 0.17558314922371 
627	 0.175853857889675 
628	 0.176221035547864 
629	 0.176472440434962 
630	 0.176702641125258 
631	 0.17702621233432 
632	 0.17729151022406 
633	 0.177519520056882 
634	 0.177755884242742 
635	 0.178056597404884 
636	 0.178337407750621 
637	 0.178588916318918 
638	 0.178825120882816 
639	 0.179082311640331 
640	 0.179344745873441 
641	 0.179601064403176 
642	 0.179844892362895 
643	 0.180098837578277 
644	 0.180362875155299 
645	 0.180633223456972 
646	 0.180905499271072 
647	 0.181146922388721 
648	 0.181393189297281 
649	 0.181674900143742 
650	 0.181906805744255 
651	 0.182151289126529 
652	 0.182443919328679 
653	 0.182784772587544 
654	 0.183034072619328 
655	 0.183286603390968 
656	 0.183617057495714 
657	 0.183936226502682 
658	 0.184276726344957 
659	 0.184628685255371 
660	 0.184967105319747 
661	 0.185314498883455 
662	 0.185628067191666 
663	 0.185930493049557 
664	 0.186347482742376 
665	 0.186749815723539 
666	 0.187102678389758 
667	 0.187424360800007 
668	 0.187822849082252 
669	 0.188214577863461 
670	 0.188609885988449 
671	 0.189089487692688 
672	 0.189513295998035 
673	 0.189927840957496 
674	 0.190378935990248 
675	 0.190838546035031 
676	 0.191254977322899 
677	 0.191652232275917 
678	 0.192089415114446 
679	 0.192589277234408 
680	 0.193095541669476 
681	 0.193577912320067 
682	 0.19404947584796 
683	 0.194561455527714 
684	 0.195078271896144 
685	 0.195563236511551 
686	 0.196066202727272 
687	 0.196576731739163 
688	 0.197093452695576 
689	 0.197619140608059 
690	 0.198137563402022 
691	 0.198634585807499 
692	 0.199139907467001 
693	 0.199784106254669 
694	 0.200331240026716 
695	 0.200807626574938 
696	 0.201326923567771 
697	 0.20189150531956 
698	 0.202462598439207 
699	 0.203010004362653 
700	 0.203519811969784 
701	 0.204076813053428 
702	 0.204633360965529 
703	 0.205143580223616 
704	 0.205648113319924 
705	 0.206173843936683 
706	 0.206700430928372 
707	 0.20719096003704 
708	 0.207715962427505 
709	 0.208248222531079 
710	 0.208752466940077 
711	 0.209196974795678 
712	 0.209698785797106 
713	 0.210192893080979 
714	 0.210618707889445 
715	 0.211150428662396 
716	 0.211602633149194 
717	 0.211960537802175 
718	 0.212338375759029 
719	 0.212738647895875 
720	 0.213142057335457 
721	 0.21352776428356 
722	 0.213883565568516 
723	 0.214209116190487 
724	 0.214520079665216 
725	 0.214827434575861 
726	 0.215078847266574 
727	 0.215367782440912 
728	 0.215690776960105 
729	 0.215950258163891 
730	 0.216155226704098 
731	 0.216358305365866 
732	 0.216577659475168 
733	 0.216731701955307 
734	 0.216832905575966 
735	 0.216896693706005 
736	 0.216950384027102 
737	 0.217063080562542 
738	 0.217151522062754 
739	 0.217178752562284 
740	 0.217172708149265 
741	 0.217180845407268 
742	 0.217158574799946 
743	 0.217076519117797 
744	 0.21700346910265 
745	 0.21691234448649 
746	 0.216793826445732 
747	 0.21665158357707 
748	 0.216520751300406 
749	 0.216373068627802 
750	 0.216179856127036 
751	 0.215921331768992 
752	 0.215691576724398 
753	 0.215472561123401 
754	 0.215227740234086 
755	 0.214952650158224 
756	 0.214656534828131 
757	 0.214346138288058 
758	 0.214025957574969 
759	 0.213696533121919 
760	 0.213345601134814 
761	 0.21297144911609 
762	 0.212587003078414 
763	 0.212202541091888 
764	 0.211817431214761 
765	 0.211427591298576 
766	 0.211031236925353 
767	 0.210597759093302 
768	 0.210138455698208 
769	 0.209683520736896 
770	 0.209226004396197 
771	 0.208780120049057 
772	 0.208333432805651 
773	 0.207844041704656 
774	 0.207400585864917 
775	 0.206943575816718 
776	 0.206426781200465 
777	 0.205931125929498 
778	 0.205435495476756 
779	 0.204949907448196 
780	 0.204488484799345 
781	 0.204010767167273 
782	 0.203553292146892 
783	 0.203070364632886 
784	 0.202441579150323 
785	 0.201953569282703 
786	 0.201513749797096 
787	 0.20101669304685 
788	 0.200512513000064 
789	 0.200001237939631 
790	 0.19949659728198 
791	 0.199009589441641 
792	 0.198519371174559 
793	 0.198017090280358 
794	 0.197507909788268 
795	 0.197008195764174 
796	 0.196509876201817 
797	 0.196046438734188 
798	 0.195620315753695 
799	 0.195169000325101 
800	 0.194687207065915 
801	 0.194202380542597 
802	 0.19374071550565 
803	 0.193278854893883 
804	 0.192804389404876 
805	 0.192330501387783 
806	 0.191881662956855 
807	 0.191422623057132 
808	 0.190981443255594 
809	 0.190556789235186 
810	 0.190102360786214 
811	 0.189710397663396 
812	 0.18931261323127 
813	 0.188866195745976 
814	 0.188503626402299 
815	 0.188098631390437 
816	 0.187664410341004 
817	 0.187263764058039 
818	 0.186877005284985 
819	 0.186548507485831 
820	 0.186240731786217 
821	 0.18585570762007 
822	 0.185465232707492 
823	 0.185088362420787 
824	 0.184737368898011 
825	 0.184426686440217 
826	 0.184133321515676 
827	 0.183786381444898 
828	 0.183367866554751 
829	 0.18305219052299 
830	 0.18279553024811 
831	 0.18255323198344 
832	 0.182279399290295 
833	 0.181936308706535 
834	 0.181636434580961 
835	 0.181397507395756 
836	 0.181139314150852 
837	 0.180864884034953 
838	 0.180596118365379 
839	 0.180323353386464 
840	 0.179971906699656 
841	 0.17977745581181 
842	 0.179621041446063 
843	 0.179368874977674 
844	 0.179172973840375 
845	 0.179009227287337 
846	 0.178840083393285 
847	 0.178631546846115 
848	 0.178416005175041 
849	 0.178193054783252 
850	 0.17798990458249 
851	 0.177848289278805 
852	 0.177710446735655 
853	 0.177536831664678 
854	 0.177338491124881 
855	 0.177191634022245 
856	 0.177083334119993 
857	 0.176990814773526 
858	 0.176891133068168 
859	 0.176769540533644 
860	 0.176660834502218 
861	 0.176549531802166 
862	 0.176416004790674 
863	 0.176301779062241 
864	 0.176219117032038 
865	 0.176166975640304 
866	 0.176127775791475 
867	 0.176039250552131 
868	 0.175960917122578 
869	 0.175906029110078 
870	 0.175831716003398 
871	 0.175754925197389 
872	 0.175725712213649 
873	 0.17576102852589 
874	 0.175818120404543 
875	 0.175781191623031 
876	 0.175724239975618 
877	 0.175717513984022 
878	 0.175681112448684 
879	 0.175660667467464 
880	 0.175712081497455 
881	 0.175836198642153 
882	 0.175804438563586 
883	 0.175833006810457 
884	 0.175907043707851 
885	 0.175907886790158 
886	 0.175976544845106 
887	 0.176065042033215 
888	 0.176127400885577 
889	 0.176145125433874 
890	 0.176219459127304 
891	 0.17630526907468 
892	 0.176368095583256 
893	 0.176416404314925 
894	 0.176522620283277 
895	 0.176681384152227 
896	 0.17685907532522 
897	 0.177007232770073 
898	 0.177131503050299 
899	 0.177256324385983 
900	 0.177407149238934 
901	 0.177603961131132 
902	 0.177715604798272 
903	 0.177800581702525 
904	 0.177957312876526 
905	 0.178158565977219 
906	 0.178355908403401 
907	 0.178518853214258 
908	 0.17865518152936 
909	 0.178893346608075 
910	 0.1790961428292 
911	 0.179263690810418 
912	 0.179483101539721 
913	 0.179694779616401 
914	 0.179948026958417 
915	 0.180215808902733 
916	 0.180417490436443 
917	 0.180695202721918 
918	 0.180966477454779 
919	 0.181194327704435 
920	 0.181431667274319 
921	 0.181778756704517 
922	 0.182109327796639 
923	 0.182355798309542 
924	 0.182599929339459 
925	 0.182972712304912 
926	 0.183336035721323 
927	 0.183599657764119 
928	 0.183872097785539 
929	 0.184171946872042 
930	 0.184489488285 
931	 0.184804770480671 
932	 0.185096048143164 
933	 0.18550471320361 
934	 0.185961226192557 
935	 0.186339870002042 
936	 0.186547905336709 
937	 0.186828368827167 
938	 0.187205244534872 
939	 0.187615147348032 
940	 0.187999952573985 
941	 0.188413089892855 
942	 0.188867551344542 
943	 0.189322229840722 
944	 0.189604344773846 
945	 0.189891718723237 
946	 0.190292653863388 
947	 0.19081794635311 
948	 0.191280261782342 
949	 0.191660979759297 
950	 0.191992128911668 
951	 0.192348916579704 
952	 0.192856963062106 
953	 0.19339265574388 
954	 0.193825713815312 
955	 0.19412258040535 
956	 0.194677552312759 
957	 0.195190887502587 
958	 0.19560758110895 
959	 0.19604021536765 
960	 0.196466755906511 
961	 0.196887315154291 
962	 0.197366007034483 
963	 0.19794290295963 
964	 0.198289462583203 
965	 0.198711838265152 
966	 0.199305009639435 
967	 0.199938808677853 
968	 0.200308688316756 
969	 0.200641244045196 
970	 0.201059201157092 
971	 0.201557609691229 
972	 0.202049617430351 
973	 0.202564638588191 
974	 0.203065106648499 
975	 0.203500188969049 
976	 0.204035111238871 
977	 0.204565375899821 
978	 0.205048011074406 
979	 0.205524490454743 
980	 0.206199736061181 
981	 0.20660079159294 
982	 0.206883793031539 
983	 0.207491030054507 
984	 0.208021273675729 
985	 0.208409118178475 
986	 0.208782013043382 
987	 0.209303640765883 
988	 0.209783787735372 
989	 0.210206279451412 
990	 0.210610475209052 
991	 0.21105072019818 
992	 0.211520231755634 
993	 0.211924391551641 
994	 0.2124772062045 
995	 0.213300173168236 
996	 0.213618498470344 
997	 0.213946210772693 
998	 0.214344969200325 
999	 0.214750674214831 
1000	 0.215401344766611 
1001	 0.214061561258109 
1002	 0.214408305518792 
1003	 0.214766595978229 
1004	 0.215150097326197 
1005	 0.215597534469521 
1006	 0.215965792538115 
1007	 0.216289410901725 
1008	 0.216679178397118 
1009	 0.217006783314146 
1010	 0.217311475150354 
1011	 0.217740397663382 
1012	 0.218114887022392 
1013	 0.21844255632747 
1014	 0.218824551364786 
1015	 0.219173529430095 
1016	 0.219565745031334 
1017	 0.219928951505582 
1018	 0.220308954659462 
1019	 0.220626259628776 
1020	 0.220986743010528 
1021	 0.221284081041861 
1022	 0.221536608772304 
1023	 0.221872319859927 
1024	 0.222140392248352 
1025	 0.222417261354795 
1026	 0.222742425852018 
1027	 0.223026822422327 
1028	 0.223356443101942 
1029	 0.223644935771424 
1030	 0.223895000034437 
1031	 0.224168985375873 
1032	 0.224472160713694 
1033	 0.224747945412313 
1034	 0.225005104328106 
1035	 0.225244536455054 
1036	 0.22546065690862 
1037	 0.225662721867302 
1038	 0.225882645840182 
1039	 0.226123163825394 
1040	 0.226296561855477 
1041	 0.226457497272566 
1042	 0.22669805337147 
1043	 0.226926373845837 
1044	 0.227144737294024 
1045	 0.227404304558663 
1046	 0.22768476920578 
1047	 0.227834431418437 
1048	 0.227969914629922 
1049	 0.22815347607042 
1050	 0.228322393311358 
1051	 0.228524788715928 
1052	 0.228744009372786 
1053	 0.228988792139081 
1054	 0.229262951901069 
1055	 0.22950073304481 
1056	 0.229706561048691 
1057	 0.229930493223268 
1058	 0.230135453529465 
1059	 0.230350549775023 
1060	 0.230581645081278 
1061	 0.23081305279003 
1062	 0.231027261768681 
1063	 0.231198546771103 
1064	 0.231364494611097 
1065	 0.231599803874574 
1066	 0.231841842132327 
1067	 0.232039322722781 
1068	 0.23223980760634 
1069	 0.232434935113243 
1070	 0.232637586670299 
1071	 0.232831076759228 
1072	 0.23303411661303 
1073	 0.233258590589869 
1074	 0.233455376812325 
1075	 0.233623897377937 
1076	 0.233835434077575 
1077	 0.233992296460305 
1078	 0.234159274297809 
1079	 0.234365808625097 
1080	 0.234522665347343 
1081	 0.234702542323653 
1082	 0.234887674386837 
1083	 0.235065133176679 
1084	 0.235225122878637 
1085	 0.235402781987633 
1086	 0.235597706025747 
1087	 0.235766666058363 
1088	 0.235932317383312 
1089	 0.236084196489549 
1090	 0.236189464881347 
1091	 0.236323726421551 
1092	 0.236501780819177 
1093	 0.236642887769588 
1094	 0.236838547683035 
1095	 0.237069022245309 
1096	 0.237209299887464 
1097	 0.237365588687351 
1098	 0.237516328309742 
1099	 0.237629428530083 
1100	 0.237764590041153 
1101	 0.237928197270664 
1102	 0.238069336000515 
1103	 0.23820768044989 
1104	 0.238341973987899 
1105	 0.238428140638921 
1106	 0.238515315815798 
1107	 0.238612227070151 
1108	 0.238711753683329 
1109	 0.238861665004257 
1110	 0.239019088158196 
1111	 0.239141402248614 
1112	 0.23923273979016 
1113	 0.239353825539477 
1114	 0.239469381549288 
1115	 0.239595680234846 
1116	 0.239759409650906 
1117	 0.239891445186026 
1118	 0.240013173424933 
1119	 0.240118472002565 
1120	 0.240204898176369 
1121	 0.24029369726686 
1122	 0.240402715399754 
1123	 0.240498720951342 
1124	 0.240589989950321 
1125	 0.240684174960334 
1126	 0.240781374028421 
1127	 0.240874697092341 
1128	 0.240953541333028 
1129	 0.241022969604526 
1130	 0.241107432628085 
1131	 0.24119625374626 
1132	 0.241275047420665 
1133	 0.241376319464707 
1134	 0.241452779915656 
1135	 0.241513175387336 
1136	 0.241527999886622 
1137	 0.241587249301919 
1138	 0.241642586691679 
1139	 0.241702895426289 
1140	 0.241795820005203 
1141	 0.241841437723315 
1142	 0.241852829007228 
1143	 0.241886200729868 
1144	 0.241902329482638 
1145	 0.241929807526902 
1146	 0.241978364065419 
1147	 0.242022212236315 
1148	 0.242047330307787 
1149	 0.24209955676698 
1150	 0.242182110204562 
1151	 0.242246996595855 
1152	 0.242290010749119 
1153	 0.242331889274766 
1154	 0.242377460715866 
1155	 0.242392868747608 
1156	 0.242439244277301 
1157	 0.242526594754433 
1158	 0.242570630867699 
1159	 0.242596813100763 
1160	 0.242628967097115 
1161	 0.242628332216439 
1162	 0.242668284552753 
1163	 0.242738129647343 
1164	 0.242794510117711 
1165	 0.242865065498242 
1166	 0.242929854046866 
1167	 0.242992310442438 
1168	 0.243051693209944 
1169	 0.243115167793825 
1170	 0.243197146225863 
1171	 0.243248430418602 
1172	 0.243269868916801 
1173	 0.243326167278526 
1174	 0.243385641542712 
1175	 0.243446356420029 
1176	 0.243544785377507 
1177	 0.243605084564598 
1178	 0.24361899209024 
1179	 0.243670255187447 
1180	 0.243730388846599 
1181	 0.243789480134534 
1182	 0.243865715010924 
1183	 0.243949842636507 
1184	 0.244015756602434 
1185	 0.244063712221675 
1186	 0.24413009235933 
1187	 0.244202794461363 
1188	 0.244268830403496 
1189	 0.244335961419435 
1190	 0.244404180604551 
1191	 0.244473378038194 
1192	 0.244535259066038 
1193	 0.244593767362932 
1194	 0.244657068033022 
1195	 0.244717296819356 
1196	 0.244774578171727 
1197	 0.244836864270781 
1198	 0.244897771264533 
1199	 0.244955925178027 
1200	 0.245008258964668 
1201	 0.245056678798601 
1202	 0.245109921358562 
1203	 0.245147984664467 
1204	 0.245155668515923 
1205	 0.245205368379465 
1206	 0.245282003149825 
1207	 0.245328564781755 
1208	 0.24538374820234 
1209	 0.24543135433495 
1210	 0.245450420762877 
1211	 0.245480474279828 
1212	 0.245523668422062 
1213	 0.245562529099394 
1214	 0.245589904793057 
1215	 0.245624075212093 
1216	 0.245662070557105 
1217	 0.245705816707123 
1218	 0.245751615653688 
1219	 0.24580441836721 
1220	 0.245846445529928 
1221	 0.245891372867223 
1222	 0.245927296267895 
1223	 0.245953805812594 
1224	 0.245979067713954 
1225	 0.245998768156661 
1226	 0.246020600751164 
1227	 0.24603703655939 
1228	 0.246057321722443 
1229	 0.246091937425936 
1230	 0.246108067413025 
1231	 0.246105697656953 
1232	 0.246114753846633 
1233	 0.246123803117256 
1234	 0.246120732567175 
1235	 0.246137763906552 
1236	 0.246172784958105 
1237	 0.246199129634251 
1238	 0.246226686860418 
1239	 0.246254437316212 
1240	 0.24628455567818 
1241	 0.246312262747281 
1242	 0.246350452105274 
1243	 0.246366791258125 
1244	 0.246364891611728 
1245	 0.246372367280539 
1246	 0.246368758598787 
1247	 0.246370251227602 
1248	 0.246381666901114 
1249	 0.246387766470376 
1250	 0.246397809557042 
1251	 0.246416227080093 
1252	 0.246430948402661 
1253	 0.246457032061293 
1254	 0.246470104674041 
1255	 0.246479225058384 
1256	 0.2464778318431 
1257	 0.246459254816412 
1258	 0.246459758661596 
1259	 0.246457294108442 
1260	 0.246461361847366 
1261	 0.246486985071133 
1262	 0.246499815645997 
1263	 0.246510996515557 
1264	 0.246513847383398 
1265	 0.246507805203228 
1266	 0.246503411502428 
1267	 0.246497648642481 
1268	 0.246479550278285 
1269	 0.246468075962201 
1270	 0.246459093374109 
1271	 0.246449642354967 
1272	 0.246433775921326 
1273	 0.246433166937805 
1274	 0.246449212588625 
1275	 0.246446256429625 
1276	 0.246430946128702 
1277	 0.246436983070175 
1278	 0.246442619301177 
1279	 0.246450888277762 
1280	 0.246484355200663 
1281	 0.246505095912437 
1282	 0.246513958047784 
1283	 0.24652722517692 
1284	 0.246546973308242 
1285	 0.246553577512581 
1286	 0.246580135006343 
1287	 0.246592257615404 
1288	 0.246630456399461 
1289	 0.246699721411027 
1290	 0.246730246765487 
1291	 0.246744547939388 
1292	 0.246783727351832 
1293	 0.246815840018424 
1294	 0.246853274970135 
1295	 0.246919088875509 
1296	 0.246968097557214 
1297	 0.246990686653303 
1298	 0.247033457984041 
1299	 0.247104441813061 
1300	 0.247146239736894 
1301	 0.247177545327037 
1302	 0.247209793819111 
1303	 0.247229341727286 
1304	 0.247240662010401 
1305	 0.247275332515433 
1306	 0.247299574047132 
1307	 0.247294986354512 
1308	 0.247307621347361 
1309	 0.247318230483487 
1310	 0.247322713773512 
1311	 0.247323014439015 
1312	 0.247335743589138 
1313	 0.247326555125738 
1314	 0.24729956641354 
1315	 0.247272559762562 
1316	 0.247243070507679 
1317	 0.247203502113177 
1318	 0.247147659262698 
1319	 0.247099563232985 
1320	 0.247048127863911 
1321	 0.247000496392049 
1322	 0.2469565617166 
1323	 0.24691286288485 
1324	 0.246883720849642 
1325	 0.246817682628678 
1326	 0.246735566867512 
1327	 0.246671300257244 
1328	 0.246603014105854 
1329	 0.246545497269228 
1330	 0.246484138729064 
1331	 0.246438624286976 
1332	 0.24637021570028 
1333	 0.246286784216364 
1334	 0.246212331014714 
1335	 0.2461308322558 
1336	 0.246063850407782 
1337	 0.246008471620211 
1338	 0.245940207200109 
1339	 0.245877626987151 
1340	 0.245808582196424 
1341	 0.245724709751838 
1342	 0.245646966675421 
1343	 0.245570757613089 
1344	 0.245488944005224 
1345	 0.245424531854415 
1346	 0.245390270463981 
1347	 0.245334329560601 
1348	 0.245273195276821 
1349	 0.245221236152765 
1350	 0.245148256585142 
1351	 0.245095122329492 
1352	 0.245070045515103 
1353	 0.245018891685923 
1354	 0.244961368489888 
1355	 0.244893620111288 
1356	 0.244804564192554 
1357	 0.244733759763547 
1358	 0.2446783367848 
1359	 0.244590721296522 
1360	 0.244493115938315 
1361	 0.244403442724651 
1362	 0.244279909279245 
1363	 0.24418534625253 
1364	 0.244138474037307 
1365	 0.244048644915854 
1366	 0.243935749120901 
1367	 0.243833832557211 
1368	 0.243729585269881 
1369	 0.243618462561502 
1370	 0.243520827469509 
1371	 0.243407388244271 
1372	 0.243261343771029 
1373	 0.243106226724259 
1374	 0.242950773397819 
1375	 0.242790380517148 
1376	 0.242619176561208 
1377	 0.242453512781072 
1378	 0.242246612812387 
1379	 0.242004324033528 
1380	 0.241770582463894 
1381	 0.241528160658642 
1382	 0.241264269009856 
1383	 0.241001066997322 
1384	 0.240710560305792 
1385	 0.24039837846957 
1386	 0.240063106392914 
1387	 0.239717110532149 
1388	 0.239345017489224 
1389	 0.23894968211981 
1390	 0.238517175121038 
1391	 0.23807631037048 
1392	 0.237606031877533 
1393	 0.237112296621446 
1394	 0.236597216228574 
1395	 0.236046879468236 
1396	 0.235481935705241 
1397	 0.234907168729312 
1398	 0.234312504285292 
1399	 0.233710390248874 
1400	 0.233098575489882 
1401	 0.232476944158583 
1402	 0.23183586948105 
1403	 0.231202098661111 
1404	 0.230555277946785 
1405	 0.229934833291702 
1406	 0.229309104402605 
1407	 0.228715488701322 
1408	 0.228132518424379 
1409	 0.227584235239408 
1410	 0.227070371183103 
1411	 0.226574711590517 
1412	 0.226091526091838 
1413	 0.225659549879627 
1414	 0.225259733176486 
1415	 0.224873613230713 
1416	 0.224526469483365 
1417	 0.224202418012246 
1418	 0.223905243747111 
1419	 0.223617423471491 
1420	 0.223353221786532 
1421	 0.223117492817263 
1422	 0.222859127111291 
1423	 0.2226060675665 
1424	 0.222372972357108 
1425	 0.222145865060121 
1426	 0.221933548557997 
1427	 0.221743970721891 
1428	 0.221553899791218 
1429	 0.221361039572276 
1430	 0.221196204346624 
1431	 0.221045202181712 
1432	 0.220909040322016 
1433	 0.220802070696998 
1434	 0.22068865581334 
1435	 0.220582479951773 
1436	 0.220481581470943 
1437	 0.220375674000919 
1438	 0.220289522662859 
1439	 0.220215708591396 
1440	 0.220151772148279 
1441	 0.22010787118428 
1442	 0.220054968615932 
1443	 0.219982505291012 
1444	 0.219913073064144 
1445	 0.219837601836107 
1446	 0.219767501014875 
1447	 0.219719592004409 
1448	 0.219662400017304 
1449	 0.219583926206142 
1450	 0.219505093789179 
1451	 0.219433919595385 
1452	 0.219359247729578 
1453	 0.219285585049681 
1454	 0.219226853359875 
1455	 0.219149707545407 
1456	 0.219054990637635 
1457	 0.218966429818136 
1458	 0.218874897745783 
1459	 0.218786318260758 
1460	 0.218692576751701 
1461	 0.218611352926184 
1462	 0.218521406263059 
1463	 0.21846514028495 
1464	 0.218419446928963 
1465	 0.218406171222953 
1466	 0.218411028508896 
1467	 0.21845796955755 
1468	 0.21853884883032 
1469	 0.218644844479405 
1470	 0.218788779114334 
1471	 0.218959703008999 
1472	 0.219155695354382 
1473	 0.21936294569238 
1474	 0.219575680778298 
1475	 0.21979707005267 
1476	 0.22000112760209 
1477	 0.220206733609449 
1478	 0.220408314083247 
1479	 0.220601121541928 
1480	 0.220788982005395 
1481	 0.220965981080229 
1482	 0.221146369754242 
1483	 0.221331478666076 
1484	 0.221494231359797 
1485	 0.221644370261749 
1486	 0.221801650995462 
1487	 0.221942252521041 
1488	 0.222098988592182 
1489	 0.222280329749806 
1490	 0.22242890869262 
1491	 0.222562232821487 
1492	 0.222702261061608 
1493	 0.222818560977186 
1494	 0.222957350670529 
1495	 0.22312188654827 
1496	 0.22326197002125 
1497	 0.223404508790774 
1498	 0.223537974074206 
1499	 0.223647988765776 
1500	 0.223768347894323 
1501	 0.223893374774981 
1502	 0.224010847727352 
1503	 0.224122368533741 
1504	 0.224242830645924 
1505	 0.224358675799284 
1506	 0.224453637269742 
1507	 0.22454723552348 
1508	 0.22464731295518 
1509	 0.224738311007003 
1510	 0.224822550938646 
1511	 0.224920170349667 
1512	 0.225012262615736 
1513	 0.225098628376754 
1514	 0.225207003880892 
1515	 0.225301647352191 
1516	 0.225388933967853 
1517	 0.225484352970211 
1518	 0.22559074296251 
1519	 0.225669058566776 
1520	 0.225738551221234 
1521	 0.225803797645901 
1522	 0.225837770643291 
1523	 0.225909145887744 
1524	 0.225997164522628 
1525	 0.226089507569046 
1526	 0.226203416607358 
1527	 0.226298309227867 
1528	 0.226394770611808 
1529	 0.226478331107732 
1530	 0.226548035561921 
1531	 0.226620703633516 
1532	 0.226695859851559 
1533	 0.226752618023932 
1534	 0.226785750495761 
1535	 0.226846907659498 
1536	 0.226905123276756 
1537	 0.226972082918128 
1538	 0.227070674335752 
1539	 0.227148630096598 
1540	 0.227213603849835 
1541	 0.227284144754153 
1542	 0.227348893693605 
1543	 0.227421210554459 
1544	 0.22749996448046 
1545	 0.227574262642037 
1546	 0.227643560016114 
1547	 0.227732117609653 
1548	 0.22780800149263 
1549	 0.227877702612566 
1550	 0.227930077800783 
1551	 0.227968279332111 
1552	 0.228016668379701 
1553	 0.228065755266278 
1554	 0.228133698915798 
1555	 0.228196438361063 
1556	 0.228231137873556 
1557	 0.228264067855755 
1558	 0.228285098498695 
1559	 0.228301233591979 
1560	 0.228333881031486 
1561	 0.228377380125364 
1562	 0.228408532477565 
1563	 0.228447547662197 
1564	 0.228473842585359 
1565	 0.2284834030904 
1566	 0.228506147732406 
1567	 0.228534266782076 
1568	 0.228557500567782 
1569	 0.228588919662055 
1570	 0.228597929712016 
1571	 0.228580895493069 
1572	 0.228593758958081 
1573	 0.228610497051982 
1574	 0.228627532790661 
1575	 0.228660314806232 
1576	 0.228692200269046 
1577	 0.228714217313581 
1578	 0.228748353357224 
1579	 0.228809818481421 
1580	 0.228842656139551 
1581	 0.228863459484396 
1582	 0.228880670051616 
1583	 0.228900112498358 
1584	 0.228889439366009 
1585	 0.228845689682872 
1586	 0.228825827645807 
1587	 0.228783174883763 
1588	 0.228766508238664 
1589	 0.228785590755542 
1590	 0.22879268983751 
1591	 0.228790339920476 
1592	 0.228804601944803 
1593	 0.228831919735537 
1594	 0.228857415907978 
1595	 0.228905715229028 
1596	 0.228929260086106 
1597	 0.22894062516473 
1598	 0.228947913511558 
1599	 0.228935664665878 
1600	 0.228931418408216 
1601	 0.228926557456443 
1602	 0.228921851913706 
1603	 0.228922073944948 
1604	 0.228914763815369 
1605	 0.228902284175036 
1606	 0.228891450616077 
1607	 0.228884610898943 
1608	 0.228863760190469 
1609	 0.22882982567515 
1610	 0.228817745740369 
1611	 0.22878220252019 
1612	 0.228745837579251 
1613	 0.228742883722864 
1614	 0.228720803576995 
1615	 0.228707780855839 
1616	 0.228702001602648 
1617	 0.228659182696149 
1618	 0.228628672907928 
1619	 0.228623302376475 
1620	 0.228610599482365 
1621	 0.228606666805466 
1622	 0.228629439718599 
1623	 0.228620656097213 
1624	 0.228603348975439 
1625	 0.228564945345265 
1626	 0.228504986995922 
1627	 0.228460318942561 
1628	 0.228399618290203 
1629	 0.228356476687518 
1630	 0.22833199241533 
1631	 0.228295395267212 
1632	 0.228253544716389 
1633	 0.228215295297371 
1634	 0.228182334754416 
1635	 0.228140108910057 
1636	 0.228085949399038 
1637	 0.228054708184276 
1638	 0.228034348867517 
1639	 0.227998047245627 
1640	 0.227970737304383 
1641	 0.227933928572553 
1642	 0.227870357313894 
1643	 0.227838277331275 
1644	 0.227834806783727 
1645	 0.227798377886001 
1646	 0.227751406205426 
1647	 0.227717658873066 
1648	 0.2276774597223 
1649	 0.227630623548666 
1650	 0.227592955963322 
1651	 0.227550594184118 
1652	 0.227495525908605 
1653	 0.227436599835095 
1654	 0.227376255543779 
1655	 0.227328018143515 
1656	 0.227267827954451 
1657	 0.227223566745708 
1658	 0.227208668531 
1659	 0.227174438344565 
1660	 0.227131504603217 
1661	 0.227089029482542 
1662	 0.227050239793759 
1663	 0.226999485750142 
1664	 0.226930791001855 
1665	 0.226883003272099 
1666	 0.226838073670361 
1667	 0.226796116442671 
1668	 0.226779793802015 
1669	 0.226730858053938 
1670	 0.226661503807885 
1671	 0.226600857542412 
1672	 0.226522420096873 
1673	 0.226464254720872 
1674	 0.226430500639472 
1675	 0.226369291236328 
1676	 0.226292646683675 
1677	 0.226235520267274 
1678	 0.226170562610012 
1679	 0.226117097272411 
1680	 0.226101736193702 
1681	 0.2260419094171 
1682	 0.22594829461143 
1683	 0.225881056474135 
1684	 0.225804147007666 
1685	 0.22573984665741 
1686	 0.225703829071864 
1687	 0.225645156159119 
1688	 0.225572424063329 
1689	 0.225506831518464 
1690	 0.225435066228929 
1691	 0.225375090081391 
1692	 0.225327545413022 
1693	 0.225267998755087 
1694	 0.225218335842509 
1695	 0.225142877805079 
1696	 0.225042285407756 
1697	 0.224957097812128 
1698	 0.224860439150799 
1699	 0.224780680992884 
1700	 0.224703223688654 
1701	 0.224648771867674 
1702	 0.224622602054246 
1703	 0.224571223950887 
1704	 0.224542301218055 
1705	 0.224475327358537 
1706	 0.224365492107351 
1707	 0.224277161338083 
1708	 0.224183249951541 
1709	 0.224090803415397 
1710	 0.223996744553462 
1711	 0.223919736306758 
1712	 0.223853781028563 
1713	 0.223775404676738 
1714	 0.223701054048497 
1715	 0.223629655993923 
1716	 0.223544563575205 
1717	 0.22347587710896 
1718	 0.22343508932262 
1719	 0.223367958859835 
1720	 0.22329198597381 
1721	 0.22321013115036 
1722	 0.2231280176083 
1723	 0.223016651587978 
1724	 0.222884835845687 
1725	 0.222754055501784 
1726	 0.222596955661398 
1727	 0.222455539795686 
1728	 0.222315842076314 
1729	 0.222190914287112 
1730	 0.222063987799295 
1731	 0.221963910131722 
1732	 0.221900472342809 
1733	 0.221805357791013 
1734	 0.221717521599156 
1735	 0.221598664718459 
1736	 0.221449139781548 
1737	 0.221319169492999 
1738	 0.221174948883385 
1739	 0.221053459798736 
1740	 0.220958953132575 
1741	 0.220832261426484 
1742	 0.220699547561593 
1743	 0.220567872028188 
1744	 0.22041746538447 
1745	 0.220277851935041 
1746	 0.220155470500314 
1747	 0.219991597201499 
1748	 0.219822285814998 
1749	 0.219651219462209 
1750	 0.21951137381755 
1751	 0.219416170504726 
1752	 0.219325136216009 
1753	 0.219257336803742 
1754	 0.219184310920581 
1755	 0.219061440452169 
1756	 0.218928491505268 
1757	 0.218776764195662 
1758	 0.21860631306398 
1759	 0.218460457695113 
1760	 0.218332238837926 
1761	 0.218196973086874 
1762	 0.218049995261297 
1763	 0.217911150156647 
1764	 0.217762251705745 
1765	 0.217614400473514 
1766	 0.217505347652088 
1767	 0.217389435003399 
1768	 0.21727656893147 
1769	 0.217179302864228 
1770	 0.21705868338706 
1771	 0.216946894913832 
1772	 0.216841752576108 
1773	 0.216712471093701 
1774	 0.216576615393871 
1775	 0.216449453622571 
1776	 0.216320160066546 
1777	 0.216194599440892 
1778	 0.21609801454214 
1779	 0.216004476225054 
1780	 0.215897157118288 
1781	 0.215791054658467 
1782	 0.215678050887351 
1783	 0.215542176174235 
1784	 0.215427420299514 
1785	 0.215330242009432 
1786	 0.215241411189124 
1787	 0.21516535348001 
1788	 0.21508352400415 
1789	 0.215000448841234 
1790	 0.214935109843569 
1791	 0.214878511599802 
1792	 0.21481480061718 
1793	 0.21479107246988 
1794	 0.214708910659678 
1795	 0.214556537848021 
1796	 0.214473524341787 
1797	 0.214390653736699 
1798	 0.214319562914666 
1799	 0.214314216577393 
1800	 0.214249475593025 
1801	 0.207894220300188 
1802	 0.207824628211854 
1803	 0.20775413234006 
1804	 0.207690148664901 
1805	 0.20760333090334 
1806	 0.207546191450464 
1807	 0.207498476104303 
1808	 0.207449831370577 
1809	 0.207427422232556 
1810	 0.207390576324597 
1811	 0.207345757332107 
1812	 0.207291019008279 
1813	 0.207259979011556 
1814	 0.207193176696217 
1815	 0.207133601239369 
1816	 0.207094587505103 
1817	 0.207046546117572 
1818	 0.206993633504117 
1819	 0.206951102122995 
1820	 0.206924987296638 
1821	 0.20686689471654 
1822	 0.206801529795156 
1823	 0.206752174021959 
1824	 0.206671045071156 
1825	 0.206593028912593 
1826	 0.206525175877247 
1827	 0.206420605383801 
1828	 0.206304769355449 
1829	 0.206164835544036 
1830	 0.206012984084538 
1831	 0.205827460714546 
1832	 0.205694957752206 
1833	 0.205515512249644 
1834	 0.205375763566665 
1835	 0.205252386811744 
1836	 0.205039804408125 
1837	 0.204833779445762 
1838	 0.204638809069372 
1839	 0.204436931431266 
1840	 0.204223121823989 
1841	 0.204028059700434 
1842	 0.203814777920647 
1843	 0.203595363382515 
1844	 0.203401660241 
1845	 0.203213408260761 
1846	 0.203048198161564 
1847	 0.202881666529914 
1848	 0.202707905074658 
1849	 0.202544157820958 
1850	 0.202379152533729 
1851	 0.202217765314472 
1852	 0.202069584062518 
1853	 0.201900415457664 
1854	 0.201721808344632 
1855	 0.201547099728279 
1856	 0.201386057787194 
1857	 0.201242230767995 
1858	 0.201076314818815 
1859	 0.20091107540927 
1860	 0.200694530130993 
1861	 0.200433551508401 
1862	 0.200137687956511 
1863	 0.19986445096732 
1864	 0.199551836018564 
1865	 0.199244185694751 
1866	 0.198931233125344 
1867	 0.198557064514486 
1868	 0.198183718976665 
1869	 0.197794705441465 
1870	 0.197357230015227 
1871	 0.196859011907234 
1872	 0.196327149727189 
1873	 0.195722938088964 
1874	 0.195070293426699 
1875	 0.1943383848102 
1876	 0.193568470263568 
1877	 0.192775055624219 
1878	 0.191895731447463 
1879	 0.19096858313104 
1880	 0.189974175259937 
1881	 0.18890221635898 
1882	 0.187788628532797 
1883	 0.18661505720103 
1884	 0.185383434085717 
1885	 0.18411564320387 
1886	 0.182777520516858 
1887	 0.181367060883888 
1888	 0.179910601200164 
1889	 0.178392221189578 
1890	 0.176839572747213 
1891	 0.175285815146521 
1892	 0.173682086305652 
1893	 0.172101200675326 
1894	 0.170523009160127 
1895	 0.168940795428822 
1896	 0.167323443926418 
1897	 0.165737254832165 
1898	 0.164166588159304 
1899	 0.162613784624402 
1900	 0.161134837441625 
1901	 0.159708898830768 
1902	 0.158349751804824 
1903	 0.157054982042309 
1904	 0.155826455707434 
1905	 0.154659311413766 
1906	 0.153575377240342 
1907	 0.152552724140943 
1908	 0.151586293663126 
1909	 0.150713209062954 
1910	 0.149883328617725 
1911	 0.149108003533277 
1912	 0.148412086718791 
1913	 0.147745796793132 
1914	 0.147129711910598 
1915	 0.146549214985925 
1916	 0.146018143423137 
1917	 0.145495188461502 
1918	 0.145037831889486 
1919	 0.144629938477984 
1920	 0.144252685678667 
1921	 0.143937152915285 
1922	 0.143640900507993 
1923	 0.143348027058911 
1924	 0.143100438254725 
1925	 0.142893651898489 
1926	 0.142707170735289 
1927	 0.142547405297825 
1928	 0.14242041065698 
1929	 0.142324190587465 
1930	 0.142219538973206 
1931	 0.142146820953429 
1932	 0.142121008351909 
1933	 0.142099726226167 
1934	 0.142115910715253 
1935	 0.142144559166756 
1936	 0.142191575837173 
1937	 0.14225518607754 
1938	 0.142339924739569 
1939	 0.142436445669867 
1940	 0.142554287630479 
1941	 0.142684293876851 
1942	 0.142805970658843 
1943	 0.142963641338631 
1944	 0.143119729094729 
1945	 0.143280470729494 
1946	 0.143461507092831 
1947	 0.143660786692325 
1948	 0.143861091642487 
1949	 0.144086726490433 
1950	 0.144299319457114 
1951	 0.144502579819063 
1952	 0.144726167510398 
1953	 0.144958741545727 
1954	 0.145174339556908 
1955	 0.145396285378874 
1956	 0.145646541875371 
1957	 0.145901594438866 
1958	 0.146157438000907 
1959	 0.146427436990793 
1960	 0.146720640273221 
1961	 0.147007650601283 
1962	 0.147286745763763 
1963	 0.147591906415876 
1964	 0.147911921395332 
1965	 0.148246208302413 
1966	 0.148585665099708 
1967	 0.148925042409945 
1968	 0.149262693297748 
1969	 0.149600735918069 
1970	 0.149926807075198 
1971	 0.150244824499079 
1972	 0.150577270454845 
1973	 0.150902533696243 
1974	 0.151238538161064 
1975	 0.151595597083564 
1976	 0.151940251757014 
1977	 0.152278859199596 
1978	 0.152628270628633 
1979	 0.152990139691314 
1980	 0.153358855269151 
1981	 0.153721715757124 
1982	 0.154100275332038 
1983	 0.154454195606813 
1984	 0.154786076632812 
1985	 0.155132281688213 
1986	 0.155480540996027 
1987	 0.155817025144137 
1988	 0.156156175205452 
1989	 0.156487848748244 
1990	 0.156804711860433 
1991	 0.157120252364067 
1992	 0.157450857490778 
1993	 0.157794771090216 
1994	 0.158131446689438 
1995	 0.158471323234189 
1996	 0.158812760439232 
1997	 0.159156411983204 
1998	 0.159494800200459 
1999	 0.159837845809647 
2000	 0.160172231638833 
2001	 0.160498889551654 
2002	 0.16081609527718 
2003	 0.161139790793603 
2004	 0.161493559749272 
2005	 0.161831148024249 
2006	 0.162180228722511 
2007	 0.162512705531715 
2008	 0.162834576918711 
2009	 0.163145918861378 
2010	 0.163445919036442 
2011	 0.163755067374976 
2012	 0.164060257394826 
2013	 0.164363894594806 
2014	 0.164691318057505 
2015	 0.164970992062229 
2016	 0.165255546550898 
2017	 0.165550996028983 
2018	 0.16583691459724 
2019	 0.166121402376809 
2020	 0.166405216367126 
2021	 0.1666767403167 
2022	 0.166965571098061 
2023	 0.167273257627817 
2024	 0.16755940299889 
2025	 0.167854054112694 
2026	 0.168126962434815 
2027	 0.168361126735301 
2028	 0.168615434032386 
2029	 0.168882057123605 
2030	 0.169159239746864 
2031	 0.169411527156258 
2032	 0.169676666417267 
2033	 0.169917722484201 
2034	 0.170117353832518 
2035	 0.170343545341012 
2036	 0.170586837769009 
2037	 0.17080931963248 
2038	 0.17103013895859 
2039	 0.17124061044502 
2040	 0.17143861569013 
2041	 0.171627985099948 
2042	 0.171804678042813 
2043	 0.171986061850036 
2044	 0.172164416482917 
2045	 0.172328729368976 
2046	 0.172511108791021 
2047	 0.172715160533182 
2048	 0.172892148552228 
2049	 0.173049283422378 
2050	 0.173232301108875 
2051	 0.17341497503099 
2052	 0.173595555873504 
2053	 0.173809601650846 
2054	 0.173999006084699 
2055	 0.17416334014043 
2056	 0.174330248848022 
2057	 0.174493155090147 
2058	 0.174648230158588 
2059	 0.17480885185962 
2060	 0.17497364759888 
2061	 0.175125837663945 
2062	 0.175263574571239 
2063	 0.175420799602765 
2064	 0.175583062229965 
2065	 0.175738526267652 
2066	 0.175916639464171 
2067	 0.176072509665708 
2068	 0.176207456730537 
2069	 0.176340153520403 
2070	 0.176469844607161 
2071	 0.176591844471643 
2072	 0.176714926488466 
2073	 0.176824331405021 
2074	 0.176957090732079 
2075	 0.177105894992368 
2076	 0.17724082382616 
2077	 0.177386574437021 
2078	 0.177521701742382 
2079	 0.177613998519112 
2080	 0.177758299056462 
2081	 0.17795847185436 
2082	 0.178115644003463 
2083	 0.178282549326532 
2084	 0.178438421013731 
2085	 0.178571448303105 
2086	 0.178651884200105 
2087	 0.178773030620252 
2088	 0.178908304419805 
2089	 0.179034826143015 
2090	 0.179161897755412 
2091	 0.179289926605036 
2092	 0.179418308184659 
2093	 0.179541555550179 
2094	 0.179672089618325 
2095	 0.179788778838196 
2096	 0.179884546329392 
2097	 0.17999538958871 
2098	 0.180114697766592 
2099	 0.180208854447928 
2100	 0.180342532097644 
2101	 0.180504364007222 
2102	 0.180641448969419 
2103	 0.180788847088918 
2104	 0.180924254965908 
2105	 0.181043592305853 
2106	 0.181165378664303 
2107	 0.18129418100008 
2108	 0.181409919123957 
2109	 0.181504390995659 
2110	 0.181614465580733 
2111	 0.181722720689934 
2112	 0.181836040802665 
2113	 0.181950546702788 
2114	 0.182085866387707 
2115	 0.182209853077498 
2116	 0.182337353463366 
2117	 0.182459011752877 
2118	 0.182583877644246 
2119	 0.182691475886683 
2120	 0.182782893268772 
2121	 0.182885691342068 
2122	 0.182982860112232 
2123	 0.183083857398351 
2124	 0.183193673390488 
2125	 0.183298852079914 
2126	 0.183414051187669 
2127	 0.183502882184396 
2128	 0.183585412554778 
2129	 0.183653629158238 
2130	 0.183676793919907 
2131	 0.183727772254455 
2132	 0.183773290311276 
2133	 0.183832172657582 
2134	 0.183850147300966 
2135	 0.183849624635505 
2136	 0.183856010981918 
2137	 0.183831854952847 
2138	 0.183826723170802 
2139	 0.183854864349838 
2140	 0.18384575102138 
2141	 0.183818927102799 
2142	 0.183784788008326 
2143	 0.183738831160443 
2144	 0.183677742252158 
2145	 0.183602431343174 
2146	 0.183519713867149 
2147	 0.183424723971259 
2148	 0.183309203644122 
2149	 0.18320846831589 
2150	 0.183104661606723 
2151	 0.183008105832765 
2152	 0.18292622844914 
2153	 0.1828206137581 
2154	 0.182715561667328 
2155	 0.182588122927226 
2156	 0.182429795339167 
2157	 0.182287840160461 
2158	 0.182146118516379 
2159	 0.181994433942523 
2160	 0.181851452045165 
2161	 0.181689275061071 
2162	 0.181504457164978 
2163	 0.18132138576565 
2164	 0.18114649120866 
2165	 0.18093621751997 
2166	 0.180734915508417 
2167	 0.180522067788451 
2168	 0.180327773264983 
2169	 0.180131686078959 
2170	 0.179947055443266 
2171	 0.179787737429064 
2172	 0.179603172932482 
2173	 0.179410688475857 
2174	 0.179217585522197 
2175	 0.179014927708118 
2176	 0.178811872469092 
2177	 0.178614810337673 
2178	 0.178403444537124 
2179	 0.178174000454915 
2180	 0.177955186581166 
2181	 0.177726303987043 
2182	 0.177508652188536 
2183	 0.177307165092709 
2184	 0.177106251979935 
2185	 0.176885421174922 
2186	 0.176654171146134 
2187	 0.176435477396778 
2188	 0.176192636923211 
2189	 0.175989703323942 
2190	 0.175830986641437 
2191	 0.17563565720869 
2192	 0.175424958423879 
2193	 0.175240970865436 
2194	 0.175046135086583 
2195	 0.174872649858226 
2196	 0.174737225756023 
2197	 0.174594574374558 
2198	 0.174444498688845 
2199	 0.17431001040132 
2200	 0.174201743086921 
2201	 0.174078059600156 
2202	 0.173943906179228 
2203	 0.173824727037451 
2204	 0.173718787333542 
2205	 0.173612203805364 
2206	 0.173516781745209 
2207	 0.173450164135482 
2208	 0.173367383732551 
2209	 0.17326088843104 
2210	 0.173198951567582 
2211	 0.173170413975277 
2212	 0.173116676129001 
2213	 0.173085346949442 
2214	 0.173029031775497 
2215	 0.172940451338041 
2216	 0.172868808185525 
2217	 0.172768383873844 
2218	 0.172725143065847 
2219	 0.17273795977944 
2220	 0.172713932898738 
2221	 0.172706874523734 
2222	 0.172706643368661 
2223	 0.172634241548595 
2224	 0.172579695658068 
2225	 0.172539605987074 
2226	 0.172506416947383 
2227	 0.17248041368439 
2228	 0.172467051175208 
2229	 0.172447944574332 
2230	 0.172443564648146 
2231	 0.172417128745904 
2232	 0.172385979991757 
2233	 0.17234583425971 
2234	 0.172297137302822 
2235	 0.172228166605517 
2236	 0.172141473932685 
2237	 0.172057135301601 
2238	 0.171977098947025 
2239	 0.171853579376762 
2240	 0.17170048124222 
2241	 0.171557048113255 
2242	 0.171397745597353 
2243	 0.171213253803719 
2244	 0.171013784123192 
2245	 0.170830386184151 
2246	 0.170616871740173 
2247	 0.170379109148971 
2248	 0.170132254639263 
2249	 0.169907733671212 
2250	 0.169599663483668 
2251	 0.169209368008873 
2252	 0.168886912388401 
2253	 0.168547288101523 
2254	 0.168229145246577 
2255	 0.16793783916335 
2256	 0.167662020021265 
2257	 0.167373799216842 
2258	 0.167134323260277 
2259	 0.166916450107401 
2260	 0.166753838348401 
2261	 0.166626370628769 
2262	 0.166540327855996 
2263	 0.166526765755507 
2264	 0.166523786222791 
2265	 0.166575883941226 
2266	 0.166604256809295 
2267	 0.166635044215067 
2268	 0.166678824985132 
2269	 0.166713115452179 
2270	 0.166756383946049 
2271	 0.166848480276928 
2272	 0.166977401015706 
2273	 0.167090864555421 
2274	 0.167232613405488 
2275	 0.16739098426411 
2276	 0.167560126477542 
2277	 0.167736416576987 
2278	 0.167943048661301 
2279	 0.16814336026784 
2280	 0.168345774008993 
2281	 0.168542393228897 
2282	 0.168752924475257 
2283	 0.168945924182128 
2284	 0.169144181319716 
2285	 0.169296325589888 
2286	 0.169429650602224 
2287	 0.169543221073941 
2288	 0.169610088814642 
2289	 0.169673972805606 
2290	 0.169732530659751 
2291	 0.169771628423228 
2292	 0.169772810615342 
2293	 0.169789809839496 
2294	 0.16979854270845 
2295	 0.169812063329237 
2296	 0.169826172155896 
2297	 0.169844225793971 
2298	 0.169885032439289 
2299	 0.169946620042379 
2300	 0.169996134104748 
2301	 0.170055875259198 
2302	 0.170072389960015 
2303	 0.170087141300313 
2304	 0.170090386664116 
2305	 0.170062695940694 
2306	 0.170056427512844 
2307	 0.170036334168067 
2308	 0.170028635596556 
2309	 0.170027575445568 
2310	 0.170049529373962 
2311	 0.170090314071795 
2312	 0.170122455216569 
2313	 0.170192092635869 
2314	 0.170222974732413 
2315	 0.170239875648651 
2316	 0.170220869025174 
2317	 0.170182467113914 
2318	 0.170107443212932 
2319	 0.169946922152787 
2320	 0.169859884176794 
2321	 0.169773371080465 
2322	 0.169708669266644 
2323	 0.169714807203591 
2324	 0.169686312268112 
2325	 0.169658752400698 
2326	 0.16960667001686 
2327	 0.16955511878045 
2328	 0.169438110289615 
2329	 0.169323572293152 
2330	 0.169261277756184 
2331	 0.169191112252405 
2332	 0.169150004992279 
2333	 0.169136489898906 
2334	 0.169048314834522 
2335	 0.168882494537139 
2336	 0.168748461956088 
2337	 0.168675033826812 
2338	 0.168597696962287 
2339	 0.168623933102288 
2340	 0.168642791245738 
2341	 0.168492299466939 
2342	 0.168353018325958 
2343	 0.168200652224109 
2344	 0.168026088754901 
2345	 0.167894864718474 
2346	 0.167828176733865 
2347	 0.167681830695471 
2348	 0.16751856946462 
2349	 0.167334991382183 
2350	 0.167076779005655 
2351	 0.16690727626871 
2352	 0.166783117639401 
2353	 0.166633454660461 
2354	 0.166520871180184 
2355	 0.166368441113326 
2356	 0.166192433704952 
2357	 0.16599478074082 
2358	 0.165763573213311 
2359	 0.165558405988032 
2360	 0.165306453956461 
2361	 0.165119197434766 
2362	 0.165035039863663 
2363	 0.164854329596706 
2364	 0.164671276391677 
2365	 0.164458696180666 
2366	 0.164143723504156 
2367	 0.16388877149381 
2368	 0.163645264131648 
2369	 0.163403855760486 
2370	 0.163167077803972 
2371	 0.16297069921935 
2372	 0.162756834295699 
2373	 0.162526809546585 
2374	 0.162315584091588 
2375	 0.162126224141947 
2376	 0.161869892570416 
2377	 0.161593981282473 
2378	 0.161310816803845 
2379	 0.160930456243387 
2380	 0.160596591297933 
2381	 0.160347857003202 
2382	 0.160057612631147 
2383	 0.15974747970576 
2384	 0.15937249206644 
2385	 0.159025302841388 
2386	 0.158777882094858 
2387	 0.158579816680507 
2388	 0.15843716899057 
2389	 0.158190683995817 
2390	 0.15789658050261 
2391	 0.157602029664533 
2392	 0.157304942915932 
2393	 0.15708214550898 
2394	 0.156790388027382 
2395	 0.156444238171766 
2396	 0.156160349179789 
2397	 0.15585534291713 
2398	 0.155497809180727 
2399	 0.155210895778244 
2400	 0.154904169507595 
2401	 0.154575072796157 
2402	 0.154370269990365 
2403	 0.154094887962146 
2404	 0.153817772344268 
2405	 0.153609179346726 
2406	 0.153357955375003 
2407	 0.153147614315635 
2408	 0.152809782144699 
2409	 0.152453697845544 
2410	 0.152161088808852 
2411	 0.151875230754651 
2412	 0.151745523636181 
2413	 0.151586117381205 
2414	 0.151349502391201 
2415	 0.15111531823319 
2416	 0.150879216057419 
2417	 0.150618889725437 
2418	 0.150337943986857 
2419	 0.150030699234425 
2420	 0.149784429454077 
2421	 0.149529246226981 
2422	 0.149297453724014 
2423	 0.149151029599001 
2424	 0.148965242244201 
2425	 0.148739404942367 
2426	 0.148496560250673 
2427	 0.148294127526583 
2428	 0.147961504517062 
2429	 0.147534247140744 
2430	 0.147132750611053 
2431	 0.146653166473478 
2432	 0.146323811710273 
2433	 0.146069230989504 
2434	 0.145768900376273 
2435	 0.145541423448552 
2436	 0.145188975690289 
2437	 0.144681739496594 
2438	 0.144354472855322 
2439	 0.144110936824759 
2440	 0.143819552737958 
2441	 0.143632813063778 
2442	 0.143322716015004 
2443	 0.142863907739416 
2444	 0.142503143082569 
2445	 0.142161156065791 
2446	 0.141845312733087 
2447	 0.141616634476196 
2448	 0.141258059402801 
2449	 0.140864110966815 
2450	 0.140412799865642 
2451	 0.139764640490762 
2452	 0.139403479843257 
2453	 0.139118187377073 
2454	 0.138861066596945 
2455	 0.138879716011433 
2456	 0.138687310477405 
2457	 0.138354767619725 
2458	 0.138090804588417 
2459	 0.137839989042007 
2460	 0.137522020872013 
2461	 0.137133217423722 
2462	 0.136871530819602 
2463	 0.136639419279305 
2464	 0.136345780563052 
2465	 0.136118231561214 
2466	 0.135904186530571 
2467	 0.13565328152076 
2468	 0.135364178398502 
2469	 0.13507535560079 
2470	 0.13485050160042 
2471	 0.134500650309961 
2472	 0.134239734911681 
2473	 0.134131317933427 
2474	 0.133687956357883 
2475	 0.133214974818322 
2476	 0.132971633131549 
2477	 0.132731651375833 
2478	 0.132546012626373 
2479	 0.132515660720058 
2480	 0.132332392246208 
2481	 0.131919081788206 
2482	 0.13169445214956 
2483	 0.131414984812475 
2484	 0.131011589675127 
2485	 0.130677173609941 
2486	 0.130249476091387 
2487	 0.13000935523964 
2488	 0.129981917777729 
2489	 0.129847749925193 
2490	 0.12971695647321 
2491	 0.129444786064631 
2492	 0.128957029307416 
2493	 0.128685017406154 
2494	 0.128701218319064 
2495	 0.128497511460873 
2496	 0.128109518012357 
2497	 0.127866727337386 
2498	 0.127405440978003 
2499	 0.126961831678009 
2500	 0.126927783144243 
