Wavelength	LMW_1900006.asd
350	 5.29090444806765E-02 
351	 5.61219095468199E-02 
352	 4.80914156855839E-02 
353	 3.37654192782156E-02 
354	 4.62982497237578E-02 
355	 5.45033120362264E-02 
356	 5.12223869921842E-02 
357	 4.10510383805914E-02 
358	 4.60801039508419E-02 
359	 4.60696967529715E-02 
360	 4.23365346556345E-02 
361	 4.85989426025774E-02 
362	 4.62306757045266E-02 
363	 4.42054831091709E-02 
364	 4.66720352337281E-02 
365	 4.49664799334101E-02 
366	 4.46194226760732E-02 
367	 4.55771832735272E-02 
368	 4.64786457157697E-02 
369	 4.68797878259985E-02 
370	 4.98396861354322E-02 
371	 5.23320620928571E-02 
372	 0.048503320921845 
373	 4.98115768219406E-02 
374	 5.18873993940605E-02 
375	 5.18100535773583E-02 
376	 5.30442660593472E-02 
377	 4.99122438570599E-02 
378	 4.79479816733827E-02 
379	 5.26063775909111E-02 
380	 5.56851609782715E-02 
381	 5.13473686370364E-02 
382	 4.63262834936907E-02 
383	 5.45578570348142E-02 
384	 5.65014329873805E-02 
385	 5.42948528207215E-02 
386	 5.28300736113753E-02 
387	 5.61792496451237E-02 
388	 5.75438094515386E-02 
389	 5.77285776749032E-02 
390	 5.91425469988243E-02 
391	 5.92733215143356E-02 
392	 5.90634104167735E-02 
393	 5.94110454860409E-02 
394	 6.08478349929792E-02 
395	 6.08127030894131E-02 
396	 6.03357006487859E-02 
397	 6.08501671429055E-02 
398	 0.063805359894202 
399	 6.38016777062716E-02 
400	 6.26420416337044E-02 
401	 0.064035888671035 
402	 6.59102041314031E-02 
403	 6.66787175797506E-02 
404	 6.61532154011932E-02 
405	 6.54927603418683E-02 
406	 6.55157795086439E-02 
407	 0.066451369384561 
408	 6.75505353175647E-02 
409	 6.57763870842864E-02 
410	 6.54545279790257E-02 
411	 6.71591817148914E-02 
412	 6.93038097539408E-02 
413	 6.92296782646575E-02 
414	 6.83042338275743E-02 
415	 6.78461591115741E-02 
416	 6.85871367473777E-02 
417	 6.91675056566504E-02 
418	 6.96538175016214E-02 
419	 7.02492202718717E-02 
420	 7.03648682932036E-02 
421	 7.00612282163442E-02 
422	 7.00940609183157E-02 
423	 7.13401987467785E-02 
424	 7.09533033363297E-02 
425	 7.07373020666392E-02 
426	 7.15094328218763E-02 
427	 7.11788941505776E-02 
428	 7.14356935599946E-02 
429	 7.19184166834161E-02 
430	 7.19724125399804E-02 
431	 7.30059381491169E-02 
432	 7.32728679827083E-02 
433	 7.27437058945394E-02 
434	 7.30861639113142E-02 
435	 7.36799610585265E-02 
436	 7.39464583853687E-02 
437	 0.073656073607492 
438	 7.33596467381792E-02 
439	 7.36608389297727E-02 
440	 0.074291243767866 
441	 0.074586020283017 
442	 7.47297374313274E-02 
443	 7.48231147352898E-02 
444	 7.50000594030571E-02 
445	 7.54639223862767E-02 
446	 7.57472354398637E-02 
447	 0.075957202900003 
448	 7.62853887099296E-02 
449	 0.076483948641037 
450	 7.69236513638379E-02 
451	 7.73408305189013E-02 
452	 7.70037493831543E-02 
453	 7.68749660248061E-02 
454	 7.70581129955846E-02 
455	 7.74498558528969E-02 
456	 7.79127709061461E-02 
457	 7.80564673030868E-02 
458	 7.80008542713675E-02 
459	 7.81173641901463E-02 
460	 7.86305729237754E-02 
461	 7.88862810101446E-02 
462	 0.078699866313455 
463	 7.86257948114792E-02 
464	 7.90027369375743E-02 
465	 7.94785551925934E-02 
466	 7.96480743271819E-02 
467	 7.97973306792849E-02 
468	 8.00856975521819E-02 
469	 8.03640810226056E-02 
470	 8.02721460656251E-02 
471	 8.01487492582362E-02 
472	 8.02588355656079E-02 
473	 8.05867518644806E-02 
474	 8.04534257590938E-02 
475	 8.07912713350472E-02 
476	 0.081238297888071 
477	 8.10701419498883E-02 
478	 8.14146267788758E-02 
479	 8.17541560829459E-02 
480	 8.18748835344713E-02 
481	 8.21827326460732E-02 
482	 8.22552299514048E-02 
483	 8.23986313279294E-02 
484	 8.28642189659054E-02 
485	 8.28675588029636E-02 
486	 8.27992127956963E-02 
487	 8.28328541021102E-02 
488	 8.29368393909431E-02 
489	 0.083200068238933 
490	 8.34557005832672E-02 
491	 8.35992043357562E-02 
492	 8.37859304717753E-02 
493	 8.39287744656498E-02 
494	 8.40073475050758E-02 
495	 0.084040038763907 
496	 8.40638793882316E-02 
497	 8.42421809421305E-02 
498	 8.45135025016096E-02 
499	 8.44648456354943E-02 
500	 8.46222471488987E-02 
501	 8.47921612818412E-02 
502	 8.47226096600256E-02 
503	 0.084881058444311 
504	 8.50479538846089E-02 
505	 8.51387697099939E-02 
506	 8.52145301983664E-02 
507	 8.52862510346437E-02 
508	 8.54282421213509E-02 
509	 8.56298226702441E-02 
510	 8.56308113169878E-02 
511	 8.55748269261285E-02 
512	 8.55975253452238E-02 
513	 8.57941735448562E-02 
514	 8.59428720517429E-02 
515	 8.59856995680954E-02 
516	 8.60100406324973E-02 
517	 8.63367692463374E-02 
518	 8.64132198173511E-02 
519	 8.63769093157063E-02 
520	 8.65157395441441E-02 
521	 8.66035557298747E-02 
522	 8.67007125653285E-02 
523	 8.68214092876969E-02 
524	 8.69167008549666E-02 
525	 8.69203091535195E-02 
526	 8.69613505379196E-02 
527	 0.087125866356623 
528	 8.72328341950924E-02 
529	 8.72957719061308E-02 
530	 0.087338728207291 
531	 8.73925072731982E-02 
532	 8.74562347372853E-02 
533	 8.75674091844725E-02 
534	 8.76983311819402E-02 
535	 8.76589845278111E-02 
536	 8.77102863257791E-02 
537	 0.087812655753892 
538	 8.78360080520598E-02 
539	 0.087912059398949 
540	 8.79850429300725E-02 
541	 8.80484768832054E-02 
542	 0.088179147358905 
543	 8.83570388542198E-02 
544	 8.84630852248895E-02 
545	 8.84333117472412E-02 
546	 8.85352471610761E-02 
547	 8.85679038198114E-02 
548	 8.85530800122927E-02 
549	 8.86938604977574E-02 
550	 8.87179745205354E-02 
551	 8.87197342677659E-02 
552	 8.88168931748724E-02 
553	 8.90380682201096E-02 
554	 8.90881957918917E-02 
555	 8.90619054918008E-02 
556	 8.92272188481288E-02 
557	 0.089351006629013 
558	 8.94470462819078E-02 
559	 8.95472748729558E-02 
560	 8.96706534145642E-02 
561	 8.97315268045436E-02 
562	 8.97815139576881E-02 
563	 8.98898334382241E-02 
564	 8.99355207659846E-02 
565	 8.99781974338384E-02 
566	 9.00157776192632E-02 
567	 8.99693053202512E-02 
568	 9.00856611809997E-02 
569	 9.02825428435997E-02 
570	 9.04247351688509E-02 
571	 9.04802858297898E-02 
572	 0.090599349249018 
573	 9.07792147789321E-02 
574	 9.09038057899156E-02 
575	 9.09095869870617E-02 
576	 9.09724224094569E-02 
577	 9.11381388629176E-02 
578	 9.10667758542291E-02 
579	 9.10593727477924E-02 
580	 9.10881849538407E-02 
581	 9.10179435227789E-02 
582	 9.09907996791194E-02 
583	 9.10243557100521E-02 
584	 9.11033720357462E-02 
585	 9.11831481517778E-02 
586	 9.13117895327717E-02 
587	 0.091421588933419 
588	 9.14586801653426E-02 
589	 9.15802933953636E-02 
590	 9.16835304419567E-02 
591	 9.17679098150233E-02 
592	 9.19266011212294E-02 
593	 9.20184207554854E-02 
594	 9.21199272285098E-02 
595	 9.22652115210843E-02 
596	 9.22511741836307E-02 
597	 9.22439399836087E-02 
598	 9.22624466388011E-02 
599	 9.22544662770593E-02 
600	 9.22950304173156E-02 
601	 9.23205249072698E-02 
602	 9.23043678574031E-02 
603	 9.23118245541559E-02 
604	 9.23390584082939E-02 
605	 9.23884497103517E-02 
606	 9.24512047967067E-02 
607	 9.24582317884979E-02 
608	 9.25038674188414E-02 
609	 9.26105256678549E-02 
610	 0.092708192421426 
611	 9.27571718060303E-02 
612	 9.27982456274718E-02 
613	 0.092861907182999 
614	 9.28677825256379E-02 
615	 9.28432762056032E-02 
616	 0.092846900117416 
617	 9.29442179178394E-02 
618	 9.30179965839656E-02 
619	 9.30396571023543E-02 
620	 9.30281710240841E-02 
621	 9.30695638672203E-02 
622	 9.31425711457236E-02 
623	 9.31824109454631E-02 
624	 9.31382619578621E-02 
625	 9.31929139692702E-02 
626	 9.32714757637239E-02 
627	 9.33129285412696E-02 
628	 9.33019691959001E-02 
629	 9.33614449519089E-02 
630	 9.34475888416399E-02 
631	 9.34846475359847E-02 
632	 9.34635985731092E-02 
633	 9.34874206063434E-02 
634	 9.35559855693293E-02 
635	 9.35878566799088E-02 
636	 0.093669554707935 
637	 9.37025208230864E-02 
638	 9.36480512250909E-02 
639	 9.36854171727316E-02 
640	 9.37460027042841E-02 
641	 9.38144457002186E-02 
642	 9.38886229145944E-02 
643	 9.39067942521025E-02 
644	 9.39418506105548E-02 
645	 9.40106508681398E-02 
646	 9.40301331675955E-02 
647	 9.40617330100699E-02 
648	 9.41075677722494E-02 
649	 9.41501879897189E-02 
650	 9.41638245847791E-02 
651	 9.41847069175103E-02 
652	 9.42236918413036E-02 
653	 9.42693756360289E-02 
654	 9.43648419522769E-02 
655	 9.44118106463809E-02 
656	 9.43747749863595E-02 
657	 9.44335199166244E-02 
658	 9.45231266263218E-02 
659	 9.45942041633684E-02 
660	 0.094612681528421 
661	 9.46322167995764E-02 
662	 9.46736138725327E-02 
663	 9.47418650367575E-02 
664	 9.48263601356044E-02 
665	 9.48796895827747E-02 
666	 9.49010522151347E-02 
667	 9.49159363522002E-02 
668	 9.49886634216065E-02 
669	 0.095046721717902 
670	 9.50666665642356E-02 
671	 9.50712445464354E-02 
672	 9.50808611284665E-02 
673	 9.51175387073849E-02 
674	 9.51876118645837E-02 
675	 9.52719495243958E-02 
676	 9.53097192644276E-02 
677	 9.53274987063182E-02 
678	 9.53774641073512E-02 
679	 9.53765078908282E-02 
680	 9.53860474160449E-02 
681	 9.54299546423644E-02 
682	 9.54679053662521E-02 
683	 9.55118562995031E-02 
684	 0.095562678270386 
685	 9.56149242895749E-02 
686	 9.56483826246568E-02 
687	 9.56865306027594E-02 
688	 9.57222356201781E-02 
689	 9.57304238881456E-02 
690	 9.57533174834534E-02 
691	 9.57703594818295E-02 
692	 9.57848264154863E-02 
693	 9.58757995053752E-02 
694	 9.58942162911022E-02 
695	 9.58767691298216E-02 
696	 9.59120559776213E-02 
697	 9.59600730498013E-02 
698	 9.59957782667748E-02 
699	 9.60219439491724E-02 
700	 9.60677996192428E-02 
701	 9.60669620095985E-02 
702	 0.096062352964857 
703	 9.60902655365267E-02 
704	 9.61032503099447E-02 
705	 9.60923822710597E-02 
706	 9.60942561191184E-02 
707	 9.61520229233581E-02 
708	 9.61395555177394E-02 
709	 9.61751644493979E-02 
710	 9.62732559658944E-02 
711	 9.62624966242498E-02 
712	 9.62828860502118E-02 
713	 9.62919403470935E-02 
714	 9.62496951500664E-02 
715	 9.63230823657301E-02 
716	 9.63827558325133E-02 
717	 9.63872785645225E-02 
718	 9.63682019533402E-02 
719	 9.63545963769886E-02 
720	 9.63425175490951E-02 
721	 9.63380824904125E-02 
722	 9.63836267640978E-02 
723	 9.63888860547467E-02 
724	 9.63831016274965E-02 
725	 9.64136680408392E-02 
726	 9.63876610486313E-02 
727	 9.63978698811217E-02 
728	 9.64433323779438E-02 
729	 9.64335762623663E-02 
730	 9.64345604366553E-02 
731	 9.64213763465631E-02 
732	 9.63890376170972E-02 
733	 9.64228955464646E-02 
734	 9.64314364903275E-02 
735	 9.64084917881511E-02 
736	 9.63857529793921E-02 
737	 9.63880244353812E-02 
738	 9.63855000940617E-02 
739	 0.096374106360574 
740	 9.63815498114995E-02 
741	 0.096389767829084 
742	 9.63761875653962E-02 
743	 9.63382446745059E-02 
744	 9.63303072029766E-02 
745	 9.63004835598267E-02 
746	 9.62837745188884E-02 
747	 9.63305347186741E-02 
748	 9.62928428489092E-02 
749	 9.62495971640971E-02 
750	 9.62393404332643E-02 
751	 9.62268078234894E-02 
752	 9.62007807715976E-02 
753	 9.61675617731083E-02 
754	 9.61384076111085E-02 
755	 9.61210795127837E-02 
756	 9.61253452056067E-02 
757	 9.61358614660154E-02 
758	 9.61275364369038E-02 
759	 9.61132477313487E-02 
760	 9.60812789763633E-02 
761	 9.60418838418173E-02 
762	 9.60336253425545E-02 
763	 9.60216802875666E-02 
764	 9.60140600260265E-02 
765	 9.60164317643879E-02 
766	 9.59954098634027E-02 
767	 0.09599478335239 
768	 9.60027300484209E-02 
769	 9.59844239151769E-02 
770	 9.59637554081332E-02 
771	 0.09593573754342 
772	 0.095904742876256 
773	 0.095888622449305 
774	 9.59003482399383E-02 
775	 9.59020693717559E-02 
776	 9.58680666369748E-02 
777	 9.58370769946399E-02 
778	 9.57948283275033E-02 
779	 9.57685410257643E-02 
780	 9.57863887714671E-02 
781	 0.095762307980718 
782	 9.57558772040965E-02 
783	 9.57569763201058E-02 
784	 9.56788019513274E-02 
785	 9.56717183799315E-02 
786	 9.56754010743756E-02 
787	 9.56389839413242E-02 
788	 0.095636698814913 
789	 0.095633853886282 
790	 9.56066607381094E-02 
791	 9.55521862958442E-02 
792	 9.55552008225451E-02 
793	 9.55425853312714E-02 
794	 9.55059437092575E-02 
795	 9.54940498307357E-02 
796	 9.54335283560222E-02 
797	 0.095397089264697 
798	 9.54203327188186E-02 
799	 9.54324740644244E-02 
800	 9.54245042161723E-02 
801	 9.53995082988075E-02 
802	 9.53666953282469E-02 
803	 0.095326563488626 
804	 9.53130725032383E-02 
805	 9.53267013810444E-02 
806	 9.53414574104807E-02 
807	 9.53205412690804E-02 
808	 9.52759930588903E-02 
809	 9.52229651089988E-02 
810	 9.51723139065411E-02 
811	 9.52002111307477E-02 
812	 9.52216804014634E-02 
813	 9.51758281332386E-02 
814	 9.51719249340675E-02 
815	 9.51437610148362E-02 
816	 9.50894843509575E-02 
817	 9.50433587186818E-02 
818	 9.50808154521006E-02 
819	 9.51035142308117E-02 
820	 9.50555554404384E-02 
821	 0.094944218944147 
822	 9.49383993033204E-02 
823	 9.49744270596591E-02 
824	 9.49846919208093E-02 
825	 9.49589169879249E-02 
826	 9.49676033594544E-02 
827	 9.49798372692545E-02 
828	 9.49539200236924E-02 
829	 9.49069689872949E-02 
830	 9.48742874205348E-02 
831	 9.48644272117244E-02 
832	 9.48674481299295E-02 
833	 9.48605902894425E-02 
834	 9.48823245251515E-02 
835	 9.49026267457968E-02 
836	 9.48368837986102E-02 
837	 9.48037175694376E-02 
838	 9.48177593608378E-02 
839	 9.48325151727767E-02 
840	 9.47300360102917E-02 
841	 9.46850713713908E-02 
842	 9.47079636689056E-02 
843	 9.47484475112626E-02 
844	 9.47241526519732E-02 
845	 9.47394922064258E-02 
846	 9.47682856890743E-02 
847	 9.47406682210545E-02 
848	 9.47207759024637E-02 
849	 0.094697710737727 
850	 0.094672583755977 
851	 9.46587416443218E-02 
852	 9.46500450499436E-02 
853	 9.46579927240939E-02 
854	 9.46701914753448E-02 
855	 9.46392561596591E-02 
856	 0.094618571268283 
857	 0.094611218118734 
858	 9.46075774225448E-02 
859	 9.45974539024383E-02 
860	 9.45959700027678E-02 
861	 9.46037839983062E-02 
862	 9.46070652752024E-02 
863	 9.45537130650852E-02 
864	 9.45266509381075E-02 
865	 9.45535302686175E-02 
866	 9.46084970298892E-02 
867	 9.45949833352316E-02 
868	 9.45512914337725E-02 
869	 9.45133311882563E-02 
870	 9.45002439640966E-02 
871	 9.45523046221395E-02 
872	 9.45683287102116E-02 
873	 9.45132131022813E-02 
874	 0.094493062106541 
875	 9.44802169694369E-02 
876	 9.44649585348099E-02 
877	 0.094442561129858 
878	 9.44045411004478E-02 
879	 9.44737440391515E-02 
880	 9.45496645937348E-02 
881	 9.45127178166556E-02 
882	 9.45218900851628E-02 
883	 9.45214639784156E-02 
884	 0.094488951360578 
885	 9.44347587795993E-02 
886	 9.44253035080886E-02 
887	 9.44427590097681E-02 
888	 9.44440447618392E-02 
889	 9.43922573419356E-02 
890	 9.44653435075355E-02 
891	 9.44896038035419E-02 
892	 9.44179969437588E-02 
893	 9.44116831337132E-02 
894	 0.094405848398855 
895	 9.44244113516305E-02 
896	 9.44678341171823E-02 
897	 9.44701541492118E-02 
898	 9.45043671652388E-02 
899	 9.45347051001546E-02 
900	 9.45286128790395E-02 
901	 9.45430782749455E-02 
902	 9.45000784959228E-02 
903	 9.44552234683874E-02 
904	 9.44715991819943E-02 
905	 9.44530641574003E-02 
906	 9.44966715119879E-02 
907	 9.45317453391883E-02 
908	 9.44575932895193E-02 
909	 9.44526918049503E-02 
910	 9.44724733228188E-02 
911	 9.45013666310619E-02 
912	 9.45361398278422E-02 
913	 9.44712899212808E-02 
914	 9.44860535148063E-02 
915	 9.45635676054692E-02 
916	 9.45190854901426E-02 
917	 0.094510111927251 
918	 9.45347133253392E-02 
919	 9.45541173595348E-02 
920	 9.45213800693452E-02 
921	 9.45485780707342E-02 
922	 0.094578428022604 
923	 9.45701735976917E-02 
924	 9.45524411216642E-02 
925	 9.45671853254475E-02 
926	 9.45736727926735E-02 
927	 9.45574883923885E-02 
928	 9.45850317831856E-02 
929	 9.46029681293579E-02 
930	 9.46115913448026E-02 
931	 9.46146045525976E-02 
932	 9.45860205150391E-02 
933	 9.46800111749482E-02 
934	 9.47349179653208E-02 
935	 9.46363151777611E-02 
936	 9.46847859423964E-02 
937	 9.46765769169492E-02 
938	 9.46339027600714E-02 
939	 9.46459515621582E-02 
940	 9.47697770125302E-02 
941	 0.094776770412829 
942	 9.47352014866046E-02 
943	 9.47722873205891E-02 
944	 9.47188367602447E-02 
945	 9.47156528770482E-02 
946	 9.47476943103397E-02 
947	 9.47406148379148E-02 
948	 9.47141899214665E-02 
949	 0.094712152056648 
950	 9.47246094011508E-02 
951	 9.47328050606817E-02 
952	 9.48434711372641E-02 
953	 9.48080643582836E-02 
954	 9.47095189108944E-02 
955	 9.47666315441131E-02 
956	 9.47922784606935E-02 
957	 9.47546660068041E-02 
958	 9.47108827938975E-02 
959	 9.47539678546451E-02 
960	 9.48795413550178E-02 
961	 9.49236060348386E-02 
962	 9.48900451554548E-02 
963	 9.48897342368554E-02 
964	 9.49039159721843E-02 
965	 9.49057958236795E-02 
966	 9.48754913551266E-02 
967	 9.48253565586116E-02 
968	 9.49106674992823E-02 
969	 9.49287807100982E-02 
970	 9.48725643419578E-02 
971	 9.48624994720894E-02 
972	 0.09478732619455 
973	 9.48435646078826E-02 
974	 9.49593949432579E-02 
975	 9.49223457824597E-02 
976	 0.09490228238138 
977	 0.094946763424856 
978	 9.49681085299069E-02 
979	 9.48662267314818E-02 
980	 9.49646525450089E-02 
981	 9.49265596659347E-02 
982	 9.48923276050255E-02 
983	 9.51578118617858E-02 
984	 9.50720012121756E-02 
985	 9.49637323794438E-02 
986	 9.49877206814541E-02 
987	 9.50909690176765E-02 
988	 0.094930733604259 
989	 9.49679972186794E-02 
990	 9.51101757583815E-02 
991	 9.50415105947131E-02 
992	 9.49446167441444E-02 
993	 9.48850582384065E-02 
994	 9.49126135298043E-02 
995	 9.50215625423805E-02 
996	 9.50692219782344E-02 
997	 9.50857975345147E-02 
998	 9.50235820265281E-02 
999	 9.49063402816997E-02 
1000	 9.50848055755043E-02 
1001	 9.44030728375489E-02 
1002	 9.43588562677647E-02 
1003	 9.43102800542353E-02 
1004	 9.43113320648742E-02 
1005	 9.43757727197394E-02 
1006	 9.44085860818228E-02 
1007	 0.094458180712763 
1008	 9.44907727723193E-02 
1009	 9.45026441750201E-02 
1010	 9.44873054046407E-02 
1011	 9.44577473039505E-02 
1012	 9.44508273158117E-02 
1013	 9.44791266890352E-02 
1014	 9.44475705766019E-02 
1015	 9.44293482938637E-02 
1016	 9.44519353221411E-02 
1017	 9.44504833237505E-02 
1018	 9.44139969019634E-02 
1019	 0.0944326480931 
1020	 9.44434490133812E-02 
1021	 9.44033878410402E-02 
1022	 9.44631144376742E-02 
1023	 9.44970146874014E-02 
1024	 9.44990067033844E-02 
1025	 9.45321272483784E-02 
1026	 0.094512739421352 
1027	 9.44727030134145E-02 
1028	 9.44132336229393E-02 
1029	 9.43981130555625E-02 
1030	 9.44201952002048E-02 
1031	 0.094418978544136 
1032	 9.44009199605044E-02 
1033	 9.44339337842505E-02 
1034	 0.094449871408532 
1035	 9.44231877695001E-02 
1036	 9.44486813051564E-02 
1037	 9.44437710566926E-02 
1038	 0.094402945557592 
1039	 9.44224262069754E-02 
1040	 0.094403229108226 
1041	 9.43517920342849E-02 
1042	 9.43607795409012E-02 
1043	 9.43731144532148E-02 
1044	 9.43893155827386E-02 
1045	 9.44094679423721E-02 
1046	 9.44505955455722E-02 
1047	 9.44621088830741E-02 
1048	 9.45011744635207E-02 
1049	 9.45404656477797E-02 
1050	 9.45644560942901E-02 
1051	 0.094638502579158 
1052	 9.46313905723939E-02 
1053	 9.45413253799361E-02 
1054	 9.45139880528764E-02 
1055	 9.45110456504204E-02 
1056	 9.44962032619835E-02 
1057	 9.45026252097705E-02 
1058	 9.45568618448219E-02 
1059	 9.45952864837783E-02 
1060	 9.46131311811377E-02 
1061	 9.46716335271397E-02 
1062	 9.47682604636338E-02 
1063	 9.47933663588204E-02 
1064	 9.48166887393811E-02 
1065	 9.48249615658789E-02 
1066	 9.47866955012346E-02 
1067	 9.48047640704931E-02 
1068	 9.48371587772097E-02 
1069	 9.48339391305427E-02 
1070	 9.48376362419111E-02 
1071	 9.48490818568093E-02 
1072	 9.48475615998046E-02 
1073	 9.48345769491076E-02 
1074	 9.48346051082569E-02 
1075	 9.48469039358395E-02 
1076	 9.48223270757699E-02 
1077	 9.48286110288807E-02 
1078	 9.48170709134831E-02 
1079	 9.47986790480871E-02 
1080	 9.48137715828601E-02 
1081	 9.47829854416296E-02 
1082	 9.47618027489956E-02 
1083	 9.47658471889596E-02 
1084	 9.47873785247639E-02 
1085	 9.47838982946604E-02 
1086	 9.47930536718842E-02 
1087	 9.47920023682408E-02 
1088	 9.47639145682521E-02 
1089	 9.47532683885988E-02 
1090	 9.47732905358378E-02 
1091	 0.094800636071874 
1092	 9.47981294753897E-02 
1093	 9.47694521411196E-02 
1094	 9.47446569092174E-02 
1095	 9.47161325341962E-02 
1096	 9.47063777243145E-02 
1097	 9.47304597430933E-02 
1098	 9.47323942657259E-02 
1099	 9.47213910248595E-02 
1100	 9.47250316440145E-02 
1101	 9.47259410734911E-02 
1102	 9.47325210132065E-02 
1103	 9.47424917051349E-02 
1104	 9.47766110045777E-02 
1105	 9.48009009923335E-02 
1106	 9.48313588312187E-02 
1107	 9.48451304398273E-02 
1108	 9.48541120763128E-02 
1109	 9.48650863248817E-02 
1110	 9.48536825615187E-02 
1111	 9.48668781308142E-02 
1112	 9.49102105614569E-02 
1113	 9.49183281370542E-02 
1114	 9.49021308268173E-02 
1115	 9.49157810082943E-02 
1116	 9.49339413310287E-02 
1117	 0.094942510072475 
1118	 9.49451400342299E-02 
1119	 9.49895467511325E-02 
1120	 9.50213956211401E-02 
1121	 9.50431317086922E-02 
1122	 9.51068600257834E-02 
1123	 9.51536564026368E-02 
1124	 9.51851477349081E-02 
1125	 9.52014173096912E-02 
1126	 9.52259443226933E-02 
1127	 9.52255627314414E-02 
1128	 9.52622191669124E-02 
1129	 0.095338106247537 
1130	 9.53790896854435E-02 
1131	 9.54287912220523E-02 
1132	 9.54589737391049E-02 
1133	 9.54278047369636E-02 
1134	 9.54411001010539E-02 
1135	 9.54694256998187E-02 
1136	 9.55251193407609E-02 
1137	 9.55621078530756E-02 
1138	 9.56136733828938E-02 
1139	 9.56290714145888E-02 
1140	 9.55967100683098E-02 
1141	 9.56099410082308E-02 
1142	 9.56242157803338E-02 
1143	 9.56534019048222E-02 
1144	 0.09572622634827 
1145	 9.57490452944618E-02 
1146	 9.57446554300257E-02 
1147	 9.57622495855626E-02 
1148	 9.57702099356729E-02 
1149	 9.57791590495217E-02 
1150	 9.58146033657269E-02 
1151	 9.58218242750821E-02 
1152	 9.58223277789555E-02 
1153	 9.58138801447795E-02 
1154	 9.58142182243071E-02 
1155	 9.58116798303148E-02 
1156	 9.58280895083861E-02 
1157	 9.58588154581872E-02 
1158	 9.58739828257317E-02 
1159	 9.59019106314832E-02 
1160	 9.59155871230677E-02 
1161	 9.59082375983071E-02 
1162	 0.095910628729161 
1163	 9.59001462497183E-02 
1164	 9.59146287349085E-02 
1165	 9.59490448545774E-02 
1166	 9.59760039343106E-02 
1167	 9.60064748797738E-02 
1168	 9.60409756399058E-02 
1169	 9.60581367710596E-02 
1170	 9.60541591245466E-02 
1171	 9.60614733320267E-02 
1172	 9.60625523239265E-02 
1173	 0.096077913595531 
1174	 9.60965013124112E-02 
1175	 9.61170900503267E-02 
1176	 9.61546177466186E-02 
1177	 9.61806936562652E-02 
1178	 9.61946463393434E-02 
1179	 9.62208388318239E-02 
1180	 9.62577019077808E-02 
1181	 9.62832005357408E-02 
1182	 9.63058002334825E-02 
1183	 9.63307245714768E-02 
1184	 9.63573569249773E-02 
1185	 9.63786233043172E-02 
1186	 9.63987838181385E-02 
1187	 9.64224278637704E-02 
1188	 9.64479463780367E-02 
1189	 9.64710967124649E-02 
1190	 9.64917337091283E-02 
1191	 9.65102485525305E-02 
1192	 9.65396308108514E-02 
1193	 0.096570525856041 
1194	 9.65987406730017E-02 
1195	 9.66482778313948E-02 
1196	 9.66774828901696E-02 
1197	 9.66751899271976E-02 
1198	 9.66942745583583E-02 
1199	 9.67187426752655E-02 
1200	 9.67485795766369E-02 
1201	 9.67679989446717E-02 
1202	 9.67991124510687E-02 
1203	 9.68131107136833E-02 
1204	 9.67980222561929E-02 
1205	 9.68150085898975E-02 
1206	 9.68407304583427E-02 
1207	 9.68720879529316E-02 
1208	 0.096925564842236 
1209	 9.69641931189903E-02 
1210	 9.70029786604693E-02 
1211	 0.097035941287835 
1212	 9.70669194509959E-02 
1213	 9.70888779206636E-02 
1214	 9.70902299192906E-02 
1215	 9.71091422438131E-02 
1216	 9.71325164075557E-02 
1217	 0.097156920320583 
1218	 9.71791213091916E-02 
1219	 9.72128574886238E-02 
1220	 9.72384260042337E-02 
1221	 9.72530549954662E-02 
1222	 9.72744835468553E-02 
1223	 9.73064444101952E-02 
1224	 9.73265724227828E-02 
1225	 9.73356474195788E-02 
1226	 9.73522543819631E-02 
1227	 9.73682974663853E-02 
1228	 9.73848472319439E-02 
1229	 9.74060455507378E-02 
1230	 9.74259803000963E-02 
1231	 9.74375422879698E-02 
1232	 9.74589080303408E-02 
1233	 9.74850671955342E-02 
1234	 9.75195152015116E-02 
1235	 9.75436163401298E-02 
1236	 9.75709535884868E-02 
1237	 9.75937777064408E-02 
1238	 9.76017170824795E-02 
1239	 0.097627618934825 
1240	 9.76663055900601E-02 
1241	 0.097697342952639 
1242	 9.77426388540707E-02 
1243	 9.77650535510666E-02 
1244	 9.77639765175986E-02 
1245	 9.77778656851953E-02 
1246	 0.097779575943676 
1247	 9.77965448841787E-02 
1248	 9.78358517025762E-02 
1249	 9.78680137228391E-02 
1250	 9.78867796343347E-02 
1251	 9.79140838634696E-02 
1252	 9.79410852164485E-02 
1253	 9.79659639845506E-02 
1254	 9.79854300361211E-02 
1255	 9.80072608627508E-02 
1256	 9.80274077031722E-02 
1257	 9.80364631305682E-02 
1258	 9.80548133640182E-02 
1259	 9.80881493005284E-02 
1260	 9.81055395660489E-02 
1261	 9.81091200480167E-02 
1262	 9.81235330016738E-02 
1263	 9.81382223516496E-02 
1264	 9.81513316132521E-02 
1265	 9.81742744695561E-02 
1266	 9.81900562245423E-02 
1267	 9.81971914437921E-02 
1268	 0.098202722446765 
1269	 9.82141705415451E-02 
1270	 9.82259746135637E-02 
1271	 0.098237852113596 
1272	 9.82536616764259E-02 
1273	 9.82687470383393E-02 
1274	 9.82743222855067E-02 
1275	 9.83019158294514E-02 
1276	 9.83464005868917E-02 
1277	 9.83811668594415E-02 
1278	 9.84194189135244E-02 
1279	 9.84637180034501E-02 
1280	 9.85022503203856E-02 
1281	 9.85479996562481E-02 
1282	 9.86235827822349E-02 
1283	 9.86729322808668E-02 
1284	 9.87014018458728E-02 
1285	 9.87372627014096E-02 
1286	 9.87823791481149E-02 
1287	 0.098822327919429 
1288	 9.88795792638849E-02 
1289	 9.89657745461596E-02 
1290	 9.90284093558352E-02 
1291	 9.90841193781486E-02 
1292	 9.91406368193534E-02 
1293	 0.099195624319521 
1294	 9.92456725401879E-02 
1295	 9.93030794437281E-02 
1296	 9.93376314745228E-02 
1297	 9.93459344152329E-02 
1298	 0.099373919246633 
1299	 9.93963068270164E-02 
1300	 9.94215542585333E-02 
1301	 9.94704566733017E-02 
1302	 9.94980414940762E-02 
1303	 9.95094973739971E-02 
1304	 9.95186085050896E-02 
1305	 9.95302464715082E-02 
1306	 0.099545859465679 
1307	 9.95540449212706E-02 
1308	 9.95479293727147E-02 
1309	 9.95491190791936E-02 
1310	 9.95437570394242E-02 
1311	 9.95409591554465E-02 
1312	 9.95492102405565E-02 
1313	 0.099542121700096 
1314	 9.95129838325593E-02 
1315	 9.95031660077947E-02 
1316	 9.94958919502644E-02 
1317	 9.94963665227669E-02 
1318	 9.95148331966179E-02 
1319	 9.95218566748995E-02 
1320	 9.95312559014371E-02 
1321	 9.95273699859009E-02 
1322	 9.94915834482566E-02 
1323	 9.95009952592412E-02 
1324	 9.95132468608745E-02 
1325	 9.95212438861421E-02 
1326	 9.95619893002482E-02 
1327	 9.95780161918014E-02 
1328	 9.95848906441969E-02 
1329	 9.96060140056457E-02 
1330	 9.96142596816937E-02 
1331	 9.96106549343657E-02 
1332	 9.96296268003847E-02 
1333	 9.96496763385562E-02 
1334	 9.96771866734592E-02 
1335	 9.97279919319424E-02 
1336	 9.97616792452562E-02 
1337	 0.099782247070288 
1338	 9.98169969715674E-02 
1339	 9.98567675162334E-02 
1340	 9.98962473664748E-02 
1341	 9.99515781127796E-02 
1342	 0.099987312294887 
1343	 0.100008560078775 
1344	 0.100034512560802 
1345	 0.100053526307449 
1346	 0.100086391017243 
1347	 0.100138002181839 
1348	 0.100182718426643 
1349	 0.100233405927431 
1350	 0.100287388321768 
1351	 0.100331210889354 
1352	 0.100365811791162 
1353	 0.100413766303349 
1354	 0.100462893028725 
1355	 0.100511586751354 
1356	 0.100576381072673 
1357	 0.10062111411976 
1358	 0.100648810382599 
1359	 0.100683804379744 
1360	 0.100710530701965 
1361	 0.100746398920273 
1362	 0.100791083795603 
1363	 0.100830255468291 
1364	 0.100872114160545 
1365	 0.10091180380077 
1366	 0.100942920285527 
1367	 0.100991086342412 
1368	 0.101025743384756 
1369	 0.101030656388084 
1370	 0.101048744007418 
1371	 0.101055434658251 
1372	 0.101056272625934 
1373	 0.101078733171745 
1374	 0.101091204538049 
1375	 0.10109260736457 
1376	 0.10110572307635 
1377	 0.101136934020826 
1378	 0.101143069610762 
1379	 0.10114132570585 
1380	 0.101136874318426 
1381	 0.101115140823784 
1382	 0.10109845911214 
1383	 0.101082992634412 
1384	 0.101068903254018 
1385	 0.101057619347954 
1386	 0.101040470632338 
1387	 0.101033952861588 
1388	 0.101004937800021 
1389	 0.100965687053536 
1390	 0.100907565563663 
1391	 0.100838703160882 
1392	 0.100766136691 
1393	 0.100695796135915 
1394	 0.100636275390255 
1395	 0.100575703109236 
1396	 0.100513375745476 
1397	 0.100441692307007 
1398	 0.100365277536086 
1399	 0.100280756279367 
1400	 0.100184128824332 
1401	 0.100091068445174 
1402	 9.99914606039763E-02 
1403	 9.99010072845999E-02 
1404	 9.98126578931057E-02 
1405	 9.97294587516659E-02 
1406	 9.96558719407341E-02 
1407	 9.95744835170753E-02 
1408	 9.94854008105717E-02 
1409	 9.94101404486968E-02 
1410	 0.099331885482677 
1411	 9.92651381819455E-02 
1412	 9.92025238143377E-02 
1413	 9.91644596309299E-02 
1414	 9.91434039325791E-02 
1415	 9.91213433939646E-02 
1416	 9.91095829812352E-02 
1417	 9.91007963542739E-02 
1418	 0.099063760383394 
1419	 9.90547647653693E-02 
1420	 9.90770013273222E-02 
1421	 9.90812732519211E-02 
1422	 9.90904495968685E-02 
1423	 9.90952927525754E-02 
1424	 9.90988606925257E-02 
1425	 9.90839398788566E-02 
1426	 9.90911397313261E-02 
1427	 9.91127685313979E-02 
1428	 9.91332189164962E-02 
1429	 9.91600147236803E-02 
1430	 9.91799955709791E-02 
1431	 9.91994768399825E-02 
1432	 9.92208274236016E-02 
1433	 9.92306197900068E-02 
1434	 9.92596806738783E-02 
1435	 9.93087804465633E-02 
1436	 9.93454598915043E-02 
1437	 9.93832497510536E-02 
1438	 9.94236997075954E-02 
1439	 0.099464262836445 
1440	 9.94968340378701E-02 
1441	 9.95278300352219E-02 
1442	 9.95684310676767E-02 
1443	 9.96010687239147E-02 
1444	 9.96240435358617E-02 
1445	 9.96640690630811E-02 
1446	 9.97114093594695E-02 
1447	 0.099747958139121 
1448	 9.97851308941744E-02 
1449	 9.98212507697294E-02 
1450	 9.98558121177257E-02 
1451	 9.98912714715461E-02 
1452	 9.99282673290444E-02 
1453	 9.99647852638677E-02 
1454	 0.10000257887893 
1455	 0.100035430242487 
1456	 0.100071151916099 
1457	 0.100099529271474 
1458	 0.100113656319778 
1459	 0.100144919624414 
1460	 0.100176487448758 
1461	 0.10021673623231 
1462	 0.100275851446387 
1463	 0.100318630353443 
1464	 0.100361773077029 
1465	 0.100397918564797 
1466	 0.100419837484758 
1467	 0.100454189179019 
1468	 0.100488770119575 
1469	 0.100524955885611 
1470	 0.100570713096795 
1471	 0.100609274400598 
1472	 0.100645451496327 
1473	 0.100691734722976 
1474	 0.100732155932261 
1475	 0.100776415750249 
1476	 0.100824400235404 
1477	 0.100865395147639 
1478	 0.100915012428093 
1479	 0.100964621277518 
1480	 0.101002240575367 
1481	 0.101043690003122 
1482	 0.101086207347942 
1483	 0.101124215768263 
1484	 0.101170007563706 
1485	 0.101221567554469 
1486	 0.1012708592325 
1487	 0.101323531566711 
1488	 0.1013741644947 
1489	 0.101427338117588 
1490	 0.101474879869504 
1491	 0.101521675059772 
1492	 0.101560900535655 
1493	 0.101584019615154 
1494	 0.101626681871267 
1495	 0.101677227172603 
1496	 0.101723733287553 
1497	 0.101784805323325 
1498	 0.101832887496563 
1499	 0.101866757206741 
1500	 0.101904619770229 
1501	 0.101947096312776 
1502	 0.101981141576576 
1503	 0.10200671747495 
1504	 0.102035806209165 
1505	 0.102072019937034 
1506	 0.102102621036492 
1507	 0.102140205186853 
1508	 0.102178432380606 
1509	 0.102213808419597 
1510	 0.102250182251539 
1511	 0.102281733880427 
1512	 0.102321887835053 
1513	 0.102365984111029 
1514	 0.102398797967825 
1515	 0.102433720612946 
1516	 0.102473509891727 
1517	 0.102510881573624 
1518	 0.102543896318621 
1519	 0.10257849905177 
1520	 0.102611291572606 
1521	 0.102653017321859 
1522	 0.102703334209716 
1523	 0.102737130314507 
1524	 0.102774521869058 
1525	 0.102805108491855 
1526	 0.102813383396544 
1527	 0.102836345413951 
1528	 0.102868788562476 
1529	 0.102893710933234 
1530	 0.102918303058991 
1531	 0.102944948115019 
1532	 0.102972568670314 
1533	 0.102995021491014 
1534	 0.103012703785183 
1535	 0.103030903569469 
1536	 0.103041230812408 
1537	 0.103065028512358 
1538	 0.103098189562862 
1539	 0.103129996817426 
1540	 0.103166182366568 
1541	 0.103202344430647 
1542	 0.103243706117802 
1543	 0.103277817226832 
1544	 0.103315152585684 
1545	 0.103345311690912 
1546	 0.103367260776044 
1547	 0.103384112349955 
1548	 0.103396750795576 
1549	 0.103399435849635 
1550	 0.103414904068664 
1551	 0.103439679392255 
1552	 0.103479766693367 
1553	 0.103520143715959 
1554	 0.103536403115146 
1555	 0.103541019646418 
1556	 0.103553293350634 
1557	 0.103577162956774 
1558	 0.103597634903454 
1559	 0.103625771152264 
1560	 0.103648823057804 
1561	 0.103656816957664 
1562	 0.103680652989988 
1563	 0.103719576244124 
1564	 0.103746498970375 
1565	 0.10377241971714 
1566	 0.103797395100287 
1567	 0.103823510821727 
1568	 0.103836144001621 
1569	 0.103836640182651 
1570	 0.103851094523297 
1571	 0.103859318248018 
1572	 0.103875718323997 
1573	 0.103910734518829 
1574	 0.103932454985357 
1575	 0.103948568471472 
1576	 0.103960134642959 
1577	 0.10396500114396 
1578	 0.103976124595445 
1579	 0.103977834824652 
1580	 0.103998554378376 
1581	 0.104040270662135 
1582	 0.1040656692547 
1583	 0.104099995599932 
1584	 0.104115256070629 
1585	 0.104095620310381 
1586	 0.104111915422049 
1587	 0.104148298213678 
1588	 0.104168058461543 
1589	 0.10419847469622 
1590	 0.104223779657482 
1591	 0.104229358796679 
1592	 0.104242888052379 
1593	 0.104267767275058 
1594	 0.10428895117962 
1595	 0.104306512187527 
1596	 0.104322094162304 
1597	 0.10433882808036 
1598	 0.104356918648601 
1599	 0.104379825216574 
1600	 0.104387197071209 
1601	 0.104382186732407 
1602	 0.104385586875398 
1603	 0.104383996750963 
1604	 0.104379157521725 
1605	 0.104375667581326 
1606	 0.104378666254513 
1607	 0.104373672920976 
1608	 0.104377611278726 
1609	 0.104402445377862 
1610	 0.104415714556165 
1611	 0.10442684829412 
1612	 0.104451330402164 
1613	 0.104464183169541 
1614	 0.104472871088686 
1615	 0.104499458580887 
1616	 0.104515568946111 
1617	 0.104524736531925 
1618	 0.104552913763629 
1619	 0.104585949409884 
1620	 0.104597045913418 
1621	 0.104603264055691 
1622	 0.104607911811083 
1623	 0.104620545898037 
1624	 0.104620205249461 
1625	 0.104626627254755 
1626	 0.104648036974534 
1627	 0.104664525736876 
1628	 0.104673377147935 
1629	 0.104679526083053 
1630	 0.104694225239606 
1631	 0.104698887050458 
1632	 0.10468294698425 
1633	 0.104691956719703 
1634	 0.104712508989826 
1635	 0.104734169795627 
1636	 0.104769948115433 
1637	 0.104784305358005 
1638	 0.104798720937546 
1639	 0.10479748215298 
1640	 0.104768242368695 
1641	 0.104770311924483 
1642	 0.104775437610439 
1643	 0.104789317906321 
1644	 0.104825575401741 
1645	 0.104845689133161 
1646	 0.104861797631135 
1647	 0.104878754366064 
1648	 0.104895438326425 
1649	 0.10490703679403 
1650	 0.104916386406957 
1651	 0.104924014152741 
1652	 0.104928353438627 
1653	 0.104928665402237 
1654	 0.104923412668224 
1655	 0.104924204552999 
1656	 0.104921712949196 
1657	 0.104924977295442 
1658	 0.104930695204759 
1659	 0.104946586069803 
1660	 0.104977816562553 
1661	 0.104986975294568 
1662	 0.104988903658099 
1663	 0.10500308971723 
1664	 0.105003499774377 
1665	 0.105019815348085 
1666	 0.105067173974482 
1667	 0.105086653905588 
1668	 0.10509238751869 
1669	 0.105100989870219 
1670	 0.105097505045956 
1671	 0.105107256905266 
1672	 0.105126683962781 
1673	 0.105136033220795 
1674	 0.105144221260943 
1675	 0.105155135306044 
1676	 0.105161404130759 
1677	 0.105169775359045 
1678	 0.105187726895951 
1679	 0.105194337962308 
1680	 0.105195593837422 
1681	 0.105190291098078 
1682	 0.105172177115895 
1683	 0.105167006066698 
1684	 0.105154711128254 
1685	 0.105160551322608 
1686	 0.105192974213643 
1687	 0.105201663499074 
1688	 0.105207930075007 
1689	 0.105210530433108 
1690	 0.105195532768172 
1691	 0.105193627276176 
1692	 0.105191433055942 
1693	 0.105206207400761 
1694	 0.105230828613384 
1695	 0.10525789629551 
1696	 0.105320183215803 
1697	 0.105334328264238 
1698	 0.105314074502054 
1699	 0.105317604071866 
1700	 0.105305082549169 
1701	 0.105304897555283 
1702	 0.105328362279198 
1703	 0.105342124772848 
1704	 0.105352311386319 
1705	 0.10535262798065 
1706	 0.10535447407211 
1707	 0.10534836842967 
1708	 0.105316713596073 
1709	 0.105311991352713 
1710	 0.105319989848719 
1711	 0.105326358429961 
1712	 0.10534526686494 
1713	 0.105355684725246 
1714	 0.105360296098824 
1715	 0.105368844546358 
1716	 0.105384918238745 
1717	 0.105390863505538 
1718	 0.105390578204341 
1719	 0.105392935325418 
1720	 0.105392929433758 
1721	 0.105387093004869 
1722	 0.105382424219592 
1723	 0.105368541662001 
1724	 0.105338601313232 
1725	 0.105323650826233 
1726	 0.105305082227635 
1727	 0.105309706958463 
1728	 0.105333309739424 
1729	 0.105342617342786 
1730	 0.1053699766161 
1731	 0.105371587994119 
1732	 0.105354973862351 
1733	 0.105344477380512 
1734	 0.10531752375815 
1735	 0.105306388482446 
1736	 0.105314718588189 
1737	 0.105289800238183 
1738	 0.10525111575139 
1739	 0.105224438179625 
1740	 0.105179322895668 
1741	 0.105151886309667 
1742	 0.105144362690804 
1743	 0.105137656469498 
1744	 0.105124480867475 
1745	 0.105124809074576 
1746	 0.105145776123109 
1747	 0.105144094692527 
1748	 0.105132053945696 
1749	 0.105088178405206 
1750	 0.105077997651668 
1751	 0.105064135331519 
1752	 0.105050344245194 
1753	 0.1050668164374 
1754	 0.105083005500271 
1755	 0.105068696537801 
1756	 0.105041582361185 
1757	 0.105015488397366 
1758	 0.104976058975151 
1759	 0.10496791813739 
1760	 0.104976928035359 
1761	 0.104960629950824 
1762	 0.10495179652698 
1763	 0.104953022446024 
1764	 0.104946437927038 
1765	 0.104939357887845 
1766	 0.104927420811204 
1767	 0.104917952250865 
1768	 0.104918384498386 
1769	 0.1049186807433 
1770	 0.104907710097452 
1771	 0.104897067543425 
1772	 0.10489854541933 
1773	 0.104901011659947 
1774	 0.104917461627092 
1775	 0.104930188604912 
1776	 0.104900595261453 
1777	 0.104872400438455 
1778	 0.104880703758921 
1779	 0.104880921317716 
1780	 0.104881482306268 
1781	 0.104905129266874 
1782	 0.104893108065179 
1783	 0.104874338277343 
1784	 0.104859016961916 
1785	 0.104828300992533 
1786	 0.104819102369695 
1787	 0.104823186241268 
1788	 0.104809802656882 
1789	 0.104797385608337 
1790	 0.104795999779983 
1791	 0.104776297350708 
1792	 0.104785973424712 
1793	 0.104837121206701 
1794	 0.104858629940301 
1795	 0.104877080211396 
1796	 0.104892059459587 
1797	 0.104886592324769 
1798	 0.104885114045122 
1799	 0.104891598596865 
1800	 0.104903487839431 
1801	 0.101799554806512 
1802	 0.101819065214915 
1803	 0.10181433633125 
1804	 0.101804382998792 
1805	 0.101821296730828 
1806	 0.101841279395526 
1807	 0.101849491913042 
1808	 0.101877064251636 
1809	 0.101935908149086 
1810	 0.101972262484345 
1811	 0.102008397205395 
1812	 0.102037225254682 
1813	 0.102043837539734 
1814	 0.102039706084083 
1815	 0.102033523314039 
1816	 0.102059656644908 
1817	 0.102089391236014 
1818	 0.102157858199173 
1819	 0.102186764556158 
1820	 0.102209672792725 
1821	 0.102209973502541 
1822	 0.102208517073634 
1823	 0.102199638192348 
1824	 0.102206411262389 
1825	 0.10222236599917 
1826	 0.102226218620661 
1827	 0.10223841365874 
1828	 0.102235203780567 
1829	 0.102197289574005 
1830	 0.102195074876048 
1831	 0.10220466349412 
1832	 0.102214212548154 
1833	 0.102233686046016 
1834	 0.102285805584823 
1835	 0.10232391273465 
1836	 0.102321946163209 
1837	 0.102327736950774 
1838	 0.102337657408516 
1839	 0.102338027074798 
1840	 0.102321748129702 
1841	 0.10233406717927 
1842	 0.10235457097726 
1843	 0.102330441159068 
1844	 0.102304797636933 
1845	 0.102301569380533 
1846	 0.102278819019336 
1847	 0.102262368731046 
1848	 0.102274920503552 
1849	 0.102277889743796 
1850	 0.102275372999651 
1851	 0.10226335067869 
1852	 0.102279145846501 
1853	 0.102289641484909 
1854	 0.10227492709971 
1855	 0.102260504845556 
1856	 0.102227990007583 
1857	 0.102186939004454 
1858	 0.102147039907849 
1859	 0.102102051526424 
1860	 0.102063018895356 
1861	 0.10202605682784 
1862	 0.101981001085972 
1863	 0.10194842933455 
1864	 0.101937641799053 
1865	 0.101906841533581 
1866	 0.101856531530144 
1867	 0.10179400376962 
1868	 0.101693215956203 
1869	 0.101618836575717 
1870	 0.101590011998434 
1871	 0.101524923238188 
1872	 0.101461178164995 
1873	 0.101392495977104 
1874	 0.101274063552779 
1875	 0.101100141330312 
1876	 0.100953418399735 
1877	 0.100810299104751 
1878	 0.100644975424156 
1879	 0.100474603899297 
1880	 0.100287434615156 
1881	 0.10006836177349 
1882	 9.98504799372603E-02 
1883	 9.96347000229972E-02 
1884	 9.93926681425988E-02 
1885	 9.91319666321962E-02 
1886	 9.88620536187433E-02 
1887	 9.85690938187415E-02 
1888	 9.82683971078061E-02 
1889	 9.79465672906579E-02 
1890	 0.097602574240714 
1891	 9.72572302468652E-02 
1892	 9.68873180512044E-02 
1893	 9.65298047734063E-02 
1894	 9.61818793344605E-02 
1895	 9.58158310529543E-02 
1896	 0.09543007070907 
1897	 0.095058518334335 
1898	 9.46810056702846E-02 
1899	 0.094300705071833 
1900	 9.39473960501897E-02 
1901	 9.36077319742007E-02 
1902	 9.32713229974647E-02 
1903	 9.29321205287984E-02 
1904	 9.26284023625163E-02 
1905	 9.23471945283324E-02 
1906	 9.20733220653124E-02 
1907	 9.18147472168663E-02 
1908	 9.15642724990937E-02 
1909	 9.13183244485839E-02 
1910	 9.10797635803857E-02 
1911	 0.090859076525152 
1912	 9.06677323524614E-02 
1913	 9.04842919749392E-02 
1914	 9.03178639774918E-02 
1915	 9.01494553749107E-02 
1916	 8.99854174368174E-02 
1917	 8.98416886038271E-02 
1918	 8.96990467496836E-02 
1919	 8.95799094667341E-02 
1920	 8.94965519439616E-02 
1921	 8.94104078098853E-02 
1922	 8.93378570048144E-02 
1923	 8.92797445082417E-02 
1924	 8.92231820943383E-02 
1925	 0.089166757114811 
1926	 8.91342140077487E-02 
1927	 8.91165859002349E-02 
1928	 8.90977518771826E-02 
1929	 8.91162413525702E-02 
1930	 8.91269196252148E-02 
1931	 8.91222017016144E-02 
1932	 8.91481220703541E-02 
1933	 0.089161686872311 
1934	 8.91781284464104E-02 
1935	 8.92099885199526E-02 
1936	 8.92658930673796E-02 
1937	 8.93049807510873E-02 
1938	 8.93427431064169E-02 
1939	 8.93829490263954E-02 
1940	 8.94215880587104E-02 
1941	 8.94507518452034E-02 
1942	 8.94977424809459E-02 
1943	 8.95662210638385E-02 
1944	 8.96223748527612E-02 
1945	 8.96888978647593E-02 
1946	 8.97627407673308E-02 
1947	 8.98425193990986E-02 
1948	 8.99190311456788E-02 
1949	 9.00069633957548E-02 
1950	 9.00902536432789E-02 
1951	 9.01643765642684E-02 
1952	 9.02411114228537E-02 
1953	 9.03456291085514E-02 
1954	 9.04485417002765E-02 
1955	 9.05449399213647E-02 
1956	 9.06341841892409E-02 
1957	 9.07301915735315E-02 
1958	 9.08167518551617E-02 
1959	 9.09179700578825E-02 
1960	 9.10324680395697E-02 
1961	 0.091146735851699 
1962	 9.12668028317018E-02 
1963	 9.13774200577842E-02 
1964	 9.14817072079968E-02 
1965	 9.15973621676664E-02 
1966	 9.17151733156936E-02 
1967	 9.18435991021173E-02 
1968	 0.091957535545008 
1969	 9.20709751442395E-02 
1970	 9.21873359726598E-02 
1971	 9.22937309368495E-02 
1972	 9.24043234591387E-02 
1973	 9.25338077810417E-02 
1974	 9.26450534301391E-02 
1975	 9.27450254477885E-02 
1976	 9.28329693067664E-02 
1977	 9.29321965985064E-02 
1978	 9.30513129464013E-02 
1979	 9.31735935340083E-02 
1980	 9.33066230430264E-02 
1981	 9.34443745921744E-02 
1982	 0.093599013352827 
1983	 9.37263155285105E-02 
1984	 9.38548502567175E-02 
1985	 9.39736410019877E-02 
1986	 9.40652435231558E-02 
1987	 9.41691561391254E-02 
1988	 9.42760500398057E-02 
1989	 9.43794748841701E-02 
1990	 9.44957248936806E-02 
1991	 9.46122489463018E-02 
1992	 9.47306090369488E-02 
1993	 9.48630745758566E-02 
1994	 9.49799518405283E-02 
1995	 9.50887539597011E-02 
1996	 0.095201024090332 
1997	 9.53038718859195E-02 
1998	 9.54172877419051E-02 
1999	 9.55328811710151E-02 
2000	 9.56520737937946E-02 
2001	 9.57795176559573E-02 
2002	 9.59137119039784E-02 
2003	 9.60286156591512E-02 
2004	 9.61437499499856E-02 
2005	 9.62494594490635E-02 
2006	 9.63312294678698E-02 
2007	 9.64371965636888E-02 
2008	 9.65473312588787E-02 
2009	 9.66640161438741E-02 
2010	 9.67999247141662E-02 
2011	 9.69224072304496E-02 
2012	 9.70473368332828E-02 
2013	 9.71629283791822E-02 
2014	 9.72666841039303E-02 
2015	 9.73739940352893E-02 
2016	 9.74776359824451E-02 
2017	 9.75783031319259E-02 
2018	 9.76770649896353E-02 
2019	 9.77725555339196E-02 
2020	 9.78719583416808E-02 
2021	 9.79702162616461E-02 
2022	 9.80668541243269E-02 
2023	 9.81683917552967E-02 
2024	 9.82647818849886E-02 
2025	 9.83504693449104E-02 
2026	 0.098446493097899 
2027	 9.85587325884181E-02 
2028	 0.098648378228337 
2029	 9.87408209355595E-02 
2030	 9.88359874494894E-02 
2031	 9.89245584050977E-02 
2032	 9.90006919464806E-02 
2033	 9.90848500465974E-02 
2034	 9.91630197165062E-02 
2035	 9.92585967096845E-02 
2036	 9.93783858436421E-02 
2037	 9.94721616137768E-02 
2038	 9.95670732308913E-02 
2039	 9.96536430833904E-02 
2040	 0.099719489185219 
2041	 9.97778441415059E-02 
2042	 9.98654376528078E-02 
2043	 9.99390582786868E-02 
2044	 0.100017554342709 
2045	 0.100103262088502 
2046	 0.100176661946634 
2047	 0.100234424684518 
2048	 0.100313530929191 
2049	 0.100403590773948 
2050	 0.100479756240607 
2051	 0.100566847944783 
2052	 0.100642377279603 
2053	 0.100693740053848 
2054	 0.100755814996846 
2055	 0.100827366418058 
2056	 0.100890562927176 
2057	 0.100951977432153 
2058	 0.101016752522519 
2059	 0.101067210198633 
2060	 0.101093713253874 
2061	 0.101153997693753 
2062	 0.101225018934466 
2063	 0.101291435437689 
2064	 0.101378798807169 
2065	 0.101454127295181 
2066	 0.101514992037921 
2067	 0.101580671985541 
2068	 0.101647767600477 
2069	 0.101724748302706 
2070	 0.101786494592908 
2071	 0.101847967334942 
2072	 0.101888706546391 
2073	 0.101903620439498 
2074	 0.101945311717606 
2075	 0.101975391639076 
2076	 0.102030234294536 
2077	 0.102108032441082 
2078	 0.102190679056758 
2079	 0.102308724801886 
2080	 0.102383838562464 
2081	 0.102448043721293 
2082	 0.102510309839763 
2083	 0.102540150515764 
2084	 0.102568997562721 
2085	 0.102624159278443 
2086	 0.10270223199445 
2087	 0.10276187598025 
2088	 0.102829562902642 
2089	 0.102884265884486 
2090	 0.102923618657779 
2091	 0.102974100584374 
2092	 0.103021332118188 
2093	 0.103076363780216 
2094	 0.103132642574382 
2095	 0.103198809953543 
2096	 0.103284691698403 
2097	 0.103356288557724 
2098	 0.103436798162143 
2099	 0.103505383479377 
2100	 0.103550784387974 
2101	 0.103561588994329 
2102	 0.103611537895053 
2103	 0.103660790393626 
2104	 0.10371381280482 
2105	 0.103794061888839 
2106	 0.10385440096519 
2107	 0.10389191962264 
2108	 0.10394879704193 
2109	 0.104010241478392 
2110	 0.104081477611515 
2111	 0.104166255308538 
2112	 0.104247185627892 
2113	 0.104346719670947 
2114	 0.104426240651541 
2115	 0.104497861865431 
2116	 0.104558435798042 
2117	 0.104624587317232 
2118	 0.104677045813569 
2119	 0.104745698009597 
2120	 0.104829601603625 
2121	 0.104898089541526 
2122	 0.104969369084521 
2123	 0.105030451148949 
2124	 0.105083931748355 
2125	 0.105128558838501 
2126	 0.105159876172112 
2127	 0.105195570153119 
2128	 0.105227402678347 
2129	 0.105254793723358 
2130	 0.105287357145281 
2131	 0.10530600120422 
2132	 0.10533039229616 
2133	 0.105348330696656 
2134	 0.105369798090813 
2135	 0.105404155458572 
2136	 0.105411969446619 
2137	 0.105399999712627 
2138	 0.105399201456195 
2139	 0.105388872260715 
2140	 0.105384114317667 
2141	 0.105400708522142 
2142	 0.105390816338343 
2143	 0.105371341944539 
2144	 0.105336635651238 
2145	 0.105266810697065 
2146	 0.10521646906801 
2147	 0.105145079718308 
2148	 0.105106922921578 
2149	 0.105086496050715 
2150	 0.105101640473225 
2151	 0.105085719196238 
2152	 0.105085926657336 
2153	 0.105058913898162 
2154	 0.10500933582903 
2155	 0.104958549596484 
2156	 0.104896259569211 
2157	 0.104836010110678 
2158	 0.1047629066943 
2159	 0.104696058759759 
2160	 0.104655190015751 
2161	 0.104576592284075 
2162	 0.104456917867457 
2163	 0.104367466212442 
2164	 0.104277894047415 
2165	 0.104175993838829 
2166	 0.104089609877535 
2167	 0.104031149749903 
2168	 0.103957049873161 
2169	 0.103867034804748 
2170	 0.10379401339181 
2171	 0.103741949093611 
2172	 0.103669503990245 
2173	 0.10358841040835 
2174	 0.103513686025952 
2175	 0.103448469654316 
2176	 0.103357066471434 
2177	 0.10323644361222 
2178	 0.103146938138289 
2179	 0.103056185344245 
2180	 0.102964566771058 
2181	 0.102899236292724 
2182	 0.102827653723276 
2183	 0.10273128880427 
2184	 0.102653420618294 
2185	 0.102585311745852 
2186	 0.102534203395007 
2187	 0.102479372105869 
2188	 0.102431390903966 
2189	 0.102382865605513 
2190	 0.102345804364463 
2191	 0.102290668458848 
2192	 0.102220640380718 
2193	 0.102164674709648 
2194	 0.102105840883905 
2195	 0.102049667535944 
2196	 0.10199793121769 
2197	 0.101956508377659 
2198	 0.101909055474336 
2199	 0.10187844400457 
2200	 0.101874382111985 
2201	 0.101863863311386 
2202	 0.101864643536889 
2203	 0.101855599861263 
2204	 0.101843338677309 
2205	 0.101827111470914 
2206	 0.101815518275745 
2207	 0.101797602781413 
2208	 0.101785078423608 
2209	 0.101778558054326 
2210	 0.101770822889502 
2211	 0.101757327785602 
2212	 0.101759493443162 
2213	 0.101779409023392 
2214	 0.101780901376327 
2215	 0.101779051757689 
2216	 0.101780667647683 
2217	 0.101779248818956 
2218	 0.101770529646278 
2219	 0.101761843255057 
2220	 0.101755714588988 
2221	 0.10174324514989 
2222	 0.101714310366063 
2223	 0.101744227303831 
2224	 0.10177206375355 
2225	 0.101802443114956 
2226	 0.101860279046908 
2227	 0.101888726035308 
2228	 0.101894259157339 
2229	 0.101921500428459 
2230	 0.101956603748265 
2231	 0.101982879355936 
2232	 0.102010864645754 
2233	 0.10203976973488 
2234	 0.102059981782482 
2235	 0.10208450814375 
2236	 0.10213489443147 
2237	 0.102148857097385 
2238	 0.102137198764205 
2239	 0.10213310954041 
2240	 0.102090785297315 
2241	 0.102087855835417 
2242	 0.10211276623808 
2243	 0.102134890423985 
2244	 0.102171123828015 
2245	 0.102218327310547 
2246	 0.102251665963737 
2247	 0.102284900601654 
2248	 0.102314854676858 
2249	 0.102342972930606 
2250	 0.102370828534032 
2251	 0.102398489402999 
2252	 0.102413121401118 
2253	 0.102414219585486 
2254	 0.102437080425867 
2255	 0.102472794104034 
2256	 0.102486570898635 
2257	 0.10249652346957 
2258	 0.102509844301124 
2259	 0.102490818484904 
2260	 0.102507212687423 
2261	 0.102579325998276 
2262	 0.102606374992971 
2263	 0.102616629918124 
2264	 0.102630029146183 
2265	 0.102607282242318 
2266	 0.102609699352967 
2267	 0.102636443660867 
2268	 0.102655998134384 
2269	 0.102666802060615 
2270	 0.102707182284961 
2271	 0.102747911122724 
2272	 0.10277408694579 
2273	 0.102796725608002 
2274	 0.102814940643864 
2275	 0.102823794042739 
2276	 0.102810764418284 
2277	 0.102815253620636 
2278	 0.102817079613108 
2279	 0.102836864100935 
2280	 0.102874088759494 
2281	 0.102901945790546 
2282	 0.102940067587201 
2283	 0.102962837039592 
2284	 0.102968726629506 
2285	 0.102987835240856 
2286	 0.103006935832005 
2287	 0.103037272902249 
2288	 0.103091552706509 
2289	 0.103115984573499 
2290	 0.103125202393599 
2291	 0.103139255540295 
2292	 0.103132524707066 
2293	 0.103142770372496 
2294	 0.103170605945613 
2295	 0.103192477974391 
2296	 0.103211415218782 
2297	 0.103237385434762 
2298	 0.103256257809718 
2299	 0.103287055769876 
2300	 0.103352894914285 
2301	 0.103397415518396 
2302	 0.103415908216915 
2303	 0.103442980332341 
2304	 0.103425355606983 
2305	 0.103357782686178 
2306	 0.103330544147762 
2307	 0.103304280633093 
2308	 0.103281989014997 
2309	 0.103287618058578 
2310	 0.103270481202929 
2311	 0.103225547876444 
2312	 0.103222206915481 
2313	 0.103235495401674 
2314	 0.10323641961166 
2315	 0.103251893750392 
2316	 0.103269752678247 
2317	 0.103290209076684 
2318	 0.103283993168954 
2319	 0.103279740048269 
2320	 0.103271243775347 
2321	 0.103197722192412 
2322	 0.103200741868111 
2323	 0.10326625617576 
2324	 0.103309581806377 
2325	 0.103403436855704 
2326	 0.10344723803586 
2327	 0.103462411438373 
2328	 0.103452926788229 
2329	 0.103444034103014 
2330	 0.103434614505789 
2331	 0.103412063127803 
2332	 0.103416513879303 
2333	 0.103436651727137 
2334	 0.103396903383638 
2335	 0.103360381406382 
2336	 0.103363710624037 
2337	 0.103348909021151 
2338	 0.1034204011819 
2339	 0.103536531048729 
2340	 0.103544984083587 
2341	 0.103535790465876 
2342	 0.103514431865768 
2343	 0.103466297104938 
2344	 0.10345562731869 
2345	 0.103461786991944 
2346	 0.103503352399031 
2347	 0.103522705311196 
2348	 0.10355753170062 
2349	 0.103564394511973 
2350	 0.103572317771947 
2351	 0.103525490433029 
2352	 0.103402795574691 
2353	 0.103373468446864 
2354	 0.103363900891183 
2355	 0.103327240717259 
2356	 0.103329612865668 
2357	 0.103332078970342 
2358	 0.103318700052847 
2359	 0.103281094263912 
2360	 0.103256925054352 
2361	 0.103224421525741 
2362	 0.103133704232478 
2363	 0.103070175635058 
2364	 0.10303002383062 
2365	 0.102999137054253 
2366	 0.10297772506975 
2367	 0.102951201382698 
2368	 0.102958666969319 
2369	 0.102942091546902 
2370	 0.102918759231516 
2371	 0.102828971670983 
2372	 0.102777074764588 
2373	 0.102764415650962 
2374	 0.10277949457746 
2375	 0.102824014640673 
2376	 0.102815857025624 
2377	 0.102798598019541 
2378	 0.102753945854408 
2379	 0.102694180491854 
2380	 0.10267086949762 
2381	 0.102637906069282 
2382	 0.102603874410731 
2383	 0.102580366987804 
2384	 0.102556253530867 
2385	 0.102493934534303 
2386	 0.102418126805705 
2387	 0.102342346233437 
2388	 0.102262069463587 
2389	 0.102219394034327 
2390	 0.102210941955039 
2391	 0.102211566179224 
2392	 0.102195266885422 
2393	 0.102176968151269 
2394	 0.10218314742582 
2395	 0.102133507571744 
2396	 0.102058283135349 
2397	 0.102014780135185 
2398	 0.101928579571905 
2399	 0.101831211835736 
2400	 0.101733431366832 
2401	 0.101683483444494 
2402	 0.101707233221811 
2403	 0.101701003265884 
2404	 0.101668443534748 
2405	 0.101583285073399 
2406	 0.101393371561731 
2407	 0.101222329450171 
2408	 0.10114761803774 
2409	 0.101098726832579 
2410	 0.101148480624809 
2411	 0.10121189410519 
2412	 0.101203315034336 
2413	 0.101150295348382 
2414	 0.100961115463558 
2415	 0.100887953591381 
2416	 0.1008146123599 
2417	 0.100729141828181 
2418	 0.100663364154716 
2419	 0.100655084019797 
2420	 0.100548419275718 
2421	 0.100384825867617 
2422	 0.100354247408478 
2423	 0.100371370558366 
2424	 0.100310250814358 
2425	 0.100325268479724 
2426	 0.100274889676976 
2427	 0.100104250425883 
2428	 9.99923741678455E-02 
2429	 9.98776344820291E-02 
2430	 9.97536732911879E-02 
2431	 9.96170371095903E-02 
2432	 9.95700135923237E-02 
2433	 9.96082839981416E-02 
2434	 9.95630942620679E-02 
2435	 9.95050389318758E-02 
2436	 9.94097725312138E-02 
2437	 9.92630439761027E-02 
2438	 9.91828669581817E-02 
2439	 9.91253977287564E-02 
2440	 9.90783673849437E-02 
2441	 9.90096010690699E-02 
2442	 9.89666805617541E-02 
2443	 9.89890924185431E-02 
2444	 9.89727426650736E-02 
2445	 9.90455118578254E-02 
2446	 9.89871187351133E-02 
2447	 9.87397924675836E-02 
2448	 9.86473438231625E-02 
2449	 9.85660208270168E-02 
2450	 9.83781962193235E-02 
2451	 9.82558408346761E-02 
2452	 9.81343664216133E-02 
2453	 9.78938768924938E-02 
2454	 9.77557170757437E-02 
2455	 9.77351212301899E-02 
2456	 0.097672659600633 
2457	 9.75740134355023E-02 
2458	 9.75028993645253E-02 
2459	 9.74079784954796E-02 
2460	 9.74278167266787E-02 
2461	 9.75389313602917E-02 
2462	 9.75479498706903E-02 
2463	 9.77179378097301E-02 
2464	 9.76889166286858E-02 
2465	 9.73698726315375E-02 
2466	 0.097213378404483 
2467	 9.70467605518462E-02 
2468	 9.69059864945882E-02 
2469	 9.68511544548503E-02 
2470	 0.096866109748356 
2471	 9.68971222083891E-02 
2472	 9.68902055492607E-02 
2473	 9.68772624049541E-02 
2474	 9.68564212660619E-02 
2475	 9.66627279511134E-02 
2476	 9.65584870883541E-02 
2477	 9.65266940758078E-02 
2478	 0.096191120097499 
2479	 9.60406366231683E-02 
2480	 9.60809791617255E-02 
2481	 9.58232330261328E-02 
2482	 9.58740992088138E-02 
2483	 9.60520511083466E-02 
2484	 0.095923987797034 
2485	 9.58990270984793E-02 
2486	 9.58668256965132E-02 
2487	 9.57729525200008E-02 
2488	 9.56392158329715E-02 
2489	 9.54689819038371E-02 
2490	 9.54911646870207E-02 
2491	 9.55954133765784E-02 
2492	 9.55599169986868E-02 
2493	 9.54707009100527E-02 
2494	 9.54650762254104E-02 
2495	 9.54679851609184E-02 
2496	 9.53729353347509E-02 
2497	 9.54055844988216E-02 
2498	 9.54924552169893E-02 
2499	 9.52649372626388E-02 
2500	 9.52700405627817E-02 
