Wavelength	LMW_2300005.asd
350	 9.04796600700678E-02 
351	 9.09038819716079E-02 
352	 8.20320224383409E-02 
353	 7.56878157625689E-02 
354	 8.65624065074769E-02 
355	 8.74256358739777E-02 
356	 0.081807571499662 
357	 8.01883846177898E-02 
358	 0.087113814465329 
359	 8.83063603976727E-02 
360	 8.41071285748081E-02 
361	 8.38792766400401E-02 
362	 8.23149101336919E-02 
363	 8.30012295455999E-02 
364	 8.55021938083258E-02 
365	 8.15097871650422E-02 
366	 0.078468381789036 
367	 7.85256806547261E-02 
368	 8.12177668903157E-02 
369	 8.31730643660501E-02 
370	 0.082891148403434 
371	 8.28667252967275E-02 
372	 8.72047607073557E-02 
373	 8.62304698386347E-02 
374	 0.084241787196035 
375	 8.44800703012402E-02 
376	 8.53680688705653E-02 
377	 8.35120397587285E-02 
378	 8.25175632174565E-02 
379	 8.57181508832712E-02 
380	 8.61886616702042E-02 
381	 8.54603255183137E-02 
382	 8.50677359858522E-02 
383	 8.61088368712939E-02 
384	 8.68194324616116E-02 
385	 8.70045445688731E-02 
386	 8.69683826742432E-02 
387	 8.73841926315606E-02 
388	 0.089259700384399 
389	 9.03875028177188E-02 
390	 8.89328864275285E-02 
391	 9.02221963434949E-02 
392	 8.94150940113667E-02 
393	 8.83264289170622E-02 
394	 9.37412310431683E-02 
395	 9.38569835554649E-02 
396	 0.091894733041225 
397	 9.19631933471336E-02 
398	 9.49482624037374E-02 
399	 9.61035994317209E-02 
400	 0.09534554180297 
401	 9.45673365710425E-02 
402	 9.54466374750728E-02 
403	 0.095339177078025 
404	 9.45847372620031E-02 
405	 9.65700104472641E-02 
406	 9.76808029050498E-02 
407	 0.098055772617042 
408	 9.79990534298189E-02 
409	 9.58944158836496E-02 
410	 9.50799114321456E-02 
411	 9.60371808505199E-02 
412	 9.76306933858597E-02 
413	 9.85017293148302E-02 
414	 9.78179241315753E-02 
415	 9.63219054133166E-02 
416	 9.65510708740659E-02 
417	 9.67116757624755E-02 
418	 9.69340288095188E-02 
419	 9.75016748530868E-02 
420	 9.77415708419661E-02 
421	 9.73227830336792E-02 
422	 9.66895251325672E-02 
423	 9.67034553525584E-02 
424	 9.72675424349676E-02 
425	 9.71092180626267E-02 
426	 9.60954189088487E-02 
427	 9.63767314420132E-02 
428	 9.65037088701039E-02 
429	 9.61048981950516E-02 
430	 9.53981822697877E-02 
431	 9.57781707155758E-02 
432	 9.56971794935579E-02 
433	 9.51037587465242E-02 
434	 9.54264736756948E-02 
435	 9.53689304720906E-02 
436	 0.095236150994499 
437	 9.53025729571119E-02 
438	 9.48354299454998E-02 
439	 9.50842876077626E-02 
440	 9.57515946515706E-02 
441	 9.58743173628688E-02 
442	 9.60015122903424E-02 
443	 9.61528572745895E-02 
444	 9.62630641196807E-02 
445	 9.62056850352273E-02 
446	 9.62810869788652E-02 
447	 9.65331477543944E-02 
448	 0.096808069691791 
449	 9.64172659204446E-02 
450	 9.66168163421498E-02 
451	 9.73263476648716E-02 
452	 9.73500127300276E-02 
453	 9.73567324342218E-02 
454	 9.73125987543944E-02 
455	 9.71734729011519E-02 
456	 9.71312963933433E-02 
457	 9.72771276112247E-02 
458	 9.73837280495109E-02 
459	 0.097174453001894 
460	 9.72134743407329E-02 
461	 9.73503355952343E-02 
462	 9.74483990067058E-02 
463	 0.097482298700604 
464	 9.76827531858607E-02 
465	 9.77660858285941E-02 
466	 9.74949907410988E-02 
467	 9.73620401957495E-02 
468	 9.75150753058978E-02 
469	 9.77255251310123E-02 
470	 9.75253435524104E-02 
471	 9.76015946219305E-02 
472	 9.76938527504784E-02 
473	 9.76208889062149E-02 
474	 9.77958562618497E-02 
475	 9.77915071476321E-02 
476	 9.76707676959167E-02 
477	 9.76734814566684E-02 
478	 0.097592360351629 
479	 9.77136216687914E-02 
480	 9.79674001984154E-02 
481	 9.77405101059468E-02 
482	 0.097687225024576 
483	 9.78387456860339E-02 
484	 9.80187285174967E-02 
485	 9.79895595967583E-02 
486	 9.78738489137268E-02 
487	 9.77778190981106E-02 
488	 9.77703840522994E-02 
489	 9.76641103800802E-02 
490	 9.75910565081205E-02 
491	 9.76683967777041E-02 
492	 9.78799983255869E-02 
493	 9.78823993249406E-02 
494	 9.76909420829723E-02 
495	 9.75293161187505E-02 
496	 9.76909133087868E-02 
497	 9.78702358558616E-02 
498	 9.78631578535084E-02 
499	 9.76941576149416E-02 
500	 9.76193652645466E-02 
501	 9.76071641075101E-02 
502	 9.75693849190516E-02 
503	 9.76191860451316E-02 
504	 9.75831627186212E-02 
505	 9.75025533678555E-02 
506	 9.76058746892588E-02 
507	 9.76807399763838E-02 
508	 9.77382997962547E-02 
509	 9.77917824685641E-02 
510	 9.77371735521786E-02 
511	 9.76479807444714E-02 
512	 9.76078212350745E-02 
513	 9.76820270830349E-02 
514	 9.77277651926494E-02 
515	 9.77453880827388E-02 
516	 9.77736402635602E-02 
517	 9.79067994256107E-02 
518	 9.77789963473801E-02 
519	 9.76039821751436E-02 
520	 9.76843828977235E-02 
521	 9.77023912579468E-02 
522	 9.76602490615297E-02 
523	 9.76326713803092E-02 
524	 9.77443449690659E-02 
525	 9.76240118875971E-02 
526	 9.74865441826638E-02 
527	 9.75529279752522E-02 
528	 9.76391671824685E-02 
529	 9.77084853123049E-02 
530	 0.097703613223254 
531	 9.75797146724382E-02 
532	 9.75512745259183E-02 
533	 9.76436750375103E-02 
534	 9.77938053660553E-02 
535	 9.78263037529231E-02 
536	 9.77929315955111E-02 
537	 9.78055135871313E-02 
538	 0.097950076167215 
539	 9.79464989292668E-02 
540	 9.78740526801275E-02 
541	 9.78535149093199E-02 
542	 9.80233503423649E-02 
543	 9.80793181244071E-02 
544	 9.81031361144308E-02 
545	 9.82267952156632E-02 
546	 9.83385114462091E-02 
547	 9.83406493024511E-02 
548	 9.82865842917015E-02 
549	 9.83476909266346E-02 
550	 9.84226057366168E-02 
551	 9.85097784227849E-02 
552	 9.86368546109078E-02 
553	 9.88820057494767E-02 
554	 9.90344016777813E-02 
555	 9.91304049719481E-02 
556	 9.93255052158047E-02 
557	 9.95463837850223E-02 
558	 9.97687354898524E-02 
559	 9.99794922588798E-02 
560	 0.100174140490743 
561	 0.100378707972054 
562	 0.100602166852226 
563	 0.100830278583706 
564	 0.100976133724766 
565	 0.101053348135416 
566	 0.10110859589922 
567	 0.101216114456757 
568	 0.101472113356444 
569	 0.101900169810015 
570	 0.102442737565575 
571	 0.102863026883575 
572	 0.103328700016635 
573	 0.10382765136178 
574	 0.104233265523834 
575	 0.104715764638423 
576	 0.105183303311604 
577	 0.105561155685636 
578	 0.105895961351881 
579	 0.106223021631669 
580	 0.10656146921312 
581	 0.106909297409084 
582	 0.107171732117885 
583	 0.107534350640929 
584	 0.108044775774356 
585	 0.108528048793336 
586	 0.109033896771812 
587	 0.109518100451947 
588	 0.109955791556946 
589	 0.110508037357067 
590	 0.111073656992592 
591	 0.111627940353327 
592	 0.112224111308962 
593	 0.112828522007289 
594	 0.11346992235141 
595	 0.114130137500208 
596	 0.114642904427577 
597	 0.115065360220934 
598	 0.115435552618891 
599	 0.115775511320695 
600	 0.115989436790063 
601	 0.116271521120707 
602	 0.1166748741428 
603	 0.116948049895496 
604	 0.11720129077692 
605	 0.11750447402302 
606	 0.117888426170945 
607	 0.118227700627567 
608	 0.118549710590515 
609	 0.118881183016009 
610	 0.119235396898339 
611	 0.119503411236459 
612	 0.119750000672013 
613	 0.120027390721133 
614	 0.120193938394063 
615	 0.120335461188747 
616	 0.120485290108657 
617	 0.120640627326865 
618	 0.120858227793307 
619	 0.121047175375672 
620	 0.121162510899805 
621	 0.121298932169613 
622	 0.121463572869498 
623	 0.121589764451646 
624	 0.121615956660677 
625	 0.121752454378485 
626	 0.121879726659831 
627	 0.121949460700186 
628	 0.122041966646562 
629	 0.122121955027278 
630	 0.122220702526164 
631	 0.122352498998319 
632	 0.122397497567582 
633	 0.122458660637238 
634	 0.122550960365203 
635	 0.122616564475824 
636	 0.122696704818402 
637	 0.122775323993493 
638	 0.122834855260067 
639	 0.122867209671559 
640	 0.122977701922176 
641	 0.123108360676031 
642	 0.123146090183039 
643	 0.123210297527084 
644	 0.123301892689831 
645	 0.12339262182663 
646	 0.123426185095951 
647	 0.123548033376083 
648	 0.123670997121391 
649	 0.123695296934734 
650	 0.123774346918955 
651	 0.123859840769946 
652	 0.123945724681131 
653	 0.124064552620414 
654	 0.124195529621653 
655	 0.124283228398832 
656	 0.1243189284625 
657	 0.124419609707535 
658	 0.124548881073882 
659	 0.124683131789849 
660	 0.124799405871833 
661	 0.124858448744592 
662	 0.124933361255769 
663	 0.125063563472043 
664	 0.125226413546135 
665	 0.1253527734084 
666	 0.125450020550912 
667	 0.125548436831276 
668	 0.125657019992387 
669	 0.125782212590389 
670	 0.125922226257059 
671	 0.126066498666456 
672	 0.126180496865619 
673	 0.126305082191165 
674	 0.126462230321021 
675	 0.12659250878729 
676	 0.126778932354187 
677	 0.126969331631054 
678	 0.127078304266681 
679	 0.127229013225417 
680	 0.127418389174932 
681	 0.127606545906085 
682	 0.127721120589434 
683	 0.127910456576083 
684	 0.128103233155445 
685	 0.12822190993083 
686	 0.128384954022541 
687	 0.128555881810917 
688	 0.128726738874366 
689	 0.128908010314315 
690	 0.129071276838722 
691	 0.129224737812325 
692	 0.129381618871303 
693	 0.129551875912656 
694	 0.129753805845341 
695	 0.129953213190451 
696	 0.130114602433159 
697	 0.130315414875304 
698	 0.130498539972834 
699	 0.130649557205241 
700	 0.130807753564379 
701	 0.131028248069443 
702	 0.131228189975027 
703	 0.131354692645976 
704	 0.131523442920277 
705	 0.131704515273688 
706	 0.131863245996424 
707	 0.131976817884343 
708	 0.132150901342917 
709	 0.132356899527433 
710	 0.132539957827143 
711	 0.132628050984185 
712	 0.132790225457384 
713	 0.132963306674447 
714	 0.133069571761529 
715	 0.133244720427509 
716	 0.133408362518723 
717	 0.133535864786924 
718	 0.13364945522283 
719	 0.133779465263296 
720	 0.133899219305477 
721	 0.133995672381121 
722	 0.134097661517806 
723	 0.134215460040913 
724	 0.134319951060025 
725	 0.134388055746829 
726	 0.13450233566835 
727	 0.134610873184252 
728	 0.134688684449899 
729	 0.134743656709812 
730	 0.134807504907992 
731	 0.134848590293355 
732	 0.134860732544802 
733	 0.134930224529067 
734	 0.134980599917364 
735	 0.135008355984207 
736	 0.135034352611893 
737	 0.135031082486576 
738	 0.135023349460311 
739	 0.135020210641773 
740	 0.135010011600157 
741	 0.135020505645912 
742	 0.135011390219021 
743	 0.13495741374229 
744	 0.134913336451212 
745	 0.134846102132493 
746	 0.134790672987899 
747	 0.134789839046055 
748	 0.134705803548207 
749	 0.134625417398795 
750	 0.134580504633243 
751	 0.134512591765605 
752	 0.134419897775211 
753	 0.134329274955425 
754	 0.134259061601777 
755	 0.13418136986138 
756	 0.134094189104948 
757	 0.133987702960542 
758	 0.133859219691471 
759	 0.133784994925499 
760	 0.133663836196601 
761	 0.133493431617926 
762	 0.133411529568022 
763	 0.133274601347752 
764	 0.133131046096917 
765	 0.133027412187472 
766	 0.132864879171746 
767	 0.132722453406533 
768	 0.132611972868488 
769	 0.132498200569455 
770	 0.132280242630177 
771	 0.132099570571327 
772	 0.131987490950266 
773	 0.131821143895605 
774	 0.131711249458701 
775	 0.131569987736474 
776	 0.131342140813356 
777	 0.131176585807653 
778	 0.131024260610665 
779	 0.13088719756504 
780	 0.130775526925363 
781	 0.130617349235664 
782	 0.130460902782493 
783	 0.130313999527365 
784	 0.130134541517486 
785	 0.12995188777171 
786	 0.129800308339562 
787	 0.129674230006273 
788	 0.129464774979734 
789	 0.129318187912168 
790	 0.129177189563941 
791	 0.128949732810602 
792	 0.128792411731251 
793	 0.128643801207824 
794	 0.128487146982699 
795	 0.128349855244792 
796	 0.128182708597015 
797	 0.128027437272829 
798	 0.127902190481262 
799	 0.127756648516123 
800	 0.127604745932195 
801	 0.127438415104111 
802	 0.127259048610015 
803	 0.127120890684525 
804	 0.127021932579831 
805	 0.126901210523461 
806	 0.126689865507689 
807	 0.126570929874043 
808	 0.126443281158532 
809	 0.126268322481528 
810	 0.126128471923033 
811	 0.126016385414997 
812	 0.125893571694177 
813	 0.125745438762621 
814	 0.125650219421903 
815	 0.125499378340917 
816	 0.125330893300162 
817	 0.125228784562656 
818	 0.125166104310959 
819	 0.12508631351108 
820	 0.124962196062454 
821	 0.124802305154305 
822	 0.124675831343379 
823	 0.124588711178837 
824	 0.124520063670284 
825	 0.124426148699221 
826	 0.124321965986885 
827	 0.124209244339444 
828	 0.124092503028281 
829	 0.123994666406791 
830	 0.123871904278547 
831	 0.123757288242043 
832	 0.123697194165724 
833	 0.123567746888308 
834	 0.123481366736974 
835	 0.123436457649765 
836	 0.123322461002432 
837	 0.123280857941935 
838	 0.123221420140018 
839	 0.123096635210645 
840	 0.122993564539907 
841	 0.122906083873269 
842	 0.12285282972532 
843	 0.122825703389618 
844	 0.122715225902112 
845	 0.122676634517643 
846	 0.122671716932858 
847	 0.122596932433861 
848	 0.122547412838879 
849	 0.122506328471389 
850	 0.122454897984251 
851	 0.122379949786423 
852	 0.122279641061603 
853	 0.122220326729751 
854	 0.122225302293162 
855	 0.122242394538989 
856	 0.122174046519493 
857	 0.122111136094643 
858	 0.122119278700823 
859	 0.122077757658763 
860	 0.122026513858631 
861	 0.121967591405792 
862	 0.121905181334448 
863	 0.121897915831535 
864	 0.121902415821095 
865	 0.121880419005951 
866	 0.121823084480986 
867	 0.121875828022946 
868	 0.121922412678981 
869	 0.12191585926248 
870	 0.121907288685491 
871	 0.121930796754849 
872	 0.121924796409969 
873	 0.121877586529691 
874	 0.121881087867328 
875	 0.121919787129453 
876	 0.121924909243352 
877	 0.121871356601882 
878	 0.121879481922043 
879	 0.121931668253753 
880	 0.121984339237409 
881	 0.122000221830124 
882	 0.122024392081452 
883	 0.122016571307406 
884	 0.122003289601174 
885	 0.122034257938316 
886	 0.122048028371592 
887	 0.122094830191908 
888	 0.122178131089423 
889	 0.122248990278548 
890	 0.122222059883952 
891	 0.122207896114141 
892	 0.122269797225038 
893	 0.122372074287414 
894	 0.122424267428836 
895	 0.122443596036663 
896	 0.12246394053557 
897	 0.122503278937122 
898	 0.122540272522287 
899	 0.122603637166417 
900	 0.12270681202481 
901	 0.12279614584336 
902	 0.122829364113206 
903	 0.122854783899201 
904	 0.122926956755443 
905	 0.122988270244482 
906	 0.123053248197192 
907	 0.123135015552968 
908	 0.123231373976997 
909	 0.12327040161152 
910	 0.123312537391887 
911	 0.123435668134581 
912	 0.123669270285282 
913	 0.12370668846704 
914	 0.123749473521908 
915	 0.123865324120493 
916	 0.123960866823965 
917	 0.124010566790187 
918	 0.124076256250609 
919	 0.124172546264234 
920	 0.124246842858902 
921	 0.124291963996715 
922	 0.124394070022655 
923	 0.124534340497251 
924	 0.12453610261594 
925	 0.124697135812792 
926	 0.124913055143052 
927	 0.125053449623893 
928	 0.125110459363737 
929	 0.125166979846084 
930	 0.125299200241072 
931	 0.125497242511625 
932	 0.125576346599956 
933	 0.125634303660823 
934	 0.12575412013953 
935	 0.125949795901971 
936	 0.126063008656522 
937	 0.126112315466135 
938	 0.126181379929464 
939	 0.126348269201555 
940	 0.126592492268949 
941	 0.126769165970034 
942	 0.126891366878127 
943	 0.127030043598519 
944	 0.127188084181223 
945	 0.127313385942743 
946	 0.127417476366908 
947	 0.127537238623161 
948	 0.127678004182815 
949	 0.127770187285 
950	 0.127883901819207 
951	 0.128104438520107 
952	 0.128220067967531 
953	 0.128351370378966 
954	 0.128487478973135 
955	 0.128574650553185 
956	 0.128790428678599 
957	 0.129019464557442 
958	 0.12912268862538 
959	 0.129063157394808 
960	 0.129336833341403 
961	 0.129535700817275 
962	 0.129644604419127 
963	 0.129880451200547 
964	 0.129982453586448 
965	 0.13001794765291 
966	 0.130105608726842 
967	 0.130339579820033 
968	 0.130582429121081 
969	 0.130776257762535 
970	 0.130888899860685 
971	 0.130925830789131 
972	 0.130964356430446 
973	 0.131179735312885 
974	 0.13144111912908 
975	 0.13149276478003 
976	 0.131647457388855 
977	 0.131793145616624 
978	 0.131879792059304 
979	 0.131961057385065 
980	 0.132322303584425 
981	 0.132475039889938 
982	 0.132487982678298 
983	 0.132697211939073 
984	 0.132673932658101 
985	 0.132830418657531 
986	 0.133064587006061 
987	 0.13308260394648 
988	 0.133338196113801 
989	 0.133459391977259 
990	 0.133481130910628 
991	 0.133630208853125 
992	 0.13388343578324 
993	 0.13391883742984 
994	 0.133944078782199 
995	 0.134223339853917 
996	 0.134175922908119 
997	 0.134328318881834 
998	 0.134505078663227 
999	 0.134445950412024 
1000	 0.134642917071967 
1001	 0.131195332029835 
1002	 0.131302293336154 
1003	 0.131285071124371 
1004	 0.131374709476754 
1005	 0.131574936817014 
1006	 0.131710317157384 
1007	 0.131833438820216 
1008	 0.131993570830803 
1009	 0.132131038913418 
1010	 0.132172381619379 
1011	 0.132161614463457 
1012	 0.132185294993173 
1013	 0.132270435042964 
1014	 0.132382724920288 
1015	 0.132499367163279 
1016	 0.132565840408115 
1017	 0.132635250812683 
1018	 0.132651938711076 
1019	 0.132711147715062 
1020	 0.132752497505121 
1021	 0.132777054648944 
1022	 0.132836658144428 
1023	 0.132827021115049 
1024	 0.132836380743009 
1025	 0.132957019816325 
1026	 0.133053270912277 
1027	 0.13308768463747 
1028	 0.13314262343095 
1029	 0.133221251494788 
1030	 0.133282547237961 
1031	 0.13333355709491 
1032	 0.133388582371636 
1033	 0.133446464747903 
1034	 0.133481780997684 
1035	 0.133499975581613 
1036	 0.133528016406297 
1037	 0.133609525660293 
1038	 0.133697366789321 
1039	 0.133750468410265 
1040	 0.133825278034592 
1041	 0.133876988234727 
1042	 0.13385212596315 
1043	 0.133821852415462 
1044	 0.133823614622543 
1045	 0.13383210478762 
1046	 0.133817137967687 
1047	 0.133866429472132 
1048	 0.133977925432418 
1049	 0.134023866648789 
1050	 0.134089321740123 
1051	 0.134202840377799 
1052	 0.1342542687256 
1053	 0.134291164122212 
1054	 0.134324664425651 
1055	 0.134322974712887 
1056	 0.134331630091667 
1057	 0.134353299401252 
1058	 0.134430349886266 
1059	 0.134466989053372 
1060	 0.134496333753534 
1061	 0.134474701345743 
1062	 0.134469830826406 
1063	 0.134478749563739 
1064	 0.134493766211784 
1065	 0.134537464812656 
1066	 0.134564154496933 
1067	 0.134535258479723 
1068	 0.134506695537452 
1069	 0.134487414269852 
1070	 0.134483452822466 
1071	 0.134514169434172 
1072	 0.134530803698774 
1073	 0.134540809180713 
1074	 0.134545063084679 
1075	 0.13454111482096 
1076	 0.134550644301288 
1077	 0.134562318802385 
1078	 0.1345816201131 
1079	 0.134581480913542 
1080	 0.134633715675426 
1081	 0.134680180275265 
1082	 0.134688180389826 
1083	 0.134720084618086 
1084	 0.134792638136376 
1085	 0.134780715331679 
1086	 0.134715163468687 
1087	 0.134704254369382 
1088	 0.134681553786246 
1089	 0.134651462747811 
1090	 0.134686908647592 
1091	 0.134729665842597 
1092	 0.13474068854489 
1093	 0.134791403214195 
1094	 0.134821341057487 
1095	 0.134818945233268 
1096	 0.134841289535985 
1097	 0.134843958175456 
1098	 0.134854475816245 
1099	 0.134874623574684 
1100	 0.134895861082006 
1101	 0.134904161675859 
1102	 0.134925497036068 
1103	 0.134961911529846 
1104	 0.13499033798707 
1105	 0.134981792476624 
1106	 0.13502177327559 
1107	 0.135088230226327 
1108	 0.135121288016012 
1109	 0.135156379017317 
1110	 0.13520149502598 
1111	 0.135242601322726 
1112	 0.135257600001816 
1113	 0.135283480372198 
1114	 0.135331693386455 
1115	 0.135368686285113 
1116	 0.135380319999764 
1117	 0.135406994175261 
1118	 0.13544883810247 
1119	 0.135484436886396 
1120	 0.135523244583268 
1121	 0.135582631902106 
1122	 0.135615423977682 
1123	 0.135657395721889 
1124	 0.135706218722522 
1125	 0.135748640420903 
1126	 0.135783781526773 
1127	 0.135832324498836 
1128	 0.135869151483987 
1129	 0.135878955575654 
1130	 0.13591227550025 
1131	 0.135966088567492 
1132	 0.136008926710602 
1133	 0.136047321799046 
1134	 0.136088915258912 
1135	 0.136130112783935 
1136	 0.1361680438088 
1137	 0.136228469087822 
1138	 0.13628035494517 
1139	 0.136317991330142 
1140	 0.136359342509693 
1141	 0.136380557841429 
1142	 0.136363297497172 
1143	 0.13638591609472 
1144	 0.136418716752265 
1145	 0.136451206179347 
1146	 0.136505105330778 
1147	 0.136545637975272 
1148	 0.136574367532103 
1149	 0.136608596781103 
1150	 0.136641786188441 
1151	 0.136682537214919 
1152	 0.13672182569938 
1153	 0.136754511115696 
1154	 0.136798849456409 
1155	 0.136857841342838 
1156	 0.136890911500616 
1157	 0.136933859382891 
1158	 0.136943572494728 
1159	 0.136899816499314 
1160	 0.136902470677207 
1161	 0.136909346295898 
1162	 0.136919404987197 
1163	 0.136961433717058 
1164	 0.136987582273969 
1165	 0.136999344877862 
1166	 0.137008434629713 
1167	 0.137062169040682 
1168	 0.137109183906757 
1169	 0.137128836879856 
1170	 0.137153553115065 
1171	 0.137158452543333 
1172	 0.137115775308701 
1173	 0.137111051692303 
1174	 0.137113760064632 
1175	 0.137131768786121 
1176	 0.137169877295739 
1177	 0.137197641197062 
1178	 0.13723254746716 
1179	 0.137266154379537 
1180	 0.137291976004226 
1181	 0.137322254329514 
1182	 0.137347113455068 
1183	 0.137403597834793 
1184	 0.137434247762102 
1185	 0.137459380005319 
1186	 0.137483788726652 
1187	 0.137499584056771 
1188	 0.13752034273679 
1189	 0.137544879698982 
1190	 0.137564969706895 
1191	 0.137580991123489 
1192	 0.137600390602953 
1193	 0.137615785585527 
1194	 0.137637584919873 
1195	 0.137666906939698 
1196	 0.137693423216316 
1197	 0.137726565948506 
1198	 0.137750386503799 
1199	 0.137770044779815 
1200	 0.137783336546603 
1201	 0.137804316691709 
1202	 0.137824511686492 
1203	 0.13784319273127 
1204	 0.137864881554789 
1205	 0.137885376560836 
1206	 0.137899077086486 
1207	 0.13791973409194 
1208	 0.137953080419652 
1209	 0.137972379612868 
1210	 0.137983512066532 
1211	 0.137998864718573 
1212	 0.138008232956001 
1213	 0.13802017028387 
1214	 0.138035089016872 
1215	 0.138051956762898 
1216	 0.138069703286299 
1217	 0.138086745999209 
1218	 0.138104722539118 
1219	 0.138126065569009 
1220	 0.138145808909774 
1221	 0.138166890383132 
1222	 0.138181896167126 
1223	 0.138195462697039 
1224	 0.138207635097163 
1225	 0.13820816634431 
1226	 0.138220799436477 
1227	 0.138241487744111 
1228	 0.138259378670774 
1229	 0.138285202843187 
1230	 0.138304246485855 
1231	 0.138307729903334 
1232	 0.138326709381824 
1233	 0.138351618229909 
1234	 0.138385170394267 
1235	 0.138406226955526 
1236	 0.138434155788686 
1237	 0.138452473800813 
1238	 0.138452083971201 
1239	 0.138467520389429 
1240	 0.138497038780194 
1241	 0.138511403812552 
1242	 0.138521571227706 
1243	 0.138530894745378 
1244	 0.138523002825151 
1245	 0.138533003955074 
1246	 0.138557761140863 
1247	 0.138573985440877 
1248	 0.138582469990004 
1249	 0.13861140330176 
1250	 0.138644085606315 
1251	 0.138673336321304 
1252	 0.138688731662213 
1253	 0.138707138052858 
1254	 0.138718670199033 
1255	 0.138707304432011 
1256	 0.138711213375905 
1257	 0.138730166288291 
1258	 0.138734120210179 
1259	 0.138722934485845 
1260	 0.138726613993248 
1261	 0.138740258451165 
1262	 0.138742684900707 
1263	 0.138740761766513 
1264	 0.138746241288175 
1265	 0.138747447809914 
1266	 0.138749573275633 
1267	 0.138756311792623 
1268	 0.138770589348854 
1269	 0.138785793200298 
1270	 0.13879986775559 
1271	 0.138810300287366 
1272	 0.13882608489338 
1273	 0.138842929746002 
1274	 0.138851186815521 
1275	 0.1388682319197 
1276	 0.138894139510709 
1277	 0.138919426728704 
1278	 0.138949001612466 
1279	 0.138971955309238 
1280	 0.138998275889694 
1281	 0.139018974044511 
1282	 0.139026808007202 
1283	 0.139041578600382 
1284	 0.139056280506909 
1285	 0.139078576279841 
1286	 0.139097417238324 
1287	 0.139108150611313 
1288	 0.139126090372569 
1289	 0.139144238993077 
1290	 0.139161994499831 
1291	 0.139192136474268 
1292	 0.139197990165889 
1293	 0.139179002560662 
1294	 0.139187108968657 
1295	 0.139201798713588 
1296	 0.13920772423386 
1297	 0.139235461920749 
1298	 0.139237314484387 
1299	 0.139197995288745 
1300	 0.139187570348705 
1301	 0.139193935302073 
1302	 0.139188668577427 
1303	 0.139186139740359 
1304	 0.139188915542325 
1305	 0.139186180960518 
1306	 0.139154380772893 
1307	 0.139115835872213 
1308	 0.139087631637569 
1309	 0.139069982673549 
1310	 0.139047639686778 
1311	 0.139043019920292 
1312	 0.139057808183307 
1313	 0.139069400244352 
1314	 0.139093157246127 
1315	 0.139096195009919 
1316	 0.139092506673458 
1317	 0.139101514326395 
1318	 0.139095992434741 
1319	 0.139103251691532 
1320	 0.139141348355259 
1321	 0.139157230670719 
1322	 0.139160216398321 
1323	 0.139159544179018 
1324	 0.139190188121361 
1325	 0.139201311113683 
1326	 0.139208692787565 
1327	 0.139237729869137 
1328	 0.139237491287517 
1329	 0.139232662767717 
1330	 0.139243299345192 
1331	 0.139258906980049 
1332	 0.139285061439549 
1333	 0.139327729830019 
1334	 0.13935661165364 
1335	 0.139385396894244 
1336	 0.139420760052782 
1337	 0.139451711581735 
1338	 0.139486261078134 
1339	 0.13953513443902 
1340	 0.139572571299196 
1341	 0.139604064690577 
1342	 0.139630967073761 
1343	 0.139653033846984 
1344	 0.139675059414141 
1345	 0.139685976762707 
1346	 0.139713127090361 
1347	 0.139743826680975 
1348	 0.139767813579593 
1349	 0.139801704850528 
1350	 0.139835943035782 
1351	 0.139866269778809 
1352	 0.139898174028495 
1353	 0.139924229686626 
1354	 0.139935773724318 
1355	 0.139970052560188 
1356	 0.140017475255427 
1357	 0.140053778270683 
1358	 0.140101912472514 
1359	 0.140138288331987 
1360	 0.140165465694847 
1361	 0.140187532076493 
1362	 0.1401990895407 
1363	 0.140217249493025 
1364	 0.140223804080389 
1365	 0.140239189273234 
1366	 0.140249070943256 
1367	 0.140300576313814 
1368	 0.140351058337738 
1369	 0.140388463728231 
1370	 0.140420994859291 
1371	 0.140441242544133 
1372	 0.140445072350303 
1373	 0.140456416778742 
1374	 0.1404651628984 
1375	 0.140474820976543 
1376	 0.140485216037593 
1377	 0.14049196393721 
1378	 0.140501797482361 
1379	 0.140517639192028 
1380	 0.140533444859622 
1381	 0.140556276951915 
1382	 0.140559900105408 
1383	 0.140563494465122 
1384	 0.140552274801459 
1385	 0.140508994212708 
1386	 0.140490243299944 
1387	 0.140486956268986 
1388	 0.140462311474674 
1389	 0.140441302289557 
1390	 0.140406916255471 
1391	 0.140356548602084 
1392	 0.140300085481113 
1393	 0.140234307036746 
1394	 0.140174078497355 
1395	 0.1401036474341 
1396	 0.140021649278115 
1397	 0.139934168192953 
1398	 0.139844794430387 
1399	 0.139742019044153 
1400	 0.139624057492251 
1401	 0.139511424299641 
1402	 0.139389126949972 
1403	 0.139279155586645 
1404	 0.139173767182323 
1405	 0.139067804465985 
1406	 0.138967774447438 
1407	 0.138864358724102 
1408	 0.138757979799988 
1409	 0.138651909274885 
1410	 0.13854132064979 
1411	 0.138442393076916 
1412	 0.138339571132055 
1413	 0.138257707429733 
1414	 0.138193074927435 
1415	 0.138126164655919 
1416	 0.138075429187346 
1417	 0.138015617284187 
1418	 0.137946800365561 
1419	 0.137897194497249 
1420	 0.137835959187205 
1421	 0.137791900764076 
1422	 0.137764352885009 
1423	 0.137721278093578 
1424	 0.13769849732859 
1425	 0.137695526335795 
1426	 0.137678660479454 
1427	 0.13766433189776 
1428	 0.137653182069817 
1429	 0.137635020459896 
1430	 0.137623045702025 
1431	 0.137615605770157 
1432	 0.137614839020884 
1433	 0.137623393181638 
1434	 0.13762414794596 
1435	 0.137622931352902 
1436	 0.137630459168053 
1437	 0.137635416591054 
1438	 0.137642468185788 
1439	 0.137658531264055 
1440	 0.137676792579193 
1441	 0.137697586243722 
1442	 0.137712241560102 
1443	 0.137708060025471 
1444	 0.137714033635211 
1445	 0.137705298288854 
1446	 0.137698235267004 
1447	 0.137725071170388 
1448	 0.137745204511355 
1449	 0.137758759066718 
1450	 0.137783064193212 
1451	 0.137804914554811 
1452	 0.137827968471362 
1453	 0.137843587278692 
1454	 0.137860836734614 
1455	 0.137870424820585 
1456	 0.137866938973809 
1457	 0.137874207231374 
1458	 0.1378874091447 
1459	 0.137894375776675 
1460	 0.137896432485099 
1461	 0.137906900057791 
1462	 0.13791115345952 
1463	 0.13792785557616 
1464	 0.13795967269884 
1465	 0.137988475429439 
1466	 0.138025687372015 
1467	 0.1380558173423 
1468	 0.138079715485159 
1469	 0.138112733455108 
1470	 0.138147304370219 
1471	 0.138181747398057 
1472	 0.138231079267571 
1473	 0.138260031199139 
1474	 0.138280364160177 
1475	 0.138312552305859 
1476	 0.138341880622732 
1477	 0.138389491133082 
1478	 0.138442549713689 
1479	 0.138475545373156 
1480	 0.138513913753807 
1481	 0.1385494653643 
1482	 0.138585138314837 
1483	 0.138622967444739 
1484	 0.138665225141171 
1485	 0.138703562889125 
1486	 0.138745239555056 
1487	 0.13879422574297 
1488	 0.138836438987601 
1489	 0.138880588256164 
1490	 0.138918984962497 
1491	 0.138952666271565 
1492	 0.138985574623642 
1493	 0.139004165048538 
1494	 0.139041337621468 
1495	 0.139092768073543 
1496	 0.13913427404188 
1497	 0.13918957718645 
1498	 0.13922662026735 
1499	 0.139236918193609 
1500	 0.139267202174335 
1501	 0.139307200027064 
1502	 0.139338153377569 
1503	 0.139371306632723 
1504	 0.139406382621166 
1505	 0.139436088261527 
1506	 0.139454239732628 
1507	 0.139495433726096 
1508	 0.139540571209805 
1509	 0.139574415915147 
1510	 0.139608798913581 
1511	 0.139635966735268 
1512	 0.139656895211128 
1513	 0.139674861671961 
1514	 0.139701731897701 
1515	 0.139729932975549 
1516	 0.139754604590229 
1517	 0.139779736789445 
1518	 0.139805177985926 
1519	 0.139831493888823 
1520	 0.139859318018311 
1521	 0.139882464131868 
1522	 0.139909539636568 
1523	 0.13992270638651 
1524	 0.139917166817389 
1525	 0.139934099721499 
1526	 0.1399572083072 
1527	 0.139977444149306 
1528	 0.140011302716655 
1529	 0.140031927937869 
1530	 0.140034323033062 
1531	 0.140054850423384 
1532	 0.140085807867873 
1533	 0.140109822804772 
1534	 0.140140607613598 
1535	 0.140165068454093 
1536	 0.140185705371372 
1537	 0.140201175399417 
1538	 0.14020477086958 
1539	 0.14021913676058 
1540	 0.140229792194554 
1541	 0.14024950173489 
1542	 0.140289777404258 
1543	 0.140318711630544 
1544	 0.140348425407319 
1545	 0.140367786544094 
1546	 0.140379712460004 
1547	 0.140386661673229 
1548	 0.140384788005265 
1549	 0.140383131339304 
1550	 0.140371583236249 
1551	 0.140355941500732 
1552	 0.140354546672717 
1553	 0.140368303237607 
1554	 0.140401826819095 
1555	 0.140434851555988 
1556	 0.140445307861421 
1557	 0.140463566585743 
1558	 0.140489746155163 
1559	 0.14050532222558 
1560	 0.140517893147104 
1561	 0.140533452883682 
1562	 0.140551030837436 
1563	 0.140556146645646 
1564	 0.140575432582788 
1565	 0.140615138919803 
1566	 0.140633540110223 
1567	 0.140639208234577 
1568	 0.140653503746818 
1569	 0.140669155532603 
1570	 0.140680220303037 
1571	 0.140696447695047 
1572	 0.140703350690819 
1573	 0.140695406770844 
1574	 0.140699297544204 
1575	 0.140703661054412 
1576	 0.140710886425744 
1577	 0.140726961838563 
1578	 0.14073386744759 
1579	 0.140736729353343 
1580	 0.140742303861239 
1581	 0.140747769363373 
1582	 0.14075114971782 
1583	 0.140747532092411 
1584	 0.140757398466966 
1585	 0.140772470337021 
1586	 0.140785823809346 
1587	 0.140817798409608 
1588	 0.14083204415369 
1589	 0.140822487552054 
1590	 0.140833452946253 
1591	 0.140850325989822 
1592	 0.14086450613938 
1593	 0.140889937384531 
1594	 0.140912654888823 
1595	 0.140935391612294 
1596	 0.140950051371501 
1597	 0.140973013329865 
1598	 0.140974241243072 
1599	 0.140946484129206 
1600	 0.140931666204628 
1601	 0.14089967915304 
1602	 0.140891177238749 
1603	 0.140919876608882 
1604	 0.140920318706518 
1605	 0.140908708108914 
1606	 0.140904846305753 
1607	 0.140887257822217 
1608	 0.14087370049123 
1609	 0.140874315046673 
1610	 0.140877917045338 
1611	 0.140879122566911 
1612	 0.140880436622064 
1613	 0.140884717976695 
1614	 0.14091469220749 
1615	 0.140940073411085 
1616	 0.140950212089952 
1617	 0.140963925317384 
1618	 0.140960708820293 
1619	 0.140953080646299 
1620	 0.14095854288936 
1621	 0.140954871351521 
1622	 0.140951420904719 
1623	 0.140942893164575 
1624	 0.140929477313729 
1625	 0.140914754778406 
1626	 0.140889958289942 
1627	 0.140891157081874 
1628	 0.140902964632527 
1629	 0.140905396502801 
1630	 0.140919497916532 
1631	 0.140931721734891 
1632	 0.140936535858496 
1633	 0.140942090995205 
1634	 0.140960245501512 
1635	 0.140962618757485 
1636	 0.140948125977739 
1637	 0.140941309924472 
1638	 0.140938770826109 
1639	 0.140928767925511 
1640	 0.140902092253234 
1641	 0.140906576298155 
1642	 0.140919498648412 
1643	 0.140940596074 
1644	 0.141002409552345 
1645	 0.141010418500345 
1646	 0.14099243069382 
1647	 0.140985654124634 
1648	 0.140952144486959 
1649	 0.140943959457977 
1650	 0.140964197601987 
1651	 0.140955161229628 
1652	 0.140927476931547 
1653	 0.140920794426528 
1654	 0.14090600925442 
1655	 0.140911490591312 
1656	 0.140950656001209 
1657	 0.140959504666526 
1658	 0.1409541764081 
1659	 0.140965741770621 
1660	 0.140982585463627 
1661	 0.140981689412181 
1662	 0.140987454565899 
1663	 0.140980265800966 
1664	 0.140939488561804 
1665	 0.140926506642434 
1666	 0.140928190277041 
1667	 0.140925804741722 
1668	 0.140938360771003 
1669	 0.140925361895267 
1670	 0.140897601979503 
1671	 0.140877144372668 
1672	 0.140825138460195 
1673	 0.140824708455828 
1674	 0.140867304323418 
1675	 0.140880404375346 
1676	 0.140906593334165 
1677	 0.140923634219961 
1678	 0.140916359662617 
1679	 0.140926618459464 
1680	 0.140957125201626 
1681	 0.140970236896024 
1682	 0.140978093580217 
1683	 0.140978290770266 
1684	 0.140970555899404 
1685	 0.140961311813332 
1686	 0.140939872098476 
1687	 0.140930486536249 
1688	 0.140920996697039 
1689	 0.140919964509962 
1690	 0.140926191696967 
1691	 0.140936157784079 
1692	 0.140959924550956 
1693	 0.140967425880058 
1694	 0.140973073804367 
1695	 0.140977635207114 
1696	 0.140972965859392 
1697	 0.140965100825367 
1698	 0.140948587103192 
1699	 0.14094921425809 
1700	 0.140956331808298 
1701	 0.140958665171198 
1702	 0.140979823928879 
1703	 0.140977577575908 
1704	 0.140956272584411 
1705	 0.140936936711994 
1706	 0.140909232925372 
1707	 0.140886847792494 
1708	 0.140853578047939 
1709	 0.140838207839053 
1710	 0.140835244002328 
1711	 0.14083231727034 
1712	 0.140844123113562 
1713	 0.140845118183751 
1714	 0.140854291093122 
1715	 0.140831778912619 
1716	 0.140778529609754 
1717	 0.140752131329105 
1718	 0.140707950705733 
1719	 0.140693142886085 
1720	 0.140714855256266 
1721	 0.140718895407422 
1722	 0.140732130568658 
1723	 0.140726549317809 
1724	 0.140719363059475 
1725	 0.140693476257068 
1726	 0.140628427146289 
1727	 0.140605081635884 
1728	 0.14059211808899 
1729	 0.140575393920122 
1730	 0.140582492088159 
1731	 0.140579375766921 
1732	 0.140565846031613 
1733	 0.140555462634724 
1734	 0.140561339191264 
1735	 0.140528772281318 
1736	 0.140457647505309 
1737	 0.14043430646357 
1738	 0.140415082426453 
1739	 0.140398987060526 
1740	 0.140423365958931 
1741	 0.14039550978764 
1742	 0.140333174368967 
1743	 0.140298338144334 
1744	 0.140255345811435 
1745	 0.140227889660076 
1746	 0.140211253540157 
1747	 0.140182852243067 
1748	 0.140174014900445 
1749	 0.140151345431931 
1750	 0.140149118795159 
1751	 0.140140225377825 
1752	 0.140114105060167 
1753	 0.140112965943165 
1754	 0.140118106501467 
1755	 0.140118586211282 
1756	 0.14011047533385 
1757	 0.140073909443344 
1758	 0.140031167115197 
1759	 0.139992368994397 
1760	 0.139978481550117 
1761	 0.139998071095444 
1762	 0.139997262269489 
1763	 0.139972190397327 
1764	 0.1399454336618 
1765	 0.139919643522962 
1766	 0.139909531585126 
1767	 0.139914269006443 
1768	 0.139917323799505 
1769	 0.139911660741853 
1770	 0.1398917369164 
1771	 0.139868253024745 
1772	 0.139846671167646 
1773	 0.139804577327873 
1774	 0.139750006332291 
1775	 0.139704614860793 
1776	 0.139671674041494 
1777	 0.139649025464079 
1778	 0.139637393402462 
1779	 0.139652510164272 
1780	 0.13966134485885 
1781	 0.139638651192721 
1782	 0.139631028565464 
1783	 0.139607240384172 
1784	 0.139586992234222 
1785	 0.139598495723365 
1786	 0.139578790392475 
1787	 0.139516746701759 
1788	 0.139495276864933 
1789	 0.139489626921992 
1790	 0.139467328197926 
1791	 0.139466999838729 
1792	 0.139451444924286 
1793	 0.139398334763432 
1794	 0.139383340314499 
1795	 0.139391974921374 
1796	 0.139381803915084 
1797	 0.139377745358329 
1798	 0.139379786718978 
1799	 0.139368808358426 
1800	 0.139376676435803 
1801	 0.135592266951095 
1802	 0.135595969387649 
1803	 0.135600581416392 
1804	 0.135639033496568 
1805	 0.13567408577535 
1806	 0.135707494601101 
1807	 0.13576813246577 
1808	 0.135804623735447 
1809	 0.135795913049761 
1810	 0.135818969955382 
1811	 0.135854531008509 
1812	 0.135910425448699 
1813	 0.135930059853738 
1814	 0.135957777709269 
1815	 0.135989809496351 
1816	 0.135986857689421 
1817	 0.135985212224368 
1818	 0.135983089533522 
1819	 0.135981691144902 
1820	 0.135970312504207 
1821	 0.135950001940717 
1822	 0.135954240661908 
1823	 0.135984344846702 
1824	 0.136011616304448 
1825	 0.136031322499725 
1826	 0.136022077892471 
1827	 0.135978425635903 
1828	 0.135950555731329 
1829	 0.135890478966335 
1830	 0.135870035396615 
1831	 0.135862895449647 
1832	 0.135894131946448 
1833	 0.135920295863991 
1834	 0.135938590379388 
1835	 0.13596491614999 
1836	 0.135974134076958 
1837	 0.135952395916822 
1838	 0.135925943263465 
1839	 0.135915607923922 
1840	 0.135903305857975 
1841	 0.135891973519801 
1842	 0.135892180422914 
1843	 0.135903155404426 
1844	 0.135890802184013 
1845	 0.135854058160791 
1846	 0.135834376675812 
1847	 0.135805218950521 
1848	 0.135781274620635 
1849	 0.135767769323348 
1850	 0.135749051736887 
1851	 0.135720935911396 
1852	 0.135714936120559 
1853	 0.135715091763149 
1854	 0.135707892072368 
1855	 0.135682218271217 
1856	 0.135634046934226 
1857	 0.135571224616952 
1858	 0.135513105660103 
1859	 0.135486176825868 
1860	 0.135441857366487 
1861	 0.135402857124421 
1862	 0.135352252465177 
1863	 0.135304238169075 
1864	 0.135234390416611 
1865	 0.135163132664299 
1866	 0.135104924262498 
1867	 0.135027020531407 
1868	 0.134937367905415 
1869	 0.134861259792187 
1870	 0.134794738731021 
1871	 0.134705646814273 
1872	 0.134617825781048 
1873	 0.134493765324846 
1874	 0.134353001045498 
1875	 0.134180385850912 
1876	 0.133980515354609 
1877	 0.133800638653464 
1878	 0.133597627551436 
1879	 0.133387689679737 
1880	 0.133169080952009 
1881	 0.132940173414047 
1882	 0.132701930904629 
1883	 0.132466813850216 
1884	 0.132184234011235 
1885	 0.131901018616061 
1886	 0.131615412261623 
1887	 0.131283599593814 
1888	 0.130936922941568 
1889	 0.130592793527003 
1890	 0.130216422740992 
1891	 0.129830852503881 
1892	 0.129434781464749 
1893	 0.129043612710174 
1894	 0.128648351113662 
1895	 0.128222210927831 
1896	 0.127792332486895 
1897	 0.127341151351104 
1898	 0.126878966985551 
1899	 0.12642350183881 
1900	 0.125975622937085 
1901	 0.125536903984616 
1902	 0.125103520235909 
1903	 0.124660272238452 
1904	 0.124245815166493 
1905	 0.123841422134159 
1906	 0.12347358003784 
1907	 0.123125447357677 
1908	 0.122779108234283 
1909	 0.122452900383621 
1910	 0.122099230910785 
1911	 0.121743796646209 
1912	 0.121458404580617 
1913	 0.121184068227168 
1914	 0.12093757002974 
1915	 0.120709225581207 
1916	 0.120521528560428 
1917	 0.12030529391053 
1918	 0.120118489993111 
1919	 0.119962943664817 
1920	 0.119827626041712 
1921	 0.119717730979425 
1922	 0.119606602631207 
1923	 0.119503157008605 
1924	 0.119395302577065 
1925	 0.119272756250835 
1926	 0.119177339634437 
1927	 0.119098256969587 
1928	 0.119008028238852 
1929	 0.11894938960081 
1930	 0.118903695717279 
1931	 0.118843006455825 
1932	 0.118807056600027 
1933	 0.11878352579292 
1934	 0.118762301419113 
1935	 0.118760525673036 
1936	 0.118783310779113 
1937	 0.118806306492101 
1938	 0.118849068650174 
1939	 0.118881382048123 
1940	 0.118905959367288 
1941	 0.118948467279497 
1942	 0.118993550969404 
1943	 0.119031655588753 
1944	 0.119109004190159 
1945	 0.119174986996866 
1946	 0.119235111636774 
1947	 0.119288304467502 
1948	 0.11935285970091 
1949	 0.119407211018441 
1950	 0.119484868759717 
1951	 0.119575631330662 
1952	 0.119684551171334 
1953	 0.119799247413736 
1954	 0.119889530172029 
1955	 0.119977099820578 
1956	 0.120066037819285 
1957	 0.120160747286722 
1958	 0.12025834113749 
1959	 0.120349886849925 
1960	 0.120433569598872 
1961	 0.120538552658956 
1962	 0.120652042915331 
1963	 0.120765508252944 
1964	 0.120895155193323 
1965	 0.121023091527452 
1966	 0.121147712981558 
1967	 0.121257684853995 
1968	 0.121373381824442 
1969	 0.121492864343014 
1970	 0.121611979649605 
1971	 0.121726921731169 
1972	 0.121844599863112 
1973	 0.121966770119342 
1974	 0.1220875556418 
1975	 0.122204091968204 
1976	 0.122322111020389 
1977	 0.122457381179699 
1978	 0.122598636819997 
1979	 0.122729981898921 
1980	 0.122879595155722 
1981	 0.123019473682191 
1982	 0.123151145991328 
1983	 0.123286869162309 
1984	 0.123426842096751 
1985	 0.123560643843963 
1986	 0.123690573216891 
1987	 0.123825476154067 
1988	 0.123953501304738 
1989	 0.124094219993367 
1990	 0.124254519243959 
1991	 0.124395145369489 
1992	 0.124547489212623 
1993	 0.124715115430516 
1994	 0.124867282459894 
1995	 0.125024061692277 
1996	 0.12515831693282 
1997	 0.125264459648063 
1998	 0.125392297982422 
1999	 0.125513514006916 
2000	 0.125639736399959 
2001	 0.125771954006163 
2002	 0.125927766098331 
2003	 0.126061256036875 
2004	 0.126179108263109 
2005	 0.126312779150576 
2006	 0.126448998208247 
2007	 0.126582818101465 
2008	 0.126733950617558 
2009	 0.126862000564209 
2010	 0.126975530666903 
2011	 0.127093927887467 
2012	 0.127196821838892 
2013	 0.127306359185909 
2014	 0.12740825002418 
2015	 0.127531096581754 
2016	 0.127673789241888 
2017	 0.127817816086282 
2018	 0.127950209436876 
2019	 0.128099115103671 
2020	 0.128223740000473 
2021	 0.128318825213762 
2022	 0.128427861675816 
2023	 0.12854186999508 
2024	 0.128648618505719 
2025	 0.128749504281511 
2026	 0.128853367487455 
2027	 0.12895879298885 
2028	 0.129052933291983 
2029	 0.129157469915772 
2030	 0.129263373110538 
2031	 0.129376026423051 
2032	 0.129498769777723 
2033	 0.129612805428259 
2034	 0.129727012987436 
2035	 0.129838832962109 
2036	 0.129944517380347 
2037	 0.130053586914259 
2038	 0.130184029135698 
2039	 0.130283443498882 
2040	 0.130369909535927 
2041	 0.130434923350664 
2042	 0.130506088558263 
2043	 0.130587260795882 
2044	 0.130683780310672 
2045	 0.130813373828233 
2046	 0.130916849777909 
2047	 0.131031648284147 
2048	 0.131112345959071 
2049	 0.131164076191498 
2050	 0.131227803370835 
2051	 0.131260644077714 
2052	 0.131322575785298 
2053	 0.131421104637887 
2054	 0.131495152897671 
2055	 0.131573447077109 
2056	 0.131633005998693 
2057	 0.13169705694857 
2058	 0.131744723635807 
2059	 0.131800189295956 
2060	 0.131866992548031 
2061	 0.131920591447958 
2062	 0.131953789624836 
2063	 0.132007415666431 
2064	 0.132060198361759 
2065	 0.132124552680196 
2066	 0.132204512307989 
2067	 0.132286826465335 
2068	 0.132375994766939 
2069	 0.132474701316942 
2070	 0.132558418189684 
2071	 0.132642685109398 
2072	 0.132722814393187 
2073	 0.132798799813866 
2074	 0.132859952517328 
2075	 0.132911397801203 
2076	 0.13296766018161 
2077	 0.133000975127744 
2078	 0.133060600156196 
2079	 0.133147953824962 
2080	 0.1332160775793 
2081	 0.133287760217222 
2082	 0.133350555088145 
2083	 0.133396119219415 
2084	 0.133445291702739 
2085	 0.133505386976573 
2086	 0.133569799454784 
2087	 0.133632266307169 
2088	 0.13370382756893 
2089	 0.133770235264565 
2090	 0.133830344067441 
2091	 0.133896213685821 
2092	 0.133960406925376 
2093	 0.134034032035475 
2094	 0.134131656555803 
2095	 0.134198391162029 
2096	 0.134240087188661 
2097	 0.1343061913571 
2098	 0.134376101690992 
2099	 0.134425583235112 
2100	 0.134494480098845 
2101	 0.134599462527292 
2102	 0.134664992069866 
2103	 0.134702086044616 
2104	 0.134762433141829 
2105	 0.134821069849302 
2106	 0.134885908177575 
2107	 0.134964515731261 
2108	 0.135035123811232 
2109	 0.135096737184603 
2110	 0.135170501683371 
2111	 0.135249176444374 
2112	 0.135330587140589 
2113	 0.135422420805589 
2114	 0.135520862738784 
2115	 0.135589870316014 
2116	 0.135633833703186 
2117	 0.135717979776138 
2118	 0.135802222764497 
2119	 0.135888926869896 
2120	 0.136018654822289 
2121	 0.136103498967267 
2122	 0.136152894720697 
2123	 0.136217334942271 
2124	 0.136281613676758 
2125	 0.136337461356918 
2126	 0.136386905952483 
2127	 0.136438501091887 
2128	 0.136478860759332 
2129	 0.136527104274349 
2130	 0.136581219346726 
2131	 0.136647075212706 
2132	 0.13668261587173 
2133	 0.136709466090127 
2134	 0.136730135128268 
2135	 0.136729050648633 
2136	 0.136733750234847 
2137	 0.13674224153888 
2138	 0.136740316056732 
2139	 0.136724426943911 
2140	 0.136714607823993 
2141	 0.13671477189052 
2142	 0.136693914515975 
2143	 0.136654055060852 
2144	 0.136626243194385 
2145	 0.136594149269336 
2146	 0.136556007026864 
2147	 0.1365313786831 
2148	 0.136501464129954 
2149	 0.136435968465264 
2150	 0.136340108219597 
2151	 0.136254508499654 
2152	 0.136137533040104 
2153	 0.136054980419328 
2154	 0.135993554536487 
2155	 0.135918812687409 
2156	 0.135863765156285 
2157	 0.135779148578843 
2158	 0.135664537225468 
2159	 0.135567663744676 
2160	 0.135484239451575 
2161	 0.13536942591439 
2162	 0.135231570601779 
2163	 0.135111962033181 
2164	 0.134980185116852 
2165	 0.134837263600287 
2166	 0.134723957283237 
2167	 0.134641779006589 
2168	 0.134549957205893 
2169	 0.134463098930547 
2170	 0.134372025815822 
2171	 0.134279726559543 
2172	 0.134203282345281 
2173	 0.134135954373034 
2174	 0.134056481403354 
2175	 0.133987257512321 
2176	 0.133913378893603 
2177	 0.133811669246833 
2178	 0.133737105961643 
2179	 0.133701659391479 
2180	 0.133633884232421 
2181	 0.133573708915253 
2182	 0.133487337183257 
2183	 0.133371635830614 
2184	 0.133234656937527 
2185	 0.133117055773588 
2186	 0.132976083492348 
2187	 0.132886089894712 
2188	 0.132823247955815 
2189	 0.13276316163003 
2190	 0.132743346927577 
2191	 0.132691038955583 
2192	 0.132634957053643 
2193	 0.132568532207589 
2194	 0.132481337254724 
2195	 0.132406463978617 
2196	 0.132312126328624 
2197	 0.132253164171772 
2198	 0.132227296654114 
2199	 0.132186229702083 
2200	 0.132159955873877 
2201	 0.132131727836812 
2202	 0.132097672604252 
2203	 0.132048416805156 
2204	 0.132028001426423 
2205	 0.132025735001862 
2206	 0.132014403733464 
2207	 0.132014790106795 
2208	 0.132002433523495 
2209	 0.131982008326413 
2210	 0.131966568455574 
2211	 0.131942768740332 
2212	 0.131937162910283 
2213	 0.131953596168816 
2214	 0.131944629732875 
2215	 0.13193369229088 
2216	 0.131918732648993 
2217	 0.131870370375607 
2218	 0.131851723947979 
2219	 0.131850807191092 
2220	 0.131853080722272 
2221	 0.131873387148135 
2222	 0.13189114405769 
2223	 0.131892675389142 
2224	 0.131887628617534 
2225	 0.131890033916258 
2226	 0.131882717899953 
2227	 0.131884607042909 
2228	 0.131890969020153 
2229	 0.131909853133641 
2230	 0.131932374164946 
2231	 0.13195781674874 
2232	 0.132009967126994 
2233	 0.132035985515586 
2234	 0.132051608702421 
2235	 0.132059844393974 
2236	 0.132054815368792 
2237	 0.132052212371893 
2238	 0.13204486853291 
2239	 0.132030178071916 
2240	 0.132007077098042 
2241	 0.131990346323712 
2242	 0.131971305776218 
2243	 0.131950569192871 
2244	 0.131928142221301 
2245	 0.131910625931621 
2246	 0.13190245706396 
2247	 0.131905704781609 
2248	 0.131924326132132 
2249	 0.131984907333962 
2250	 0.131984696627099 
2251	 0.131961287328098 
2252	 0.131959994558748 
2253	 0.131934439492757 
2254	 0.131935332730224 
2255	 0.131962021594151 
2256	 0.131981338267669 
2257	 0.132003406497164 
2258	 0.132015778652193 
2259	 0.132035981045645 
2260	 0.132050985671797 
2261	 0.132048653110175 
2262	 0.132057860899748 
2263	 0.13207172739647 
2264	 0.13208567615169 
2265	 0.132096051787515 
2266	 0.132120742814982 
2267	 0.13217052977457 
2268	 0.13220053848717 
2269	 0.132249932407672 
2270	 0.132248972973 
2271	 0.132229289747264 
2272	 0.132215817218789 
2273	 0.132226449509587 
2274	 0.132223458378701 
2275	 0.132228833128993 
2276	 0.132250720725554 
2277	 0.132262622137495 
2278	 0.132271612923442 
2279	 0.13227762190192 
2280	 0.13227143012224 
2281	 0.132288217516377 
2282	 0.132292955856226 
2283	 0.132335087599323 
2284	 0.132453347850215 
2285	 0.132494943658126 
2286	 0.132507586497307 
2287	 0.132532997160769 
2288	 0.132514307060546 
2289	 0.132513008052646 
2290	 0.132538528539489 
2291	 0.132556775091574 
2292	 0.132557056082836 
2293	 0.13257182049787 
2294	 0.132620570962866 
2295	 0.132643607758421 
2296	 0.13264636285009 
2297	 0.132650600026981 
2298	 0.132709932372864 
2299	 0.13273113798001 
2300	 0.132735346276213 
2301	 0.132796956867101 
2302	 0.132762209101254 
2303	 0.13271503682133 
2304	 0.13276225884401 
2305	 0.132731211413034 
2306	 0.132730353101498 
2307	 0.13277295795023 
2308	 0.132753380901343 
2309	 0.132687418563359 
2310	 0.132671152947159 
2311	 0.132628919537507 
2312	 0.132625889158564 
2313	 0.132683331000556 
2314	 0.132685033506285 
2315	 0.132687477517556 
2316	 0.132677812705811 
2317	 0.13263113676588 
2318	 0.132599318448463 
2319	 0.132557970240117 
2320	 0.132544095428885 
2321	 0.132540959488336 
2322	 0.132540892745478 
2323	 0.132564611556226 
2324	 0.1325718835129 
2325	 0.132553427510423 
2326	 0.132587231128146 
2327	 0.132666933220083 
2328	 0.132715481004384 
2329	 0.132761609112934 
2330	 0.132759551153887 
2331	 0.132719262894294 
2332	 0.132702924031048 
2333	 0.132682559920055 
2334	 0.132667868951631 
2335	 0.132675890569407 
2336	 0.132678592497838 
2337	 0.132691114885366 
2338	 0.132735170785686 
2339	 0.132709876618938 
2340	 0.132684243904743 
2341	 0.13271901350212 
2342	 0.13274218103169 
2343	 0.132742361839992 
2344	 0.132689729010908 
2345	 0.132658231109101 
2346	 0.132576023635452 
2347	 0.132538936852668 
2348	 0.132561351452381 
2349	 0.132535778060298 
2350	 0.132491502687039 
2351	 0.132443036781965 
2352	 0.132365737659172 
2353	 0.1323105846348 
2354	 0.132251693112215 
2355	 0.132227312149243 
2356	 0.132240402002574 
2357	 0.132222617081306 
2358	 0.132226684803878 
2359	 0.132181214745433 
2360	 0.132069344378023 
2361	 0.13200563126043 
2362	 0.131962000042222 
2363	 0.131901515453624 
2364	 0.131864250549077 
2365	 0.131804240122501 
2366	 0.131695239321601 
2367	 0.131607337101317 
2368	 0.13152469272085 
2369	 0.131425710780563 
2370	 0.131295517589754 
2371	 0.131259510299217 
2372	 0.131158572164732 
2373	 0.131098941631465 
2374	 0.131129491243104 
2375	 0.131126736026734 
2376	 0.131112865956045 
2377	 0.131125395047589 
2378	 0.131062802863418 
2379	 0.130894529063654 
2380	 0.130763030606817 
2381	 0.130682120425215 
2382	 0.130630884509263 
2383	 0.130625904648638 
2384	 0.130617567799948 
2385	 0.130538492710852 
2386	 0.130434800987424 
2387	 0.130364163186676 
2388	 0.130262518909763 
2389	 0.130171407996304 
2390	 0.130134345565137 
2391	 0.130064707691694 
2392	 0.129988846050262 
2393	 0.129939648453463 
2394	 0.129874286106887 
2395	 0.129765755169774 
2396	 0.129598588017781 
2397	 0.129512657417359 
2398	 0.129459659982736 
2399	 0.129415704577884 
2400	 0.129440917361611 
2401	 0.129370092263129 
2402	 0.129323232411738 
2403	 0.129333786608605 
2404	 0.129329588036777 
2405	 0.129353181809324 
2406	 0.129252689783985 
2407	 0.129089011532106 
2408	 0.128947563420481 
2409	 0.128792206225877 
2410	 0.128721524090219 
2411	 0.128673323330045 
2412	 0.128594750419708 
2413	 0.128580408940437 
2414	 0.128562053813148 
2415	 0.128527090005292 
2416	 0.128470818218219 
2417	 0.128373522244039 
2418	 0.1282526199326 
2419	 0.128124033278592 
2420	 0.128014209195893 
2421	 0.1278822896221 
2422	 0.127810516652896 
2423	 0.127779743488633 
2424	 0.127733140458583 
2425	 0.127709247770274 
2426	 0.127653623439538 
2427	 0.127580756956887 
2428	 0.127468184973809 
2429	 0.127294392289622 
2430	 0.127220114103948 
2431	 0.127234914167837 
2432	 0.127135461299786 
2433	 0.127017889788433 
2434	 0.126877776788937 
2435	 0.126645832223765 
2436	 0.126453505324975 
2437	 0.126266762741601 
2438	 0.126121393094704 
2439	 0.125944375703042 
2440	 0.12583031947111 
2441	 0.125845925397113 
2442	 0.125835032590618 
2443	 0.125840765159567 
2444	 0.125744940232287 
2445	 0.125603103276707 
2446	 0.125475489817485 
2447	 0.125250986165137 
2448	 0.125170447246327 
2449	 0.125198389920599 
2450	 0.125127046177111 
2451	 0.125040712160896 
2452	 0.125020711907861 
2453	 0.125083132523376 
2454	 0.124991328401603 
2455	 0.124852055779108 
2456	 0.124684975888804 
2457	 0.124314894565554 
2458	 0.124146422938022 
2459	 0.124157788256928 
2460	 0.124033026429139 
2461	 0.123900189568098 
2462	 0.123799578663654 
2463	 0.123589040972697 
2464	 0.12346261673141 
2465	 0.123452781163596 
2466	 0.123385383387035 
2467	 0.123322763214398 
2468	 0.123270225041105 
2469	 0.123295044550872 
2470	 0.123146153716976 
2471	 0.122829495517468 
2472	 0.122481524581709 
2473	 0.122269870058311 
2474	 0.122183496876724 
2475	 0.122053042079878 
2476	 0.121890190593385 
2477	 0.121898781208383 
2478	 0.12183142366219 
2479	 0.121719591405969 
2480	 0.121879339952275 
2481	 0.121917906850507 
2482	 0.121686722682973 
2483	 0.121590075974108 
2484	 0.121483610598517 
2485	 0.121220763865061 
2486	 0.121261237425292 
2487	 0.121420579102468 
2488	 0.121388562609793 
2489	 0.121342915406182 
2490	 0.121195971783463 
2491	 0.121094698786835 
2492	 0.121032691077847 
2493	 0.121028507547544 
2494	 0.121192098623694 
2495	 0.121035599754689 
2496	 0.120832754835039 
2497	 0.120696104485416 
2498	 0.120386732748173 
2499	 0.120306668636555 
2500	 0.120348260218338 
