Wavelength	LMW_2000002.asd
350	 3.79065035083067E-02 
351	 4.07795614556974E-02 
352	 3.83189427364454E-02 
353	 0.0372139861538 
354	 3.95859276273245E-02 
355	 4.66210726749989E-02 
356	 0.047062924087809 
357	 3.57886651492558E-02 
358	 4.16801916821309E-02 
359	 4.31688277719037E-02 
360	 3.97798836297071E-02 
361	 4.40077748893227E-02 
362	 4.40271747673147E-02 
363	 4.48761475944922E-02 
364	 4.86486166583817E-02 
365	 5.01117663477039E-02 
366	 4.77353408431273E-02 
367	 4.41652184583954E-02 
368	 4.31083139212633E-02 
369	 4.75119844020087E-02 
370	 4.85990130919633E-02 
371	 4.72346510691341E-02 
372	 5.01923829020471E-02 
373	 4.89051225119611E-02 
374	 4.80235380255616E-02 
375	 5.08757947060457E-02 
376	 5.63036232225107E-02 
377	 5.35847023730428E-02 
378	 5.04668882324443E-02 
379	 5.55278659296607E-02 
380	 5.58494303432408E-02 
381	 5.39787048879929E-02 
382	 5.27241476347424E-02 
383	 5.43615427818842E-02 
384	 5.68180249357003E-02 
385	 5.73996924970776E-02 
386	 5.67240565074495E-02 
387	 6.22456768964273E-02 
388	 6.31253591657165E-02 
389	 6.09147352255266E-02 
390	 6.04161267757432E-02 
391	 6.06835069928314E-02 
392	 6.32912014641574E-02 
393	 6.63128787156987E-02 
394	 6.54958401878087E-02 
395	 6.82792606655005E-02 
396	 7.04981279663836E-02 
397	 6.96363811199216E-02 
398	 7.06298063140439E-02 
399	 0.072479154937007 
400	 7.43557266094943E-02 
401	 7.55238758534758E-02 
402	 7.60544765151621E-02 
403	 7.64189081470907E-02 
404	 7.72773144316941E-02 
405	 7.93464485606845E-02 
406	 7.99293858308396E-02 
407	 8.00986690143585E-02 
408	 8.07816716337201E-02 
409	 8.02944299681769E-02 
410	 8.13827836222192E-02 
411	 8.31739836508928E-02 
412	 8.35060445082453E-02 
413	 8.44293860789342E-02 
414	 8.43465862554324E-02 
415	 0.083344793557762 
416	 8.39775050632863E-02 
417	 8.46699163501809E-02 
418	 0.085199441439846 
419	 8.55781902947227E-02 
420	 8.56047791715327E-02 
421	 8.44653960358636E-02 
422	 0.083506845266815 
423	 8.49785514820314E-02 
424	 8.52821744485299E-02 
425	 8.47379877173659E-02 
426	 8.41020468368373E-02 
427	 8.39273598215226E-02 
428	 8.34881356189025E-02 
429	 8.29456075080805E-02 
430	 8.25773262311931E-02 
431	 8.16171110947473E-02 
432	 8.14830720290008E-02 
433	 0.08212602985259 
434	 8.20719734922586E-02 
435	 8.16897322517899E-02 
436	 8.15871628017155E-02 
437	 8.20101780360134E-02 
438	 8.21102777136933E-02 
439	 8.24570509593886E-02 
440	 8.30517666081483E-02 
441	 8.36141674426061E-02 
442	 8.40222440071946E-02 
443	 8.46241494605359E-02 
444	 8.54822991319176E-02 
445	 8.61817293531921E-02 
446	 8.66615703961788E-02 
447	 8.71122919549808E-02 
448	 8.76823006426324E-02 
449	 8.79095531889395E-02 
450	 8.85461820329245E-02 
451	 8.95022613665932E-02 
452	 0.08999350676767 
453	 9.05176912357144E-02 
454	 9.09366035975783E-02 
455	 9.11392750197153E-02 
456	 9.13245694370905E-02 
457	 9.14442785507443E-02 
458	 9.16594411150632E-02 
459	 9.21454993041568E-02 
460	 9.25335025018177E-02 
461	 9.26248515521411E-02 
462	 9.26103056272758E-02 
463	 9.31913922624576E-02 
464	 9.35069301634657E-02 
465	 9.36068815021782E-02 
466	 9.37324416505681E-02 
467	 9.37580119059902E-02 
468	 0.094035641416688 
469	 9.44126397194225E-02 
470	 9.43761502151665E-02 
471	 9.45826426499355E-02 
472	 9.47708741694121E-02 
473	 9.47288823307418E-02 
474	 9.46999569411382E-02 
475	 9.48123116703657E-02 
476	 9.49434994955268E-02 
477	 9.49066939002565E-02 
478	 9.49959877450391E-02 
479	 9.51403279245458E-02 
480	 9.52433487562117E-02 
481	 9.52150410080869E-02 
482	 0.095359304651894 
483	 9.55664707232715E-02 
484	 9.56591561928174E-02 
485	 9.57109635880127E-02 
486	 9.56692093140464E-02 
487	 0.095557656582029 
488	 9.54742843964558E-02 
489	 9.56538064497876E-02 
490	 9.58607090270683E-02 
491	 9.59198581340271E-02 
492	 9.60293645348233E-02 
493	 9.59721856820273E-02 
494	 9.58715018174608E-02 
495	 9.59774738370082E-02 
496	 9.62069230463083E-02 
497	 9.62402145364281E-02 
498	 0.096068283601264 
499	 9.61627790440349E-02 
500	 9.62961715411135E-02 
501	 9.62972607779405E-02 
502	 9.61482718575769E-02 
503	 9.64606343821657E-02 
504	 9.66151695295413E-02 
505	 9.64921095755766E-02 
506	 9.64552014471525E-02 
507	 9.64009376137457E-02 
508	 9.64550716529415E-02 
509	 9.66296798875959E-02 
510	 9.65334833234089E-02 
511	 9.64467360530021E-02 
512	 0.096460895197462 
513	 9.65481727688225E-02 
514	 9.65786551273357E-02 
515	 9.65743268892207E-02 
516	 9.65972713442408E-02 
517	 9.67639923961755E-02 
518	 9.67276648358929E-02 
519	 9.65974334049496E-02 
520	 9.66052617140399E-02 
521	 9.67608207292915E-02 
522	 9.68113243191914E-02 
523	 0.09674779557465 
524	 9.68241238596206E-02 
525	 9.68525448972272E-02 
526	 0.096835623061509 
527	 9.68203082391732E-02 
528	 9.68649612074007E-02 
529	 9.68505647371878E-02 
530	 9.68048191135722E-02 
531	 9.68442652512361E-02 
532	 9.69146617207263E-02 
533	 9.69385121183682E-02 
534	 9.68946584235657E-02 
535	 9.68734032450271E-02 
536	 9.69085345663464E-02 
537	 9.69763216832186E-02 
538	 9.70258173618836E-02 
539	 9.70338969631884E-02 
540	 9.70218032489789E-02 
541	 0.096993948531779 
542	 9.69237763841608E-02 
543	 9.69307908037512E-02 
544	 9.70403195044928E-02 
545	 9.72066876584827E-02 
546	 9.72431110342873E-02 
547	 9.72274234766703E-02 
548	 9.72208410538193E-02 
549	 9.72590525467732E-02 
550	 9.72909729758565E-02 
551	 9.73598776857596E-02 
552	 9.74652729409136E-02 
553	 9.74347839899907E-02 
554	 9.74920022254418E-02 
555	 0.097603047376411 
556	 9.76278625134967E-02 
557	 9.78019581718303E-02 
558	 9.79765512970151E-02 
559	 9.80702874096381E-02 
560	 9.81979880330226E-02 
561	 9.82389766514017E-02 
562	 9.82958000086219E-02 
563	 9.84869039154001E-02 
564	 0.098577269713569 
565	 9.86611830287547E-02 
566	 9.87723653998588E-02 
567	 9.88565437279056E-02 
568	 9.90071221489531E-02 
569	 9.91796521764892E-02 
570	 9.93332291936406E-02 
571	 0.09956223656434 
572	 9.97683425373263E-02 
573	 9.99702936067893E-02 
574	 0.100255635066297 
575	 0.100439259070771 
576	 0.100634342695598 
577	 0.100900953032654 
578	 0.10108414207203 
579	 0.101196650938963 
580	 0.101288435620344 
581	 0.101423428269307 
582	 0.101589506528152 
583	 0.101744395623232 
584	 0.101912976048343 
585	 0.102224335604055 
586	 0.102451823187863 
587	 0.102625268475537 
588	 0.102835104424246 
589	 0.103073231624386 
590	 0.103301213216276 
591	 0.103527467643197 
592	 0.103800694556461 
593	 0.104040016399965 
594	 0.104276706770018 
595	 0.104533363587823 
596	 0.104751456994214 
597	 0.104946939064473 
598	 0.105081518091415 
599	 0.105115108251199 
600	 0.105247522285564 
601	 0.105391829249413 
602	 0.105496788147116 
603	 0.105642032879016 
604	 0.105739446006195 
605	 0.105854677481423 
606	 0.106057725129478 
607	 0.106128312913921 
608	 0.106203095455422 
609	 0.106342905880467 
610	 0.106497374024223 
611	 0.106605911233815 
612	 0.106660608352794 
613	 0.106679010518657 
614	 0.106698796296091 
615	 0.106741953489453 
616	 0.10680556733259 
617	 0.106869307315614 
618	 0.106949016964135 
619	 0.107001769480322 
620	 0.10700984440829 
621	 0.107018462572039 
622	 0.107085368738061 
623	 0.107121156923445 
624	 0.107030648557469 
625	 0.107132757022614 
626	 0.107208175399071 
627	 0.107176655286574 
628	 0.107196397407697 
629	 0.107228587671673 
630	 0.107263214110917 
631	 0.107286349039629 
632	 0.107245013875698 
633	 0.107241955287174 
634	 0.107291882759594 
635	 0.107332527540111 
636	 0.107331851544607 
637	 0.10731216176987 
638	 0.107297319122804 
639	 0.107281505169834 
640	 0.107310093222131 
641	 0.107358156916305 
642	 0.107371219044121 
643	 0.107356676932124 
644	 0.107348741788168 
645	 0.107357897030222 
646	 0.107356711563226 
647	 0.107338249974194 
648	 0.107345823069169 
649	 0.107403489822948 
650	 0.107392817995815 
651	 0.107366156853258 
652	 0.107356072474366 
653	 0.107370345944091 
654	 0.107368745451957 
655	 0.107359249341549 
656	 0.107350792330514 
657	 0.107318682364896 
658	 0.107389716688312 
659	 0.10747734345274 
660	 0.107426395080003 
661	 0.107427368193431 
662	 0.107424850181507 
663	 0.107408749548186 
664	 0.1074698580805 
665	 0.107502522489667 
666	 0.107483833739853 
667	 0.107442759941888 
668	 0.107508094529801 
669	 0.107574669853969 
670	 0.107598548530155 
671	 0.107595300232082 
672	 0.107586506034607 
673	 0.107597130191865 
674	 0.107643814358388 
675	 0.107736043366345 
676	 0.107779405715514 
677	 0.107790360475378 
678	 0.107827225222893 
679	 0.10784688327442 
680	 0.107871151995389 
681	 0.107906328986321 
682	 0.107931680282288 
683	 0.1080052176054 
684	 0.108061736350153 
685	 0.108051682758426 
686	 0.108102262638548 
687	 0.108137175250625 
688	 0.108167547439351 
689	 0.108255834133298 
690	 0.108273294873806 
691	 0.108288359715934 
692	 0.108349708074169 
693	 0.108413910050577 
694	 0.10842939150795 
695	 0.108441104858904 
696	 0.108504352777072 
697	 0.108501098803638 
698	 0.108539942743373 
699	 0.108621642175766 
700	 0.108626015471994 
701	 0.108663348359873 
702	 0.108724049536506 
703	 0.108772870550739 
704	 0.108771086593562 
705	 0.10880084363222 
706	 0.108847449610271 
707	 0.108854193132191 
708	 0.108878204632816 
709	 0.108925518820173 
710	 0.10897261832488 
711	 0.108961136033806 
712	 0.108973075981954 
713	 0.10900008795302 
714	 0.109018306594266 
715	 0.109055056550387 
716	 0.10904520563687 
717	 0.109019769021321 
718	 0.109070616143496 
719	 0.109118543343382 
720	 0.109136702646628 
721	 0.109129024143772 
722	 0.109141844299931 
723	 0.109156917289444 
724	 0.109155741549869 
725	 0.109131414383768 
726	 0.109136218407053 
727	 0.109153679613283 
728	 0.109149741498927 
729	 0.109085869533449 
730	 0.109089970312899 
731	 0.109112884375794 
732	 0.109106108917535 
733	 0.109105601363165 
734	 0.109097409708169 
735	 0.10906342481985 
736	 0.108998631849218 
737	 0.108984054604573 
738	 0.108983207978706 
739	 0.108973438528537 
740	 0.108957448696292 
741	 0.108929456663179 
742	 0.10889222328197 
743	 0.108849689394914 
744	 0.108803643475962 
745	 0.108747085903924 
746	 0.108686893393489 
747	 0.108635176852389 
748	 0.108587530977902 
749	 0.108546065389998 
750	 0.108506987983566 
751	 0.108459412344068 
752	 0.108423206641867 
753	 0.108363761449815 
754	 0.10827189126498 
755	 0.108251604678879 
756	 0.108213794518837 
757	 0.108143261496861 
758	 0.108065943505318 
759	 0.108001911175427 
760	 0.107923459032376 
761	 0.107834587881894 
762	 0.107783363066017 
763	 0.107738303485741 
764	 0.107676055184683 
765	 0.10759302534019 
766	 0.107538934983968 
767	 0.107462237131009 
768	 0.107370101781284 
769	 0.107293285540595 
770	 0.107193393740696 
771	 0.10712801564908 
772	 0.107090954437158 
773	 0.106993981065557 
774	 0.106907787670882 
775	 0.106829413585685 
776	 0.106747672640328 
777	 0.106678492284474 
778	 0.106568585134292 
779	 0.106471332546187 
780	 0.106455795869198 
781	 0.106355928374978 
782	 0.106263146018848 
783	 0.1061977750481 
784	 0.106088874175497 
785	 0.106019122414636 
786	 0.105943874183323 
787	 0.105833663932955 
788	 0.105750647265479 
789	 0.105706237484834 
790	 0.105649688603895 
791	 0.105531027323966 
792	 0.105448429952197 
793	 0.105344126464014 
794	 0.105227118503042 
795	 0.105163738871727 
796	 0.105099078013793 
797	 0.105022023162015 
798	 0.104937225606214 
799	 0.10486475429208 
800	 0.104796513388962 
801	 0.104696706991901 
802	 0.104556189685514 
803	 0.104497554376494 
804	 0.104440255091766 
805	 0.104361154019741 
806	 0.104278350487788 
807	 0.104202308134565 
808	 0.104120060877946 
809	 0.104026236063915 
810	 0.103929485080857 
811	 0.103889119845721 
812	 0.103837051987417 
813	 0.103727911373315 
814	 0.103654989933092 
815	 0.103615399727778 
816	 0.103552782344357 
817	 0.103423515675203 
818	 0.103387427320781 
819	 0.103343528514654 
820	 0.103258732913593 
821	 0.103172213145536 
822	 0.103096666706545 
823	 0.103037083485818 
824	 0.102983995131345 
825	 0.10290875009334 
826	 0.102851471612758 
827	 0.102788170252758 
828	 0.102697092921646 
829	 0.10261673432285 
830	 0.102565116565421 
831	 0.102532461885191 
832	 0.102491248913971 
833	 0.10240956708659 
834	 0.102332451062631 
835	 0.102278355649057 
836	 0.102233969328689 
837	 0.102195606427602 
838	 0.102149061118282 
839	 0.102083555054187 
840	 0.101995224958813 
841	 0.101929868746271 
842	 0.10190502680725 
843	 0.101904198333689 
844	 0.101833786554373 
845	 0.101817932195043 
846	 0.101814621677792 
847	 0.101731416377229 
848	 0.101670639355268 
849	 0.101627864270226 
850	 0.101579378739923 
851	 0.1014992533814 
852	 0.101466260711296 
853	 0.101430544381623 
854	 0.101380498538861 
855	 0.101384342990679 
856	 0.101338991643223 
857	 0.101294835743386 
858	 0.101291629969982 
859	 0.10124517099233 
860	 0.101212647811249 
861	 0.101176077580628 
862	 0.101105654524479 
863	 0.101035984770829 
864	 0.100980395598817 
865	 0.10095854616178 
866	 0.10097856685423 
867	 0.100955108053535 
868	 0.100931720605319 
869	 0.10091244227708 
870	 0.100857714044072 
871	 0.100875786655741 
872	 0.100882992543037 
873	 0.100835925995756 
874	 0.100806890330357 
875	 0.100769457663158 
876	 0.100747719022255 
877	 0.1007475327114 
878	 0.100692143576155 
879	 0.10070540492685 
880	 0.100730372619345 
881	 0.100683629562994 
882	 0.100657548118903 
883	 0.100626908475674 
884	 0.100591091162109 
885	 0.100566446442738 
886	 0.100578267735887 
887	 0.10058675882431 
888	 0.100591546778377 
889	 0.100624030931645 
890	 0.10064611737242 
891	 0.100615062462555 
892	 0.100556336023694 
893	 0.100569818625507 
894	 0.100550662406453 
895	 0.100518656017512 
896	 0.100509299546579 
897	 0.100541085365224 
898	 0.100539806687014 
899	 0.100545578867999 
900	 0.100579699583372 
901	 0.100521281999463 
902	 0.100548198002376 
903	 0.100598637772695 
904	 0.10057633875556 
905	 0.10058732285195 
906	 0.100638774660652 
907	 0.100661105433658 
908	 0.100593404914561 
909	 0.100608121950373 
910	 0.100618393407425 
911	 0.100633462363833 
912	 0.100709509509015 
913	 0.100713089885567 
914	 0.100730273826744 
915	 0.100751826887469 
916	 0.100687613514009 
917	 0.100664771426128 
918	 0.100688142682046 
919	 0.100733760423365 
920	 0.10076703512422 
921	 0.100801967687435 
922	 0.100874139623883 
923	 0.100954633742471 
924	 0.100927354572338 
925	 0.100938802179793 
926	 0.100991406650155 
927	 0.10103258472228 
928	 0.100974252827193 
929	 0.100978402670825 
930	 0.101011424830325 
931	 0.101022543204665 
932	 0.101042979699229 
933	 0.101119550512897 
934	 0.10116838812656 
935	 0.101128627461843 
936	 0.101111531456206 
937	 0.101160997268899 
938	 0.101242203606097 
939	 0.101301200838554 
940	 0.101335451584612 
941	 0.101379218982376 
942	 0.101450132326285 
943	 0.101525918832299 
944	 0.101465499926294 
945	 0.101470086345974 
946	 0.101503858395762 
947	 0.101473885749506 
948	 0.10158348145358 
949	 0.101582239266114 
950	 0.101533692601859 
951	 0.101627809921764 
952	 0.101783286216495 
953	 0.101823311047302 
954	 0.101772373863278 
955	 0.101767663146394 
956	 0.101828350699872 
957	 0.101901448937293 
958	 0.101958788996982 
959	 0.101997440480007 
960	 0.102025282445311 
961	 0.102111255146427 
962	 0.102202883326057 
963	 0.102185630638564 
964	 0.102054726355773 
965	 0.102183972905729 
966	 0.102417141739568 
967	 0.102339755872267 
968	 0.102380252187229 
969	 0.102406325428893 
970	 0.102387700878837 
971	 0.102391760362249 
972	 0.102471756836034 
973	 0.102537787748446 
974	 0.102502448256235 
975	 0.102365160560505 
976	 0.102518092682351 
977	 0.102626762777268 
978	 0.102611555101456 
979	 0.102609788019864 
980	 0.102732833744613 
981	 0.1027928130597 
982	 0.102722253910743 
983	 0.10261083627943 
984	 0.102832314336925 
985	 0.102896257494125 
986	 0.10282394470524 
987	 0.102908220963525 
988	 0.103047157382097 
989	 0.103085655254244 
990	 0.103081692364202 
991	 0.103168774758732 
992	 0.103271212110548 
993	 0.103214224771885 
994	 0.103090953932897 
995	 0.103078058795198 
996	 0.103122616165422 
997	 0.103182937349449 
998	 0.103209366438489 
999	 0.103215066370407 
1000	 0.103426175930069 
1001	 0.101721989633187 
1002	 0.101665382814077 
1003	 0.101662019177443 
1004	 0.101656023012988 
1005	 0.101617162678602 
1006	 0.101632134229682 
1007	 0.101690518960012 
1008	 0.10175539240517 
1009	 0.101786372754222 
1010	 0.101738215332839 
1011	 0.101722444110812 
1012	 0.101715121406992 
1013	 0.10165377077812 
1014	 0.101694673840068 
1015	 0.101722449424723 
1016	 0.101668883915282 
1017	 0.101660106703462 
1018	 0.101685145696439 
1019	 0.10168970959338 
1020	 0.101695576204727 
1021	 0.101758299516043 
1022	 0.101777726969947 
1023	 0.101806558383428 
1024	 0.101835817623648 
1025	 0.101802789936959 
1026	 0.101826882642821 
1027	 0.1018847567775 
1028	 0.101906527939889 
1029	 0.10189249760512 
1030	 0.101829674592659 
1031	 0.1018225354779 
1032	 0.101813533285897 
1033	 0.101842480937579 
1034	 0.101837787057071 
1035	 0.101829908374659 
1036	 0.101780806621551 
1037	 0.101688021338334 
1038	 0.101653297146645 
1039	 0.101656126701614 
1040	 0.101688149135378 
1041	 0.101700119196592 
1042	 0.101690597575864 
1043	 0.101735287042588 
1044	 0.101740252624222 
1045	 0.101713438249001 
1046	 0.101672843882635 
1047	 0.101653951927921 
1048	 0.101601330695216 
1049	 0.101564566436612 
1050	 0.101555946843312 
1051	 0.101571277530592 
1052	 0.101636431975372 
1053	 0.10173897937477 
1054	 0.101797238070401 
1055	 0.101815639871224 
1056	 0.101830794180869 
1057	 0.101838383761145 
1058	 0.101810619968497 
1059	 0.101792632118802 
1060	 0.10178564504547 
1061	 0.101764262073452 
1062	 0.101739139468719 
1063	 0.101708225835624 
1064	 0.101736608906313 
1065	 0.101801326845743 
1066	 0.101849325862253 
1067	 0.101913834173656 
1068	 0.101941899206928 
1069	 0.101926029422186 
1070	 0.101915389462276 
1071	 0.101850752097451 
1072	 0.101847217267971 
1073	 0.101881567731854 
1074	 0.10189859657982 
1075	 0.101942466063092 
1076	 0.101965487067175 
1077	 0.101928325986436 
1078	 0.101925067043998 
1079	 0.101881951423658 
1080	 0.101838202617216 
1081	 0.101868694778279 
1082	 0.101852272219588 
1083	 0.10185385011679 
1084	 0.101902235118228 
1085	 0.101901881953092 
1086	 0.101861689392025 
1087	 0.101850016423079 
1088	 0.101859882872497 
1089	 0.101798576083668 
1090	 0.101749246090019 
1091	 0.101750142695962 
1092	 0.101702358963175 
1093	 0.101660484145343 
1094	 0.101643396498131 
1095	 0.101622597354736 
1096	 0.10160869354716 
1097	 0.101613837622052 
1098	 0.10160905312551 
1099	 0.101619089067372 
1100	 0.101598249061343 
1101	 0.101542473859552 
1102	 0.101518784227017 
1103	 0.101491940131122 
1104	 0.101481364055498 
1105	 0.101505845815541 
1106	 0.101515722553049 
1107	 0.101501804616948 
1108	 0.101494581804688 
1109	 0.101453016574721 
1110	 0.101424313018823 
1111	 0.101406143355026 
1112	 0.101402647200445 
1113	 0.101374509875252 
1114	 0.101341279661652 
1115	 0.101320237143889 
1116	 0.101278487981291 
1117	 0.10126120314616 
1118	 0.10127426652159 
1119	 0.101270272258765 
1120	 0.101262392377948 
1121	 0.101280469105558 
1122	 0.101264632461135 
1123	 0.101242061161324 
1124	 0.101231557149817 
1125	 0.101213884234033 
1126	 0.101208494347712 
1127	 0.101219700141077 
1128	 0.101219037337734 
1129	 0.101208561237176 
1130	 0.101204769585213 
1131	 0.101219338074776 
1132	 0.101212752147844 
1133	 0.101200296375642 
1134	 0.10118511205615 
1135	 0.101174669627929 
1136	 0.101109245285598 
1137	 0.101069946182667 
1138	 0.101053678024658 
1139	 0.101028646914364 
1140	 0.100997085651197 
1141	 0.100997087868823 
1142	 0.101027690348175 
1143	 0.101014947681442 
1144	 0.100994304082914 
1145	 0.100981369511893 
1146	 0.100942598391645 
1147	 0.100918715862443 
1148	 0.10092561532016 
1149	 0.100915228507491 
1150	 0.100893945810767 
1151	 0.100868235068508 
1152	 0.100835920242737 
1153	 0.100800943622627 
1154	 0.100768325527351 
1155	 0.100724262607971 
1156	 0.100695586785328 
1157	 0.100677306937752 
1158	 0.100655019366888 
1159	 0.100640003138086 
1160	 0.10061732210351 
1161	 0.100590947663091 
1162	 0.10056453702484 
1163	 0.100533356898368 
1164	 0.100506190475937 
1165	 0.100477284413683 
1166	 0.10045013454411 
1167	 0.100448457156085 
1168	 0.100438570797171 
1169	 0.100424706017414 
1170	 0.100417362662056 
1171	 0.100403249738718 
1172	 0.100379990587421 
1173	 0.100357728851852 
1174	 0.100333252270623 
1175	 0.100316677658116 
1176	 0.100299085665788 
1177	 0.100279898715377 
1178	 0.100266844996448 
1179	 0.100254261906053 
1180	 0.10023763120649 
1181	 0.100221786211668 
1182	 0.100202629260822 
1183	 0.100200055314995 
1184	 0.100190177491244 
1185	 0.100182448610618 
1186	 0.100164443964907 
1187	 0.100138953089085 
1188	 0.100124530125357 
1189	 0.100100862961109 
1190	 0.100092749585593 
1191	 0.100113432831172 
1192	 0.100107287557726 
1193	 0.100082579943651 
1194	 0.100075799172669 
1195	 0.100078946831865 
1196	 0.100064095927432 
1197	 0.100043528700466 
1198	 0.100032032686128 
1199	 0.100018372486493 
1200	 9.99869761850987E-02 
1201	 9.99712600089427E-02 
1202	 9.99733467460867E-02 
1203	 9.99661757206296E-02 
1204	 9.99432969201659E-02 
1205	 9.99443676393076E-02 
1206	 9.99718193523053E-02 
1207	 9.99734999911275E-02 
1208	 9.99763172368288E-02 
1209	 9.99708528247457E-02 
1210	 9.99371203426976E-02 
1211	 9.99249811982455E-02 
1212	 9.99348146100192E-02 
1213	 9.99248098267988E-02 
1214	 9.99117842000332E-02 
1215	 9.98966313183532E-02 
1216	 9.98750874478944E-02 
1217	 9.98355527478552E-02 
1218	 9.98107451674348E-02 
1219	 9.97875183388089E-02 
1220	 9.97737489197001E-02 
1221	 0.09976398139463 
1222	 0.099757513521756 
1223	 9.97699763922471E-02 
1224	 9.97619913207106E-02 
1225	 9.97398858457877E-02 
1226	 9.97289964220615E-02 
1227	 9.97131721307346E-02 
1228	 9.97014954744799E-02 
1229	 9.97161615540105E-02 
1230	 0.099701470589555 
1231	 9.96593866463646E-02 
1232	 9.96306837627571E-02 
1233	 9.96000438224012E-02 
1234	 0.099551653477477 
1235	 9.95281907170627E-02 
1236	 9.95217849931611E-02 
1237	 9.95125103390367E-02 
1238	 9.95135816749142E-02 
1239	 9.95022762387398E-02 
1240	 0.099494204792071 
1241	 0.099476511841983 
1242	 9.94397419610034E-02 
1243	 9.94182476489417E-02 
1244	 9.94002736692578E-02 
1245	 9.93838482572087E-02 
1246	 9.93810028806524E-02 
1247	 9.93658805493415E-02 
1248	 9.93441039574658E-02 
1249	 9.93198065643679E-02 
1250	 9.92943682236687E-02 
1251	 9.92803797546041E-02 
1252	 9.92578677404394E-02 
1253	 9.92383148023087E-02 
1254	 9.92158218051287E-02 
1255	 9.91901226506284E-02 
1256	 9.91591679162413E-02 
1257	 0.099128001837202 
1258	 9.90945946239874E-02 
1259	 9.90446245751239E-02 
1260	 9.90129601454124E-02 
1261	 9.89941475337729E-02 
1262	 9.89701619675852E-02 
1263	 9.89541191870382E-02 
1264	 9.89321036953494E-02 
1265	 9.89055254105888E-02 
1266	 9.88781169955009E-02 
1267	 9.88452171392438E-02 
1268	 9.88186947473995E-02 
1269	 0.098791449255234 
1270	 9.87671655880769E-02 
1271	 9.87320786808802E-02 
1272	 9.86896340820504E-02 
1273	 9.86592937182628E-02 
1274	 0.098620437960236 
1275	 9.85964678436226E-02 
1276	 9.85859942672678E-02 
1277	 9.85825854071416E-02 
1278	 9.85851008917563E-02 
1279	 9.85947149506352E-02 
1280	 9.86239709889903E-02 
1281	 9.86381921779913E-02 
1282	 9.86421375932027E-02 
1283	 9.86603647473038E-02 
1284	 9.86732634573843E-02 
1285	 0.098710100313951 
1286	 9.87454295507398E-02 
1287	 9.87613943978908E-02 
1288	 9.87800792128394E-02 
1289	 9.87831657173557E-02 
1290	 9.88042669344207E-02 
1291	 9.88367752148005E-02 
1292	 9.88580926507229E-02 
1293	 9.88840584833842E-02 
1294	 9.88992640473796E-02 
1295	 9.89034652823516E-02 
1296	 9.89109450875116E-02 
1297	 9.89143365764219E-02 
1298	 9.89175831591808E-02 
1299	 9.89226414362773E-02 
1300	 9.89241004995426E-02 
1301	 9.89229512229219E-02 
1302	 9.89202107893891E-02 
1303	 9.89183108161001E-02 
1304	 9.89084865117599E-02 
1305	 9.88906375311579E-02 
1306	 9.88738539430762E-02 
1307	 9.88540479309647E-02 
1308	 9.88230728734863E-02 
1309	 9.87916620310959E-02 
1310	 9.87585184593943E-02 
1311	 9.87223417285943E-02 
1312	 9.86789259214346E-02 
1313	 9.86386579976433E-02 
1314	 9.85907265173837E-02 
1315	 9.85613022296338E-02 
1316	 9.85427051885911E-02 
1317	 9.85183164814437E-02 
1318	 9.85101675173089E-02 
1319	 9.84857818611205E-02 
1320	 9.84472181558036E-02 
1321	 9.84140679769503E-02 
1322	 9.83854236523869E-02 
1323	 9.83435896215766E-02 
1324	 9.83016836907984E-02 
1325	 9.82488453923388E-02 
1326	 9.81837559396801E-02 
1327	 9.81226650925698E-02 
1328	 9.80701703782999E-02 
1329	 9.80353486324526E-02 
1330	 9.79989233516802E-02 
1331	 9.79761052994503E-02 
1332	 9.79435923125425E-02 
1333	 0.097907519573962 
1334	 9.78743282336943E-02 
1335	 9.78405346276297E-02 
1336	 9.78087197702511E-02 
1337	 9.77776270640943E-02 
1338	 9.77484774262822E-02 
1339	 9.77234450350281E-02 
1340	 0.097697304413473 
1341	 9.76707648983991E-02 
1342	 9.76460897438797E-02 
1343	 9.76220260401109E-02 
1344	 9.75964847490191E-02 
1345	 9.75729556161322E-02 
1346	 9.75523628674609E-02 
1347	 9.75344042923412E-02 
1348	 9.75080802986993E-02 
1349	 9.74828960123319E-02 
1350	 9.74620064085826E-02 
1351	 9.74399086879782E-02 
1352	 9.74151428676834E-02 
1353	 9.73977392953063E-02 
1354	 9.73878170908004E-02 
1355	 9.73702200426794E-02 
1356	 9.73531330518734E-02 
1357	 9.73312005606868E-02 
1358	 9.72988681252464E-02 
1359	 9.72772777209659E-02 
1360	 9.72604451964574E-02 
1361	 9.72442329486163E-02 
1362	 9.72392800992614E-02 
1363	 9.72191594481067E-02 
1364	 9.71987892841605E-02 
1365	 9.71639183275133E-02 
1366	 9.71116247823417E-02 
1367	 9.70606924648396E-02 
1368	 9.70096406855898E-02 
1369	 9.69698422020302E-02 
1370	 9.69313561649246E-02 
1371	 9.68876762842005E-02 
1372	 0.096844539320278 
1373	 0.096801575165225 
1374	 9.67544136881662E-02 
1375	 9.67100883474063E-02 
1376	 9.66567307596675E-02 
1377	 9.65869487268463E-02 
1378	 0.096534540237491 
1379	 9.64943579138498E-02 
1380	 9.64411043023707E-02 
1381	 9.63933064133116E-02 
1382	 9.63347699127471E-02 
1383	 9.62592438020287E-02 
1384	 9.61880537685733E-02 
1385	 9.61277383192064E-02 
1386	 9.60489434008251E-02 
1387	 9.59532585442402E-02 
1388	 9.58625263094608E-02 
1389	 9.57708426449566E-02 
1390	 9.56623106671886E-02 
1391	 9.55661153691903E-02 
1392	 9.54762923448092E-02 
1393	 0.095351813160969 
1394	 9.52306911687035E-02 
1395	 9.51058387525645E-02 
1396	 9.49663265250992E-02 
1397	 9.48380542076128E-02 
1398	 0.094719895143242 
1399	 9.45932890693749E-02 
1400	 9.44690061648898E-02 
1401	 9.43279089071429E-02 
1402	 9.41737635482702E-02 
1403	 9.40298407609939E-02 
1404	 9.38773296419369E-02 
1405	 9.37341918781405E-02 
1406	 9.36109535402874E-02 
1407	 9.34648721051831E-02 
1408	 9.32943199667133E-02 
1409	 9.31488166292183E-02 
1410	 9.29956264534617E-02 
1411	 9.28657354799618E-02 
1412	 9.27605508178892E-02 
1413	 9.26609803651943E-02 
1414	 9.25622701319217E-02 
1415	 9.24781911301998E-02 
1416	 9.23897473430749E-02 
1417	 9.23068571302017E-02 
1418	 9.22336061966555E-02 
1419	 0.092156509661127 
1420	 9.20909555364705E-02 
1421	 0.092033365804353 
1422	 9.19691331195527E-02 
1423	 9.19018103987565E-02 
1424	 9.18397444600949E-02 
1425	 9.17739103723599E-02 
1426	 9.17200828782506E-02 
1427	 9.16765759737272E-02 
1428	 9.16335106534948E-02 
1429	 9.15958191332884E-02 
1430	 0.091556636240669 
1431	 9.15198610399406E-02 
1432	 9.14806999381778E-02 
1433	 0.091434343242719 
1434	 9.14044024201124E-02 
1435	 9.13869408743848E-02 
1436	 9.13588149688473E-02 
1437	 9.13375011657146E-02 
1438	 9.13124160432969E-02 
1439	 9.12791147726326E-02 
1440	 0.091242726829135 
1441	 9.12157031030248E-02 
1442	 9.11935586138159E-02 
1443	 0.09116286912907 
1444	 9.11391173298464E-02 
1445	 9.11245290379536E-02 
1446	 9.11143836531833E-02 
1447	 0.091103295074215 
1448	 9.10911705932209E-02 
1449	 9.10697674929875E-02 
1450	 9.10366256721402E-02 
1451	 9.10187424148828E-02 
1452	 9.10065006336578E-02 
1453	 9.09899396380916E-02 
1454	 9.09793996745137E-02 
1455	 9.09689948856161E-02 
1456	 9.09519327476434E-02 
1457	 9.09415910119332E-02 
1458	 9.09394680607278E-02 
1459	 9.09347099370235E-02 
1460	 9.09333664689964E-02 
1461	 9.09266305634688E-02 
1462	 9.09192474666438E-02 
1463	 9.09088412403507E-02 
1464	 9.08840011489398E-02 
1465	 9.08719222653814E-02 
1466	 9.08630625668624E-02 
1467	 9.08640361904292E-02 
1468	 9.08818598727142E-02 
1469	 9.08942212550898E-02 
1470	 9.09104710206602E-02 
1471	 9.09207152094443E-02 
1472	 9.09428406130789E-02 
1473	 9.09545757454419E-02 
1474	 9.09686701362333E-02 
1475	 9.09845577109576E-02 
1476	 9.09964986238768E-02 
1477	 9.10094153621666E-02 
1478	 9.10290344142434E-02 
1479	 9.10543365480892E-02 
1480	 9.10654297230527E-02 
1481	 9.10768556480168E-02 
1482	 9.10891447260448E-02 
1483	 9.10982072704623E-02 
1484	 9.11093620176238E-02 
1485	 9.11242005868015E-02 
1486	 9.11327590638428E-02 
1487	 9.11363981400959E-02 
1488	 9.11466534091786E-02 
1489	 9.11556586109096E-02 
1490	 9.11678800237458E-02 
1491	 9.11843555946283E-02 
1492	 9.12040670005602E-02 
1493	 9.12307698460115E-02 
1494	 9.12478153149286E-02 
1495	 0.091264128067229 
1496	 9.12797353389739E-02 
1497	 0.091284518897028 
1498	 9.12952412590517E-02 
1499	 9.13137952689706E-02 
1500	 9.13280263225172E-02 
1501	 9.13401106765406E-02 
1502	 0.09135370047788 
1503	 9.13685773002849E-02 
1504	 0.091379612246685 
1505	 9.13939915100803E-02 
1506	 9.14090757565889E-02 
1507	 9.14270238186664E-02 
1508	 0.091439377380084 
1509	 9.14396417208828E-02 
1510	 9.14314420295544E-02 
1511	 9.14228314312851E-02 
1512	 9.14118460784585E-02 
1513	 9.13990011062317E-02 
1514	 9.14012836487567E-02 
1515	 9.13969142455076E-02 
1516	 9.13947576255724E-02 
1517	 9.14025086441008E-02 
1518	 9.14211806095055E-02 
1519	 9.14262226157047E-02 
1520	 9.14336094850468E-02 
1521	 9.14361028411124E-02 
1522	 9.14285174190999E-02 
1523	 9.14304287257024E-02 
1524	 9.14384489032896E-02 
1525	 9.14415181931058E-02 
1526	 9.14413074436576E-02 
1527	 9.14420896743198E-02 
1528	 0.091445156714016 
1529	 9.14456369777838E-02 
1530	 9.14440835415472E-02 
1531	 9.14438273336908E-02 
1532	 9.14444413792642E-02 
1533	 9.14380327156572E-02 
1534	 9.14215502514691E-02 
1535	 9.14235482277853E-02 
1536	 9.14343339562796E-02 
1537	 9.14359491028393E-02 
1538	 9.14436088226092E-02 
1539	 9.14516708749639E-02 
1540	 0.091458150492656 
1541	 9.14560152148307E-02 
1542	 9.14524666245873E-02 
1543	 0.091452086261643 
1544	 9.14334555796913E-02 
1545	 0.091430048405684 
1546	 9.14464229023234E-02 
1547	 0.09145745854702 
1548	 9.14541006517954E-02 
1549	 9.14574501483842E-02 
1550	 9.14502115527957E-02 
1551	 0.0914276871034 
1552	 9.14143369360814E-02 
1553	 9.14034667506937E-02 
1554	 9.13816796451719E-02 
1555	 9.13756473635278E-02 
1556	 9.13702874022828E-02 
1557	 0.091355967062546 
1558	 9.13552020762467E-02 
1559	 9.13535801033568E-02 
1560	 9.13432564121425E-02 
1561	 9.13225186053484E-02 
1562	 0.091323146524608 
1563	 9.13309416223259E-02 
1564	 9.13276547492419E-02 
1565	 9.13367880338292E-02 
1566	 9.13337778325908E-02 
1567	 9.13123423683353E-02 
1568	 0.091301073263807 
1569	 9.12975992370684E-02 
1570	 9.12869969115264E-02 
1571	 9.12695116700091E-02 
1572	 0.09125395022803 
1573	 9.12390658868979E-02 
1574	 9.12259425223761E-02 
1575	 9.12154342664313E-02 
1576	 9.11964768109511E-02 
1577	 9.11664586928789E-02 
1578	 9.11552910028916E-02 
1579	 9.11512978748473E-02 
1580	 9.11394635962444E-02 
1581	 9.11417144102205E-02 
1582	 9.11301597431321E-02 
1583	 9.11009186938338E-02 
1584	 0.091081683217302 
1585	 9.10693611048703E-02 
1586	 9.10481978468286E-02 
1587	 9.10149183577439E-02 
1588	 9.09936396630505E-02 
1589	 9.09713168757545E-02 
1590	 9.09583109537753E-02 
1591	 9.09652809487294E-02 
1592	 9.09603409320918E-02 
1593	 9.09565869958232E-02 
1594	 9.09433952181248E-02 
1595	 9.09152712041024E-02 
1596	 9.08956573383387E-02 
1597	 9.08707534857171E-02 
1598	 9.08552034989669E-02 
1599	 9.08543809336358E-02 
1600	 9.08455908776621E-02 
1601	 9.08377327471648E-02 
1602	 9.08284190245849E-02 
1603	 9.08164708488726E-02 
1604	 9.07997211916378E-02 
1605	 9.07860729874975E-02 
1606	 9.07609115672349E-02 
1607	 9.07145328603505E-02 
1608	 9.06853292118808E-02 
1609	 9.06589723989043E-02 
1610	 9.06315948797687E-02 
1611	 9.06187122621323E-02 
1612	 9.06134940811012E-02 
1613	 9.05953981563625E-02 
1614	 0.09057406143145 
1615	 9.05690777585517E-02 
1616	 9.05459764387515E-02 
1617	 9.05222692659594E-02 
1618	 9.05221927605304E-02 
1619	 9.05090167688178E-02 
1620	 9.04903429897519E-02 
1621	 9.04754353159298E-02 
1622	 9.04615972061966E-02 
1623	 9.04478898971204E-02 
1624	 9.04343493981569E-02 
1625	 9.04233766159628E-02 
1626	 9.04179260301937E-02 
1627	 9.04021131246718E-02 
1628	 9.03825406778912E-02 
1629	 9.03600581018169E-02 
1630	 9.03322250198093E-02 
1631	 9.03035848279539E-02 
1632	 9.02709684836503E-02 
1633	 9.02435033868446E-02 
1634	 9.02137843175899E-02 
1635	 9.01882167612153E-02 
1636	 9.01715751488454E-02 
1637	 9.01439309649013E-02 
1638	 9.01078164481958E-02 
1639	 9.00839857921298E-02 
1640	 0.090060984880588 
1641	 9.00402846445733E-02 
1642	 9.00259092729032E-02 
1643	 9.00150516813222E-02 
1644	 9.00098968945007E-02 
1645	 8.99915486278614E-02 
1646	 8.99794446103923E-02 
1647	 8.99508119988031E-02 
1648	 8.98978472971428E-02 
1649	 8.98633435993773E-02 
1650	 8.98291468592801E-02 
1651	 0.089801510439175 
1652	 8.97825487987597E-02 
1653	 8.97605130787502E-02 
1654	 8.97413234782913E-02 
1655	 8.97205992727859E-02 
1656	 8.96956181283751E-02 
1657	 8.96806621163069E-02 
1658	 8.96742221027081E-02 
1659	 8.96589322056521E-02 
1660	 8.96499526136257E-02 
1661	 0.089628980473276 
1662	 8.95918552424167E-02 
1663	 8.95667505004174E-02 
1664	 0.089537770877583 
1665	 0.089522079418487 
1666	 0.08952289236669 
1667	 8.95086328773592E-02 
1668	 8.95055524953861E-02 
1669	 8.94748904692002E-02 
1670	 8.94133897073942E-02 
1671	 8.93753157838536E-02 
1672	 8.93253464603711E-02 
1673	 8.92989323935666E-02 
1674	 8.93025762904146E-02 
1675	 8.92862253929408E-02 
1676	 8.92693653563247E-02 
1677	 0.089251888613748 
1678	 8.92275008845091E-02 
1679	 0.08920501856304 
1680	 8.91956815661976E-02 
1681	 8.91620715428288E-02 
1682	 0.089101910899025 
1683	 8.90703859502996E-02 
1684	 8.90346227022562E-02 
1685	 8.90127972337241E-02 
1686	 8.90170037852437E-02 
1687	 8.90112758365917E-02 
1688	 8.90043122139949E-02 
1689	 8.89981288901788E-02 
1690	 8.90121108075666E-02 
1691	 8.89889607149413E-02 
1692	 8.89339154217155E-02 
1693	 8.89038085306202E-02 
1694	 8.88626018939739E-02 
1695	 8.88278733831574E-02 
1696	 8.88257717412502E-02 
1697	 8.87871964287319E-02 
1698	 8.87076816785526E-02 
1699	 8.86715199976822E-02 
1700	 8.86431775318782E-02 
1701	 8.86169053479064E-02 
1702	 8.86203211965548E-02 
1703	 8.86043947521537E-02 
1704	 8.85826801525042E-02 
1705	 8.85479230685368E-02 
1706	 8.84962628447691E-02 
1707	 8.84637868143029E-02 
1708	 8.84262259686738E-02 
1709	 8.83959525168709E-02 
1710	 8.83875566801254E-02 
1711	 8.83647063735784E-02 
1712	 8.83291112488072E-02 
1713	 8.83024554758797E-02 
1714	 8.82848845833117E-02 
1715	 8.82566622786467E-02 
1716	 8.82227038940248E-02 
1717	 8.81901571378904E-02 
1718	 0.088148233535557 
1719	 8.81200303218054E-02 
1720	 8.81028787358404E-02 
1721	 0.088077684818664 
1722	 8.80542259877559E-02 
1723	 8.80293624401991E-02 
1724	 0.088004822129072 
1725	 8.79702499692351E-02 
1726	 8.79386231077441E-02 
1727	 8.78948843103562E-02 
1728	 8.78247734461575E-02 
1729	 8.77821718403638E-02 
1730	 8.77412594758574E-02 
1731	 8.77144466392924E-02 
1732	 8.77184413885599E-02 
1733	 8.76903268277397E-02 
1734	 8.76561991591155E-02 
1735	 8.76134436108083E-02 
1736	 8.75475722410744E-02 
1737	 8.75032569107984E-02 
1738	 8.74669191400755E-02 
1739	 8.74222126467761E-02 
1740	 8.73749602538286E-02 
1741	 8.73485968160812E-02 
1742	 8.73339207810021E-02 
1743	 8.72996835594088E-02 
1744	 8.72710927123831E-02 
1745	 8.72320556699035E-02 
1746	 8.71712033569158E-02 
1747	 8.71098140184834E-02 
1748	 8.70809278402133E-02 
1749	 8.70508221964237E-02 
1750	 8.70036016945783E-02 
1751	 8.69939542479082E-02 
1752	 8.69774864090434E-02 
1753	 8.69248572182242E-02 
1754	 8.68841490155185E-02 
1755	 8.68393436468755E-02 
1756	 8.67840656952636E-02 
1757	 8.67474580061996E-02 
1758	 0.08671943339657 
1759	 8.67036597453929E-02 
1760	 8.66876472130448E-02 
1761	 8.66485559599485E-02 
1762	 8.65903774264144E-02 
1763	 8.65143229363716E-02 
1764	 8.64478534983993E-02 
1765	 8.64161262309409E-02 
1766	 0.086404322731613 
1767	 8.63874050515452E-02 
1768	 8.63673485684412E-02 
1769	 8.63492564061806E-02 
1770	 8.62980143496041E-02 
1771	 8.62173787581632E-02 
1772	 8.61592436250411E-02 
1773	 8.61171523696035E-02 
1774	 8.60891993018055E-02 
1775	 8.61016470631401E-02 
1776	 8.60973204855772E-02 
1777	 8.60361957332838E-02 
1778	 8.59678975499521E-02 
1779	 8.59262023546661E-02 
1780	 8.58781152368233E-02 
1781	 0.085836218770466 
1782	 8.58361678111338E-02 
1783	 8.58132798909831E-02 
1784	 8.57919477677228E-02 
1785	 8.57801536512301E-02 
1786	 8.57568294859216E-02 
1787	 8.57244834146743E-02 
1788	 8.56932766673703E-02 
1789	 8.56547770652265E-02 
1790	 8.56323633943026E-02 
1791	 8.56224434409934E-02 
1792	 8.56044497146767E-02 
1793	 8.55901840291204E-02 
1794	 8.55733844780791E-02 
1795	 8.55486045679346E-02 
1796	 8.55289859714466E-02 
1797	 8.55249828433661E-02 
1798	 8.55085979053467E-02 
1799	 8.54734299461272E-02 
1800	 8.54614761112316E-02 
1801	 8.20872931226003E-02 
1802	 8.20763719800071E-02 
1803	 8.20729712499723E-02 
1804	 0.082097551112471 
1805	 8.20966810603621E-02 
1806	 8.21105076018531E-02 
1807	 8.21053388990853E-02 
1808	 8.21124712376645E-02 
1809	 8.21572931881697E-02 
1810	 0.082171907126847 
1811	 8.21723442314112E-02 
1812	 8.21555895887681E-02 
1813	 0.082145062834821 
1814	 8.21527099784034E-02 
1815	 8.21683245365624E-02 
1816	 8.21810761094559E-02 
1817	 8.21842343656383E-02 
1818	 8.21867698528095E-02 
1819	 8.21751870164062E-02 
1820	 8.21504991474147E-02 
1821	 8.21229708407932E-02 
1822	 8.20875573973349E-02 
1823	 8.20733575508167E-02 
1824	 8.20718045064111E-02 
1825	 8.20711658282125E-02 
1826	 8.20995279343556E-02 
1827	 8.21073307751994E-02 
1828	 8.20906119438744E-02 
1829	 8.20509374659553E-02 
1830	 0.082012050833253 
1831	 8.19458582061175E-02 
1832	 8.18936577661065E-02 
1833	 8.18679442728285E-02 
1834	 8.18637210395897E-02 
1835	 8.18749867056808E-02 
1836	 8.18797339438967E-02 
1837	 0.081874840958185 
1838	 0.081866962119042 
1839	 8.18536235740068E-02 
1840	 8.18448327545967E-02 
1841	 8.18124798597235E-02 
1842	 8.17673268582253E-02 
1843	 8.17428160215867E-02 
1844	 8.17119118866344E-02 
1845	 8.16742776148445E-02 
1846	 8.16623690144388E-02 
1847	 8.16345628287367E-02 
1848	 8.15891345339861E-02 
1849	 8.15818837986196E-02 
1850	 8.15622668288701E-02 
1851	 8.15429729646342E-02 
1852	 8.15047184381999E-02 
1853	 8.14731924405813E-02 
1854	 8.14399785645846E-02 
1855	 8.14197370322793E-02 
1856	 8.14189398635648E-02 
1857	 0.08140729242509 
1858	 8.13459132617426E-02 
1859	 8.12630273329371E-02 
1860	 8.11949768180866E-02 
1861	 8.11078096604667E-02 
1862	 8.10264390685846E-02 
1863	 0.080991725998477 
1864	 8.09660412742189E-02 
1865	 8.08931226927267E-02 
1866	 8.08397439569023E-02 
1867	 8.07732378270191E-02 
1868	 8.06666421282824E-02 
1869	 8.05987625889268E-02 
1870	 8.05123563850507E-02 
1871	 0.080407937145316 
1872	 8.02841679044511E-02 
1873	 8.01863333258405E-02 
1874	 8.00495120003161E-02 
1875	 7.98980108438821E-02 
1876	 7.97563787159182E-02 
1877	 7.95766409529639E-02 
1878	 7.93774171674162E-02 
1879	 7.91821146429445E-02 
1880	 7.89845630400764E-02 
1881	 0.078790456629065 
1882	 0.078567351585456 
1883	 7.83397056435017E-02 
1884	 7.80805384249626E-02 
1885	 7.78011635854016E-02 
1886	 7.75363946884487E-02 
1887	 7.72422959224962E-02 
1888	 7.69564925230658E-02 
1889	 7.66745214648659E-02 
1890	 7.63429420097671E-02 
1891	 7.60142389862087E-02 
1892	 7.56996965785564E-02 
1893	 7.53361297027925E-02 
1894	 7.49298889526539E-02 
1895	 7.45354663122834E-02 
1896	 0.074125848506947 
1897	 7.37297017258053E-02 
1898	 0.07333913759454 
1899	 7.29393022937529E-02 
1900	 7.25547500894919E-02 
1901	 7.21675619353937E-02 
1902	 7.17974820020916E-02 
1903	 7.14699795439651E-02 
1904	 7.11196726040817E-02 
1905	 7.07534534635534E-02 
1906	 0.070405053677289 
1907	 7.00801457350011E-02 
1908	 0.069746339580306 
1909	 6.94697877895359E-02 
1910	 6.92210110698718E-02 
1911	 6.89635645216763E-02 
1912	 6.87131044878197E-02 
1913	 6.84722750571371E-02 
1914	 0.068213871171215 
1915	 6.79983236975005E-02 
1916	 6.78107944255999E-02 
1917	 6.76400673637413E-02 
1918	 6.74703530677591E-02 
1919	 6.73256857476399E-02 
1920	 6.71691307380771E-02 
1921	 6.70099981429235E-02 
1922	 6.68865791917432E-02 
1923	 6.67655982060239E-02 
1924	 6.66570388734606E-02 
1925	 6.65798081666976E-02 
1926	 6.64848261945561E-02 
1927	 0.066386583398436 
1928	 6.62821425474723E-02 
1929	 6.62059638167492E-02 
1930	 6.61484804042958E-02 
1931	 0.06610415281119 
1932	 6.60910091111872E-02 
1933	 6.60656226388601E-02 
1934	 6.60305094676712E-02 
1935	 6.59995399659689E-02 
1936	 6.59678178511704E-02 
1937	 6.59408131756429E-02 
1938	 6.59001420749228E-02 
1939	 6.58883012019775E-02 
1940	 0.065891695912381 
1941	 6.59147038370086E-02 
1942	 6.59322613061082E-02 
1943	 6.59535980004287E-02 
1944	 6.59642828527019E-02 
1945	 6.59655430372012E-02 
1946	 6.59906229026397E-02 
1947	 6.60386534953996E-02 
1948	 6.60720152394857E-02 
1949	 6.61146659023936E-02 
1950	 6.61521789422557E-02 
1951	 6.61779216871448E-02 
1952	 6.62046294034049E-02 
1953	 6.62656840938093E-02 
1954	 6.63234252085542E-02 
1955	 6.63685472553159E-02 
1956	 6.64294387145895E-02 
1957	 6.64933920369027E-02 
1958	 0.0665456482048 
1959	 6.66156905446929E-02 
1960	 6.67182469131209E-02 
1961	 6.67952760155671E-02 
1962	 0.066845344680965 
1963	 6.69284073168152E-02 
1964	 6.70270737365842E-02 
1965	 6.71208881392045E-02 
1966	 6.72225218875302E-02 
1967	 6.73248811543758E-02 
1968	 6.74151202891138E-02 
1969	 6.74877458646267E-02 
1970	 6.75620839589858E-02 
1971	 6.76242848160862E-02 
1972	 6.77102724647151E-02 
1973	 6.77916419922482E-02 
1974	 6.78878426897457E-02 
1975	 6.80190411508206E-02 
1976	 6.81348500603698E-02 
1977	 6.82317981508887E-02 
1978	 6.83313956493355E-02 
1979	 6.84151882894967E-02 
1980	 6.85046395733615E-02 
1981	 6.85859760330269E-02 
1982	 6.86497830568107E-02 
1983	 6.87402265499017E-02 
1984	 6.88440793326202E-02 
1985	 6.89406980393547E-02 
1986	 6.90638257227458E-02 
1987	 6.91607953400767E-02 
1988	 6.92463565731074E-02 
1989	 6.93008822117339E-02 
1990	 6.93724328140646E-02 
1991	 6.94606065039406E-02 
1992	 6.95605267832669E-02 
1993	 6.96824685920638E-02 
1994	 6.97970221570395E-02 
1995	 6.99274980142384E-02 
1996	 7.00372145062775E-02 
1997	 7.01498254409803E-02 
1998	 7.02398678245608E-02 
1999	 7.02937676824166E-02 
2000	 7.03724765369697E-02 
2001	 0.070448025043019 
2002	 7.05217059372183E-02 
2003	 7.06339887559354E-02 
2004	 7.07470935376171E-02 
2005	 7.08503991930751E-02 
2006	 7.09649302354688E-02 
2007	 7.10590509521329E-02 
2008	 7.11301966282904E-02 
2009	 7.12135081496832E-02 
2010	 7.12885097187186E-02 
2011	 7.13722826656692E-02 
2012	 7.14648370331155E-02 
2013	 7.15590477968298E-02 
2014	 7.16630072435513E-02 
2015	 7.17574692786141E-02 
2016	 7.18461847443905E-02 
2017	 7.19330029729322E-02 
2018	 7.20201596764678E-02 
2019	 7.20996459600595E-02 
2020	 7.21836862572126E-02 
2021	 7.22787634095778E-02 
2022	 0.072357384628135 
2023	 7.24261985237908E-02 
2024	 7.25000969731541E-02 
2025	 7.25600211011181E-02 
2026	 7.26308086927924E-02 
2027	 7.27113621672663E-02 
2028	 7.27885587118671E-02 
2029	 7.28720062726552E-02 
2030	 7.29635601397617E-02 
2031	 7.30492647047302E-02 
2032	 7.31410907010118E-02 
2033	 7.32173772573965E-02 
2034	 7.32839197452761E-02 
2035	 7.33510521853043E-02 
2036	 7.34128887894354E-02 
2037	 7.34717031308677E-02 
2038	 7.35164744118544E-02 
2039	 7.35792061455688E-02 
2040	 7.36566246001832E-02 
2041	 7.37193856116179E-02 
2042	 7.37851160762515E-02 
2043	 7.38476481537035E-02 
2044	 7.38965297601208E-02 
2045	 7.39143608938851E-02 
2046	 7.39612534638554E-02 
2047	 7.40268520757185E-02 
2048	 7.40687164234583E-02 
2049	 7.40972587342403E-02 
2050	 7.41451554890647E-02 
2051	 7.41995900281019E-02 
2052	 7.42368622752667E-02 
2053	 7.42796881337475E-02 
2054	 7.43205033420703E-02 
2055	 7.43251233877918E-02 
2056	 7.43551975255761E-02 
2057	 7.44044229414456E-02 
2058	 0.074485438281774 
2059	 7.45402773171925E-02 
2060	 7.46047183790142E-02 
2061	 7.46533801244518E-02 
2062	 7.46818776098888E-02 
2063	 7.47215907237109E-02 
2064	 7.47603622478559E-02 
2065	 7.48032144159894E-02 
2066	 7.48567675130234E-02 
2067	 7.48979918540687E-02 
2068	 7.49306520257193E-02 
2069	 7.49667221883544E-02 
2070	 7.50098854101229E-02 
2071	 0.075051632086774 
2072	 7.50852635403008E-02 
2073	 7.51313907606901E-02 
2074	 7.51569855916036E-02 
2075	 7.51479890607355E-02 
2076	 7.51742730265732E-02 
2077	 7.52113272642368E-02 
2078	 7.52495442063762E-02 
2079	 7.53079633446025E-02 
2080	 7.53566593731385E-02 
2081	 7.54025604777825E-02 
2082	 7.54470570426888E-02 
2083	 0.075494653533112 
2084	 7.55291775445733E-02 
2085	 0.075574725952997 
2086	 7.56298558467843E-02 
2087	 7.56563162188248E-02 
2088	 0.075666999846188 
2089	 7.56957535167024E-02 
2090	 7.57158593031111E-02 
2091	 7.57357311788097E-02 
2092	 7.57640672986671E-02 
2093	 7.57979849017533E-02 
2094	 7.58269885373382E-02 
2095	 7.58540638357481E-02 
2096	 7.58966044283592E-02 
2097	 7.59325793726972E-02 
2098	 7.59533823704087E-02 
2099	 7.59724909163989E-02 
2100	 7.60129604606348E-02 
2101	 7.60662121751016E-02 
2102	 7.61252105579213E-02 
2103	 7.62030569952915E-02 
2104	 7.62636956798029E-02 
2105	 7.63370261716257E-02 
2106	 7.63796006416604E-02 
2107	 7.63984549061355E-02 
2108	 7.64235035412549E-02 
2109	 7.64235584264777E-02 
2110	 7.64438324920382E-02 
2111	 7.64660737817829E-02 
2112	 7.65030208411226E-02 
2113	 7.65614789039427E-02 
2114	 7.66169907146491E-02 
2115	 7.66571657644332E-02 
2116	 7.66989309452339E-02 
2117	 7.67378216127502E-02 
2118	 0.076761135738846 
2119	 7.67902384373887E-02 
2120	 7.68320963576398E-02 
2121	 7.68590518567772E-02 
2122	 7.68642877012897E-02 
2123	 7.68888976841559E-02 
2124	 7.69244244337029E-02 
2125	 0.076949271924872 
2126	 7.69798303469053E-02 
2127	 7.70028086165367E-02 
2128	 0.077015386036916 
2129	 7.70281895685362E-02 
2130	 7.70370197412042E-02 
2131	 7.70459059327459E-02 
2132	 7.70598945427853E-02 
2133	 7.70775155803125E-02 
2134	 7.70819489865828E-02 
2135	 7.70915439626882E-02 
2136	 7.70848156326425E-02 
2137	 7.70554392980181E-02 
2138	 7.70376234516178E-02 
2139	 7.70225530684177E-02 
2140	 7.69997672573342E-02 
2141	 7.69766828488525E-02 
2142	 7.69469948123454E-02 
2143	 7.69094303137262E-02 
2144	 7.68686148403398E-02 
2145	 7.68223107863597E-02 
2146	 7.67765240157798E-02 
2147	 7.67360200888818E-02 
2148	 7.66740735321094E-02 
2149	 7.66230826895173E-02 
2150	 7.65687033455802E-02 
2151	 7.65230291447427E-02 
2152	 0.076479795403453 
2153	 7.64415612952508E-02 
2154	 0.076413044177702 
2155	 7.63787682658982E-02 
2156	 7.63681911994599E-02 
2157	 7.63106410498362E-02 
2158	 7.62115324955203E-02 
2159	 7.61408052441267E-02 
2160	 7.60496970238002E-02 
2161	 0.075970709226723 
2162	 7.59289007986644E-02 
2163	 7.58672860330062E-02 
2164	 7.57952797171772E-02 
2165	 0.075710562597961 
2166	 7.56322613029888E-02 
2167	 7.55489684019911E-02 
2168	 7.54747846332814E-02 
2169	 7.54105491085659E-02 
2170	 7.53294224321959E-02 
2171	 7.52388435265053E-02 
2172	 7.51616744095113E-02 
2173	 0.075071715884735 
2174	 7.50012252804231E-02 
2175	 7.49599905906552E-02 
2176	 7.49013909441275E-02 
2177	 7.48432216248425E-02 
2178	 7.47780978181522E-02 
2179	 7.46966744485706E-02 
2180	 7.46300070290021E-02 
2181	 0.074575323886759 
2182	 7.45096522175248E-02 
2183	 7.44490293639463E-02 
2184	 7.43827646630095E-02 
2185	 7.43059552469499E-02 
2186	 7.42072612161059E-02 
2187	 7.41291459868445E-02 
2188	 7.40450032231262E-02 
2189	 7.39855965475397E-02 
2190	 7.39505956308475E-02 
2191	 7.39017841917522E-02 
2192	 7.38720517329819E-02 
2193	 7.38182020198936E-02 
2194	 7.37274514688642E-02 
2195	 7.36748562447075E-02 
2196	 7.36266207009961E-02 
2197	 7.35911145498491E-02 
2198	 0.073592930560238 
2199	 7.35786898079177E-02 
2200	 7.35735986418599E-02 
2201	 7.35478076167588E-02 
2202	 7.35090873231907E-02 
2203	 7.34693458384824E-02 
2204	 7.34094575647351E-02 
2205	 7.33089986178296E-02 
2206	 7.32730788987661E-02 
2207	 7.32529820095441E-02 
2208	 7.32314227886379E-02 
2209	 7.32456826032689E-02 
2210	 7.32453512351844E-02 
2211	 7.32295581848796E-02 
2212	 7.32287897489297E-02 
2213	 7.32588736991845E-02 
2214	 7.32563064693971E-02 
2215	 7.32305573541751E-02 
2216	 0.073216628670291 
2217	 7.31943613628795E-02 
2218	 7.31756646902906E-02 
2219	 7.31634624953077E-02 
2220	 7.31524002759578E-02 
2221	 7.31263456719682E-02 
2222	 7.31236158791613E-02 
2223	 7.31420457388482E-02 
2224	 7.31615973386719E-02 
2225	 7.31733693858566E-02 
2226	 7.31979693089622E-02 
2227	 7.32033002339366E-02 
2228	 7.31869232343789E-02 
2229	 7.31895704349938E-02 
2230	 7.31980140799417E-02 
2231	 7.32031357237514E-02 
2232	 7.32212665942542E-02 
2233	 7.32126610129458E-02 
2234	 0.073183794558449 
2235	 7.31681467796282E-02 
2236	 7.31434497581929E-02 
2237	 7.31253583551871E-02 
2238	 0.073129839165793 
2239	 7.31054532234476E-02 
2240	 7.30509757402738E-02 
2241	 7.30180266911284E-02 
2242	 7.29692693023532E-02 
2243	 7.29486530487714E-02 
2244	 7.29711238609159E-02 
2245	 7.29690235295291E-02 
2246	 7.29660365677365E-02 
2247	 7.29637677861279E-02 
2248	 0.072952019810917 
2249	 0.072929465407087 
2250	 7.29008744476286E-02 
2251	 7.28599121294417E-02 
2252	 0.072836992091148 
2253	 7.28088645190948E-02 
2254	 7.27879548865535E-02 
2255	 7.27949558018562E-02 
2256	 7.27705178427088E-02 
2257	 0.072719477612671 
2258	 7.26904075137608E-02 
2259	 7.26575871350066E-02 
2260	 7.26392385915273E-02 
2261	 7.26332568437779E-02 
2262	 0.072632461324717 
2263	 0.072640179228388 
2264	 7.26448747942706E-02 
2265	 7.26605932536351E-02 
2266	 7.26769084260992E-02 
2267	 7.26884140678729E-02 
2268	 7.27059551448346E-02 
2269	 7.27459552096278E-02 
2270	 7.27524966507834E-02 
2271	 7.27591205625136E-02 
2272	 7.27893369491169E-02 
2273	 7.28137308742573E-02 
2274	 7.28123544992541E-02 
2275	 7.27995360691071E-02 
2276	 0.072768857443586 
2277	 7.27449432081082E-02 
2278	 7.26934291212518E-02 
2279	 7.26944037679006E-02 
2280	 7.27246267802044E-02 
2281	 0.072748033707273 
2282	 7.27887732468383E-02 
2283	 7.28301637254189E-02 
2284	 7.28872791473767E-02 
2285	 7.29103033645044E-02 
2286	 7.29404722072628E-02 
2287	 7.29436469793123E-02 
2288	 7.28871818005914E-02 
2289	 7.28746829005144E-02 
2290	 7.28695664911633E-02 
2291	 7.28671573052238E-02 
2292	 7.28886202819349E-02 
2293	 7.29034732646633E-02 
2294	 7.29271055626012E-02 
2295	 7.29351737482373E-02 
2296	 7.29491861409263E-02 
2297	 0.072920424219143 
2298	 7.29040321296664E-02 
2299	 7.28990223590846E-02 
2300	 7.29010514788858E-02 
2301	 7.29303937080823E-02 
2302	 0.072925248986893 
2303	 7.28956199284446E-02 
2304	 7.29030940117631E-02 
2305	 7.28884360674572E-02 
2306	 7.28657462452985E-02 
2307	 7.28498195839489E-02 
2308	 7.28275412762038E-02 
2309	 7.27731252046768E-02 
2310	 7.27491799008826E-02 
2311	 7.27628868788015E-02 
2312	 7.27396010750264E-02 
2313	 7.27053890896674E-02 
2314	 7.26588543957799E-02 
2315	 7.25693780542621E-02 
2316	 7.25246454878316E-02 
2317	 7.24942038145516E-02 
2318	 7.24725402501801E-02 
2319	 7.24832647504339E-02 
2320	 7.24792033183513E-02 
2321	 7.24793007663816E-02 
2322	 7.24649240061181E-02 
2323	 7.24388917624671E-02 
2324	 7.24191827647368E-02 
2325	 0.072413079790585 
2326	 7.23623112161923E-02 
2327	 7.22678799052716E-02 
2328	 7.22153435949065E-02 
2329	 7.21497808211654E-02 
2330	 7.21339149814273E-02 
2331	 7.21987727659534E-02 
2332	 7.22519289531937E-02 
2333	 7.22724907000784E-02 
2334	 7.22619706634672E-02 
2335	 0.072242901985291 
2336	 7.22244312224673E-02 
2337	 7.22144000376357E-02 
2338	 7.22163208014854E-02 
2339	 7.21740564034341E-02 
2340	 7.21360612293181E-02 
2341	 0.072116117598687 
2342	 7.20780646215589E-02 
2343	 7.20781818545509E-02 
2344	 7.20944749860334E-02 
2345	 7.20848293030794E-02 
2346	 7.20646463015329E-02 
2347	 7.20393428090028E-02 
2348	 0.071993231577741 
2349	 7.19713623012457E-02 
2350	 7.19703242216812E-02 
2351	 7.19490662039288E-02 
2352	 7.19344495194544E-02 
2353	 7.18725115191382E-02 
2354	 7.17309664996534E-02 
2355	 7.17008325492517E-02 
2356	 7.17440366983704E-02 
2357	 7.17041201454644E-02 
2358	 7.16784473813181E-02 
2359	 7.16544833724238E-02 
2360	 7.15332762638842E-02 
2361	 7.15067440956004E-02 
2362	 7.16206486758112E-02 
2363	 7.15971087401132E-02 
2364	 7.14967355559237E-02 
2365	 7.14411926804157E-02 
2366	 7.13233668119699E-02 
2367	 7.12755803495844E-02 
2368	 7.13108192550438E-02 
2369	 7.13145653454214E-02 
2370	 7.13410434291641E-02 
2371	 7.13266196600227E-02 
2372	 7.12863564450978E-02 
2373	 7.11812390026552E-02 
2374	 7.09942999174571E-02 
2375	 7.08844315405229E-02 
2376	 0.070839814541509 
2377	 7.07799101762561E-02 
2378	 7.07534002490237E-02 
2379	 7.07340055125331E-02 
2380	 7.06622841681685E-02 
2381	 7.05471428243789E-02 
2382	 7.04402217562885E-02 
2383	 7.03295281962486E-02 
2384	 7.02249135757192E-02 
2385	 0.070203291068957 
2386	 7.01890438425885E-02 
2387	 7.01344755749896E-02 
2388	 7.00671062220795E-02 
2389	 6.99235191126038E-02 
2390	 6.98489875352298E-02 
2391	 6.98428321705618E-02 
2392	 6.97606622333006E-02 
2393	 6.97853483591186E-02 
2394	 6.97719624584163E-02 
2395	 6.96183126645675E-02 
2396	 6.94898214469568E-02 
2397	 6.92906250351235E-02 
2398	 6.90709874429838E-02 
2399	 6.89515483625573E-02 
2400	 6.89041759049138E-02 
2401	 6.88490204895759E-02 
2402	 6.88062700997659E-02 
2403	 6.87492335824302E-02 
2404	 6.86436377431208E-02 
2405	 6.86247273265444E-02 
2406	 6.86235398981835E-02 
2407	 6.85881152608609E-02 
2408	 6.85745239178486E-02 
2409	 6.85417696347634E-02 
2410	 6.84854257561891E-02 
2411	 6.83956570065066E-02 
2412	 6.83013636152605E-02 
2413	 6.81967947491703E-02 
2414	 6.81262018500929E-02 
2415	 6.80919273110579E-02 
2416	 6.80151022846107E-02 
2417	 6.79758433114861E-02 
2418	 0.06782317892279 
2419	 6.75010471450468E-02 
2420	 6.74013207514902E-02 
2421	 6.73840957196329E-02 
2422	 6.73184438927588E-02 
2423	 0.067354447197606 
2424	 6.73578726501279E-02 
2425	 6.72735779743366E-02 
2426	 6.72174081050846E-02 
2427	 6.72614606571562E-02 
2428	 6.72144683967987E-02 
2429	 6.70798510891583E-02 
2430	 6.69794666600513E-02 
2431	 6.68895703121533E-02 
2432	 6.67550051467034E-02 
2433	 6.65669615725499E-02 
2434	 6.64294493356427E-02 
2435	 6.62736640622608E-02 
2436	 0.066176324816345 
2437	 6.61585412298661E-02 
2438	 6.61202089702648E-02 
2439	 6.60899599281532E-02 
2440	 6.60443913747365E-02 
2441	 6.60245446398249E-02 
2442	 6.59050278054703E-02 
2443	 6.57268884598127E-02 
2444	 6.56322162207942E-02 
2445	 6.54843025772962E-02 
2446	 6.53426506646484E-02 
2447	 6.53171781815166E-02 
2448	 6.51590994819795E-02 
2449	 6.48589246230455E-02 
2450	 6.47246917295064E-02 
2451	 6.45764236147927E-02 
2452	 6.44927520655765E-02 
2453	 6.46186114677069E-02 
2454	 6.45985192107731E-02 
2455	 6.44868107424331E-02 
2456	 6.43903481025999E-02 
2457	 6.41931373728141E-02 
2458	 6.40466826236853E-02 
2459	 0.064047986547334 
2460	 6.40054378212387E-02 
2461	 6.38670579408928E-02 
2462	 6.38209425863873E-02 
2463	 6.38451719707303E-02 
2464	 6.37463866309883E-02 
2465	 6.36781021491285E-02 
2466	 6.35608862608708E-02 
2467	 6.32284003022061E-02 
2468	 6.31025794623945E-02 
2469	 6.31310825144712E-02 
2470	 6.32363239100688E-02 
2471	 6.32637614319244E-02 
2472	 6.32100803588906E-02 
2473	 6.29688403508308E-02 
2474	 6.27034616066069E-02 
2475	 6.25735412164434E-02 
2476	 6.24851564279278E-02 
2477	 6.25127886351302E-02 
2478	 6.25822035912587E-02 
2479	 6.26301518749893E-02 
2480	 6.25809405620797E-02 
2481	 6.24589783462853E-02 
2482	 6.24086481099483E-02 
2483	 0.062354170697696 
2484	 6.21013820421696E-02 
2485	 6.18930038574294E-02 
2486	 6.19363297320744E-02 
2487	 0.061750905774979 
2488	 6.16680878509306E-02 
2489	 6.17464804395575E-02 
2490	 6.14853001147049E-02 
2491	 6.13363133847796E-02 
2492	 6.13773543452498E-02 
2493	 6.13502913831961E-02 
2494	 6.13755525279184E-02 
2495	 6.14214635446083E-02 
2496	 6.13257634308351E-02 
2497	 6.11206672822558E-02 
2498	 6.10085751312007E-02 
2499	 6.08423421810436E-02 
2500	 6.06140047864191E-02 
