Wavelength	LMW_2400001.asd
350	 4.97656862813105E-02 
351	 4.22467463249922E-02 
352	 3.91086441966148E-02 
353	 4.43607101437992E-02 
354	 4.43170458304666E-02 
355	 4.03951775613155E-02 
356	 3.96733058042451E-02 
357	 4.66345139916676E-02 
358	 5.15897923265673E-02 
359	 4.85854149686126E-02 
360	 4.31793106475354E-02 
361	 4.63358933768044E-02 
362	 4.29943207939332E-02 
363	 0.043687705547447 
364	 0.050225837572128 
365	 4.60150834865861E-02 
366	 4.50873291360105E-02 
367	 4.49821151638241E-02 
368	 4.19845622595139E-02 
369	 4.61186790605769E-02 
370	 4.75592277280297E-02 
371	 4.55984541996783E-02 
372	 4.59439227013893E-02 
373	 4.90873737536506E-02 
374	 5.10901084405426E-02 
375	 5.03162440750086E-02 
376	 5.00093568113193E-02 
377	 4.92390650409284E-02 
378	 4.82862553140727E-02 
379	 4.77170191372193E-02 
380	 4.80292955055599E-02 
381	 4.74543271498114E-02 
382	 0.046660612451512 
383	 4.79521872147018E-02 
384	 4.96162059107463E-02 
385	 4.93209338776194E-02 
386	 4.75372228416193E-02 
387	 5.03139083806832E-02 
388	 5.10444453147706E-02 
389	 0.050760242670323 
390	 0.051915929315898 
391	 5.12632993641738E-02 
392	 5.13538727357538E-02 
393	 5.24641497173166E-02 
394	 5.28008351476504E-02 
395	 0.052247348002257 
396	 0.051792328657806 
397	 5.22591676908086E-02 
398	 5.40483897885067E-02 
399	 5.35658762564675E-02 
400	 5.30734018215947E-02 
401	 5.54908682508587E-02 
402	 0.054185764707513 
403	 5.34243784308453E-02 
404	 5.46088899343574E-02 
405	 5.55987818177939E-02 
406	 5.49172960476922E-02 
407	 5.53591434184565E-02 
408	 5.78110820451406E-02 
409	 5.59610702789365E-02 
410	 5.49323357555521E-02 
411	 5.54187451980141E-02 
412	 5.60422235727847E-02 
413	 5.71878109869509E-02 
414	 5.66684494873747E-02 
415	 0.054860097274834 
416	 5.55439533425091E-02 
417	 5.61704335903092E-02 
418	 5.68688131269577E-02 
419	 5.78450594177667E-02 
420	 5.73720066605584E-02 
421	 5.65560499532136E-02 
422	 0.056410877861211 
423	 5.75376145333869E-02 
424	 5.72738906429433E-02 
425	 5.65241001122987E-02 
426	 5.63812812913677E-02 
427	 5.76262012966311E-02 
428	 5.71592901731735E-02 
429	 5.59468187384596E-02 
430	 5.59148437481165E-02 
431	 5.65497799050266E-02 
432	 5.66108065206621E-02 
433	 5.61331511243778E-02 
434	 5.63342893215192E-02 
435	 5.62530777725168E-02 
436	 5.63281095608835E-02 
437	 5.67353515355116E-02 
438	 5.61946132394679E-02 
439	 5.60638044282774E-02 
440	 5.64395719136993E-02 
441	 5.67438545490045E-02 
442	 0.056533405472569 
443	 5.65056016385498E-02 
444	 5.68239059628889E-02 
445	 5.66821260320317E-02 
446	 5.66374274260631E-02 
447	 5.68646146661537E-02 
448	 5.73164011695211E-02 
449	 5.75234792003611E-02 
450	 5.76998027364294E-02 
451	 5.78845372260022E-02 
452	 5.79581236673141E-02 
453	 5.80537458649989E-02 
454	 5.78379518793123E-02 
455	 5.74177618351255E-02 
456	 5.82960313296962E-02 
457	 5.83191573574117E-02 
458	 0.057843986961091 
459	 5.81626421479677E-02 
460	 5.81743759123151E-02 
461	 5.79184297115624E-02 
462	 5.77207763193073E-02 
463	 5.81668532879048E-02 
464	 5.83750758344257E-02 
465	 5.84180962166279E-02 
466	 5.85417291011053E-02 
467	 5.84973467306429E-02 
468	 5.86558567456522E-02 
469	 5.88300208743877E-02 
470	 0.058444547710296 
471	 5.83277117508372E-02 
472	 5.85291185428954E-02 
473	 5.88432625207639E-02 
474	 5.87960255977131E-02 
475	 5.88169153492052E-02 
476	 5.89168787187157E-02 
477	 5.89452310273346E-02 
478	 5.89951411030352E-02 
479	 5.90262909902225E-02 
480	 5.90003877999908E-02 
481	 5.88880105922395E-02 
482	 5.90402675907124E-02 
483	 5.93110787608264E-02 
484	 5.94656622276428E-02 
485	 5.95676436698632E-02 
486	 5.94933346332627E-02 
487	 5.92971744642162E-02 
488	 5.91940609899884E-02 
489	 5.95345207603769E-02 
490	 5.97845895311605E-02 
491	 0.059620622288185 
492	 5.96084396083688E-02 
493	 0.059568391961613 
494	 5.95228203047773E-02 
495	 5.95754489046388E-02 
496	 5.98030870594996E-02 
497	 5.98142833916386E-02 
498	 5.96324676241146E-02 
499	 5.99590559987364E-02 
500	 0.060142652494768 
501	 6.00950563180943E-02 
502	 5.99610160714567E-02 
503	 6.01201742243379E-02 
504	 6.02267380380101E-02 
505	 6.01529716333626E-02 
506	 6.00045950925547E-02 
507	 6.00209991903925E-02 
508	 6.01871502743354E-02 
509	 6.03795792051617E-02 
510	 0.060342451279575 
511	 6.03120512304247E-02 
512	 6.03369200915568E-02 
513	 6.03576736685396E-02 
514	 6.03037147587435E-02 
515	 6.02957419232356E-02 
516	 6.03958675973518E-02 
517	 6.05511368280495E-02 
518	 6.05200352524483E-02 
519	 6.04526151644488E-02 
520	 6.05675195980607E-02 
521	 6.06969105316009E-02 
522	 6.07080318824045E-02 
523	 6.06345400365326E-02 
524	 6.06753444597307E-02 
525	 6.06912450368377E-02 
526	 6.07474535478466E-02 
527	 6.08789642247454E-02 
528	 6.08909503354372E-02 
529	 6.08700385658782E-02 
530	 6.09055898042604E-02 
531	 6.10554065685579E-02 
532	 6.09664025794863E-02 
533	 6.09573393013485E-02 
534	 6.11782693076207E-02 
535	 6.12349545302579E-02 
536	 0.061280421982073 
537	 6.13597081085868E-02 
538	 6.14636838940067E-02 
539	 0.061466276895393 
540	 6.14331139275912E-02 
541	 6.14275748535577E-02 
542	 6.14869750776773E-02 
543	 6.16244727141926E-02 
544	 6.17378572456578E-02 
545	 6.17613474509472E-02 
546	 6.19135652431522E-02 
547	 6.20065590758616E-02 
548	 6.20412026776913E-02 
549	 6.21769932578275E-02 
550	 0.062254951029814 
551	 6.23417445994071E-02 
552	 6.25001624784877E-02 
553	 6.26828211504486E-02 
554	 6.28530460451845E-02 
555	 6.29928288066481E-02 
556	 6.31052820631401E-02 
557	 6.32613999913521E-02 
558	 6.34211864910553E-02 
559	 6.35810777623028E-02 
560	 6.38349647671467E-02 
561	 0.063973642708191 
562	 6.41323072916952E-02 
563	 6.44950777729374E-02 
564	 6.48104078663766E-02 
565	 6.51189009311033E-02 
566	 6.54414395349992E-02 
567	 6.57584993424418E-02 
568	 6.61523262467639E-02 
569	 6.64506582269162E-02 
570	 6.65575485596764E-02 
571	 6.68253103024752E-02 
572	 6.71229846818476E-02 
573	 6.74406531056016E-02 
574	 6.78416695849314E-02 
575	 6.81644272350428E-02 
576	 6.85539764454592E-02 
577	 6.90945885464008E-02 
578	 0.069642588075873 
579	 7.01818249951387E-02 
580	 7.07099142805016E-02 
581	 0.071239647985063 
582	 7.18048996784396E-02 
583	 7.22931993875556E-02 
584	 7.26993285320187E-02 
585	 7.31838729446456E-02 
586	 7.37888483566672E-02 
587	 0.074459148737032 
588	 7.51069283577137E-02 
589	 7.56881805246498E-02 
590	 7.62147059044642E-02 
591	 7.66827952980169E-02 
592	 7.70767130998983E-02 
593	 7.74038882825926E-02 
594	 7.77140140183755E-02 
595	 7.80827331227071E-02 
596	 7.86371095497884E-02 
597	 7.92973390528983E-02 
598	 7.99726181848126E-02 
599	 8.05860869244096E-02 
600	 8.12565019301184E-02 
601	 8.18762949121548E-02 
602	 8.23668931224736E-02 
603	 8.27403465407735E-02 
604	 8.31266397293465E-02 
605	 8.35649360622849E-02 
606	 8.40364609608538E-02 
607	 8.44357571135791E-02 
608	 8.47910835440683E-02 
609	 8.51271246047038E-02 
610	 8.54557749754145E-02 
611	 8.58553619742898E-02 
612	 8.62243449037514E-02 
613	 8.64835351962374E-02 
614	 8.67896300187244E-02 
615	 8.70712490325219E-02 
616	 8.73083612459263E-02 
617	 8.75224041841264E-02 
618	 0.08779921065988 
619	 8.80226772712381E-02 
620	 8.81484438255865E-02 
621	 8.83505354172931E-02 
622	 8.85550040946097E-02 
623	 8.87334358667539E-02 
624	 8.88787798437251E-02 
625	 8.90250186443234E-02 
626	 8.91728578678145E-02 
627	 0.08932076666936 
628	 8.94674901895081E-02 
629	 8.96381083534242E-02 
630	 8.97856290085685E-02 
631	 8.98788883311665E-02 
632	 9.00242347540432E-02 
633	 9.01767059313501E-02 
634	 0.090307420468401 
635	 9.04087841348726E-02 
636	 0.090552270761291 
637	 9.06980981984749E-02 
638	 9.08048830725591E-02 
639	 0.090870121274162 
640	 9.09713619580381E-02 
641	 9.11148256518563E-02 
642	 9.12685738801879E-02 
643	 9.14115191056535E-02 
644	 9.15620110583659E-02 
645	 9.17161985026503E-02 
646	 9.18314947705026E-02 
647	 9.19391987375255E-02 
648	 9.20606009453948E-02 
649	 9.22094796645851E-02 
650	 9.23879365580244E-02 
651	 0.092527404064449 
652	 9.26342046125342E-02 
653	 9.27809262553042E-02 
654	 9.29830300218478E-02 
655	 9.31880304421567E-02 
656	 9.33615509019515E-02 
657	 9.35452993328805E-02 
658	 9.37504641020637E-02 
659	 0.093958374832284 
660	 9.41395469875384E-02 
661	 9.43155622720537E-02 
662	 0.094494617636379 
663	 9.46887731922114E-02 
664	 9.49170725674564E-02 
665	 9.51810641075838E-02 
666	 9.54061593657603E-02 
667	 9.55529379103011E-02 
668	 9.58111558575491E-02 
669	 9.60910180439638E-02 
670	 9.63380577943324E-02 
671	 9.65403893570119E-02 
672	 9.67819856172775E-02 
673	 9.70616568007734E-02 
674	 9.73540905264992E-02 
675	 0.097618784461515 
676	 9.78698056571476E-02 
677	 9.81188300160237E-02 
678	 9.83840373717793E-02 
679	 9.87243122751894E-02 
680	 0.099036436881001 
681	 9.92971046906179E-02 
682	 0.099604051046223 
683	 9.99158822146441E-02 
684	 0.100216974073252 
685	 0.100507616629138 
686	 0.100824164296647 
687	 0.101138326488142 
688	 0.101463681631579 
689	 0.10183372802473 
690	 0.102142208532838 
691	 0.102446621536299 
692	 0.102800064857671 
693	 0.103206099249876 
694	 0.103568895519149 
695	 0.103899960907908 
696	 0.104250079428857 
697	 0.104633550686073 
698	 0.10499670780955 
699	 0.105336332099135 
700	 0.105705853614208 
701	 0.106102189318472 
702	 0.106481679078068 
703	 0.106828408081559 
704	 0.107233469149006 
705	 0.107604368424538 
706	 0.107961174943476 
707	 0.108367221622949 
708	 0.108723793104739 
709	 0.109072284472089 
710	 0.109448969637871 
711	 0.109864474982021 
712	 0.11024563917789 
713	 0.110582467702392 
714	 0.110904812095325 
715	 0.111310645261902 
716	 0.111688683291038 
717	 0.112024957514642 
718	 0.112375434674897 
719	 0.112693769996349 
720	 0.113004907217769 
721	 0.113327267613434 
722	 0.113648950575353 
723	 0.113961468687351 
724	 0.114268274452126 
725	 0.114570933928545 
726	 0.114836450854373 
727	 0.115093752306577 
728	 0.115342035717128 
729	 0.115552216113177 
730	 0.115751096858433 
731	 0.115979355363658 
732	 0.116233033244264 
733	 0.116396608683181 
734	 0.116554935803467 
735	 0.116722129095046 
736	 0.116879382527688 
737	 0.116991846038104 
738	 0.117107995089285 
739	 0.117236304212997 
740	 0.117335775079836 
741	 0.117425780553293 
742	 0.117484712007095 
743	 0.117502289569428 
744	 0.117514631342464 
745	 0.117550049008986 
746	 0.117595010091525 
747	 0.117612155276225 
748	 0.117572623514069 
749	 0.117500680758526 
750	 0.117428964190578 
751	 0.117391340847098 
752	 0.117328525785402 
753	 0.117259447316416 
754	 0.117197645816775 
755	 0.11708484798954 
756	 0.116953955788323 
757	 0.116833419900901 
758	 0.116735852795979 
759	 0.116581367253889 
760	 0.116397810364291 
761	 0.116219136589243 
762	 0.116071254360617 
763	 0.11591081160802 
764	 0.115737864418595 
765	 0.115561360834892 
766	 0.115386656369985 
767	 0.115173675936545 
768	 0.114955750209048 
769	 0.114788485538814 
770	 0.114602455774252 
771	 0.114380452872772 
772	 0.114145544632108 
773	 0.113958989083949 
774	 0.113707296044565 
775	 0.113466597079732 
776	 0.113290284497262 
777	 0.113052251590227 
778	 0.112810220921175 
779	 0.112573188398163 
780	 0.112333502176398 
781	 0.112118993820725 
782	 0.111907604137365 
783	 0.111679261358882 
784	 0.111423584776818 
785	 0.111190309416105 
786	 0.110953614734332 
787	 0.1107022619234 
788	 0.110499994616157 
789	 0.110281444419354 
790	 0.110037831296459 
791	 0.109781507860335 
792	 0.109509698665538 
793	 0.109252747620512 
794	 0.109031318474883 
795	 0.108849332319164 
796	 0.108619341567894 
797	 0.108396590526457 
798	 0.108203618453917 
799	 0.107959521514797 
800	 0.107719752691207 
801	 0.10751275687921 
802	 0.107339159345824 
803	 0.107130546660018 
804	 0.106920456340544 
805	 0.106725368711548 
806	 0.106544515698997 
807	 0.106341386191608 
808	 0.106148097458539 
809	 0.105968633425839 
810	 0.105761500560555 
811	 0.105597605853426 
812	 0.105415967153401 
813	 0.105182782016572 
814	 0.105015220645222 
815	 0.104881866297254 
816	 0.104750546815529 
817	 0.104597068986495 
818	 0.104460085001403 
819	 0.104297477472034 
820	 0.104111180564256 
821	 0.103943522320521 
822	 0.103798859196048 
823	 0.103664437810668 
824	 0.103529951952645 
825	 0.103395159008587 
826	 0.103270804778083 
827	 0.103154851589946 
828	 0.103040684032204 
829	 0.102919022424273 
830	 0.102802066265914 
831	 0.102690241380921 
832	 0.102582998439201 
833	 0.102514690957781 
834	 0.102449508666886 
835	 0.10234412343657 
836	 0.102169896998646 
837	 0.102104337141431 
838	 0.102074414436133 
839	 0.102015577250909 
840	 0.101953851400766 
841	 0.101863479080386 
842	 0.101773781488002 
843	 0.101710048826271 
844	 0.101632045835389 
845	 0.101599926850809 
846	 0.101571058423645 
847	 0.101481513503623 
848	 0.101441360555296 
849	 0.101390162071423 
850	 0.101335807919335 
851	 0.101339583874307 
852	 0.101291501030462 
853	 0.101253224865652 
854	 0.101245567199903 
855	 0.101196985714535 
856	 0.10122608375823 
857	 0.10125872930815 
858	 0.101228559464126 
859	 0.101205728739658 
860	 0.101198746515494 
861	 0.101214845772768 
862	 0.101248457077104 
863	 0.101262609730496 
864	 0.101244703117524 
865	 0.101232910181771 
866	 0.101280589761607 
867	 0.101322674795921 
868	 0.101326129093432 
869	 0.101321978853888 
870	 0.101390410465043 
871	 0.10140989731651 
872	 0.101481563211091 
873	 0.101619237048981 
874	 0.101644534757125 
875	 0.101648556392816 
876	 0.101676619319233 
877	 0.101742670693883 
878	 0.101805478094953 
879	 0.101904097854071 
880	 0.101973292128719 
881	 0.101971496363144 
882	 0.10210216318528 
883	 0.102211312448747 
884	 0.102288142029242 
885	 0.102397624254644 
886	 0.102504655673376 
887	 0.102602940774173 
888	 0.102710354490975 
889	 0.10285360423741 
890	 0.102951461541277 
891	 0.103075288405855 
892	 0.103218446544569 
893	 0.103264002753569 
894	 0.103342281556297 
895	 0.103496523295098 
896	 0.103698148202918 
897	 0.103828073966906 
898	 0.104015027079633 
899	 0.104171461805974 
900	 0.104237032833575 
901	 0.104364590900488 
902	 0.10455164211818 
903	 0.104763734531213 
904	 0.1049429675003 
905	 0.105007186635941 
906	 0.105112152629914 
907	 0.105317809739361 
908	 0.105602348098695 
909	 0.105851426352672 
910	 0.106000187051807 
911	 0.106137027921998 
912	 0.106409560131099 
913	 0.106651480662451 
914	 0.106869130583874 
915	 0.107075081114539 
916	 0.107279864539088 
917	 0.107534440272025 
918	 0.107770572247892 
919	 0.107962176782523 
920	 0.108154604772683 
921	 0.108438186366122 
922	 0.108732912695526 
923	 0.108969009220202 
924	 0.109147287072695 
925	 0.109421974357023 
926	 0.109770434512296 
927	 0.110101001234342 
928	 0.110283601315389 
929	 0.110472541662483 
930	 0.110766119945349 
931	 0.111160470717727 
932	 0.111469239207118 
933	 0.11178146107766 
934	 0.112060219165222 
935	 0.1122987598999 
936	 0.112674157158212 
937	 0.113037094438134 
938	 0.113384659187963 
939	 0.113745317770626 
940	 0.114076131023074 
941	 0.11439832774764 
942	 0.114735651941374 
943	 0.115096394874602 
944	 0.115426008106611 
945	 0.115769418126632 
946	 0.116121398221897 
947	 0.116457922576079 
948	 0.116788701672543 
949	 0.117113211176663 
950	 0.117445222751968 
951	 0.117800319143576 
952	 0.118159605814364 
953	 0.118594590735056 
954	 0.119030434578181 
955	 0.119359437318896 
956	 0.119770127870106 
957	 0.120226986874547 
958	 0.120632145341679 
959	 0.120919288873239 
960	 0.121358788227031 
961	 0.121782066487159 
962	 0.122203752797014 
963	 0.122714527445922 
964	 0.12300616303698 
965	 0.1234130073835 
966	 0.123900346060138 
967	 0.124222415174999 
968	 0.124638450293591 
969	 0.125119420306214 
970	 0.125535219636773 
971	 0.125790541083436 
972	 0.126318475274916 
973	 0.1267709031635 
974	 0.127117497818596 
975	 0.127561407727317 
976	 0.128069345285761 
977	 0.12853014995867 
978	 0.128952705605195 
979	 0.129413562763683 
980	 0.129875834340081 
981	 0.130203499882834 
982	 0.130487522703306 
983	 0.130932544696387 
984	 0.131533042073912 
985	 0.131992363753428 
986	 0.132298041159273 
987	 0.132641660642745 
988	 0.133239792338948 
989	 0.133693722053032 
990	 0.134030613339952 
991	 0.134469159257261 
992	 0.134913079986752 
993	 0.135204638595379 
994	 0.135559568414863 
995	 0.136174755096084 
996	 0.136478667687509 
997	 0.136726396963433 
998	 0.137067849422128 
999	 0.13755840970404 
1000	 0.138124132300833 
1001	 0.135156040192295 
1002	 0.13551121002998 
1003	 0.135836791633211 
1004	 0.136143606996631 
1005	 0.136416243419218 
1006	 0.136694485670534 
1007	 0.13694890688785 
1008	 0.137251869171262 
1009	 0.137523073552206 
1010	 0.137813685214623 
1011	 0.138154155766342 
1012	 0.138408367820859 
1013	 0.138676798228427 
1014	 0.13896582073267 
1015	 0.139179604356516 
1016	 0.1394201491909 
1017	 0.139675051909381 
1018	 0.13993803733237 
1019	 0.140193706105029 
1020	 0.140498580700363 
1021	 0.140758957819361 
1022	 0.140953185692867 
1023	 0.141156869921475 
1024	 0.141345579009331 
1025	 0.141520571784218 
1026	 0.141743194831288 
1027	 0.141985215508179 
1028	 0.142163170867512 
1029	 0.142344863018207 
1030	 0.142581743795884 
1031	 0.142786351310858 
1032	 0.142970136350658 
1033	 0.143154562277813 
1034	 0.143329718066134 
1035	 0.143485224166918 
1036	 0.143628032880114 
1037	 0.143746091631714 
1038	 0.143950446254385 
1039	 0.144189571609731 
1040	 0.144381215167796 
1041	 0.144629895623436 
1042	 0.144873706538581 
1043	 0.14500791065685 
1044	 0.145175574755453 
1045	 0.145354373460435 
1046	 0.145534806348748 
1047	 0.145681925943492 
1048	 0.145897602215448 
1049	 0.146090580185659 
1050	 0.146271899114186 
1051	 0.146457868557467 
1052	 0.146644554344173 
1053	 0.146869203377695 
1054	 0.147056636663922 
1055	 0.147210169679797 
1056	 0.147347236885689 
1057	 0.147488131970039 
1058	 0.147571640732507 
1059	 0.147731390416062 
1060	 0.147954094843217 
1061	 0.148134369579101 
1062	 0.148281799931712 
1063	 0.148452128978643 
1064	 0.148544195459737 
1065	 0.148680115692577 
1066	 0.14881653478577 
1067	 0.14888497909887 
1068	 0.149000506648595 
1069	 0.149060564355303 
1070	 0.149157142882146 
1071	 0.149316727696581 
1072	 0.149413200263585 
1073	 0.149487455242465 
1074	 0.149562688397629 
1075	 0.149613817053172 
1076	 0.149628923169832 
1077	 0.149678016816179 
1078	 0.149718308943557 
1079	 0.149766390787491 
1080	 0.149836777550109 
1081	 0.14995364210843 
1082	 0.150052806724461 
1083	 0.150125438931484 
1084	 0.150202663296393 
1085	 0.150256499221112 
1086	 0.150263800986256 
1087	 0.150296529825083 
1088	 0.150332937307671 
1089	 0.150358210412593 
1090	 0.150421965355038 
1091	 0.150472928045639 
1092	 0.15053952144738 
1093	 0.150624125776566 
1094	 0.150671198223985 
1095	 0.150739045560241 
1096	 0.150819886900693 
1097	 0.150897981173672 
1098	 0.15096829491349 
1099	 0.151022758424175 
1100	 0.151105017758561 
1101	 0.151203127172347 
1102	 0.151287308573069 
1103	 0.151372119512309 
1104	 0.151486156862984 
1105	 0.151573403475489 
1106	 0.151613709993999 
1107	 0.151694107344382 
1108	 0.15179108308507 
1109	 0.151877727203453 
1110	 0.151980682212246 
1111	 0.152080718377097 
1112	 0.152169810821062 
1113	 0.152283727793347 
1114	 0.15241218713884 
1115	 0.152540392656778 
1116	 0.152683917456477 
1117	 0.152830915661135 
1118	 0.152988965716879 
1119	 0.153131807468321 
1120	 0.15326742516766 
1121	 0.153362905607387 
1122	 0.153474044752971 
1123	 0.153624026587192 
1124	 0.153780304940987 
1125	 0.153987496698181 
1126	 0.154149423057555 
1127	 0.154301332922774 
1128	 0.154440872882579 
1129	 0.154563375857386 
1130	 0.154687548436915 
1131	 0.154780515638422 
1132	 0.154913021697166 
1133	 0.155074351586972 
1134	 0.155220714711644 
1135	 0.155372475389252 
1136	 0.155544731066203 
1137	 0.155695082740966 
1138	 0.155823792532527 
1139	 0.155944495320421 
1140	 0.156054711046442 
1141	 0.156169606958824 
1142	 0.156273690047113 
1143	 0.156374801007224 
1144	 0.156478564278576 
1145	 0.156587878163103 
1146	 0.156687645620881 
1147	 0.156786891750183 
1148	 0.15690108335356 
1149	 0.157003172162532 
1150	 0.157090055665037 
1151	 0.157184209333358 
1152	 0.157276961868144 
1153	 0.157362711840428 
1154	 0.157425461112695 
1155	 0.15744708442051 
1156	 0.157527270444765 
1157	 0.157624071440309 
1158	 0.157705773669378 
1159	 0.157830034373635 
1160	 0.157908853455925 
1161	 0.157934124660584 
1162	 0.157995489526262 
1163	 0.158066683270782 
1164	 0.15813020645679 
1165	 0.158203986156386 
1166	 0.158271248422637 
1167	 0.158324191108116 
1168	 0.15839140210953 
1169	 0.158455642304164 
1170	 0.158520269640344 
1171	 0.158596501071402 
1172	 0.158693534634338 
1173	 0.158750778613722 
1174	 0.158799044572664 
1175	 0.158846197929115 
1176	 0.15885455075824 
1177	 0.158893800446947 
1178	 0.158965651649051 
1179	 0.159013054158269 
1180	 0.159043317468034 
1181	 0.159089863958473 
1182	 0.159137454312112 
1183	 0.159186885315852 
1184	 0.15923200700664 
1185	 0.159292455079957 
1186	 0.159329322880779 
1187	 0.159338166606584 
1188	 0.159376825864922 
1189	 0.159426399323153 
1190	 0.159468903158601 
1191	 0.159527512982266 
1192	 0.159567919639289 
1193	 0.159579005067071 
1194	 0.159618764217593 
1195	 0.159679162304533 
1196	 0.159720225978879 
1197	 0.159767910100831 
1198	 0.159810251632547 
1199	 0.15984501250227 
1200	 0.159852621596464 
1201	 0.159896299215471 
1202	 0.159964924709166 
1203	 0.160001772901462 
1204	 0.160033483803684 
1205	 0.160070593515229 
1206	 0.160087241489276 
1207	 0.160123400233029 
1208	 0.160187734701477 
1209	 0.160228726605043 
1210	 0.160261925822586 
1211	 0.160292871108893 
1212	 0.160309339569838 
1213	 0.160334720414225 
1214	 0.160359773847561 
1215	 0.160389534088828 
1216	 0.160423134436288 
1217	 0.160470251255383 
1218	 0.160491348672828 
1219	 0.160498996818012 
1220	 0.160522601320146 
1221	 0.160531561581541 
1222	 0.16056180401635 
1223	 0.16061797541701 
1224	 0.16066095579952 
1225	 0.160704186728259 
1226	 0.160746005000316 
1227	 0.160792646820046 
1228	 0.160829004792655 
1229	 0.160860177825042 
1230	 0.160888228013735 
1231	 0.160897676674545 
1232	 0.160922421863075 
1233	 0.160952649241451 
1234	 0.16098816802014 
1235	 0.161019920149939 
1236	 0.161063130143064 
1237	 0.161093415555947 
1238	 0.161115991676082 
1239	 0.161137590227299 
1240	 0.161155863636131 
1241	 0.161172877575586 
1242	 0.161174811792104 
1243	 0.161197841156648 
1244	 0.161234017287324 
1245	 0.161264447546628 
1246	 0.161319076058117 
1247	 0.161348651399164 
1248	 0.16136064401045 
1249	 0.161363652574262 
1250	 0.161383532739258 
1251	 0.161393626241764 
1252	 0.161422095996631 
1253	 0.161472894151002 
1254	 0.161508041631816 
1255	 0.161546591052301 
1256	 0.161571625615814 
1257	 0.161587541029038 
1258	 0.161605550997442 
1259	 0.161616241742677 
1260	 0.161628239799913 
1261	 0.161635758940282 
1262	 0.161650900880472 
1263	 0.161668770322283 
1264	 0.161685391859103 
1265	 0.161702658819481 
1266	 0.161729544383612 
1267	 0.161764298343078 
1268	 0.161791899130005 
1269	 0.161821018167761 
1270	 0.161855431505471 
1271	 0.161890301868377 
1272	 0.161914355473565 
1273	 0.161956005356148 
1274	 0.162021146770865 
1275	 0.162065678113077 
1276	 0.16209218943989 
1277	 0.162150353209746 
1278	 0.162224904033578 
1279	 0.162280747946599 
1280	 0.162350885742795 
1281	 0.162413468252077 
1282	 0.162450575921454 
1283	 0.162501096662563 
1284	 0.162562989360608 
1285	 0.162630645390275 
1286	 0.1626884736338 
1287	 0.162725367339269 
1288	 0.162770306481619 
1289	 0.162813761714908 
1290	 0.162850648682486 
1291	 0.16289148814666 
1292	 0.162915362073801 
1293	 0.162932826434027 
1294	 0.162930756075947 
1295	 0.162903634541163 
1296	 0.162884922156535 
1297	 0.162853540353617 
1298	 0.162828588707604 
1299	 0.162816406258806 
1300	 0.162789682915872 
1301	 0.162754043683313 
1302	 0.162714947656196 
1303	 0.162664906908407 
1304	 0.162620324893339 
1305	 0.162573184220558 
1306	 0.162514438622208 
1307	 0.162454794385257 
1308	 0.162374825617877 
1309	 0.162298417531077 
1310	 0.162208551953302 
1311	 0.162136589468668 
1312	 0.162072380163811 
1313	 0.162003407940764 
1314	 0.161938248577216 
1315	 0.161876411561786 
1316	 0.16180221031302 
1317	 0.161749922345757 
1318	 0.161711792790234 
1319	 0.161677113904483 
1320	 0.161662124545254 
1321	 0.161638341225769 
1322	 0.161607945657212 
1323	 0.161590206720469 
1324	 0.161578284718566 
1325	 0.161570947839588 
1326	 0.161581843731358 
1327	 0.161596202626755 
1328	 0.161620854682602 
1329	 0.161650503632543 
1330	 0.161687250874797 
1331	 0.161737824693464 
1332	 0.161782877895195 
1333	 0.161823986960812 
1334	 0.161881539600416 
1335	 0.161944036449707 
1336	 0.162013622906074 
1337	 0.162096812247966 
1338	 0.162177913405939 
1339	 0.162263378442798 
1340	 0.162348539578612 
1341	 0.162445962126816 
1342	 0.16253072083795 
1343	 0.162615423928582 
1344	 0.162679265301477 
1345	 0.162751680765802 
1346	 0.162815124802123 
1347	 0.162878989118526 
1348	 0.16294416824017 
1349	 0.162988249181075 
1350	 0.163024609125518 
1351	 0.163053712519119 
1352	 0.163059079266972 
1353	 0.163091237139832 
1354	 0.163133402788967 
1355	 0.16316581845086 
1356	 0.1632047894039 
1357	 0.163241485581963 
1358	 0.163255709748737 
1359	 0.163303461582102 
1360	 0.163361673276979 
1361	 0.163441025069998 
1362	 0.163552672057131 
1363	 0.163654739253331 
1364	 0.163760210709126 
1365	 0.163876480629165 
1366	 0.16399249252278 
1367	 0.164119893706624 
1368	 0.164280345236784 
1369	 0.164434632601499 
1370	 0.16456066973159 
1371	 0.164682599066979 
1372	 0.16476309822712 
1373	 0.164814744583344 
1374	 0.164868457980994 
1375	 0.164922738412321 
1376	 0.164934790365642 
1377	 0.164930563664646 
1378	 0.164904079733083 
1379	 0.164811047041222 
1380	 0.164777293977851 
1381	 0.164734145445885 
1382	 0.164735998572584 
1383	 0.164811835105225 
1384	 0.164834822557211 
1385	 0.164863267974615 
1386	 0.164875455707628 
1387	 0.164850979705306 
1388	 0.1648371975749 
1389	 0.164833050500354 
1390	 0.164815788868786 
1391	 0.164785295080887 
1392	 0.164743932279408 
1393	 0.164666514627121 
1394	 0.164578765182018 
1395	 0.16449174870788 
1396	 0.164377770759018 
1397	 0.164293268549724 
1398	 0.164226301708423 
1399	 0.164154784805756 
1400	 0.164100024984801 
1401	 0.164019066806845 
1402	 0.163917897766032 
1403	 0.163833868825194 
1404	 0.163729062533763 
1405	 0.163662738593806 
1406	 0.163637489822844 
1407	 0.163587846766683 
1408	 0.163551879485663 
1409	 0.163497858698842 
1410	 0.16341087113012 
1411	 0.16335072649833 
1412	 0.163289952103214 
1413	 0.163250533652743 
1414	 0.163226761889797 
1415	 0.163196829108177 
1416	 0.163163846219082 
1417	 0.163132521149098 
1418	 0.163083882420966 
1419	 0.163051826756755 
1420	 0.163054717416948 
1421	 0.163034349153074 
1422	 0.163033399352895 
1423	 0.163039269597405 
1424	 0.163015827236152 
1425	 0.162965356558149 
1426	 0.162932139782656 
1427	 0.162885624437424 
1428	 0.162858860775296 
1429	 0.162838244489203 
1430	 0.162831161184141 
1431	 0.162847199920579 
1432	 0.162841640709412 
1433	 0.162842727237777 
1434	 0.162834771328203 
1435	 0.16278856803186 
1436	 0.162783542511968 
1437	 0.162808238025496 
1438	 0.162816606995605 
1439	 0.162832204679513 
1440	 0.162863645970157 
1441	 0.162852166750754 
1442	 0.162839376583927 
1443	 0.162840524011872 
1444	 0.162826393452983 
1445	 0.162839900057778 
1446	 0.162861416133173 
1447	 0.162869068820389 
1448	 0.162892573320294 
1449	 0.162893855362458 
1450	 0.162886152281256 
1451	 0.162892400373449 
1452	 0.162890493635157 
1453	 0.162915091929199 
1454	 0.162970969980514 
1455	 0.162994036587019 
1456	 0.163021420082393 
1457	 0.163035601865982 
1458	 0.163019988591674 
1459	 0.163029390181734 
1460	 0.16304433542353 
1461	 0.163064009871889 
1462	 0.163094210432387 
1463	 0.163116429548843 
1464	 0.163138891879976 
1465	 0.163167734448049 
1466	 0.163199864466408 
1467	 0.163227893938224 
1468	 0.163254163790118 
1469	 0.163285335108101 
1470	 0.163312298377995 
1471	 0.163347121341409 
1472	 0.163396753428885 
1473	 0.163439374556141 
1474	 0.163452382495228 
1475	 0.163468431920581 
1476	 0.163492578832556 
1477	 0.163509418533023 
1478	 0.16354051070225 
1479	 0.163575082474864 
1480	 0.163612467205136 
1481	 0.163658932078027 
1482	 0.163706862208464 
1483	 0.163776397775883 
1484	 0.163826424870403 
1485	 0.163857706397582 
1486	 0.163908156990411 
1487	 0.163968989376118 
1488	 0.164018867227661 
1489	 0.164078161064234 
1490	 0.16412184785207 
1491	 0.16415087007644 
1492	 0.164181783865074 
1493	 0.164198243541807 
1494	 0.164231671859391 
1495	 0.16426870280668 
1496	 0.164308105869724 
1497	 0.164370632890214 
1498	 0.164412719739458 
1499	 0.164449618534211 
1500	 0.164477825300047 
1501	 0.164480592466345 
1502	 0.164498956899831 
1503	 0.164517902325353 
1504	 0.164542181350006 
1505	 0.164568841867774 
1506	 0.164607752578499 
1507	 0.164663386766612 
1508	 0.164704852551041 
1509	 0.164727734989689 
1510	 0.164755455130188 
1511	 0.16475795924015 
1512	 0.164743829399956 
1513	 0.164765249323357 
1514	 0.164787644406189 
1515	 0.164815278037592 
1516	 0.1648628583515 
1517	 0.164897992290764 
1518	 0.164936396030033 
1519	 0.164965162475492 
1520	 0.164986059797051 
1521	 0.165011735124628 
1522	 0.165027750536656 
1523	 0.165054916432315 
1524	 0.16509257920138 
1525	 0.165120018886493 
1526	 0.165156239584691 
1527	 0.165178307882853 
1528	 0.16517932985037 
1529	 0.165201502046623 
1530	 0.165229515971554 
1531	 0.165247455102356 
1532	 0.165274371422352 
1533	 0.165293810152943 
1534	 0.165295050866077 
1535	 0.165310192304323 
1536	 0.165332693774569 
1537	 0.165355390240147 
1538	 0.165380599058327 
1539	 0.165407827691545 
1540	 0.165441810966148 
1541	 0.165471487163012 
1542	 0.165497657963575 
1543	 0.165528230308956 
1544	 0.165565600363252 
1545	 0.165591639640662 
1546	 0.1656193045884 
1547	 0.165635636398571 
1548	 0.165642466193013 
1549	 0.1656508702549 
1550	 0.165655376934904 
1551	 0.165664095539831 
1552	 0.165681549596749 
1553	 0.165694099625537 
1554	 0.165704035381761 
1555	 0.165715178499061 
1556	 0.165716601392738 
1557	 0.165711942940214 
1558	 0.165722220658444 
1559	 0.16573740482619 
1560	 0.165741354081266 
1561	 0.165746282847711 
1562	 0.165744782252839 
1563	 0.165721969664153 
1564	 0.16572992680708 
1565	 0.165750503400345 
1566	 0.165770052762559 
1567	 0.165816323044805 
1568	 0.165828376456665 
1569	 0.165820661384054 
1570	 0.16582434587899 
1571	 0.165814406201549 
1572	 0.165815186353203 
1573	 0.165830615426754 
1574	 0.165832941113544 
1575	 0.165822297946566 
1576	 0.165827435407113 
1577	 0.165838329765796 
1578	 0.165847885122161 
1579	 0.165872433158072 
1580	 0.165881933453613 
1581	 0.165880443965553 
1582	 0.165882691244777 
1583	 0.165873826510013 
1584	 0.165878765915665 
1585	 0.165899621020046 
1586	 0.165901914471935 
1587	 0.165901430375719 
1588	 0.165900471033445 
1589	 0.165885871065928 
1590	 0.165877818988398 
1591	 0.165877957767876 
1592	 0.165873860180115 
1593	 0.165859235451775 
1594	 0.165858640853343 
1595	 0.165872531662773 
1596	 0.165873260180986 
1597	 0.165875751996873 
1598	 0.165872198629048 
1599	 0.165853389506315 
1600	 0.165842030835855 
1601	 0.165823471997257 
1602	 0.165826021220744 
1603	 0.165849727788402 
1604	 0.165862251353609 
1605	 0.165887130334921 
1606	 0.165903045540444 
1607	 0.165904868759625 
1608	 0.1659062063219 
1609	 0.165917409384695 
1610	 0.165923091533158 
1611	 0.165920821267619 
1612	 0.165925236838393 
1613	 0.165923589078214 
1614	 0.165907968483893 
1615	 0.165897063486296 
1616	 0.165890356183096 
1617	 0.16589177338169 
1618	 0.165911405283358 
1619	 0.165939387353009 
1620	 0.165958780088462 
1621	 0.165969032064817 
1622	 0.165971763923568 
1623	 0.165974868613199 
1624	 0.165972124586976 
1625	 0.165964349344641 
1626	 0.165951250480963 
1627	 0.165948006284954 
1628	 0.165938901202593 
1629	 0.165943318275727 
1630	 0.165963292983776 
1631	 0.165972728225194 
1632	 0.165981958794402 
1633	 0.165988964949644 
1634	 0.165997924317454 
1635	 0.165995726544006 
1636	 0.165990437317214 
1637	 0.165975664967871 
1638	 0.165941287512581 
1639	 0.165930195114716 
1640	 0.165923449193003 
1641	 0.165918556465003 
1642	 0.165926509356321 
1643	 0.165928996635302 
1644	 0.165926964954577 
1645	 0.165928380282815 
1646	 0.165938360789754 
1647	 0.165936600181617 
1648	 0.165927978840157 
1649	 0.165922152953052 
1650	 0.165912405426853 
1651	 0.165904209605722 
1652	 0.165895662126118 
1653	 0.16589006239247 
1654	 0.165875913952776 
1655	 0.1658859568621 
1656	 0.165926409812709 
1657	 0.165927042962624 
1658	 0.165926627231789 
1659	 0.165913053803534 
1660	 0.165855889825616 
1661	 0.165836225351342 
1662	 0.165838487468515 
1663	 0.165826967001554 
1664	 0.165817574861336 
1665	 0.165809389020188 
1666	 0.1657949344266 
1667	 0.165787560334321 
1668	 0.165789592550171 
1669	 0.165786132471062 
1670	 0.16578302131469 
1671	 0.165775542028183 
1672	 0.165751620136332 
1673	 0.165760682456318 
1674	 0.165789033288812 
1675	 0.165804757265991 
1676	 0.165847866353588 
1677	 0.165856887581927 
1678	 0.165832934906886 
1679	 0.165825781937829 
1680	 0.165812151387799 
1681	 0.165807670360923 
1682	 0.165810288415304 
1683	 0.165812420839098 
1684	 0.165817440023985 
1685	 0.165823755160706 
1686	 0.165829298122411 
1687	 0.165840895118826 
1688	 0.165865215631253 
1689	 0.165872528336009 
1690	 0.165878455576729 
1691	 0.165876170987822 
1692	 0.165857694134353 
1693	 0.165842573467323 
1694	 0.165818013409356 
1695	 0.165814813486614 
1696	 0.165822301201637 
1697	 0.165822651686762 
1698	 0.165831227378481 
1699	 0.165840366552056 
1700	 0.165842357653869 
1701	 0.165848852404742 
1702	 0.165874389263672 
1703	 0.165880205361323 
1704	 0.165863722642712 
1705	 0.165868529557277 
1706	 0.165876196787158 
1707	 0.165887476114039 
1708	 0.165919061123018 
1709	 0.165930084426225 
1710	 0.165930479977951 
1711	 0.165927622239237 
1712	 0.165911959990473 
1713	 0.165909536310139 
1714	 0.165915481250273 
1715	 0.165911469166393 
1716	 0.165895889022666 
1717	 0.165903962134524 
1718	 0.165924780660689 
1719	 0.165928623262333 
1720	 0.165949414762102 
1721	 0.165948514860355 
1722	 0.165918188314785 
1723	 0.165900451876308 
1724	 0.165890628505398 
1725	 0.165864452318074 
1726	 0.165825891106959 
1727	 0.16579170303493 
1728	 0.165743786962539 
1729	 0.165718821271259 
1730	 0.165703528982 
1731	 0.165692842086786 
1732	 0.165702521610674 
1733	 0.165691735474651 
1734	 0.165680398025596 
1735	 0.165654815056343 
1736	 0.165608149590794 
1737	 0.165584852059724 
1738	 0.165567568733404 
1739	 0.165538189926561 
1740	 0.165518245294043 
1741	 0.165479082073926 
1742	 0.165407194267147 
1743	 0.165383216041128 
1744	 0.165380117548921 
1745	 0.165363006103849 
1746	 0.165366335355306 
1747	 0.165346800650239 
1748	 0.165313050612885 
1749	 0.165296842992359 
1750	 0.165280094677717 
1751	 0.165212188604903 
1752	 0.165179160344254 
1753	 0.165167488264788 
1754	 0.165132964024598 
1755	 0.165152489231737 
1756	 0.165162588373531 
1757	 0.165123360770968 
1758	 0.165089212602618 
1759	 0.1650635780295 
1760	 0.165037508443001 
1761	 0.165024443482743 
1762	 0.165022733236185 
1763	 0.165026639059575 
1764	 0.1650276349915 
1765	 0.165036512870429 
1766	 0.165054610485174 
1767	 0.1650458218462 
1768	 0.165028618026317 
1769	 0.165007449746722 
1770	 0.164976507491871 
1771	 0.164959096233791 
1772	 0.164954014637602 
1773	 0.164962900233238 
1774	 0.164979558291416 
1775	 0.164988236693224 
1776	 0.164979858739696 
1777	 0.164974633435265 
1778	 0.16497941009043 
1779	 0.164967810973133 
1780	 0.164961942579695 
1781	 0.164946276754498 
1782	 0.164917407033441 
1783	 0.164928777156327 
1784	 0.164924298380452 
1785	 0.164922014062077 
1786	 0.164915944588572 
1787	 0.164900133011774 
1788	 0.164890120819115 
1789	 0.164880255634453 
1790	 0.164859610850867 
1791	 0.164820171821935 
1792	 0.164814679283654 
1793	 0.16483376828189 
1794	 0.164832328207206 
1795	 0.164847638076413 
1796	 0.16484327221728 
1797	 0.164795483451351 
1798	 0.164788721992561 
1799	 0.164797901084458 
1800	 0.164815641339191 
1801	 0.163059754190379 
1802	 0.163265465377267 
1803	 0.16347331422858 
1804	 0.16367892423098 
1805	 0.163867477918368 
1806	 0.164064897161477 
1807	 0.164297291748107 
1808	 0.164468974292484 
1809	 0.164594337833332 
1810	 0.164711254407666 
1811	 0.164815057066077 
1812	 0.164893770527728 
1813	 0.164938472294866 
1814	 0.164977111552965 
1815	 0.165012701668902 
1816	 0.165023060620061 
1817	 0.165033978346261 
1818	 0.165026201331379 
1819	 0.165046231693171 
1820	 0.165089696440418 
1821	 0.16508471524585 
1822	 0.165068708740293 
1823	 0.165090225020117 
1824	 0.165110672274553 
1825	 0.16511702056831 
1826	 0.165133439490117 
1827	 0.165131501685126 
1828	 0.165118039076015 
1829	 0.165062408942702 
1830	 0.165035032554557 
1831	 0.165024196707581 
1832	 0.164996857356652 
1833	 0.16495383496325 
1834	 0.164925361045252 
1835	 0.164931040797471 
1836	 0.164949047159514 
1837	 0.164984509021735 
1838	 0.165025803669016 
1839	 0.165054819379607 
1840	 0.165078452886963 
1841	 0.165088306842744 
1842	 0.165105055500559 
1843	 0.165135758854758 
1844	 0.165154061331273 
1845	 0.165188906305881 
1846	 0.165249242609525 
1847	 0.165314154113224 
1848	 0.165388315846639 
1849	 0.165459197227621 
1850	 0.165520775428578 
1851	 0.165581378690364 
1852	 0.165603361089473 
1853	 0.165626890256477 
1854	 0.165680867799797 
1855	 0.16570143070816 
1856	 0.165729278665036 
1857	 0.165765528346997 
1858	 0.16578093759145 
1859	 0.165799812347753 
1860	 0.165790009322717 
1861	 0.165770581097632 
1862	 0.165728632996012 
1863	 0.165653304174428 
1864	 0.16552447473134 
1865	 0.165391669897793 
1866	 0.165241310071253 
1867	 0.16507807681645 
1868	 0.164926081997003 
1869	 0.164808834879638 
1870	 0.164729136543783 
1871	 0.16467113909444 
1872	 0.164637078562952 
1873	 0.164659888991334 
1874	 0.164693346685675 
1875	 0.164736661071317 
1876	 0.164782745294711 
1877	 0.164817279163138 
1878	 0.164839164414312 
1879	 0.164815345826919 
1880	 0.164744761440055 
1881	 0.164642991415665 
1882	 0.164493011923196 
1883	 0.16428742737128 
1884	 0.164044130020921 
1885	 0.163801952970734 
1886	 0.16353537894688 
1887	 0.16325798254141 
1888	 0.162988434462048 
1889	 0.162683142569874 
1890	 0.162377919409205 
1891	 0.16204870493947 
1892	 0.161702093163615 
1893	 0.161332216042986 
1894	 0.16094181682042 
1895	 0.160529040600306 
1896	 0.160104812578239 
1897	 0.159639995913177 
1898	 0.15919237658837 
1899	 0.158756937267409 
1900	 0.158324684693963 
1901	 0.15794726240043 
1902	 0.157592121563546 
1903	 0.157276332489808 
1904	 0.156965591999511 
1905	 0.156687414416062 
1906	 0.156407192263915 
1907	 0.156122664729276 
1908	 0.155839026495401 
1909	 0.155566441017207 
1910	 0.155323403316159 
1911	 0.155114053191651 
1912	 0.154894269237254 
1913	 0.154674043106745 
1914	 0.154450739890096 
1915	 0.154238208715957 
1916	 0.154007587190185 
1917	 0.153819894585404 
1918	 0.153674416185568 
1919	 0.153547935625739 
1920	 0.153439632513876 
1921	 0.153342216197623 
1922	 0.153241731771246 
1923	 0.15315496620753 
1924	 0.153083023698216 
1925	 0.153027707090349 
1926	 0.152985788354484 
1927	 0.152954153848689 
1928	 0.152936846252263 
1929	 0.152952905599356 
1930	 0.152981991113308 
1931	 0.15299235596069 
1932	 0.152993359913389 
1933	 0.152983669626526 
1934	 0.152967891025336 
1935	 0.152979917250629 
1936	 0.153011027053366 
1937	 0.153051927007669 
1938	 0.153115587640035 
1939	 0.153174887116879 
1940	 0.15323964418696 
1941	 0.153312845368219 
1942	 0.153390724125668 
1943	 0.153456710593961 
1944	 0.153524664230806 
1945	 0.153600348627253 
1946	 0.153663429146199 
1947	 0.153712898827793 
1948	 0.153778876676489 
1949	 0.153839389564575 
1950	 0.153906356083346 
1951	 0.15398233236719 
1952	 0.154063245347486 
1953	 0.154145984775821 
1954	 0.154245026541861 
1955	 0.154348167609395 
1956	 0.154438179676732 
1957	 0.154549331132295 
1958	 0.154666797220773 
1959	 0.154796242683161 
1960	 0.154962256177291 
1961	 0.155094959760475 
1962	 0.155201271056194 
1963	 0.155330205720802 
1964	 0.155462286495353 
1965	 0.155588571292664 
1966	 0.155718522340724 
1967	 0.155858528296834 
1968	 0.155996712818532 
1969	 0.156116427939351 
1970	 0.15625947150166 
1971	 0.15643654765074 
1972	 0.156582283168488 
1973	 0.156726336016682 
1974	 0.156851372077382 
1975	 0.156958653416719 
1976	 0.157054086074903 
1977	 0.157149916879071 
1978	 0.157259725999036 
1979	 0.157382131510354 
1980	 0.157517714727462 
1981	 0.157650047587283 
1982	 0.157785710651718 
1983	 0.157929958230684 
1984	 0.15807668606214 
1985	 0.158229857840571 
1986	 0.158414092449361 
1987	 0.158561894169595 
1988	 0.158693352439958 
1989	 0.158827285454793 
1990	 0.158943522442535 
1991	 0.159045077964645 
1992	 0.159148782773395 
1993	 0.159242860399582 
1994	 0.159357091329118 
1995	 0.159471375004667 
1996	 0.159591758463936 
1997	 0.159739233649126 
1998	 0.159866131991989 
1999	 0.159981491961184 
2000	 0.160098372003224 
2001	 0.160211897913297 
2002	 0.160316658393425 
2003	 0.160442725047685 
2004	 0.16057748986064 
2005	 0.160704872164325 
2006	 0.160842157783978 
2007	 0.160977440015442 
2008	 0.161099622033706 
2009	 0.161231355356628 
2010	 0.161377116675506 
2011	 0.161518659427695 
2012	 0.161657124264735 
2013	 0.161800891896969 
2014	 0.16197152982649 
2015	 0.162099137498614 
2016	 0.162215185518735 
2017	 0.162338572657916 
2018	 0.162456508069029 
2019	 0.162553566749027 
2020	 0.162667713479518 
2021	 0.162799239193657 
2022	 0.162915570115813 
2023	 0.163028188333432 
2024	 0.163138283050712 
2025	 0.163226440865972 
2026	 0.16333941785585 
2027	 0.163467832082527 
2028	 0.163591344001035 
2029	 0.163716066120772 
2030	 0.163866763870973 
2031	 0.163975598572152 
2032	 0.164055430006017 
2033	 0.164152716395937 
2034	 0.164234760382771 
2035	 0.164330958636578 
2036	 0.164433687717742 
2037	 0.164545961732082 
2038	 0.164675238311645 
2039	 0.16478979676382 
2040	 0.164909189930411 
2041	 0.165030875202564 
2042	 0.165106817363335 
2043	 0.165177262992447 
2044	 0.165262334929964 
2045	 0.165341631876391 
2046	 0.165421879025283 
2047	 0.165511621970313 
2048	 0.165601050270447 
2049	 0.165682767129486 
2050	 0.16577070645386 
2051	 0.165882805074425 
2052	 0.165968919887482 
2053	 0.166020511582561 
2054	 0.166101351326706 
2055	 0.16617992624647 
2056	 0.166278523820596 
2057	 0.166368281417064 
2058	 0.166490100187938 
2059	 0.166562720895217 
2060	 0.166602332463292 
2061	 0.166655239309011 
2062	 0.166679189974381 
2063	 0.166740354204938 
2064	 0.166829044590775 
2065	 0.166901263431837 
2066	 0.166989958155302 
2067	 0.167063429874058 
2068	 0.167108947967896 
2069	 0.167173095089827 
2070	 0.167244608888908 
2071	 0.167327645800878 
2072	 0.167391792978195 
2073	 0.167457202792474 
2074	 0.167519023089169 
2075	 0.167563553447504 
2076	 0.167619263887873 
2077	 0.167676578325538 
2078	 0.167747002400666 
2079	 0.16783392916327 
2080	 0.167902064867242 
2081	 0.167974393287794 
2082	 0.168041969032487 
2083	 0.168089852269766 
2084	 0.16813955934969 
2085	 0.168199835726492 
2086	 0.168272599575048 
2087	 0.168334574613618 
2088	 0.168402158151916 
2089	 0.168455373239179 
2090	 0.168489991556892 
2091	 0.168543946636966 
2092	 0.168588219537555 
2093	 0.16865313404128 
2094	 0.16874693533096 
2095	 0.16882849116652 
2096	 0.168912979965451 
2097	 0.168998373122658 
2098	 0.169074737328295 
2099	 0.169164490786998 
2100	 0.169251608506775 
2101	 0.169345188883301 
2102	 0.169433345499498 
2103	 0.169522056539286 
2104	 0.169605048610498 
2105	 0.169681056717311 
2106	 0.169765608336433 
2107	 0.169852182423389 
2108	 0.169935273585754 
2109	 0.170021054675813 
2110	 0.170107780094967 
2111	 0.170190031689335 
2112	 0.170275186593946 
2113	 0.170367394729616 
2114	 0.170453860845893 
2115	 0.170545840614817 
2116	 0.170634449351249 
2117	 0.170729851862413 
2118	 0.170840308343527 
2119	 0.170929420232704 
2120	 0.171018252148193 
2121	 0.171092064606117 
2122	 0.171135141858061 
2123	 0.171204591579509 
2124	 0.171303831424157 
2125	 0.171355661171465 
2126	 0.171392762288314 
2127	 0.171427599216086 
2128	 0.171411682318503 
2129	 0.171420991756974 
2130	 0.171439682955378 
2131	 0.171481156401665 
2132	 0.171512163658742 
2133	 0.171549151443745 
2134	 0.17157279945672 
2135	 0.171591346916675 
2136	 0.171614062730578 
2137	 0.171633812116048 
2138	 0.171647280199705 
2139	 0.17168875434062 
2140	 0.171674860546252 
2141	 0.17161313161825 
2142	 0.171569376421231 
2143	 0.171491466026951 
2144	 0.171433220448087 
2145	 0.171406065124829 
2146	 0.171357413761543 
2147	 0.171287184849821 
2148	 0.171236555091098 
2149	 0.171179057618797 
2150	 0.171118073203358 
2151	 0.171051373867383 
2152	 0.170994859243864 
2153	 0.170914298536228 
2154	 0.170814755004301 
2155	 0.170714427470681 
2156	 0.170594933753459 
2157	 0.170488632498589 
2158	 0.170383210837254 
2159	 0.170279047421818 
2160	 0.170184398119623 
2161	 0.170083635725307 
2162	 0.169993464271203 
2163	 0.169878394239701 
2164	 0.169738919849417 
2165	 0.169610632599101 
2166	 0.169474312107617 
2167	 0.169320783345415 
2168	 0.169174444709659 
2169	 0.169036715221607 
2170	 0.168886747833053 
2171	 0.168719489283581 
2172	 0.168569259425544 
2173	 0.168412692304477 
2174	 0.168280339056877 
2175	 0.168162675528462 
2176	 0.168053772416351 
2177	 0.16796337483059 
2178	 0.167876132756401 
2179	 0.167815961910963 
2180	 0.167727296260861 
2181	 0.167631424921901 
2182	 0.167532144550866 
2183	 0.167405981268067 
2184	 0.167285038944162 
2185	 0.167182577829417 
2186	 0.167096102187831 
2187	 0.166996547158432 
2188	 0.166902860918248 
2189	 0.166807612474406 
2190	 0.166691334482743 
2191	 0.166609854796139 
2192	 0.166552612713785 
2193	 0.166489175868854 
2194	 0.166442876259796 
2195	 0.166390042519686 
2196	 0.166342280758044 
2197	 0.166278782666357 
2198	 0.166195267908754 
2199	 0.166134228265324 
2200	 0.166065186476329 
2201	 0.166012099715482 
2202	 0.165978514193719 
2203	 0.165960400413098 
2204	 0.165942302068369 
2205	 0.165928106408239 
2206	 0.165921045624578 
2207	 0.16592775199402 
2208	 0.16592585463929 
2209	 0.165920996619322 
2210	 0.165926067603753 
2211	 0.165947100002417 
2212	 0.165940013469816 
2213	 0.165915817182341 
2214	 0.165910965041338 
2215	 0.165886898774426 
2216	 0.165889082408897 
2217	 0.16594453091731 
2218	 0.165955497702726 
2219	 0.165935909892044 
2220	 0.165937857734589 
2221	 0.165941914242024 
2222	 0.165932093102931 
2223	 0.165932322461179 
2224	 0.165914869721403 
2225	 0.165897427439883 
2226	 0.165843950332048 
2227	 0.165837996528912 
2228	 0.165859942342131 
2229	 0.165872629248063 
2230	 0.165893565369459 
2231	 0.165918200378336 
2232	 0.1659563540194 
2233	 0.165969757690918 
2234	 0.165977527574014 
2235	 0.165988744981789 
2236	 0.165990350846336 
2237	 0.165982879320309 
2238	 0.165971297224035 
2239	 0.16596475787436 
2240	 0.165943159222472 
2241	 0.165928969226808 
2242	 0.165941192262059 
2243	 0.165933214336984 
2244	 0.165904617083492 
2245	 0.165881880965658 
2246	 0.165871870060129 
2247	 0.165842395122414 
2248	 0.165835789471414 
2249	 0.165845068150674 
2250	 0.165851097625558 
2251	 0.165861794346449 
2252	 0.165868753475852 
2253	 0.165873271998701 
2254	 0.165888845357702 
2255	 0.165917291402315 
2256	 0.165930530571547 
2257	 0.16595401964708 
2258	 0.165952304248998 
2259	 0.165922143758345 
2260	 0.165900939121897 
2261	 0.165845593638669 
2262	 0.165846208909106 
2263	 0.165873986165597 
2264	 0.165908804142785 
2265	 0.165999289719452 
2266	 0.166057489824825 
2267	 0.166099879272737 
2268	 0.166148034591651 
2269	 0.166203738997691 
2270	 0.166233460930197 
2271	 0.166259891539919 
2272	 0.166292664707872 
2273	 0.166292340169995 
2274	 0.16632034954999 
2275	 0.166366437547749 
2276	 0.16644255686196 
2277	 0.166471840544114 
2278	 0.166504798833216 
2279	 0.166523388994419 
2280	 0.166479456868996 
2281	 0.166514037506305 
2282	 0.166610962436065 
2283	 0.1666514895953 
2284	 0.166706901731869 
2285	 0.166734591179602 
2286	 0.16668369839887 
2287	 0.16671632784498 
2288	 0.166801016354108 
2289	 0.166858849928646 
2290	 0.166952158858459 
2291	 0.167012850331608 
2292	 0.167032136304941 
2293	 0.167067182380554 
2294	 0.167118508677369 
2295	 0.167149378134045 
2296	 0.16716332161947 
2297	 0.167189007138316 
2298	 0.167178470598842 
2299	 0.167159603861862 
2300	 0.167211183079153 
2301	 0.167248564789737 
2302	 0.167243706661523 
2303	 0.167247446998877 
2304	 0.167240175939067 
2305	 0.167234313043822 
2306	 0.167229364882727 
2307	 0.167273660489502 
2308	 0.167271154090944 
2309	 0.167195459883916 
2310	 0.167197307256796 
2311	 0.16724369524389 
2312	 0.167279589302355 
2313	 0.167350658480225 
2314	 0.167398855836725 
2315	 0.167444221327269 
2316	 0.167449074535481 
2317	 0.167418501393795 
2318	 0.167420529814239 
2319	 0.167400519443986 
2320	 0.167407737150824 
2321	 0.167440031620702 
2322	 0.167490769056558 
2323	 0.167547232452942 
2324	 0.167623544965579 
2325	 0.167757119343242 
2326	 0.167850211597375 
2327	 0.167929743509468 
2328	 0.168015974590685 
2329	 0.168057895165516 
2330	 0.168112713973157 
2331	 0.168187181677145 
2332	 0.168194901873233 
2333	 0.168194695774261 
2334	 0.168209433514534 
2335	 0.168212532525706 
2336	 0.168266237000372 
2337	 0.168348825355905 
2338	 0.16838404732281 
2339	 0.168400192018507 
2340	 0.168434419970539 
2341	 0.168484307781986 
2342	 0.168541981151409 
2343	 0.16858907596908 
2344	 0.168618193943748 
2345	 0.168623365682848 
2346	 0.168575023781063 
2347	 0.168582336628149 
2348	 0.168603182707311 
2349	 0.168614806457651 
2350	 0.168642694117342 
2351	 0.168654596835938 
2352	 0.168662975603901 
2353	 0.168642771929466 
2354	 0.168593556043242 
2355	 0.16858815116866 
2356	 0.168583840213133 
2357	 0.168574623414399 
2358	 0.168607005598649 
2359	 0.168616667765632 
2360	 0.168602224147595 
2361	 0.168561338985353 
2362	 0.168488525581564 
2363	 0.168459107483022 
2364	 0.168448059348289 
2365	 0.168402142294977 
2366	 0.168349447119411 
2367	 0.168325512962376 
2368	 0.168262388927364 
2369	 0.168228116011336 
2370	 0.16826256060009 
2371	 0.168291241317406 
2372	 0.168228458080506 
2373	 0.168168629402023 
2374	 0.168158959268386 
2375	 0.168105480918588 
2376	 0.167978011340167 
2377	 0.167874236860013 
2378	 0.167838217502133 
2379	 0.167806215737976 
2380	 0.167807462194199 
2381	 0.167879036694707 
2382	 0.167780641430614 
2383	 0.167596110879231 
2384	 0.167528713056661 
2385	 0.167470911520657 
2386	 0.167446892987933 
2387	 0.167476401703405 
2388	 0.167495182817997 
2389	 0.167520526081716 
2390	 0.167486774653318 
2391	 0.167415612941204 
2392	 0.167375786185066 
2393	 0.167292772485075 
2394	 0.167207327289159 
2395	 0.167193963538004 
2396	 0.16721440361436 
2397	 0.167202298327 
2398	 0.167183912568696 
2399	 0.167178876430925 
2400	 0.167094384330944 
2401	 0.166932024202557 
2402	 0.166813342201986 
2403	 0.166774099963865 
2404	 0.166780753833208 
2405	 0.166799346489055 
2406	 0.166801322692335 
2407	 0.166748924495978 
2408	 0.166613955010998 
2409	 0.16650761710958 
2410	 0.166430921670533 
2411	 0.166233411755955 
2412	 0.166103567911838 
2413	 0.166069595778332 
2414	 0.16596798173896 
2415	 0.165987605945913 
2416	 0.165957721773056 
2417	 0.165882725066114 
2418	 0.165832196724615 
2419	 0.165802780775258 
2420	 0.165721809047722 
2421	 0.165619732666153 
2422	 0.165555654964978 
2423	 0.165484624554411 
2424	 0.165441966863959 
2425	 0.16545036393151 
2426	 0.165398085994168 
2427	 0.165329581721995 
2428	 0.165235631563175 
2429	 0.16511757267472 
2430	 0.164990367749507 
2431	 0.164757502482191 
2432	 0.164692821026353 
2433	 0.164763491487807 
2434	 0.164714181088867 
2435	 0.164739997723219 
2436	 0.164697458409249 
2437	 0.164475139291486 
2438	 0.16438128663116 
2439	 0.164367318255448 
2440	 0.164290946293322 
2441	 0.164228329607817 
2442	 0.164115392005023 
2443	 0.163961794426228 
2444	 0.163902772630021 
2445	 0.163876077289796 
2446	 0.163801001583416 
2447	 0.163696425982187 
2448	 0.1636344083622 
2449	 0.163580256102594 
2450	 0.163478702666538 
2451	 0.163460253825429 
2452	 0.163395181620027 
2453	 0.163165702663029 
2454	 0.163052765064355 
2455	 0.163039931681143 
2456	 0.163021607591435 
2457	 0.163066441603861 
2458	 0.162981483999676 
2459	 0.162821815566389 
2460	 0.162659964148393 
2461	 0.162434225359375 
2462	 0.162296757013145 
2463	 0.162200131262553 
2464	 0.162119998481721 
2465	 0.161992236258901 
2466	 0.16194343575937 
2467	 0.162051914344778 
2468	 0.162024723844257 
2469	 0.161996325782178 
2470	 0.161866074126104 
2471	 0.161646737307077 
2472	 0.161591562933971 
2473	 0.161502302345784 
2474	 0.161418166368209 
2475	 0.161448557152632 
2476	 0.161287453457608 
2477	 0.161108829724899 
2478	 0.161206890993693 
2479	 0.161432346756721 
2480	 0.161531666964665 
2481	 0.161431692265061 
2482	 0.161190175372068 
2483	 0.160673880687073 
2484	 0.160318848820647 
2485	 0.160354450131201 
2486	 0.160113916109698 
2487	 0.160035967690323 
2488	 0.160150322100139 
2489	 0.159972026514284 
2490	 0.160069324822528 
2491	 0.160270064088477 
2492	 0.160068265778892 
2493	 0.159891370991218 
2494	 0.159899664169154 
2495	 0.159742322729598 
2496	 0.15959055677135 
2497	 0.159522605825617 
2498	 0.159254467822282 
2499	 0.158991512725816 
2500	 0.159153230435374 
