Wavelength	LMW_2100009.asd
350	 8.97498646827772E-02 
351	 8.81358102100008E-02 
352	 8.63684553823413E-02 
353	 8.82172161400324E-02 
354	 8.92516281411402E-02 
355	 0.091022650488536 
356	 9.40555047697366E-02 
357	 9.88732265335199E-02 
358	 0.108230169090347 
359	 0.110756063388146 
360	 0.107655365936113 
361	 0.107623209294933 
362	 0.104635680810932 
363	 0.105410701369802 
364	 0.110901494650579 
365	 0.111167488823577 
366	 0.111253988370175 
367	 0.113337015716241 
368	 0.1172536410139 
369	 0.116946541284755 
370	 0.117502445997273 
371	 0.120921978101493 
372	 0.126342799181333 
373	 0.128975476575601 
374	 0.127549384404063 
375	 0.125841903628081 
376	 0.136059498267767 
377	 0.135454798433072 
378	 0.132488826159407 
379	 0.138876181550855 
380	 0.137390072541534 
381	 0.138588580356836 
382	 0.143240137491036 
383	 0.144463590972376 
384	 0.146093742346815 
385	 0.146627194116802 
386	 0.146148487027203 
387	 0.14906941062843 
388	 0.153683844521174 
389	 0.155735496547435 
390	 0.15293396942807 
391	 0.156299886797436 
392	 0.158294020834317 
393	 0.158474503312783 
394	 0.162564091783441 
395	 0.16408069097534 
396	 0.165329981692786 
397	 0.168004011127997 
398	 0.169366599218412 
399	 0.170944543601372 
400	 0.172291359612516 
401	 0.172801632889525 
402	 0.175210920824686 
403	 0.175885618665102 
404	 0.175074294323957 
405	 0.177053793900061 
406	 0.178496425391361 
407	 0.180259756352375 
408	 0.182543080742707 
409	 0.181639228040519 
410	 0.181162993136057 
411	 0.181948509020402 
412	 0.183378821578471 
413	 0.185180376883798 
414	 0.185465577437059 
415	 0.18443754194566 
416	 0.184992519969129 
417	 0.185196654489005 
418	 0.185066215622087 
419	 0.185120678779448 
420	 0.186182027105988 
421	 0.185673005970242 
422	 0.184379884550298 
423	 0.184922319504186 
424	 0.1844249069452 
425	 0.184127227156959 
426	 0.184527935707282 
427	 0.183790431555907 
428	 0.18358003349737 
429	 0.18362394991943 
430	 0.183326698743241 
431	 0.183879739678372 
432	 0.183583702560698 
433	 0.182686482747579 
434	 0.183280682014309 
435	 0.183339735654836 
436	 0.183132616628084 
437	 0.183368504017643 
438	 0.184694510026827 
439	 0.186712511674935 
440	 0.188933965738705 
441	 0.190870695433477 
442	 0.192461012474574 
443	 0.194101139593355 
444	 0.195668186192626 
445	 0.196158470031695 
446	 0.197036092920493 
447	 0.198206169643097 
448	 0.199103872994424 
449	 0.199247123986024 
450	 0.199616779543409 
451	 0.200314980237642 
452	 0.200688269532334 
453	 0.201074900253062 
454	 0.20134975462375 
455	 0.201471481806082 
456	 0.201781177459079 
457	 0.202084313555687 
458	 0.202363664652856 
459	 0.202660237038007 
460	 0.202859538598054 
461	 0.203025002366491 
462	 0.203151014063513 
463	 0.203104301137112 
464	 0.203296745884731 
465	 0.203491758075957 
466	 0.203450136360507 
467	 0.203690634791241 
468	 0.204026626488867 
469	 0.204231806272749 
470	 0.204115117861036 
471	 0.204369484599202 
472	 0.204501690359663 
473	 0.204252800013279 
474	 0.204393193088076 
475	 0.204546557342287 
476	 0.204502573715089 
477	 0.204228238116073 
478	 0.204462672723386 
479	 0.20470766018187 
480	 0.204661516230591 
481	 0.204433354339351 
482	 0.204549156141141 
483	 0.204797658797222 
484	 0.204840276457291 
485	 0.204772529402972 
486	 0.204697052133543 
487	 0.204663411024115 
488	 0.204666933268711 
489	 0.204596861067768 
490	 0.204540818926838 
491	 0.20458988213067 
492	 0.204799989989059 
493	 0.204743912189 
494	 0.204529805407408 
495	 0.204494705502347 
496	 0.204544790660079 
497	 0.204478990307698 
498	 0.204314621857549 
499	 0.204411737873694 
500	 0.204376908467327 
501	 0.204179346413715 
502	 0.203953023976569 
503	 0.204064471401237 
504	 0.203944449610891 
505	 0.203588375710437 
506	 0.2035086144643 
507	 0.203381093927027 
508	 0.20332431725483 
509	 0.203363743727319 
510	 0.203043978330122 
511	 0.202771641943925 
512	 0.202620421243343 
513	 0.202498910406148 
514	 0.202574808720611 
515	 0.202565987094784 
516	 0.202329332100641 
517	 0.202004592301719 
518	 0.201927112734576 
519	 0.201906371509236 
520	 0.201681233347586 
521	 0.201670537599282 
522	 0.201598015802792 
523	 0.201383099527358 
524	 0.201186236597739 
525	 0.200938752151053 
526	 0.200726969530279 
527	 0.200609438521407 
528	 0.200468850478899 
529	 0.200279026656567 
530	 0.200114493916851 
531	 0.20008963054921 
532	 0.199952784098911 
533	 0.199772662772996 
534	 0.19962981788686 
535	 0.199542217836571 
536	 0.199385590362121 
537	 0.199156962970115 
538	 0.198915764831074 
539	 0.198754332220231 
540	 0.198604126607172 
541	 0.198455526946143 
542	 0.198397595070856 
543	 0.198288349319844 
544	 0.198117078337569 
545	 0.197921266942426 
546	 0.197763356930261 
547	 0.197600476056929 
548	 0.197432076331273 
549	 0.197291891526804 
550	 0.197106451910581 
551	 0.196937394914014 
552	 0.196820608019487 
553	 0.196659162325006 
554	 0.196514611718289 
555	 0.196385315656699 
556	 0.196245090343054 
557	 0.19615642871357 
558	 0.196083568486696 
559	 0.196002378245096 
560	 0.195929333424918 
561	 0.195850186160983 
562	 0.195770513046766 
563	 0.195689317219754 
564	 0.195533639388232 
565	 0.195364201531174 
566	 0.195195736441322 
567	 0.194984375767354 
568	 0.194851488809048 
569	 0.194715958306394 
570	 0.194496857519868 
571	 0.19427255776447 
572	 0.194110436255257 
573	 0.194001747181659 
574	 0.193883417681619 
575	 0.193766676074705 
576	 0.193647335439664 
577	 0.193517727578089 
578	 0.19336757608349 
579	 0.193180894910555 
580	 0.192929649079815 
581	 0.1926023681249 
582	 0.192307520529742 
583	 0.192097499733062 
584	 0.191981945767407 
585	 0.191920925534528 
586	 0.191934718040113 
587	 0.191964803851677 
588	 0.191950318874424 
589	 0.191926943135714 
590	 0.191864082640332 
591	 0.191770636432111 
592	 0.191690957237784 
593	 0.191593785380317 
594	 0.191548837343502 
595	 0.191585950678092 
596	 0.191600373761247 
597	 0.191491710925661 
598	 0.191291716682993 
599	 0.191102419801022 
600	 0.19089316878404 
601	 0.190737160882151 
602	 0.190650443004476 
603	 0.19052591844586 
604	 0.190476983493877 
605	 0.190457057428971 
606	 0.190375708523661 
607	 0.190235548276681 
608	 0.190097852001723 
609	 0.189996411253003 
610	 0.189928085902856 
611	 0.189831662278664 
612	 0.189730131109819 
613	 0.189641792531176 
614	 0.189482611611265 
615	 0.189378293538774 
616	 0.189318516437728 
617	 0.189205356300345 
618	 0.189126323279379 
619	 0.189034493695488 
620	 0.188920252902803 
621	 0.18890789725475 
622	 0.188836644279535 
623	 0.188716870354839 
624	 0.188625495826388 
625	 0.18857920565996 
626	 0.188499144953601 
627	 0.188368215770031 
628	 0.188258965274797 
629	 0.188210337476011 
630	 0.188183784359847 
631	 0.188125423360915 
632	 0.18802377182869 
633	 0.1879144567143 
634	 0.187826697077489 
635	 0.187778226194148 
636	 0.187723665528456 
637	 0.187643184668655 
638	 0.187537622902362 
639	 0.187436573208582 
640	 0.187391422417801 
641	 0.187343090044582 
642	 0.187213756286863 
643	 0.18723365647199 
644	 0.187191539123086 
645	 0.187031310478735 
646	 0.186980729157402 
647	 0.186904707065491 
648	 0.186819013083617 
649	 0.186760582522567 
650	 0.18667267126697 
651	 0.186603470307081 
652	 0.186553143913325 
653	 0.18648087943196 
654	 0.186436242637694 
655	 0.186357077221933 
656	 0.186224615949713 
657	 0.186180284224531 
658	 0.186125280699752 
659	 0.186046342847877 
660	 0.185963947196716 
661	 0.18582767702115 
662	 0.185723255212944 
663	 0.18568209690566 
664	 0.185641624530781 
665	 0.185571609680847 
666	 0.18547898333982 
667	 0.18538207474711 
668	 0.18527722156372 
669	 0.18521868735891 
670	 0.185186221652214 
671	 0.185103630216131 
672	 0.185051668974323 
673	 0.185011258638041 
674	 0.184959146624445 
675	 0.184908942199697 
676	 0.184809085747107 
677	 0.184663153282726 
678	 0.184510235943103 
679	 0.184432871322257 
680	 0.184352002946644 
681	 0.184249405076081 
682	 0.184204575658276 
683	 0.184136392922961 
684	 0.184048622475603 
685	 0.183954389126796 
686	 0.183800172796285 
687	 0.183748235246572 
688	 0.183750909070477 
689	 0.183627633149255 
690	 0.183549809821169 
691	 0.183458952767217 
692	 0.183318162350184 
693	 0.183194325684993 
694	 0.183110407524328 
695	 0.183032681868609 
696	 0.182921413222199 
697	 0.182842634066804 
698	 0.182781947334334 
699	 0.182716719064023 
700	 0.182622937115037 
701	 0.182545064647727 
702	 0.182464475806412 
703	 0.18236080030373 
704	 0.182242126570932 
705	 0.182161267993748 
706	 0.182084149855117 
707	 0.181945409192422 
708	 0.181830608851363 
709	 0.181750208736744 
710	 0.181688630451228 
711	 0.181606620970651 
712	 0.181478737734886 
713	 0.181349468806321 
714	 0.181268308031254 
715	 0.181226793687383 
716	 0.18114770886405 
717	 0.181014723060042 
718	 0.18086768399393 
719	 0.180823459848629 
720	 0.180786393681363 
721	 0.180686635442334 
722	 0.180562310587945 
723	 0.180466761392612 
724	 0.180365856858509 
725	 0.180220156123337 
726	 0.180132090448482 
727	 0.180073859743702 
728	 0.180014063808836 
729	 0.179926137316684 
730	 0.179809440513753 
731	 0.179720498879447 
732	 0.179670730890683 
733	 0.179534958650671 
734	 0.179433588006332 
735	 0.179360512178147 
736	 0.179265283862472 
737	 0.179171307322748 
738	 0.179085723400583 
739	 0.179006467125978 
740	 0.178923298521614 
741	 0.178874265900929 
742	 0.178790066196476 
743	 0.178633664721181 
744	 0.178510678105389 
745	 0.178412493022261 
746	 0.178340961080995 
747	 0.178293973010711 
748	 0.178235739516965 
749	 0.178152411273214 
750	 0.178049246666583 
751	 0.177950847589185 
752	 0.177852070301414 
753	 0.177753373794012 
754	 0.177656082280426 
755	 0.177557211587988 
756	 0.177502759984857 
757	 0.177465041026281 
758	 0.17738662987977 
759	 0.177308177920915 
760	 0.177200062656211 
761	 0.177082653584973 
762	 0.177042572753426 
763	 0.176969778787528 
764	 0.176874229923468 
765	 0.176785652857719 
766	 0.176697431079426 
767	 0.176653864022631 
768	 0.176617015585907 
769	 0.176514594937725 
770	 0.176350764554275 
771	 0.176256481826991 
772	 0.176238510118971 
773	 0.176147028713554 
774	 0.176079123002577 
775	 0.176009526216184 
776	 0.175910524094115 
777	 0.175816765931874 
778	 0.175733622141022 
779	 0.175671801977154 
780	 0.175634224438535 
781	 0.175574884412117 
782	 0.175503989410609 
783	 0.175420435706821 
784	 0.175310734748928 
785	 0.175269327027494 
786	 0.175239223653424 
787	 0.175163141721121 
788	 0.175048115392858 
789	 0.174998990378425 
790	 0.174956659854818 
791	 0.174834353622515 
792	 0.174764621602741 
793	 0.17470943374712 
794	 0.174647700138877 
795	 0.174581370472752 
796	 0.174520801708154 
797	 0.174443398470642 
798	 0.174350513253428 
799	 0.174295821679853 
800	 0.174240254811972 
801	 0.174181318699647 
802	 0.174119909114712 
803	 0.174022591780331 
804	 0.173959820933139 
805	 0.173912203598331 
806	 0.173814623129947 
807	 0.173743260847668 
808	 0.173698655148688 
809	 0.173651990164487 
810	 0.173551561512192 
811	 0.173538494607877 
812	 0.173516843179577 
813	 0.173410013594238 
814	 0.173342422166158 
815	 0.173277801769861 
816	 0.173198257670496 
817	 0.173111488621445 
818	 0.173132232246982 
819	 0.173113860695673 
820	 0.173028453058562 
821	 0.172959776429018 
822	 0.172880500462246 
823	 0.172806033894623 
824	 0.172744194668907 
825	 0.172681285652564 
826	 0.172672447100824 
827	 0.172656924642871 
828	 0.172577383744405 
829	 0.172487583153637 
830	 0.17243294371242 
831	 0.172379468064675 
832	 0.172273525850104 
833	 0.172210633257556 
834	 0.172147553962007 
835	 0.172076622272761 
836	 0.172032249948709 
837	 0.172029424521297 
838	 0.172002811736508 
839	 0.171917914933665 
840	 0.17181323575551 
841	 0.171754991438575 
842	 0.171730587762749 
843	 0.171702867806193 
844	 0.171638364682614 
845	 0.171621954272404 
846	 0.171586812119221 
847	 0.17144207242581 
848	 0.171384163944974 
849	 0.171372868101685 
850	 0.171344508675725 
851	 0.171244122997923 
852	 0.171186745565643 
853	 0.171143371444048 
854	 0.171089130470835 
855	 0.171036401303202 
856	 0.170995575866863 
857	 0.17098077083378 
858	 0.170964801270096 
859	 0.170800522351605 
860	 0.170768092862311 
861	 0.170765406988324 
862	 0.170628059907853 
863	 0.170574116125166 
864	 0.1705011938304 
865	 0.170426461004165 
866	 0.170423559458105 
867	 0.170382428602117 
868	 0.170332187242321 
869	 0.170293100416421 
870	 0.170260257575837 
871	 0.170189308098152 
872	 0.170140479531175 
873	 0.170122318995344 
874	 0.170035837879659 
875	 0.169944892014647 
876	 0.169900506786337 
877	 0.169898402590949 
878	 0.169794276028656 
879	 0.169765254214424 
880	 0.169769721984218 
881	 0.169720910161499 
882	 0.169697916290263 
883	 0.169621275823147 
884	 0.169528149166225 
885	 0.169497085238118 
886	 0.169421993282798 
887	 0.169330967346584 
888	 0.169270676697934 
889	 0.169282180856553 
890	 0.16929952649486 
891	 0.169257340574656 
892	 0.169161415814088 
893	 0.169100187098654 
894	 0.16905285435386 
895	 0.169026046540399 
896	 0.169011554281631 
897	 0.168971028140578 
898	 0.168897204237613 
899	 0.168795593681494 
900	 0.168713894881929 
901	 0.168810685806406 
902	 0.168782104984033 
903	 0.16868535466073 
904	 0.168658413588527 
905	 0.168624922904396 
906	 0.168539382393467 
907	 0.168457862154816 
908	 0.168463458999413 
909	 0.168514160764772 
910	 0.168484475375752 
911	 0.168391767371428 
912	 0.168339021466539 
913	 0.168272631228043 
914	 0.168229074659835 
915	 0.168193024953359 
916	 0.168110510524945 
917	 0.168060352016518 
918	 0.168055853595336 
919	 0.168050274128873 
920	 0.167954811589339 
921	 0.167900544459867 
922	 0.167880763529378 
923	 0.167881183991401 
924	 0.167908273186332 
925	 0.167811412241856 
926	 0.167707174843103 
927	 0.167664906567769 
928	 0.167558358487028 
929	 0.167534983117366 
930	 0.167553904486113 
931	 0.167537514010796 
932	 0.167438845056594 
933	 0.167434650302043 
934	 0.167450530624159 
935	 0.167375372639643 
936	 0.167219389600283 
937	 0.16709833683997 
938	 0.167080499630423 
939	 0.167159379242797 
940	 0.167179957891607 
941	 0.167116023023921 
942	 0.167101022488524 
943	 0.16720597759669 
944	 0.166995942047266 
945	 0.166878259638998 
946	 0.166889921038534 
947	 0.166890078225213 
948	 0.166843274685854 
949	 0.166735442657297 
950	 0.16660502871226 
951	 0.166529304269864 
952	 0.16663688244457 
953	 0.166643359345979 
954	 0.166566874027006 
955	 0.166579286175732 
956	 0.166592612198189 
957	 0.166604764492441 
958	 0.166552042061282 
959	 0.166386879273455 
960	 0.166351447023664 
961	 0.166277357826333 
962	 0.16618459009184 
963	 0.166187554772858 
964	 0.166076212276337 
965	 0.16614060629208 
966	 0.166271130319161 
967	 0.166154829738578 
968	 0.166104474777615 
969	 0.166032017146304 
970	 0.165985759540695 
971	 0.166056086926983 
972	 0.165929143257595 
973	 0.165787521547549 
974	 0.165694820840711 
975	 0.165638168284706 
976	 0.16585401310039 
977	 0.165772942190187 
978	 0.165522932255319 
979	 0.165599289045046 
980	 0.165585035005961 
981	 0.165590032178809 
982	 0.165618016405081 
983	 0.165594069493194 
984	 0.165489460696011 
985	 0.165414423644313 
986	 0.165339849150489 
987	 0.165197407496897 
988	 0.165163878554622 
989	 0.165165638051016 
990	 0.165209589234668 
991	 0.165296240983677 
992	 0.165192048461568 
993	 0.165096763210898 
994	 0.165126525387556 
995	 0.165229296761762 
996	 0.16491834143225 
997	 0.164903283960533 
998	 0.165062179783022 
999	 0.165022847663102 
1000	 0.164853523647894 
1001	 0.160618141137072 
1002	 0.160652130243601 
1003	 0.160555343786667 
1004	 0.160494399129013 
1005	 0.160440999196346 
1006	 0.160383110550126 
1007	 0.160273630163819 
1008	 0.160305524069128 
1009	 0.160322769141372 
1010	 0.160204556263759 
1011	 0.160169108328602 
1012	 0.160115951017082 
1013	 0.160051867384242 
1014	 0.160131933121292 
1015	 0.160136394038907 
1016	 0.16007968359389 
1017	 0.160063124920927 
1018	 0.160047363164463 
1019	 0.160021034643448 
1020	 0.160004561887415 
1021	 0.159975859959386 
1022	 0.159926481466539 
1023	 0.159854571182914 
1024	 0.159784921540409 
1025	 0.159717097080987 
1026	 0.159686670471649 
1027	 0.15964326165737 
1028	 0.159590542671298 
1029	 0.159615687137107 
1030	 0.15962792227993 
1031	 0.159599926815412 
1032	 0.159551123246692 
1033	 0.159488843666276 
1034	 0.159389569539416 
1035	 0.159288148347349 
1036	 0.159209780137832 
1037	 0.159169648875396 
1038	 0.159174423420267 
1039	 0.159156858133177 
1040	 0.159089849798819 
1041	 0.159050244340859 
1042	 0.159005532791711 
1043	 0.158945749225109 
1044	 0.158879306257894 
1045	 0.158831646104804 
1046	 0.158752645239048 
1047	 0.15866161876776 
1048	 0.158576664461655 
1049	 0.158527430013747 
1050	 0.158496557310848 
1051	 0.15847543770601 
1052	 0.158464302669498 
1053	 0.158471936402907 
1054	 0.158442624359117 
1055	 0.158321421518531 
1056	 0.158268538347738 
1057	 0.158221842076883 
1058	 0.158152403527414 
1059	 0.158115412540374 
1060	 0.158162370187702 
1061	 0.158102050891605 
1062	 0.157999543356847 
1063	 0.157956119790714 
1064	 0.157854013905629 
1065	 0.15777439737207 
1066	 0.157758951131652 
1067	 0.157718776582905 
1068	 0.157696965955064 
1069	 0.157728722355286 
1070	 0.157675639472547 
1071	 0.157553057195285 
1072	 0.157451443837825 
1073	 0.157277620547144 
1074	 0.157192696499355 
1075	 0.157152240792218 
1076	 0.157144324689036 
1077	 0.157133159141064 
1078	 0.157101082500555 
1079	 0.157000157949507 
1080	 0.156968340543028 
1081	 0.156970555105337 
1082	 0.156915019634348 
1083	 0.156869015471313 
1084	 0.156816570041579 
1085	 0.156764740864248 
1086	 0.156716339980664 
1087	 0.156666361343316 
1088	 0.15662679889937 
1089	 0.156562552844665 
1090	 0.156480407442322 
1091	 0.156413198964864 
1092	 0.156356003562682 
1093	 0.156312899832978 
1094	 0.156294983399182 
1095	 0.15624680542803 
1096	 0.156181154938281 
1097	 0.156156316994115 
1098	 0.156117334516731 
1099	 0.156069089006821 
1100	 0.156032961250962 
1101	 0.156010090901812 
1102	 0.155969509122612 
1103	 0.155917042852999 
1104	 0.155890027235303 
1105	 0.155845780707712 
1106	 0.155805945490912 
1107	 0.155798915180406 
1108	 0.155783463524725 
1109	 0.155754445642053 
1110	 0.155714404726873 
1111	 0.155668414073468 
1112	 0.155605847249319 
1113	 0.155549113281984 
1114	 0.155478504524234 
1115	 0.155428704508101 
1116	 0.155368243739015 
1117	 0.155334171329758 
1118	 0.155320873128945 
1119	 0.155336618950761 
1120	 0.155326861959273 
1121	 0.1552952533345 
1122	 0.155246930926415 
1123	 0.155192727760133 
1124	 0.15514252866 
1125	 0.15509389247561 
1126	 0.155047293772186 
1127	 0.154978475410251 
1128	 0.154948695129926 
1129	 0.15496224766715 
1130	 0.154931966731888 
1131	 0.154905860024987 
1132	 0.154877364017778 
1133	 0.154811392503839 
1134	 0.154758170758726 
1135	 0.154721704458192 
1136	 0.154677407256535 
1137	 0.154629342674451 
1138	 0.154594872938843 
1139	 0.154547769540251 
1140	 0.154501453760774 
1141	 0.154454439476388 
1142	 0.154397607547166 
1143	 0.154346295089572 
1144	 0.154294489056746 
1145	 0.154256655229048 
1146	 0.154229478159979 
1147	 0.154191409533914 
1148	 0.154170242553424 
1149	 0.154132524904183 
1150	 0.154079765399102 
1151	 0.154018236057336 
1152	 0.153970982589346 
1153	 0.153895669778495 
1154	 0.153819836587407 
1155	 0.15371733512078 
1156	 0.153662755042347 
1157	 0.153624465411501 
1158	 0.153575511016393 
1159	 0.153550082825204 
1160	 0.153519697928725 
1161	 0.153485048152295 
1162	 0.153437636591086 
1163	 0.15338012040381 
1164	 0.153341598506873 
1165	 0.153296820357055 
1166	 0.153257760216256 
1167	 0.153233210329631 
1168	 0.153203207281056 
1169	 0.153154162444504 
1170	 0.153070151459629 
1171	 0.153017480689581 
1172	 0.152979808132935 
1173	 0.152924974405786 
1174	 0.152863345026258 
1175	 0.152813352814607 
1176	 0.152751101976198 
1177	 0.152707166488276 
1178	 0.152691852722505 
1179	 0.152661246999502 
1180	 0.152624774106809 
1181	 0.152592225901454 
1182	 0.152558290946775 
1183	 0.152525458978784 
1184	 0.152490750802558 
1185	 0.152464179752984 
1186	 0.152421298355512 
1187	 0.152366329727525 
1188	 0.152318930307583 
1189	 0.152267629067122 
1190	 0.152217234916117 
1191	 0.152163674421332 
1192	 0.15211986660317 
1193	 0.15208283498994 
1194	 0.152040276707233 
1195	 0.151991760115682 
1196	 0.151961486228766 
1197	 0.151945689801471 
1198	 0.15191540897997 
1199	 0.1518854781944 
1200	 0.151874917458732 
1201	 0.151834893642358 
1202	 0.151769333656112 
1203	 0.151716066870721 
1204	 0.151656864518665 
1205	 0.151607104277915 
1206	 0.151556000547476 
1207	 0.151513353618116 
1208	 0.151482175276699 
1209	 0.151446682332949 
1210	 0.151421863446838 
1211	 0.151381766438298 
1212	 0.15133611311422 
1213	 0.151285246811077 
1214	 0.151216473078078 
1215	 0.151156373036957 
1216	 0.151097886521841 
1217	 0.151036724660888 
1218	 0.150986679578941 
1219	 0.150946532590757 
1220	 0.150899441902771 
1221	 0.150854345971805 
1222	 0.150810157807941 
1223	 0.15076398615124 
1224	 0.150718822039534 
1225	 0.150678200609074 
1226	 0.150634559972671 
1227	 0.150587023977218 
1228	 0.15054121216903 
1229	 0.150497184791284 
1230	 0.150452343789541 
1231	 0.150398307466629 
1232	 0.150357205536486 
1233	 0.150322055814015 
1234	 0.150295472068313 
1235	 0.150258249886074 
1236	 0.15022952123592 
1237	 0.150186971299456 
1238	 0.15012934403644 
1239	 0.150078440982272 
1240	 0.150023317876258 
1241	 0.14997565598123 
1242	 0.149932945510722 
1243	 0.149885911991177 
1244	 0.14984895254621 
1245	 0.149798275596722 
1246	 0.149733314799272 
1247	 0.149672091665267 
1248	 0.149600262150399 
1249	 0.149536700721283 
1250	 0.149484750437899 
1251	 0.149439168224409 
1252	 0.149388880458183 
1253	 0.149345264612189 
1254	 0.149298315514172 
1255	 0.149247528967444 
1256	 0.149196945332603 
1257	 0.149150800335157 
1258	 0.149097616889619 
1259	 0.149032394461262 
1260	 0.148978550363406 
1261	 0.148933806512078 
1262	 0.148881618102067 
1263	 0.148827178322032 
1264	 0.148776804075246 
1265	 0.148722109637608 
1266	 0.148668290162351 
1267	 0.14861495956359 
1268	 0.148576927563891 
1269	 0.148520287288869 
1270	 0.148452158552152 
1271	 0.148396482665567 
1272	 0.148337911575641 
1273	 0.14828519982167 
1274	 0.148249490783888 
1275	 0.148194903600002 
1276	 0.148118476216322 
1277	 0.148070094230959 
1278	 0.148040837109653 
1279	 0.147988738651634 
1280	 0.147940437624173 
1281	 0.147891476689926 
1282	 0.147814663025447 
1283	 0.147755715628722 
1284	 0.147713067555564 
1285	 0.147677074899991 
1286	 0.147630343895465 
1287	 0.147581923457183 
1288	 0.147530209345652 
1289	 0.147474469902302 
1290	 0.147420291306458 
1291	 0.147364361664363 
1292	 0.147308933859785 
1293	 0.147245476278266 
1294	 0.147201254703247 
1295	 0.147172908775489 
1296	 0.147129048845659 
1297	 0.147091604180242 
1298	 0.147048246521522 
1299	 0.146995578283634 
1300	 0.146938397163932 
1301	 0.146876829141814 
1302	 0.146820704730111 
1303	 0.146768559563469 
1304	 0.146694498776145 
1305	 0.146630888242502 
1306	 0.146586269610938 
1307	 0.146518390191849 
1308	 0.146463077414747 
1309	 0.146401583346345 
1310	 0.146328248148356 
1311	 0.146278890263063 
1312	 0.14624941699016 
1313	 0.146195992235101 
1314	 0.146146138505421 
1315	 0.146096201240519 
1316	 0.146029559194253 
1317	 0.145968996668131 
1318	 0.145921535547091 
1319	 0.145866980209331 
1320	 0.145799036346996 
1321	 0.145740006645688 
1322	 0.145690012422148 
1323	 0.145634913482997 
1324	 0.145579933044571 
1325	 0.145515902421813 
1326	 0.14544659813386 
1327	 0.145391098693955 
1328	 0.145346302517929 
1329	 0.145310514528198 
1330	 0.145251790897652 
1331	 0.145183978268852 
1332	 0.145125110759588 
1333	 0.145044473715731 
1334	 0.144992651194845 
1335	 0.144976730136467 
1336	 0.144927910531166 
1337	 0.14486733552834 
1338	 0.144815510697781 
1339	 0.14475249619881 
1340	 0.144699773174001 
1341	 0.144665276417507 
1342	 0.1446166583899 
1343	 0.144562937868023 
1344	 0.144502573597256 
1345	 0.144436944118145 
1346	 0.144390583549996 
1347	 0.144346741531141 
1348	 0.144291893676343 
1349	 0.144244897973009 
1350	 0.144195582639636 
1351	 0.144139680306978 
1352	 0.14407968444278 
1353	 0.144020600705145 
1354	 0.143950158462319 
1355	 0.143894116884119 
1356	 0.1438478813742 
1357	 0.14379508574126 
1358	 0.143753217257808 
1359	 0.143695794402686 
1360	 0.14362014692846 
1361	 0.14355766585909 
1362	 0.143484901601765 
1363	 0.143432999873677 
1364	 0.143414024636715 
1365	 0.143365066690496 
1366	 0.143310654945029 
1367	 0.143260391141282 
1368	 0.143169868049536 
1369	 0.143098548447139 
1370	 0.143040226063814 
1371	 0.142947342844429 
1372	 0.142872718525798 
1373	 0.142811758159705 
1374	 0.142737776886833 
1375	 0.142665149260969 
1376	 0.142589177376896 
1377	 0.142500155727802 
1378	 0.142417474038995 
1379	 0.142334923135496 
1380	 0.142262688574009 
1381	 0.142193069481188 
1382	 0.142128515359186 
1383	 0.142086840987124 
1384	 0.142015163368095 
1385	 0.14193125918758 
1386	 0.141850834843124 
1387	 0.141757180789404 
1388	 0.14166662315381 
1389	 0.141584677037919 
1390	 0.141490586086284 
1391	 0.141392601341366 
1392	 0.141272889123098 
1393	 0.141150016382011 
1394	 0.141023986173082 
1395	 0.140882244182062 
1396	 0.140741680578024 
1397	 0.140590633179482 
1398	 0.140429764812224 
1399	 0.140265073022052 
1400	 0.140098285412324 
1401	 0.139916330764714 
1402	 0.139718171258193 
1403	 0.139532764579861 
1404	 0.139342132821072 
1405	 0.139150361698014 
1406	 0.138960089451911 
1407	 0.1387737098451 
1408	 0.138581888506093 
1409	 0.138400863947327 
1410	 0.138237239766441 
1411	 0.138066426952164 
1412	 0.137897958260219 
1413	 0.137715474815797 
1414	 0.137549873594686 
1415	 0.137377650571103 
1416	 0.137211385055393 
1417	 0.137071543360942 
1418	 0.136919849394613 
1419	 0.136774783291432 
1420	 0.136653331947045 
1421	 0.136513335907664 
1422	 0.136365119376897 
1423	 0.136230636786183 
1424	 0.136090868675479 
1425	 0.135939112656645 
1426	 0.135796243778427 
1427	 0.135662387527689 
1428	 0.13552799164846 
1429	 0.135391986916068 
1430	 0.135253026238335 
1431	 0.135121290432103 
1432	 0.134978686363865 
1433	 0.134822079400133 
1434	 0.13467776613998 
1435	 0.134537242813369 
1436	 0.134395963859002 
1437	 0.134251250885989 
1438	 0.134119100535789 
1439	 0.133999271516206 
1440	 0.133867254533056 
1441	 0.133743145721498 
1442	 0.133614247012277 
1443	 0.133467285134714 
1444	 0.133331839552083 
1445	 0.133210300766082 
1446	 0.133098712454311 
1447	 0.133004004386021 
1448	 0.132921904549438 
1449	 0.13283182963017 
1450	 0.132748682626167 
1451	 0.132688320186728 
1452	 0.132643526459204 
1453	 0.132596865351656 
1454	 0.132565413972489 
1455	 0.132539749146836 
1456	 0.132503337345353 
1457	 0.132497054078099 
1458	 0.132518249970348 
1459	 0.132536698655824 
1460	 0.132565774475497 
1461	 0.132605992584854 
1462	 0.132657153177828 
1463	 0.132710284488957 
1464	 0.132779041879677 
1465	 0.132838503810687 
1466	 0.132901449018944 
1467	 0.132951596710596 
1468	 0.132997819230303 
1469	 0.133037139754598 
1470	 0.133064588087375 
1471	 0.133086100794048 
1472	 0.133117981471845 
1473	 0.133143445861354 
1474	 0.133151681069562 
1475	 0.133172449185049 
1476	 0.133189870919807 
1477	 0.133186727431623 
1478	 0.133194412212238 
1479	 0.133206311741398 
1480	 0.133196371917016 
1481	 0.133184363885749 
1482	 0.133185934463628 
1483	 0.133184899289294 
1484	 0.133196681773041 
1485	 0.133232824129054 
1486	 0.133244099552198 
1487	 0.13325281807066 
1488	 0.133254171018888 
1489	 0.133242385640097 
1490	 0.133231170756392 
1491	 0.133212494222928 
1492	 0.133203570612889 
1493	 0.133194833261573 
1494	 0.133184719129204 
1495	 0.133189540978292 
1496	 0.133173056016066 
1497	 0.133134929504279 
1498	 0.133111012887493 
1499	 0.133086318455375 
1500	 0.133061292208778 
1501	 0.133050957898347 
1502	 0.133025607305378 
1503	 0.132993205322513 
1504	 0.132946030258235 
1505	 0.132911072023991 
1506	 0.132869048487165 
1507	 0.132824499809862 
1508	 0.132793183906212 
1509	 0.132758699610942 
1510	 0.132723600635825 
1511	 0.13268472313004 
1512	 0.132649599502563 
1513	 0.13261719538133 
1514	 0.132576119152666 
1515	 0.132558008855743 
1516	 0.132543862803305 
1517	 0.132512049308504 
1518	 0.132473084219026 
1519	 0.132438576197705 
1520	 0.132390207197361 
1521	 0.132356270215937 
1522	 0.132334887933511 
1523	 0.132300536910667 
1524	 0.132265271815617 
1525	 0.132227926201941 
1526	 0.132186974629921 
1527	 0.132147435295626 
1528	 0.13210159062875 
1529	 0.132061707603747 
1530	 0.132022470732393 
1531	 0.131983802391594 
1532	 0.131951601738686 
1533	 0.131924471067469 
1534	 0.131901738297448 
1535	 0.131874460343348 
1536	 0.131843440873858 
1537	 0.131818408660649 
1538	 0.131797411894601 
1539	 0.131767310599304 
1540	 0.131737071877284 
1541	 0.131711909447567 
1542	 0.131680209452985 
1543	 0.131654883606497 
1544	 0.131647507333366 
1545	 0.131624867159989 
1546	 0.13159631719467 
1547	 0.131556631894313 
1548	 0.131513506388478 
1549	 0.131480668598362 
1550	 0.131444666457641 
1551	 0.131403271216171 
1552	 0.131364204699946 
1553	 0.131309656079159 
1554	 0.131263714211868 
1555	 0.131227427722439 
1556	 0.131190242505608 
1557	 0.131173154463625 
1558	 0.131133707417671 
1559	 0.131071156394419 
1560	 0.131023205427902 
1561	 0.130964853697593 
1562	 0.130912847556949 
1563	 0.1308778227782 
1564	 0.130826923727838 
1565	 0.130764065825365 
1566	 0.130706510688828 
1567	 0.130643707068323 
1568	 0.13058507437045 
1569	 0.130533139239643 
1570	 0.130472660257232 
1571	 0.130406322276833 
1572	 0.130350955092332 
1573	 0.130295479283479 
1574	 0.130239191473323 
1575	 0.130193553263968 
1576	 0.130137117105034 
1577	 0.130065185813681 
1578	 0.130011182102682 
1579	 0.129965891668117 
1580	 0.129916475350743 
1581	 0.12988456318447 
1582	 0.12982789218966 
1583	 0.129750367448392 
1584	 0.129684542758011 
1585	 0.12960825788722 
1586	 0.129540957544375 
1587	 0.129479133410659 
1588	 0.129424839244463 
1589	 0.129376136634615 
1590	 0.129328135801259 
1591	 0.129292035790879 
1592	 0.12925130658046 
1593	 0.129216290889884 
1594	 0.129166834488332 
1595	 0.129108196879044 
1596	 0.129049916772779 
1597	 0.128983464921504 
1598	 0.128912218102196 
1599	 0.128832056974523 
1600	 0.128761995955016 
1601	 0.128691338480161 
1602	 0.128621091434927 
1603	 0.128574603144016 
1604	 0.128504498564361 
1605	 0.128408655778167 
1606	 0.128323790762012 
1607	 0.128232407149267 
1608	 0.128139889715968 
1609	 0.128068261939438 
1610	 0.127996246764442 
1611	 0.127929101876098 
1612	 0.127862909075068 
1613	 0.127793722905407 
1614	 0.127734579053041 
1615	 0.127676971436201 
1616	 0.127627054550793 
1617	 0.127575625889725 
1618	 0.127509152500741 
1619	 0.127436480827299 
1620	 0.127366785408155 
1621	 0.127301385142076 
1622	 0.127239215300921 
1623	 0.127176996350152 
1624	 0.127118355857231 
1625	 0.127053572180077 
1626	 0.126987062900006 
1627	 0.126923632601484 
1628	 0.126855075719001 
1629	 0.126797784935877 
1630	 0.126751153795098 
1631	 0.126691614672277 
1632	 0.126632533791915 
1633	 0.126571406793453 
1634	 0.126505558908289 
1635	 0.126432217456386 
1636	 0.126358422559653 
1637	 0.126277677360745 
1638	 0.126178362452088 
1639	 0.126100198099781 
1640	 0.126033285502706 
1641	 0.125955883282443 
1642	 0.125877215650675 
1643	 0.125809468088866 
1644	 0.125750335332689 
1645	 0.12566727107441 
1646	 0.125576351004924 
1647	 0.125501192170226 
1648	 0.125410328336158 
1649	 0.125333955614667 
1650	 0.125295262199225 
1651	 0.125217546335235 
1652	 0.125105944225905 
1653	 0.125025041955992 
1654	 0.124947242331996 
1655	 0.124872280860153 
1656	 0.124815525335596 
1657	 0.124745692533945 
1658	 0.124659592561408 
1659	 0.124596202190322 
1660	 0.124546115241602 
1661	 0.124488138908663 
1662	 0.124444864431611 
1663	 0.124381675383647 
1664	 0.124300891615101 
1665	 0.124228776348531 
1666	 0.12414645817433 
1667	 0.124081938897212 
1668	 0.124037599416486 
1669	 0.123969621620471 
1670	 0.123894898695976 
1671	 0.123828819721389 
1672	 0.123752382484364 
1673	 0.123681712326453 
1674	 0.123628780622102 
1675	 0.123561186968845 
1676	 0.123473530981851 
1677	 0.123406655120677 
1678	 0.12336076976056 
1679	 0.123286165019214 
1680	 0.123204365418629 
1681	 0.123123202336715 
1682	 0.123011793905378 
1683	 0.122933751513061 
1684	 0.122880406748362 
1685	 0.122817425791661 
1686	 0.122768834857268 
1687	 0.122701945762333 
1688	 0.122618774658038 
1689	 0.122550401195066 
1690	 0.122475505074607 
1691	 0.122414872160573 
1692	 0.122368745424994 
1693	 0.122324966898654 
1694	 0.122299173885441 
1695	 0.122245660293104 
1696	 0.122193027908065 
1697	 0.122118981649985 
1698	 0.122003717801013 
1699	 0.121924008449175 
1700	 0.121850990504068 
1701	 0.121779388044167 
1702	 0.121721469669908 
1703	 0.121662179203692 
1704	 0.121605745987678 
1705	 0.121540935956179 
1706	 0.121472587499833 
1707	 0.121417634178143 
1708	 0.121365442207511 
1709	 0.121302126193253 
1710	 0.121257589784434 
1711	 0.121181653911505 
1712	 0.121056300225086 
1713	 0.120986915490066 
1714	 0.120925595514471 
1715	 0.120884639606782 
1716	 0.120903425431395 
1717	 0.120862451069062 
1718	 0.120791650706965 
1719	 0.120744301535093 
1720	 0.120685626330341 
1721	 0.12062657069454 
1722	 0.120592954827895 
1723	 0.12053340311716 
1724	 0.120436527530455 
1725	 0.120371884386327 
1726	 0.120320870243136 
1727	 0.120261800679777 
1728	 0.120210279761973 
1729	 0.120155806771698 
1730	 0.120103243573503 
1731	 0.120032510488517 
1732	 0.119949805719324 
1733	 0.119878724358221 
1734	 0.119803969649309 
1735	 0.119720231728316 
1736	 0.119646198100288 
1737	 0.11955710142097 
1738	 0.119440642381385 
1739	 0.119350412833615 
1740	 0.119271802516817 
1741	 0.119186083722174 
1742	 0.119096385583681 
1743	 0.119030060706896 
1744	 0.118968978582672 
1745	 0.118918691471344 
1746	 0.118895504505023 
1747	 0.118835704491442 
1748	 0.118782463623776 
1749	 0.118709105624824 
1750	 0.118656126025066 
1751	 0.118594248587122 
1752	 0.118517055275904 
1753	 0.118429775807201 
1754	 0.11831250956097 
1755	 0.118205530747537 
1756	 0.118118970106621 
1757	 0.118048720536645 
1758	 0.117991285915865 
1759	 0.117921120472909 
1760	 0.117849896641243 
1761	 0.11778954657515 
1762	 0.117723217204055 
1763	 0.11766515826501 
1764	 0.117608948254242 
1765	 0.117525336934857 
1766	 0.117448555753357 
1767	 0.117379136120217 
1768	 0.117295934541922 
1769	 0.117234307201836 
1770	 0.117187587510113 
1771	 0.117136902633368 
1772	 0.117104430488418 
1773	 0.117076791216014 
1774	 0.117019176648282 
1775	 0.116962430591766 
1776	 0.116907845141132 
1777	 0.116826662822949 
1778	 0.11677053122772 
1779	 0.116746512300483 
1780	 0.116697235579703 
1781	 0.116630894898224 
1782	 0.116568736385777 
1783	 0.116507479050165 
1784	 0.116450496224605 
1785	 0.116422890505777 
1786	 0.116380738714979 
1787	 0.116315585508142 
1788	 0.116255515046814 
1789	 0.116202041740656 
1790	 0.116151878049451 
1791	 0.116106475476894 
1792	 0.116041497837581 
1793	 0.115964430396662 
1794	 0.115906748282181 
1795	 0.11584604689002 
1796	 0.115792278099787 
1797	 0.115746661202019 
1798	 0.115707119941185 
1799	 0.115671626678394 
1800	 0.115631713441882 
1801	 0.113323564515976 
1802	 0.113301600608655 
1803	 0.113264261574859 
1804	 0.113219722871214 
1805	 0.113179056342025 
1806	 0.1131460458511 
1807	 0.11310837397998 
1808	 0.113080022984621 
1809	 0.113071429679447 
1810	 0.113060665624733 
1811	 0.113048682727283 
1812	 0.113040781905948 
1813	 0.113033016530691 
1814	 0.112985600729997 
1815	 0.112932338543585 
1816	 0.112878554222122 
1817	 0.112829620744197 
1818	 0.112784343908848 
1819	 0.112743902419968 
1820	 0.112705408625315 
1821	 0.112661367412885 
1822	 0.112627121363912 
1823	 0.112618722510819 
1824	 0.112601451418503 
1825	 0.112569286794389 
1826	 0.112548283773895 
1827	 0.112515256605561 
1828	 0.112479598700931 
1829	 0.112453622406733 
1830	 0.112407489496902 
1831	 0.112349510918836 
1832	 0.112271405936429 
1833	 0.112207995794313 
1834	 0.112162921619574 
1835	 0.112125569717143 
1836	 0.112099568532684 
1837	 0.112062528251372 
1838	 0.112004618561296 
1839	 0.111963547099719 
1840	 0.111933407680998 
1841	 0.111891943435461 
1842	 0.111856351509291 
1843	 0.111825428601234 
1844	 0.111773281069815 
1845	 0.111747111272451 
1846	 0.111720101810884 
1847	 0.111678072767636 
1848	 0.111622377556082 
1849	 0.111570483565157 
1850	 0.111514212482209 
1851	 0.111448953907092 
1852	 0.111374853989318 
1853	 0.111322995858834 
1854	 0.111274000618702 
1855	 0.111226739874574 
1856	 0.111192035280997 
1857	 0.111163730191419 
1858	 0.111115478396797 
1859	 0.111054265631233 
1860	 0.110986420975122 
1861	 0.110916168099688 
1862	 0.110819132221285 
1863	 0.110718921227701 
1864	 0.110616420898045 
1865	 0.110490968682253 
1866	 0.110385814349275 
1867	 0.110286435369853 
1868	 0.110161373955484 
1869	 0.110036397389575 
1870	 0.109916675002727 
1871	 0.109796509123815 
1872	 0.109672609460353 
1873	 0.109546863060234 
1874	 0.109432557223988 
1875	 0.109299939732643 
1876	 0.109140777424158 
1877	 0.108991614317522 
1878	 0.108809085310778 
1879	 0.10862043816185 
1880	 0.108434217893486 
1881	 0.108237614394408 
1882	 0.108031406334976 
1883	 0.10783536373585 
1884	 0.107611073902942 
1885	 0.10735475295605 
1886	 0.107098047974819 
1887	 0.106811269546159 
1888	 0.106507635376018 
1889	 0.106194564376481 
1890	 0.105871296429749 
1891	 0.105543862276897 
1892	 0.105214144391953 
1893	 0.104869728836515 
1894	 0.104522595366276 
1895	 0.104145423457125 
1896	 0.103759936450445 
1897	 0.103371338542172 
1898	 0.102948997793706 
1899	 0.102519743579328 
1900	 0.102117266975977 
1901	 0.101715909248674 
1902	 0.101333665873578 
1903	 0.1010061873589 
1904	 0.100643430193133 
1905	 0.10026448851468 
1906	 9.99002539363204E-02 
1907	 9.95390776736607E-02 
1908	 9.91751093205919E-02 
1909	 9.88489657599666E-02 
1910	 9.85330709648085E-02 
1911	 9.82051518357288E-02 
1912	 9.78914347422057E-02 
1913	 0.097600584506751 
1914	 9.73262495130278E-02 
1915	 9.70509169760248E-02 
1916	 9.67977346570337E-02 
1917	 9.65460069493163E-02 
1918	 9.62653284200795E-02 
1919	 9.60088089319178E-02 
1920	 9.57608368010117E-02 
1921	 9.55344248142101E-02 
1922	 9.53362327855692E-02 
1923	 0.095150941502107 
1924	 9.49770455517143E-02 
1925	 9.48348604618687E-02 
1926	 9.46684425310652E-02 
1927	 9.45062680001793E-02 
1928	 9.43289940469522E-02 
1929	 9.41594274387873E-02 
1930	 9.39967275269913E-02 
1931	 9.38414317493789E-02 
1932	 9.37123190264002E-02 
1933	 9.35574766712928E-02 
1934	 9.33953196471944E-02 
1935	 9.32498899691023E-02 
1936	 9.31128378389631E-02 
1937	 9.29703767013148E-02 
1938	 9.28399094911319E-02 
1939	 0.09270211613749 
1940	 9.25590237975938E-02 
1941	 9.24106009657775E-02 
1942	 9.22642004389233E-02 
1943	 9.21336760069818E-02 
1944	 9.19974830300635E-02 
1945	 9.18642699648601E-02 
1946	 9.17377276940943E-02 
1947	 9.16176140078691E-02 
1948	 9.14948712921362E-02 
1949	 0.091366653063467 
1950	 9.12562369228182E-02 
1951	 9.11442216802052E-02 
1952	 9.10547326444263E-02 
1953	 0.090994544402711 
1954	 0.090932306821262 
1955	 9.08669176268377E-02 
1956	 9.08175042449344E-02 
1957	 9.07902513615231E-02 
1958	 9.07722296021167E-02 
1959	 9.07704751996014E-02 
1960	 9.07996600629184E-02 
1961	 0.090824880060538 
1962	 9.08471639376159E-02 
1963	 9.08917711955816E-02 
1964	 9.09527031694692E-02 
1965	 0.091029769063622 
1966	 9.11110341855687E-02 
1967	 9.11896893526932E-02 
1968	 9.12756336119663E-02 
1969	 9.13606537161594E-02 
1970	 9.14591187371757E-02 
1971	 9.15731368679384E-02 
1972	 9.16789234690721E-02 
1973	 0.091795272843234 
1974	 9.19030376960548E-02 
1975	 9.20053825009103E-02 
1976	 9.21063585751898E-02 
1977	 9.22016637437799E-02 
1978	 0.092292910366973 
1979	 0.092382583890134 
1980	 0.092477091533413 
1981	 9.25726692774472E-02 
1982	 9.26801219040282E-02 
1983	 9.27644397551186E-02 
1984	 9.28347634976279E-02 
1985	 0.092912548384612 
1986	 0.092982776462731 
1987	 9.30565131775968E-02 
1988	 9.31388130653906E-02 
1989	 9.32126597425629E-02 
1990	 9.32883594500346E-02 
1991	 9.33549987064675E-02 
1992	 9.34345483576838E-02 
1993	 0.093523688385946 
1994	 9.36108716924759E-02 
1995	 9.36995916615936E-02 
1996	 9.37918846967982E-02 
1997	 0.093889067718425 
1998	 9.39826376134671E-02 
1999	 9.40755407674267E-02 
2000	 9.41713725174025E-02 
2001	 9.42574010561353E-02 
2002	 0.094359634574511 
2003	 9.44725082167745E-02 
2004	 9.45979553970795E-02 
2005	 9.47203609767744E-02 
2006	 9.48600964513511E-02 
2007	 9.49782551605076E-02 
2008	 9.50832126470252E-02 
2009	 9.51942161641312E-02 
2010	 9.53111797571741E-02 
2011	 9.54096923967673E-02 
2012	 0.095485498787535 
2013	 9.55848224051666E-02 
2014	 0.095687289180905 
2015	 9.57845676766682E-02 
2016	 9.58908854931096E-02 
2017	 9.60070603358009E-02 
2018	 9.60962875686765E-02 
2019	 9.61550905598592E-02 
2020	 9.62309065878016E-02 
2021	 9.63086279466019E-02 
2022	 9.63770370784483E-02 
2023	 9.64430078738952E-02 
2024	 9.65090098287685E-02 
2025	 9.65728587381981E-02 
2026	 9.66265931732916E-02 
2027	 9.66708762234959E-02 
2028	 9.67221823911261E-02 
2029	 0.09677375851838 
2030	 9.68131913786909E-02 
2031	 9.68671176439248E-02 
2032	 9.69415633535064E-02 
2033	 9.69948278851613E-02 
2034	 9.70452892586904E-02 
2035	 9.70841522647705E-02 
2036	 9.70984170371041E-02 
2037	 9.71346273114556E-02 
2038	 9.71848209408312E-02 
2039	 0.097216715903659 
2040	 9.72509677562895E-02 
2041	 9.72824288838532E-02 
2042	 9.72968827568019E-02 
2043	 9.73060333351907E-02 
2044	 9.73295394287768E-02 
2045	 9.73727783957598E-02 
2046	 9.73956764926142E-02 
2047	 9.74138821337616E-02 
2048	 9.74282904518954E-02 
2049	 9.74344814447524E-02 
2050	 9.74393981555416E-02 
2051	 9.74378818983517E-02 
2052	 9.74418866287173E-02 
2053	 9.74421000246887E-02 
2054	 9.74468652044871E-02 
2055	 9.74527730604265E-02 
2056	 9.74667460752423E-02 
2057	 9.74833869509182E-02 
2058	 9.75145194394701E-02 
2059	 9.75167293788905E-02 
2060	 0.097508678768976 
2061	 9.75054875742856E-02 
2062	 9.74698196247605E-02 
2063	 9.74726367687551E-02 
2064	 9.75153929020558E-02 
2065	 9.75286597406078E-02 
2066	 9.75395317179585E-02 
2067	 9.75523904683976E-02 
2068	 9.75478503666112E-02 
2069	 9.75555839874492E-02 
2070	 9.75594258501779E-02 
2071	 9.75732795280306E-02 
2072	 9.75796254661645E-02 
2073	 9.75743100751459E-02 
2074	 0.097579691415538 
2075	 9.75934617048454E-02 
2076	 9.76022400489418E-02 
2077	 9.76027760631224E-02 
2078	 9.76207952805645E-02 
2079	 9.76509357025482E-02 
2080	 9.76729733235859E-02 
2081	 9.77100062118701E-02 
2082	 9.77334653247864E-02 
2083	 9.77276171662047E-02 
2084	 9.77513825160859E-02 
2085	 9.77698670008427E-02 
2086	 9.77897376389017E-02 
2087	 9.78066856993254E-02 
2088	 0.097829350080438 
2089	 9.78480132510909E-02 
2090	 9.78624690393626E-02 
2091	 9.78778725974189E-02 
2092	 9.78893737228278E-02 
2093	 0.097909185569841 
2094	 9.79232045835678E-02 
2095	 9.79518218054693E-02 
2096	 9.80114814528954E-02 
2097	 9.80455683249825E-02 
2098	 9.80633904088384E-02 
2099	 9.80959655242866E-02 
2100	 9.81262876666333E-02 
2101	 9.81418312220703E-02 
2102	 9.81749512371793E-02 
2103	 9.82305526684407E-02 
2104	 9.82662597925558E-02 
2105	 9.82904066685422E-02 
2106	 9.83236256685139E-02 
2107	 0.098363251633109 
2108	 9.83900335679877E-02 
2109	 9.84103153346046E-02 
2110	 9.84373319550828E-02 
2111	 9.84505602514608E-02 
2112	 9.84778436497631E-02 
2113	 0.098525566667338 
2114	 9.85620301057188E-02 
2115	 9.86042350749211E-02 
2116	 9.86497581111988E-02 
2117	 0.098693342778647 
2118	 9.87376855897782E-02 
2119	 0.098783579714464 
2120	 9.88357036895627E-02 
2121	 9.88761986729146E-02 
2122	 9.89090961481997E-02 
2123	 9.89456716016687E-02 
2124	 9.89837197159085E-02 
2125	 9.90094484230804E-02 
2126	 9.90461224079877E-02 
2127	 9.90571578830484E-02 
2128	 9.90160333926282E-02 
2129	 9.90150651927074E-02 
2130	 9.90161387229787E-02 
2131	 0.099035500714188 
2132	 0.099051476601909 
2133	 9.91010019107349E-02 
2134	 9.91159668455466E-02 
2135	 9.91084288699087E-02 
2136	 9.91106247469203E-02 
2137	 9.91209590527618E-02 
2138	 9.91074976767278E-02 
2139	 9.90727368422026E-02 
2140	 9.90537884609058E-02 
2141	 9.90341350159615E-02 
2142	 9.90035017243091E-02 
2143	 9.89764181551682E-02 
2144	 0.098947153674829 
2145	 9.88996865067505E-02 
2146	 9.88586951651558E-02 
2147	 9.88446120347765E-02 
2148	 9.87963115195975E-02 
2149	 9.87491212345388E-02 
2150	 9.86902010314653E-02 
2151	 9.86329218791933E-02 
2152	 9.85678094959686E-02 
2153	 9.85065166561845E-02 
2154	 9.84471575019997E-02 
2155	 9.83828130073516E-02 
2156	 9.83145983144824E-02 
2157	 9.82461693532187E-02 
2158	 9.81796817355478E-02 
2159	 9.81050841420531E-02 
2160	 9.80299507586317E-02 
2161	 9.79450511154591E-02 
2162	 9.78413107246899E-02 
2163	 9.77477009739983E-02 
2164	 9.76505423128771E-02 
2165	 9.75629252698831E-02 
2166	 9.74674314435593E-02 
2167	 0.097362838530528 
2168	 0.097294394434463 
2169	 9.72494962962179E-02 
2170	 0.097174053491788 
2171	 9.71134307620933E-02 
2172	 9.70403120212116E-02 
2173	 9.69310534360464E-02 
2174	 0.096842726072291 
2175	 9.67761284479822E-02 
2176	 9.66991577494205E-02 
2177	 9.66104983434605E-02 
2178	 9.65258779390083E-02 
2179	 9.64476236759408E-02 
2180	 9.63657450104374E-02 
2181	 9.62763654469622E-02 
2182	 9.61964909880907E-02 
2183	 0.09613785110782 
2184	 9.60477021486537E-02 
2185	 9.59666020490466E-02 
2186	 9.58821360017312E-02 
2187	 9.58079455484955E-02 
2188	 9.57316045154806E-02 
2189	 9.56621482197099E-02 
2190	 9.56035534165811E-02 
2191	 9.55447678745451E-02 
2192	 9.54918972487175E-02 
2193	 0.095428508475833 
2194	 9.53534974553646E-02 
2195	 9.52997479076204E-02 
2196	 9.52479630940446E-02 
2197	 9.52016323042872E-02 
2198	 9.51776353815195E-02 
2199	 9.51502947043593E-02 
2200	 9.51167715632854E-02 
2201	 9.50858037886458E-02 
2202	 9.50778384918588E-02 
2203	 9.50495094778806E-02 
2204	 9.50005675783474E-02 
2205	 9.49313411442187E-02 
2206	 9.48869245166492E-02 
2207	 0.094822986540073 
2208	 9.47897668587227E-02 
2209	 9.47902778710606E-02 
2210	 9.47728588442698E-02 
2211	 9.47466914336607E-02 
2212	 9.47390307430671E-02 
2213	 9.47566555628598E-02 
2214	 9.47464043562539E-02 
2215	 9.47310979778252E-02 
2216	 9.47153414018304E-02 
2217	 9.46865442421485E-02 
2218	 9.46504399884025E-02 
2219	 9.46102820635401E-02 
2220	 9.45779590044693E-02 
2221	 9.45404601495445E-02 
2222	 0.094493195232407 
2223	 9.44627753177081E-02 
2224	 9.44550188067711E-02 
2225	 9.44465435450228E-02 
2226	 9.44504948728737E-02 
2227	 9.44350434476029E-02 
2228	 9.44116312339068E-02 
2229	 9.44083608572083E-02 
2230	 9.44070749248221E-02 
2231	 9.43980207407507E-02 
2232	 0.094420926665828 
2233	 9.43975621113382E-02 
2234	 9.43190863269467E-02 
2235	 9.42821902054949E-02 
2236	 9.42454459388338E-02 
2237	 9.42181456773241E-02 
2238	 9.42090543597917E-02 
2239	 9.42067278167992E-02 
2240	 9.42230911455299E-02 
2241	 9.42167046096766E-02 
2242	 9.42004960222785E-02 
2243	 9.41960399926209E-02 
2244	 9.41875284180102E-02 
2245	 9.41705066192936E-02 
2246	 9.41602317775064E-02 
2247	 9.41618932975848E-02 
2248	 9.41530453630055E-02 
2249	 9.41283783108744E-02 
2250	 0.094111327576438 
2251	 9.41007433884874E-02 
2252	 9.40900895393114E-02 
2253	 9.40724853213516E-02 
2254	 9.40650773034654E-02 
2255	 9.40811450165004E-02 
2256	 9.40618834612082E-02 
2257	 9.40216854390438E-02 
2258	 9.39874761105346E-02 
2259	 9.39257872650701E-02 
2260	 9.38983008378093E-02 
2261	 9.38991421467596E-02 
2262	 9.38866967430826E-02 
2263	 9.38831571534757E-02 
2264	 0.093871216854456 
2265	 9.38546468919445E-02 
2266	 9.38322117190033E-02 
2267	 9.38122603688766E-02 
2268	 9.37774525726877E-02 
2269	 9.37166821162864E-02 
2270	 9.36735207153797E-02 
2271	 0.093623002345382 
2272	 9.35722831045279E-02 
2273	 9.35517740246007E-02 
2274	 9.35245478510792E-02 
2275	 9.35157919793571E-02 
2276	 9.35360590518922E-02 
2277	 9.35260052835748E-02 
2278	 9.35031702683146E-02 
2279	 9.34965168793188E-02 
2280	 9.34919921289493E-02 
2281	 9.34622971595239E-02 
2282	 9.34490285100503E-02 
2283	 9.34104768376189E-02 
2284	 9.33212527137125E-02 
2285	 9.32586601255069E-02 
2286	 9.31914556644422E-02 
2287	 9.31476336795692E-02 
2288	 0.093114591115461 
2289	 9.30890022598967E-02 
2290	 9.31181741556604E-02 
2291	 9.30860022652175E-02 
2292	 9.30069424930688E-02 
2293	 9.29572313762853E-02 
2294	 9.28834280579578E-02 
2295	 9.28205878454756E-02 
2296	 9.27916969334017E-02 
2297	 9.27568244944867E-02 
2298	 9.26458605700169E-02 
2299	 0.092570371730871 
2300	 9.24859801177951E-02 
2301	 9.24042612306244E-02 
2302	 9.23356239628439E-02 
2303	 9.22414248175426E-02 
2304	 9.21438319939351E-02 
2305	 9.20376349334586E-02 
2306	 9.19503488436911E-02 
2307	 9.18854129488591E-02 
2308	 9.18027848346706E-02 
2309	 9.17108119627795E-02 
2310	 9.16326187752043E-02 
2311	 9.15725939587367E-02 
2312	 0.091476065427433 
2313	 9.13752841545573E-02 
2314	 9.12701394074476E-02 
2315	 9.11049345137769E-02 
2316	 9.10044363873684E-02 
2317	 9.09369473798312E-02 
2318	 9.08739045880081E-02 
2319	 9.08601861130721E-02 
2320	 9.08142117039878E-02 
2321	 9.07517432469392E-02 
2322	 0.090706088839838 
2323	 9.06585981685896E-02 
2324	 9.06058342351863E-02 
2325	 9.05657968903939E-02 
2326	 9.05271038641267E-02 
2327	 9.04797296767181E-02 
2328	 9.04228758470657E-02 
2329	 9.04328706672652E-02 
2330	 9.04044210915347E-02 
2331	 9.03279370520694E-02 
2332	 9.02856402919643E-02 
2333	 9.02132774713506E-02 
2334	 9.01463071016091E-02 
2335	 0.090140137035994 
2336	 9.01073107993653E-02 
2337	 9.00687776472261E-02 
2338	 9.00499776673478E-02 
2339	 9.00222199177735E-02 
2340	 9.00189856185397E-02 
2341	 8.99880545645889E-02 
2342	 8.99314418924959E-02 
2343	 8.99058120658295E-02 
2344	 8.98829603091682E-02 
2345	 8.98399975758836E-02 
2346	 8.98065840253664E-02 
2347	 8.97632143341607E-02 
2348	 8.96927702967938E-02 
2349	 8.96185983362172E-02 
2350	 0.089547066115177 
2351	 0.089497234536624 
2352	 8.94347755785841E-02 
2353	 8.93790235432163E-02 
2354	 8.93480557999045E-02 
2355	 8.93135687011167E-02 
2356	 8.92790286225761E-02 
2357	 8.92253376367596E-02 
2358	 8.91969246477844E-02 
2359	 8.91308255976921E-02 
2360	 8.89945900403259E-02 
2361	 8.88928678974994E-02 
2362	 8.87835122409075E-02 
2363	 8.87115044789693E-02 
2364	 8.87005704094326E-02 
2365	 8.86515313216048E-02 
2366	 0.08858859270185 
2367	 8.85193925399153E-02 
2368	 8.84228741118833E-02 
2369	 8.83376016009107E-02 
2370	 8.82613729431537E-02 
2371	 8.82089406939606E-02 
2372	 8.81443602055632E-02 
2373	 0.087985861518846 
2374	 8.78355725440754E-02 
2375	 8.77558665192155E-02 
2376	 0.087655460483934 
2377	 8.75889296711982E-02 
2378	 8.75263893035543E-02 
2379	 8.74060170541023E-02 
2380	 8.72758921933456E-02 
2381	 8.72090496724497E-02 
2382	 8.71833373453408E-02 
2383	 8.71860783174703E-02 
2384	 8.71993598174524E-02 
2385	 8.71043855118668E-02 
2386	 8.69893927120197E-02 
2387	 8.68337432976902E-02 
2388	 8.66060523944142E-02 
2389	 8.64613712336126E-02 
2390	 8.63393457835127E-02 
2391	 0.086256793822656 
2392	 8.62488163091103E-02 
2393	 8.62036994685346E-02 
2394	 8.60636778397655E-02 
2395	 8.59084575164471E-02 
2396	 8.57882229101973E-02 
2397	 8.56987365608601E-02 
2398	 0.085682907524813 
2399	 8.56087691494654E-02 
2400	 0.085487790302196 
2401	 8.53970277223464E-02 
2402	 8.52831373647091E-02 
2403	 8.52084373492068E-02 
2404	 0.085157493792656 
2405	 8.50648711874399E-02 
2406	 8.49380883033781E-02 
2407	 8.47626253503575E-02 
2408	 8.46323149731783E-02 
2409	 8.45960884284263E-02 
2410	 8.45847213370081E-02 
2411	 8.45741421572736E-02 
2412	 8.44439708781548E-02 
2413	 8.42451424660095E-02 
2414	 8.40400227257936E-02 
2415	 8.38214846803302E-02 
2416	 8.36529214584733E-02 
2417	 8.35748181077672E-02 
2418	 8.34063612879957E-02 
2419	 8.31907439301897E-02 
2420	 8.30358076841935E-02 
2421	 8.28856936876011E-02 
2422	 8.27187638404328E-02 
2423	 8.25346083550464E-02 
2424	 8.24565960267617E-02 
2425	 8.24568988987574E-02 
2426	 8.23918051207813E-02 
2427	 8.24332264891198E-02 
2428	 8.23062842323655E-02 
2429	 8.19379810963056E-02 
2430	 8.17696640954645E-02 
2431	 8.16371369485563E-02 
2432	 8.15525676888477E-02 
2433	 8.16632998775437E-02 
2434	 8.15811221042757E-02 
2435	 8.13460643970467E-02 
2436	 8.12738576820046E-02 
2437	 8.12478162736807E-02 
2438	 8.11518939326284E-02 
2439	 8.11224676833539E-02 
2440	 8.10446620127598E-02 
2441	 8.08038585861293E-02 
2442	 8.06513171134471E-02 
2443	 8.06337434557819E-02 
2444	 8.04724594002284E-02 
2445	 8.02592816824268E-02 
2446	 8.01000186377707E-02 
2447	 7.98638439183116E-02 
2448	 7.97346100045503E-02 
2449	 7.96756678956128E-02 
2450	 7.95506933577735E-02 
2451	 7.94304669649701E-02 
2452	 7.92489997410825E-02 
2453	 7.90029552544823E-02 
2454	 7.88796390456897E-02 
2455	 7.88941795299561E-02 
2456	 7.87248039996938E-02 
2457	 7.84585021411518E-02 
2458	 7.82894682177985E-02 
2459	 7.79934497240148E-02 
2460	 7.78880932070653E-02 
2461	 0.078062995788506 
2462	 7.79573130681198E-02 
2463	 7.77276160445782E-02 
2464	 7.74833840531309E-02 
2465	 7.71678311116548E-02 
2466	 7.68982705489115E-02 
2467	 7.65602804364917E-02 
2468	 7.63177893897607E-02 
2469	 0.076091816470807 
2470	 7.59238808417558E-02 
2471	 7.59121078085605E-02 
2472	 7.57884729459436E-02 
2473	 7.56350348950946E-02 
2474	 7.55591858837029E-02 
2475	 7.54565748062005E-02 
2476	 7.53605817169627E-02 
2477	 7.52344729321377E-02 
2478	 0.075054613384981 
2479	 7.48549758965846E-02 
2480	 7.46872727020954E-02 
2481	 7.45489699032568E-02 
2482	 7.44223814842534E-02 
2483	 7.42756648403713E-02 
2484	 7.41989121442381E-02 
2485	 0.074294116690703 
2486	 7.42672596355832E-02 
2487	 0.074042204096243 
2488	 7.38072158490979E-02 
2489	 7.33727547526151E-02 
2490	 7.28370315643791E-02 
2491	 7.25400192677621E-02 
2492	 7.22017649538088E-02 
2493	 7.20421283286442E-02 
2494	 7.22357152621287E-02 
2495	 7.22288313019707E-02 
2496	 7.22453296686582E-02 
2497	 0.071923681931521 
2498	 7.14136397222874E-02 
2499	 0.071384134009435 
2500	 7.11188443344753E-02 
