Wavelength	LMW_1000009.asd
350	 4.78894420661351E-02 
351	 5.16378899152393E-02 
352	 4.93666273229834E-02 
353	 4.02399294499821E-02 
354	 4.15957059167208E-02 
355	 4.67342946102154E-02 
356	 4.68647488792506E-02 
357	 3.89579553126924E-02 
358	 4.30455255172236E-02 
359	 4.55761071545013E-02 
360	 4.57300601620638E-02 
361	 5.01608297629998E-02 
362	 0.04554537545759 
363	 4.28207601022713E-02 
364	 4.56594357745691E-02 
365	 4.15848194793521E-02 
366	 4.28553197441317E-02 
367	 4.43840670575423E-02 
368	 4.08373919210422E-02 
369	 4.51906709456845E-02 
370	 4.79662222641804E-02 
371	 4.73805989879021E-02 
372	 4.72355403099517E-02 
373	 4.85799384257042E-02 
374	 4.82198894783233E-02 
375	 4.59053625790139E-02 
376	 4.76713480024906E-02 
377	 4.50076114866536E-02 
378	 4.30237820459094E-02 
379	 4.71788388486008E-02 
380	 0.046533260127402 
381	 4.62203929758688E-02 
382	 4.75450845794786E-02 
383	 4.84526880820888E-02 
384	 4.76411210311899E-02 
385	 4.71613178657437E-02 
386	 4.82749834825921E-02 
387	 5.00584823725983E-02 
388	 5.00233898809942E-02 
389	 4.94647565781507E-02 
390	 5.01782519975513E-02 
391	 4.96973208564422E-02 
392	 4.95778419760895E-02 
393	 5.06008570529266E-02 
394	 5.25383649071375E-02 
395	 5.20198388939539E-02 
396	 5.04288821446138E-02 
397	 4.96791756700294E-02 
398	 5.11036223195396E-02 
399	 5.26023082962374E-02 
400	 5.35531812770906E-02 
401	 5.38501821225947E-02 
402	 5.27327855689778E-02 
403	 5.21880030955136E-02 
404	 5.28558174243019E-02 
405	 5.38401727602275E-02 
406	 5.34345084419636E-02 
407	 5.31117677624596E-02 
408	 5.37986077444778E-02 
409	 5.33238022434811E-02 
410	 5.29959458637261E-02 
411	 5.27721966551418E-02 
412	 0.052286554059293 
413	 5.37619587351337E-02 
414	 5.48747386214379E-02 
415	 5.45886744180456E-02 
416	 5.39638730882668E-02 
417	 5.31616987430102E-02 
418	 5.33279344278211E-02 
419	 5.48333967206045E-02 
420	 5.50836726210262E-02 
421	 5.44124821843573E-02 
422	 5.38155350448575E-02 
423	 0.05443360730675 
424	 5.44903723699171E-02 
425	 5.41793998660153E-02 
426	 5.38342797337416E-02 
427	 5.35035101965763E-02 
428	 5.34793750809221E-02 
429	 5.35572818504919E-02 
430	 5.34493228387491E-02 
431	 5.33817969803079E-02 
432	 5.31528370166875E-02 
433	 5.29931734493652E-02 
434	 0.053499353744019 
435	 5.31945259579409E-02 
436	 5.28903792093774E-02 
437	 5.31934836983009E-02 
438	 5.29277820759271E-02 
439	 5.30611246236766E-02 
440	 5.32449840085563E-02 
441	 0.052691955670019 
442	 5.27211065527483E-02 
443	 5.30513267625968E-02 
444	 5.32573976248793E-02 
445	 5.29383413358448E-02 
446	 0.052843164647626 
447	 5.28309674677711E-02 
448	 5.26484261750466E-02 
449	 5.27319203037955E-02 
450	 5.29242675759625E-02 
451	 0.053162219918386 
452	 5.34561718948044E-02 
453	 5.33426048068734E-02 
454	 5.31618019980521E-02 
455	 5.32017729425745E-02 
456	 5.32877696461229E-02 
457	 5.32333229646513E-02 
458	 0.053116792656373 
459	 5.31235541528992E-02 
460	 5.32039541615156E-02 
461	 5.30244625096604E-02 
462	 5.27126565801081E-02 
463	 0.053073836586581 
464	 5.30601483495782E-02 
465	 5.28827529149631E-02 
466	 5.29573388727557E-02 
467	 5.30399035259554E-02 
468	 5.29724385015955E-02 
469	 5.28003386921162E-02 
470	 5.27270853571551E-02 
471	 5.27288305846715E-02 
472	 5.27409956497952E-02 
473	 5.27328939728053E-02 
474	 5.28169571152013E-02 
475	 5.25252009028089E-02 
476	 5.22551737550364E-02 
477	 5.26031612711983E-02 
478	 5.25829690099494E-02 
479	 5.24836384993294E-02 
480	 5.24719690375992E-02 
481	 5.23826365816707E-02 
482	 5.24654614881119E-02 
483	 5.26116736857341E-02 
484	 5.26517346052334E-02 
485	 5.26032806157424E-02 
486	 5.25782336956007E-02 
487	 5.25406479303612E-02 
488	 5.23513209139203E-02 
489	 5.23176733255351E-02 
490	 0.052412415939878 
491	 5.24950976743358E-02 
492	 5.22708622307551E-02 
493	 5.22712005830923E-02 
494	 5.23778343819268E-02 
495	 5.22281820116441E-02 
496	 5.21634099099976E-02 
497	 5.21444965885786E-02 
498	 5.21649963097315E-02 
499	 5.23306849394411E-02 
500	 5.23801439385375E-02 
501	 5.23147980425526E-02 
502	 0.052233055126871 
503	 5.22613769179327E-02 
504	 5.22692498086521E-02 
505	 5.22099669882135E-02 
506	 5.21268693682073E-02 
507	 5.21503905759959E-02 
508	 0.05218176698955 
509	 5.21442196516191E-02 
510	 5.21583591910881E-02 
511	 0.052058259997032 
512	 5.19699009160654E-02 
513	 5.21225736504718E-02 
514	 5.21747796386728E-02 
515	 5.21554633630278E-02 
516	 5.21328712929767E-02 
517	 5.21688774019033E-02 
518	 0.05216713909131 
519	 5.21006486846014E-02 
520	 5.20099240620742E-02 
521	 5.21409008046195E-02 
522	 0.052288757495989 
523	 5.23248048691716E-02 
524	 5.22314744847268E-02 
525	 5.21307688678221E-02 
526	 5.21219572513009E-02 
527	 5.22174989408097E-02 
528	 5.21983772197895E-02 
529	 5.21755662744042E-02 
530	 5.21882118730614E-02 
531	 5.22227445729776E-02 
532	 5.22334884341877E-02 
533	 5.22990697443178E-02 
534	 5.24164539606405E-02 
535	 5.23620878576921E-02 
536	 0.052378713387797 
537	 5.24540426187528E-02 
538	 5.24851389340983E-02 
539	 5.24966217578354E-02 
540	 5.24655661898046E-02 
541	 0.052434599967626 
542	 5.25372503161076E-02 
543	 5.25977575109004E-02 
544	 0.052636805917798 
545	 5.27103228047734E-02 
546	 5.27855895000142E-02 
547	 5.28518877073668E-02 
548	 0.052916139695963 
549	 5.29972013290377E-02 
550	 0.053043249575116 
551	 5.30968424323964E-02 
552	 5.31923857321576E-02 
553	 5.33026385919584E-02 
554	 5.33959462686735E-02 
555	 5.34718025488375E-02 
556	 5.35555473467558E-02 
557	 5.37342116200511E-02 
558	 5.38704860078529E-02 
559	 5.39384641319192E-02 
560	 5.41557344284604E-02 
561	 5.43196179565809E-02 
562	 5.44540862559857E-02 
563	 5.46451348013335E-02 
564	 5.48739529834478E-02 
565	 5.50460289517664E-02 
566	 5.51904620806919E-02 
567	 0.055474529062879 
568	 5.57783856436115E-02 
569	 5.60551666017777E-02 
570	 5.63118906589525E-02 
571	 5.66795860221346E-02 
572	 5.70423432602461E-02 
573	 5.73724961883017E-02 
574	 5.77079283077822E-02 
575	 5.80705766120313E-02 
576	 0.05843826578841 
577	 5.87946761636589E-02 
578	 5.91427598961685E-02 
579	 5.95636570835639E-02 
580	 6.00758616768361E-02 
581	 6.06522865688493E-02 
582	 6.11878748058892E-02 
583	 6.17186907801959E-02 
584	 6.22436667896131E-02 
585	 6.26879312240116E-02 
586	 6.32313152813826E-02 
587	 6.38099822448337E-02 
588	 6.43340382391394E-02 
589	 6.49504436251538E-02 
590	 6.55512537469304E-02 
591	 6.61289831008128E-02 
592	 6.67706441303458E-02 
593	 6.73449406449615E-02 
594	 6.79178307224774E-02 
595	 6.85504027192074E-02 
596	 6.91870402649641E-02 
597	 6.98492820850879E-02 
598	 7.04989977080161E-02 
599	 7.10874286587206E-02 
600	 7.17548379750959E-02 
601	 7.24126654869026E-02 
602	 7.29909137278809E-02 
603	 7.34987899288283E-02 
604	 7.40406656096962E-02 
605	 7.45878949706062E-02 
606	 7.50881504272392E-02 
607	 7.56577794635407E-02 
608	 7.61869939801639E-02 
609	 7.66594256628157E-02 
610	 0.077178898977423 
611	 7.76626072760961E-02 
612	 7.81018524617689E-02 
613	 7.85116449288538E-02 
614	 7.89351565209465E-02 
615	 7.92981221869631E-02 
616	 7.96112000230115E-02 
617	 7.99387948837636E-02 
618	 8.02426024240099E-02 
619	 8.05057102062902E-02 
620	 8.07465307292397E-02 
621	 8.10629866198531E-02 
622	 8.13055559577792E-02 
623	 8.15046061203707E-02 
624	 8.17482341106978E-02 
625	 8.19710129906879E-02 
626	 0.082184644753444 
627	 0.082395453968037 
628	 8.25941533855119E-02 
629	 8.28079210941225E-02 
630	 0.08300863498728 
631	 8.31751963022263E-02 
632	 8.33760002297696E-02 
633	 8.35574935250702E-02 
634	 8.37122727249165E-02 
635	 8.38737350573191E-02 
636	 8.40563558637565E-02 
637	 8.42457989164137E-02 
638	 8.44180510853172E-02 
639	 8.45294463542052E-02 
640	 8.47214980851005E-02 
641	 8.49359965463894E-02 
642	 8.50543708761163E-02 
643	 8.52873746712305E-02 
644	 0.085536712317729 
645	 8.57295458412399E-02 
646	 8.58718231897714E-02 
647	 8.59969817862536E-02 
648	 8.61604505019921E-02 
649	 8.63986827122471E-02 
650	 8.66645895498359E-02 
651	 8.68571482713617E-02 
652	 8.69960794783992E-02 
653	 8.72043458175033E-02 
654	 8.74742870102142E-02 
655	 8.77312961654487E-02 
656	 8.79348316109592E-02 
657	 8.81600687999751E-02 
658	 0.088394884586945 
659	 8.86409487238197E-02 
660	 8.89007097608857E-02 
661	 8.91523982711905E-02 
662	 8.93936219572671E-02 
663	 8.96488816592918E-02 
664	 8.99796694058851E-02 
665	 9.02748183849488E-02 
666	 9.05348329996423E-02 
667	 9.08029134330107E-02 
668	 9.11454894931905E-02 
669	 9.15036119107201E-02 
670	 9.18391232384374E-02 
671	 9.21409624918778E-02 
672	 9.25040894626766E-02 
673	 9.28683158065765E-02 
674	 9.31962998003154E-02 
675	 9.35731704945278E-02 
676	 9.39493169539877E-02 
677	 0.094307519859425 
678	 9.46578696957217E-02 
679	 9.50899437905205E-02 
680	 9.55491231452075E-02 
681	 9.59894949899408E-02 
682	 9.63948257842978E-02 
683	 9.67938363724037E-02 
684	 9.72307710400925E-02 
685	 9.77238235591198E-02 
686	 0.098194483439152 
687	 9.86302563884164E-02 
688	 9.90762535960703E-02 
689	 9.96013213446691E-02 
690	 0.100042423517151 
691	 0.100490656402935 
692	 0.101008479172866 
693	 0.101530817269229 
694	 0.102030920708494 
695	 0.102549698253292 
696	 0.103132978742548 
697	 0.103694756134179 
698	 0.104245808217308 
699	 0.104789493156937 
700	 0.105317787589132 
701	 0.10588696055897 
702	 0.106462637264837 
703	 0.10701624821179 
704	 0.107595413953678 
705	 0.108147904530909 
706	 0.108711008219862 
707	 0.109346342068864 
708	 0.109913000453318 
709	 0.110482604710708 
710	 0.111093654277293 
711	 0.111708138379682 
712	 0.112303757339073 
713	 0.11286588919431 
714	 0.113402788425947 
715	 0.11398384462502 
716	 0.114560043275689 
717	 0.115115573551599 
718	 0.115658680980611 
719	 0.116163580484638 
720	 0.116676166302328 
721	 0.117214021013378 
722	 0.117722583623131 
723	 0.118215733927413 
724	 0.118723616001422 
725	 0.119256506709506 
726	 0.119696294140418 
727	 0.120102713264519 
728	 0.120513907341722 
729	 0.120934317825505 
730	 0.121292809188392 
731	 0.121648628355768 
732	 0.122030820301054 
733	 0.122337712838549 
734	 0.122622699852229 
735	 0.122895827096494 
736	 0.123149818049837 
737	 0.123377176392049 
738	 0.123595855916555 
739	 0.123803170331535 
740	 0.123972125282216 
741	 0.124081208662111 
742	 0.124157156725388 
743	 0.1242244333489 
744	 0.124271475749731 
745	 0.124279869133811 
746	 0.12428691436922 
747	 0.124333840942746 
748	 0.124295222363318 
749	 0.124201477013875 
750	 0.124090582486712 
751	 0.12399030469958 
752	 0.123877423204833 
753	 0.123741077025707 
754	 0.123575415030058 
755	 0.123382819534862 
756	 0.123139428711591 
757	 0.122886022020008 
758	 0.122681601184191 
759	 0.122458446384808 
760	 0.12218319453257 
761	 0.121861570502455 
762	 0.121542097173374 
763	 0.121238238069934 
764	 0.120943095768509 
765	 0.120636855976144 
766	 0.120279021835275 
767	 0.11993605517288 
768	 0.119592660720688 
769	 0.119202282786895 
770	 0.118824076259184 
771	 0.118453890499487 
772	 0.118072462826699 
773	 0.117651686458577 
774	 0.11725394281989 
775	 0.116876310844952 
776	 0.116498703503103 
777	 0.11610073275521 
778	 0.115702074865956 
779	 0.115302203715012 
780	 0.114893442711264 
781	 0.114484225845833 
782	 0.114090219097911 
783	 0.113702408717915 
784	 0.113289348830434 
785	 0.112915041675747 
786	 0.112532939980304 
787	 0.112115809116968 
788	 0.111731613014752 
789	 0.111371675581562 
790	 0.111003433022919 
791	 0.110597192571269 
792	 0.110196754801578 
793	 0.109829814267578 
794	 0.109483467911997 
795	 0.10911607401521 
796	 0.108767396726837 
797	 0.108400157847258 
798	 0.108015875959566 
799	 0.107708108266457 
800	 0.107392492851109 
801	 0.107051125697885 
802	 0.106697654792613 
803	 0.106379526543724 
804	 0.106077642480711 
805	 0.105772337650361 
806	 0.105450262734628 
807	 0.105142940758 
808	 0.104849932992824 
809	 0.10456843010744 
810	 0.104295950017689 
811	 0.104005777786756 
812	 0.103705813722153 
813	 0.103424175391821 
814	 0.103227190798073 
815	 0.102978406507128 
816	 0.10270621619268 
817	 0.102484242410499 
818	 0.102211439051164 
819	 0.101978927103797 
820	 0.101785517445455 
821	 0.101548377433899 
822	 0.101298184358716 
823	 0.101073980724661 
824	 0.100891858944474 
825	 0.10072868356508 
826	 0.100556415867843 
827	 0.100349880596454 
828	 0.100117491555083 
829	 9.99611445492199E-02 
830	 9.97933210872999E-02 
831	 9.96314437491846E-02 
832	 9.95305739573421E-02 
833	 9.94477403916062E-02 
834	 9.93014138910706E-02 
835	 9.90947190122305E-02 
836	 9.89157017601543E-02 
837	 9.88391477366634E-02 
838	 9.87769642055267E-02 
839	 9.86651459166943E-02 
840	 9.85306779439091E-02 
841	 9.84247765550601E-02 
842	 0.098327136789728 
843	 9.82114933179433E-02 
844	 9.80986599462179E-02 
845	 0.098053025596082 
846	 9.80039591421202E-02 
847	 9.78595459597277E-02 
848	 9.77921651006326E-02 
849	 9.77545299660031E-02 
850	 0.097721900418024 
851	 9.76977254977699E-02 
852	 9.76510745133138E-02 
853	 9.76075136254062E-02 
854	 9.75735862754139E-02 
855	 0.097517565234599 
856	 9.75424586234211E-02 
857	 9.75595685862246E-02 
858	 0.097505017800466 
859	 9.74961393786279E-02 
860	 9.74957706403834E-02 
861	 9.74924784507789E-02 
862	 9.74907730793561E-02 
863	 9.75359849514504E-02 
864	 9.75399758446791E-02 
865	 9.75446231815157E-02 
866	 9.76410810878785E-02 
867	 9.76449244921836E-02 
868	 9.76584950222503E-02 
869	 9.77232315348337E-02 
870	 9.77911087657291E-02 
871	 9.78442660305776E-02 
872	 9.79337487506387E-02 
873	 9.80561396594249E-02 
874	 9.81049737968435E-02 
875	 9.81986027254437E-02 
876	 9.82676725204818E-02 
877	 9.82826039968454E-02 
878	 9.84455063674055E-02 
879	 9.85676641087438E-02 
880	 9.86595527373285E-02 
881	 9.87840887449845E-02 
882	 9.89037494782977E-02 
883	 9.90655336509815E-02 
884	 9.92205119592472E-02 
885	 9.92983348941242E-02 
886	 9.94439157880101E-02 
887	 9.96122633387214E-02 
888	 9.97999491955229E-02 
889	 0.100035945817902 
890	 0.100203415441485 
891	 0.100306631770358 
892	 0.100422866638382 
893	 0.100680016078325 
894	 0.100903327474194 
895	 0.101115775741503 
896	 0.101343341174479 
897	 0.101547221479155 
898	 0.101730831223163 
899	 0.1019357970365 
900	 0.102188511915346 
901	 0.102452629316147 
902	 0.102669949857873 
903	 0.102881212860862 
904	 0.103138919523334 
905	 0.10339208178745 
906	 0.103661345431065 
907	 0.103937767940836 
908	 0.104212273404242 
909	 0.104547656900039 
910	 0.104895573267842 
911	 0.105244898185593 
912	 0.105606150566122 
913	 0.105932135297209 
914	 0.106234496950411 
915	 0.106546084049927 
916	 0.106905528394032 
917	 0.10727868104003 
918	 0.107643292170524 
919	 0.107984826731206 
920	 0.108303531458892 
921	 0.108698153635184 
922	 0.1091494117497 
923	 0.109599426517219 
924	 0.109978542268974 
925	 0.110382179964379 
926	 0.110824963451267 
927	 0.111269522712943 
928	 0.111620574847992 
929	 0.1120932186322 
930	 0.112618500283802 
931	 0.113090096148714 
932	 0.113492833689694 
933	 0.114035630951624 
934	 0.114600972065046 
935	 0.11507036964767 
936	 0.115625326847021 
937	 0.116184577584722 
938	 0.116751699122035 
939	 0.117348123202452 
940	 0.117972864974774 
941	 0.118496130712018 
942	 0.119040436387552 
943	 0.119733791193988 
944	 0.120305735850388 
945	 0.120849106359913 
946	 0.121476223847164 
947	 0.122211409267712 
948	 0.122677107221762 
949	 0.12332072962481 
950	 0.124086075675445 
951	 0.124710684740512 
952	 0.125385839991405 
953	 0.126128580175689 
954	 0.126871467397459 
955	 0.127533594354134 
956	 0.128211722399023 
957	 0.129010820620983 
958	 0.129822046618922 
959	 0.130474023644296 
960	 0.131221002315289 
961	 0.132056467211156 
962	 0.132931602130177 
963	 0.133785710938006 
964	 0.134621702744734 
965	 0.135470161719186 
966	 0.136315558319603 
967	 0.137129975871208 
968	 0.137998041043284 
969	 0.138926088104579 
970	 0.139863577788006 
971	 0.140743739510687 
972	 0.141628435397675 
973	 0.142533227513087 
974	 0.143482240318809 
975	 0.144491215302025 
976	 0.145490197043575 
977	 0.146499929090886 
978	 0.147473279892343 
979	 0.148339923083595 
980	 0.149171050533225 
981	 0.150054363070852 
982	 0.151036907578339 
983	 0.152122566851992 
984	 0.153275014547075 
985	 0.154398981666048 
986	 0.155402855060228 
987	 0.156303628058341 
988	 0.157552698272443 
989	 0.158805109398984 
990	 0.159909967022771 
991	 0.160909895956675 
992	 0.162076228467936 
993	 0.163055343481518 
994	 0.164015243743827 
995	 0.165225610576205 
996	 0.166315829603301 
997	 0.1673450017871 
998	 0.16840896142975 
999	 0.169572258266116 
1000	 0.170730087717811 
1001	 0.16824160154396 
1002	 0.169328696108965 
1003	 0.170402276092041 
1004	 0.171464645407872 
1005	 0.172471428520256 
1006	 0.173511187089109 
1007	 0.174563334299892 
1008	 0.175636217519812 
1009	 0.176659713837078 
1010	 0.177628256058689 
1011	 0.178630210017424 
1012	 0.179633723079853 
1013	 0.180651816812131 
1014	 0.181760769862498 
1015	 0.182799564917256 
1016	 0.18383421459566 
1017	 0.184860473057641 
1018	 0.185886942093409 
1019	 0.186829166075903 
1020	 0.187815129437912 
1021	 0.188789080724463 
1022	 0.189775248191592 
1023	 0.190771224330569 
1024	 0.191674144047656 
1025	 0.192607920624109 
1026	 0.193544757032597 
1027	 0.194479090792826 
1028	 0.195499015024672 
1029	 0.196501458590559 
1030	 0.197471179618227 
1031	 0.198423431656488 
1032	 0.199373529211218 
1033	 0.200284623176066 
1034	 0.201194979841411 
1035	 0.202093396558076 
1036	 0.202966358190547 
1037	 0.203881575150584 
1038	 0.204789422972996 
1039	 0.20565949230994 
1040	 0.206526787200205 
1041	 0.207406483392144 
1042	 0.20831690360176 
1043	 0.209207087428637 
1044	 0.210089883162817 
1045	 0.210975566400878 
1046	 0.21188154855607 
1047	 0.212769074559913 
1048	 0.213663360450703 
1049	 0.214561340284762 
1050	 0.215462163508926 
1051	 0.216359759170738 
1052	 0.217255211375041 
1053	 0.218213526642662 
1054	 0.219121954925081 
1055	 0.219930395144812 
1056	 0.220755022200912 
1057	 0.22160479548898 
1058	 0.222403808341316 
1059	 0.223283804416833 
1060	 0.224249414081301 
1061	 0.225173416168647 
1062	 0.226075007325602 
1063	 0.226991380178427 
1064	 0.227831361829057 
1065	 0.228697719738272 
1066	 0.229596766650069 
1067	 0.230475493352348 
1068	 0.231391556275793 
1069	 0.232293144466365 
1070	 0.233177300040296 
1071	 0.234020226698804 
1072	 0.234898401353603 
1073	 0.235797229826128 
1074	 0.236682983674191 
1075	 0.237570317406813 
1076	 0.23843189180005 
1077	 0.239333291332412 
1078	 0.240180230840908 
1079	 0.241036417751839 
1080	 0.241977703987476 
1081	 0.242887968412676 
1082	 0.243793005296316 
1083	 0.244702002789635 
1084	 0.245612327983282 
1085	 0.246514588348736 
1086	 0.247407474290456 
1087	 0.248313392123066 
1088	 0.249202740131434 
1089	 0.250136687696851 
1090	 0.251105355698258 
1091	 0.252032727902343 
1092	 0.252971054714198 
1093	 0.253917367255663 
1094	 0.254848957955664 
1095	 0.25578600927681 
1096	 0.256725800293664 
1097	 0.257658497829963 
1098	 0.258605630373429 
1099	 0.259538178245499 
1100	 0.260510587294287 
1101	 0.261525766156552 
1102	 0.262516235722252 
1103	 0.263508053705385 
1104	 0.26450665353408 
1105	 0.265511069788059 
1106	 0.266514010081847 
1107	 0.267591304830774 
1108	 0.268671612517496 
1109	 0.269705614347943 
1110	 0.270774530914003 
1111	 0.271821650637669 
1112	 0.272826824217913 
1113	 0.273872790701539 
1114	 0.274945580588497 
1115	 0.276005776712028 
1116	 0.277071556502146 
1117	 0.278146498154456 
1118	 0.279226084897005 
1119	 0.280290030374938 
1120	 0.281394905725877 
1121	 0.282484868061711 
1122	 0.283577994228515 
1123	 0.284690721418288 
1124	 0.285814975450527 
1125	 0.286956949626114 
1126	 0.288095784676742 
1127	 0.289242146793812 
1128	 0.290385938736166 
1129	 0.291519504608101 
1130	 0.292667270108866 
1131	 0.293840973677423 
1132	 0.294992571845475 
1133	 0.29613703333596 
1134	 0.29728413463947 
1135	 0.298417801641656 
1136	 0.299536068733503 
1137	 0.30072942206596 
1138	 0.301900029606658 
1139	 0.303051195736341 
1140	 0.304214731201245 
1141	 0.305358004561642 
1142	 0.306457435686369 
1143	 0.307590852880462 
1144	 0.308742677704616 
1145	 0.309873966307622 
1146	 0.311007068563566 
1147	 0.31212228714644 
1148	 0.313230222621748 
1149	 0.314328071143284 
1150	 0.315394783181961 
1151	 0.316485473714796 
1152	 0.317593515863423 
1153	 0.318681285507104 
1154	 0.319788857927777 
1155	 0.320928723686039 
1156	 0.322031757542155 
1157	 0.323121856470834 
1158	 0.324216280915932 
1159	 0.325300906721904 
1160	 0.326385900559535 
1161	 0.327471488990093 
1162	 0.328558415250111 
1163	 0.329651108353507 
1164	 0.330730179391166 
1165	 0.331809791567434 
1166	 0.332881313660285 
1167	 0.333933936755397 
1168	 0.335016957865497 
1169	 0.336082584908025 
1170	 0.337156991021484 
1171	 0.338208622661585 
1172	 0.339263311709459 
1173	 0.340280330822985 
1174	 0.341271165507787 
1175	 0.342265557969635 
1176	 0.343241543253185 
1177	 0.344206989974945 
1178	 0.345165379667394 
1179	 0.346125010935373 
1180	 0.347077092559882 
1181	 0.348017844586154 
1182	 0.348965723879693 
1183	 0.349900304065874 
1184	 0.350812238574791 
1185	 0.351704123101893 
1186	 0.352585510484965 
1187	 0.353450304633304 
1188	 0.354309086719782 
1189	 0.355161629402522 
1190	 0.355993394708981 
1191	 0.356814733918669 
1192	 0.357621387405589 
1193	 0.358404616799137 
1194	 0.359184710578217 
1195	 0.359946849535033 
1196	 0.360717111552535 
1197	 0.361498365975108 
1198	 0.362255743328542 
1199	 0.363003222609902 
1200	 0.36375543933478 
1201	 0.364474616516952 
1202	 0.36515991056282 
1203	 0.3658594716333 
1204	 0.366554938802506 
1205	 0.367237737408865 
1206	 0.367932639834008 
1207	 0.368586115236276 
1208	 0.369207216881591 
1209	 0.369828969412345 
1210	 0.370432705765237 
1211	 0.371025848319599 
1212	 0.371618692013234 
1213	 0.372191638880785 
1214	 0.372730250302965 
1215	 0.373279965795282 
1216	 0.373827771248308 
1217	 0.374370356722605 
1218	 0.374910778118658 
1219	 0.375464109750539 
1220	 0.375985563233741 
1221	 0.376488766772862 
1222	 0.376991108476141 
1223	 0.377487396920009 
1224	 0.377964001806401 
1225	 0.378429253126622 
1226	 0.378888063551546 
1227	 0.379322000018657 
1228	 0.379762498898399 
1229	 0.38020857346068 
1230	 0.380645343209621 
1231	 0.381077285909192 
1232	 0.381502887675351 
1233	 0.381922777156235 
1234	 0.382348596760439 
1235	 0.382734267875725 
1236	 0.383095007565795 
1237	 0.383464080023082 
1238	 0.38380648798053 
1239	 0.384163146079392 
1240	 0.384539357856733 
1241	 0.384893825657976 
1242	 0.385235843647314 
1243	 0.385573903564341 
1244	 0.385902720961243 
1245	 0.386230137023779 
1246	 0.386556922767409 
1247	 0.386874885486351 
1248	 0.387189914882002 
1249	 0.387497930777848 
1250	 0.38778999209049 
1251	 0.388072407557912 
1252	 0.388358038555324 
1253	 0.388639009488879 
1254	 0.388914859530208 
1255	 0.389199727517735 
1256	 0.389456537044445 
1257	 0.389686425152944 
1258	 0.389930392466033 
1259	 0.390169363367325 
1260	 0.390401237497488 
1261	 0.390639981941551 
1262	 0.390869008956054 
1263	 0.391080324504685 
1264	 0.391295210619306 
1265	 0.39150147839879 
1266	 0.391718524351766 
1267	 0.391946361624032 
1268	 0.392162582437262 
1269	 0.39238286916792 
1270	 0.392618994467657 
1271	 0.392831165750627 
1272	 0.393033455483683 
1273	 0.393226021539316 
1274	 0.393400616113094 
1275	 0.393581701080376 
1276	 0.39375493995315 
1277	 0.393931387827699 
1278	 0.394107005917769 
1279	 0.394286109169862 
1280	 0.394467359500614 
1281	 0.394644576996637 
1282	 0.394844951839189 
1283	 0.395010662096963 
1284	 0.39515027867794 
1285	 0.395282180710745 
1286	 0.395429791259597 
1287	 0.395567203045724 
1288	 0.395723217690666 
1289	 0.395918605072835 
1290	 0.396067588703379 
1291	 0.396198510558559 
1292	 0.396326773953075 
1293	 0.396441455900655 
1294	 0.396545946811161 
1295	 0.396643068804894 
1296	 0.396732185615693 
1297	 0.396800847581541 
1298	 0.396881056889935 
1299	 0.396958398065538 
1300	 0.397039654776533 
1301	 0.397135916692344 
1302	 0.397212130921024 
1303	 0.397283441174113 
1304	 0.397353336027261 
1305	 0.39738842341345 
1306	 0.397383184967124 
1307	 0.397379310451438 
1308	 0.397358796122324 
1309	 0.397344799278668 
1310	 0.397329914736449 
1311	 0.397320354529993 
1312	 0.39731525564703 
1313	 0.397293392946861 
1314	 0.397264221915562 
1315	 0.397243348488878 
1316	 0.397214511843881 
1317	 0.397184752804844 
1318	 0.397177206155451 
1319	 0.397138186810556 
1320	 0.397079943779696 
1321	 0.397018671894438 
1322	 0.396935085168738 
1323	 0.396853544320244 
1324	 0.396823646100734 
1325	 0.396769643651862 
1326	 0.396703033444829 
1327	 0.396665309474948 
1328	 0.396605418213484 
1329	 0.396531820836251 
1330	 0.39648071927287 
1331	 0.396466697410779 
1332	 0.396410420761207 
1333	 0.396331075758973 
1334	 0.396271384797813 
1335	 0.396204026027351 
1336	 0.396146228631047 
1337	 0.396102610553089 
1338	 0.396054165199609 
1339	 0.396017845111557 
1340	 0.395956580225083 
1341	 0.39588802502973 
1342	 0.395811189842131 
1343	 0.39571240847529 
1344	 0.395612278628407 
1345	 0.395534544160106 
1346	 0.395449898805407 
1347	 0.395339558407849 
1348	 0.395206180009162 
1349	 0.395023623467411 
1350	 0.394836298592596 
1351	 0.394666335377749 
1352	 0.394503085685245 
1353	 0.394318177037496 
1354	 0.394146572223028 
1355	 0.393933826325798 
1356	 0.393657806548227 
1357	 0.393453066726122 
1358	 0.39323270535073 
1359	 0.393077595501517 
1360	 0.392983529547547 
1361	 0.39289488612399 
1362	 0.392837964595026 
1363	 0.392797018498825 
1364	 0.392775735858643 
1365	 0.392773632297206 
1366	 0.3927984479389 
1367	 0.392837806363578 
1368	 0.392884566469311 
1369	 0.39289122287801 
1370	 0.392829825093231 
1371	 0.392728412458256 
1372	 0.392583321067261 
1373	 0.392378353992531 
1374	 0.3921122007965 
1375	 0.391832938740817 
1376	 0.391402834795245 
1377	 0.390875610001631 
1378	 0.390267625640643 
1379	 0.38949919919369 
1380	 0.388785486719757 
1381	 0.387992815706087 
1382	 0.387252305354255 
1383	 0.386585577919613 
1384	 0.385818524647188 
1385	 0.385071531917013 
1386	 0.384216661200167 
1387	 0.383279302681749 
1388	 0.382283977209379 
1389	 0.381248568074812 
1390	 0.380101787254587 
1391	 0.37885566087313 
1392	 0.377513081044575 
1393	 0.376032559111791 
1394	 0.37450382976601 
1395	 0.372942147994761 
1396	 0.371348278050039 
1397	 0.369784203388064 
1398	 0.368234065386321 
1399	 0.366639891162684 
1400	 0.365029646851957 
1401	 0.363421784053632 
1402	 0.361747724941796 
1403	 0.360179312136257 
1404	 0.358627667875039 
1405	 0.357163261810243 
1406	 0.355786336356244 
1407	 0.354409334139133 
1408	 0.353067455298907 
1409	 0.351784030431004 
1410	 0.350499569622157 
1411	 0.349320382325675 
1412	 0.348214418201904 
1413	 0.347185786657209 
1414	 0.346249061352771 
1415	 0.345347354619016 
1416	 0.34448358221985 
1417	 0.34368128711205 
1418	 0.342909717169816 
1419	 0.342198213801111 
1420	 0.341565270945725 
1421	 0.340985136380769 
1422	 0.340448731574306 
1423	 0.339927837120829 
1424	 0.339411922545464 
1425	 0.338896429050816 
1426	 0.338438580380125 
1427	 0.337978925853149 
1428	 0.337616841548575 
1429	 0.337339647389927 
1430	 0.337066105139808 
1431	 0.336869013093779 
1432	 0.336636445321515 
1433	 0.336388136889466 
1434	 0.336189499755925 
1435	 0.335989925027796 
1436	 0.335835166933115 
1437	 0.33575586618654 
1438	 0.335646599716052 
1439	 0.335542084427507 
1440	 0.335449703533618 
1441	 0.335346287851507 
1442	 0.335245454273322 
1443	 0.335169314052156 
1444	 0.33512387257431 
1445	 0.335120443792182 
1446	 0.335130112829163 
1447	 0.335133679246449 
1448	 0.335140357899586 
1449	 0.335126060192626 
1450	 0.335098802679458 
1451	 0.335107038711816 
1452	 0.335123499533416 
1453	 0.335177927451259 
1454	 0.335278136944565 
1455	 0.335346505852448 
1456	 0.33543169122001 
1457	 0.335496736755926 
1458	 0.335519839740311 
1459	 0.335600183726973 
1460	 0.335679150934295 
1461	 0.335816016486928 
1462	 0.336009558787075 
1463	 0.336197992725478 
1464	 0.336433865525675 
1465	 0.336652525177925 
1466	 0.336847206480173 
1467	 0.337086785574711 
1468	 0.337317463504401 
1469	 0.337611028722548 
1470	 0.33796648108156 
1471	 0.338334080300151 
1472	 0.338729126930657 
1473	 0.339134766650372 
1474	 0.339479742275038 
1475	 0.339862266955937 
1476	 0.340258395732781 
1477	 0.340668018995221 
1478	 0.34116161185823 
1479	 0.341657745648844 
1480	 0.342158997080988 
1481	 0.342678315378037 
1482	 0.343181797903463 
1483	 0.343676783269104 
1484	 0.344175339237348 
1485	 0.344667352242608 
1486	 0.345173790620773 
1487	 0.345690458777689 
1488	 0.346193499939571 
1489	 0.346707643069064 
1490	 0.347205192667821 
1491	 0.347693084385008 
1492	 0.348162232657117 
1493	 0.348598206883509 
1494	 0.349073632311195 
1495	 0.349546367970866 
1496	 0.350033612279571 
1497	 0.350582278435399 
1498	 0.351071877284478 
1499	 0.351541595317105 
1500	 0.351990751064525 
1501	 0.352394836707752 
1502	 0.352812514238132 
1503	 0.353221744807009 
1504	 0.353617380076109 
1505	 0.354055440906398 
1506	 0.354508901491176 
1507	 0.354954566854615 
1508	 0.35540029857951 
1509	 0.35581666027659 
1510	 0.356204055341265 
1511	 0.356575868218962 
1512	 0.356962287860898 
1513	 0.357350420500227 
1514	 0.357730204938676 
1515	 0.358147429771043 
1516	 0.358541143204861 
1517	 0.358911856999317 
1518	 0.359273860847133 
1519	 0.359625754621063 
1520	 0.359941804678119 
1521	 0.360281475117516 
1522	 0.360628671275472 
1523	 0.36096437122264 
1524	 0.361302258977207 
1525	 0.361628752580565 
1526	 0.361937449570752 
1527	 0.362260477035469 
1528	 0.362583747085385 
1529	 0.362906521932076 
1530	 0.36324519127042 
1531	 0.36356815048057 
1532	 0.363878359229138 
1533	 0.364190260143675 
1534	 0.364503040192612 
1535	 0.36480069386864 
1536	 0.365089349506067 
1537	 0.365374815497849 
1538	 0.365645674562636 
1539	 0.365920513983465 
1540	 0.366199042509506 
1541	 0.366471618854447 
1542	 0.366748529533684 
1543	 0.367008188900046 
1544	 0.367249485866432 
1545	 0.367493471543184 
1546	 0.367725002298768 
1547	 0.367959138328976 
1548	 0.368209551110474 
1549	 0.368457512765364 
1550	 0.368685052208263 
1551	 0.368909518592954 
1552	 0.369120696846434 
1553	 0.369333678472429 
1554	 0.369565334766867 
1555	 0.369771071651805 
1556	 0.369963554490265 
1557	 0.370173596733757 
1558	 0.370371296205648 
1559	 0.370577373582178 
1560	 0.370783398652762 
1561	 0.3710009421142 
1562	 0.371189324766477 
1563	 0.371359194634449 
1564	 0.371553814796192 
1565	 0.37174370901009 
1566	 0.371940152217195 
1567	 0.37216520688456 
1568	 0.372350727772957 
1569	 0.372522451548689 
1570	 0.372678616592362 
1571	 0.372813828544009 
1572	 0.372951850358495 
1573	 0.373057633489677 
1574	 0.373201912622058 
1575	 0.373361928559474 
1576	 0.37352204740813 
1577	 0.373723607632486 
1578	 0.373876448121998 
1579	 0.374002330664136 
1580	 0.374134271864419 
1581	 0.374238543862324 
1582	 0.374361415215933 
1583	 0.374487919804846 
1584	 0.374627327931968 
1585	 0.374785448048063 
1586	 0.374925049805178 
1587	 0.375080437009375 
1588	 0.375209762135873 
1589	 0.375306649271701 
1590	 0.375414693102865 
1591	 0.375532651182846 
1592	 0.375618444355898 
1593	 0.375683866135409 
1594	 0.375755193078595 
1595	 0.375796069630636 
1596	 0.375854317424364 
1597	 0.375935325213136 
1598	 0.376001375734696 
1599	 0.376054376537118 
1600	 0.376121125658832 
1601	 0.376165986654023 
1602	 0.376253634011653 
1603	 0.376391535135519 
1604	 0.376507027454511 
1605	 0.376654432996771 
1606	 0.376770710226076 
1607	 0.376860467157676 
1608	 0.376928282355896 
1609	 0.377030207530332 
1610	 0.377111534420736 
1611	 0.377184323158187 
1612	 0.377267424771284 
1613	 0.377319937435358 
1614	 0.377365921777559 
1615	 0.377398250876269 
1616	 0.377422524252974 
1617	 0.377458713712418 
1618	 0.377512299872463 
1619	 0.37758691092328 
1620	 0.377660199314049 
1621	 0.377724074211585 
1622	 0.377780620660881 
1623	 0.377828103353249 
1624	 0.377870536238494 
1625	 0.377913894373206 
1626	 0.377942311542228 
1627	 0.377989303567578 
1628	 0.378049971455897 
1629	 0.378096766304563 
1630	 0.378145725033059 
1631	 0.378184914928449 
1632	 0.378214816123435 
1633	 0.378245517668873 
1634	 0.37827147003441 
1635	 0.378298872694715 
1636	 0.378330368030471 
1637	 0.378345457822091 
1638	 0.378346799136119 
1639	 0.378365238689155 
1640	 0.378377640572693 
1641	 0.378399263398729 
1642	 0.378437260995407 
1643	 0.378470367261447 
1644	 0.378503432997511 
1645	 0.378530660034582 
1646	 0.378567910735599 
1647	 0.37858193530095 
1648	 0.378577194782889 
1649	 0.378576264157389 
1650	 0.37856716251583 
1651	 0.378557573596937 
1652	 0.37853955075326 
1653	 0.378535840569881 
1654	 0.378529681617362 
1655	 0.378538979191235 
1656	 0.378584672341952 
1657	 0.378578873077383 
1658	 0.378556212171425 
1659	 0.378530084604919 
1660	 0.378454695506519 
1661	 0.378433919458131 
1662	 0.378440096280055 
1663	 0.378444690909224 
1664	 0.378486740334914 
1665	 0.378483887593737 
1666	 0.378467702116071 
1667	 0.378439058959858 
1668	 0.3783826020833 
1669	 0.378330686105101 
1670	 0.378262569212759 
1671	 0.37821718040535 
1672	 0.378166602296389 
1673	 0.378141179386266 
1674	 0.37814324573646 
1675	 0.378141598772532 
1676	 0.378176061421557 
1677	 0.378151614543573 
1678	 0.378102933302301 
1679	 0.378051403425547 
1680	 0.377938817236476 
1681	 0.377889348823762 
1682	 0.377888873649802 
1683	 0.377848676583035 
1684	 0.377809482228108 
1685	 0.377771529776314 
1686	 0.377706291412865 
1687	 0.377663980316136 
1688	 0.377652103401775 
1689	 0.377618502236644 
1690	 0.377566641258407 
1691	 0.377534508086791 
1692	 0.377528538968427 
1693	 0.377476978852322 
1694	 0.377411476347056 
1695	 0.377347612002908 
1696	 0.377244609084721 
1697	 0.377163869304553 
1698	 0.377103099224555 
1699	 0.377036465533385 
1700	 0.376954855999977 
1701	 0.376898650077225 
1702	 0.376869140805231 
1703	 0.376818874265008 
1704	 0.376779557970311 
1705	 0.37671295805046 
1706	 0.376623421437626 
1707	 0.376537820503647 
1708	 0.376449420916716 
1709	 0.37634240868323 
1710	 0.376214105101037 
1711	 0.376104530698277 
1712	 0.375982265080014 
1713	 0.375877905924538 
1714	 0.375796113495631 
1715	 0.375708299960472 
1716	 0.375620697731555 
1717	 0.375531499958828 
1718	 0.375458660548641 
1719	 0.375356752890777 
1720	 0.375255063055932 
1721	 0.37511243946022 
1722	 0.374920055586206 
1723	 0.374757754522649 
1724	 0.374584231166971 
1725	 0.374413176015208 
1726	 0.374257518421208 
1727	 0.374100804136319 
1728	 0.373926504303104 
1729	 0.373767618612886 
1730	 0.373628583144228 
1731	 0.373477082244395 
1732	 0.373334244758012 
1733	 0.373157163928513 
1734	 0.372966832227266 
1735	 0.372770046016119 
1736	 0.37254531061615 
1737	 0.372328029330002 
1738	 0.372105711301726 
1739	 0.371896333520163 
1740	 0.371682534370232 
1741	 0.371481774358164 
1742	 0.371294914173994 
1743	 0.371111039012702 
1744	 0.370945556555642 
1745	 0.370749736636976 
1746	 0.37054271340683 
1747	 0.370352716761066 
1748	 0.37013071186692 
1749	 0.369912746543483 
1750	 0.369726300098765 
1751	 0.369499476738845 
1752	 0.369254608214522 
1753	 0.369048186962175 
1754	 0.368866229098739 
1755	 0.368659777338188 
1756	 0.36842591347644 
1757	 0.368186865388026 
1758	 0.367934629052386 
1759	 0.367734523899072 
1760	 0.367574871349706 
1761	 0.367395071832973 
1762	 0.367206055562237 
1763	 0.366981504667786 
1764	 0.366774216732051 
1765	 0.366579411327632 
1766	 0.366367949824042 
1767	 0.366182027984751 
1768	 0.365974147251132 
1769	 0.365768584502634 
1770	 0.365579921125262 
1771	 0.365400268263437 
1772	 0.365242379769802 
1773	 0.365101948276291 
1774	 0.364970407933901 
1775	 0.364824155659501 
1776	 0.364664685396512 
1777	 0.36445709496054 
1778	 0.364253310269306 
1779	 0.364074618588652 
1780	 0.363889305547021 
1781	 0.363772971123971 
1782	 0.363681841448096 
1783	 0.363564273179775 
1784	 0.363463691608866 
1785	 0.363360588806378 
1786	 0.36325760049094 
1787	 0.363172313816966 
1788	 0.363090189466632 
1789	 0.363003974738317 
1790	 0.362926545039543 
1791	 0.362871373881491 
1792	 0.362785222478218 
1793	 0.362676594295232 
1794	 0.362589274902602 
1795	 0.3624723769522 
1796	 0.362420636235525 
1797	 0.362433033822198 
1798	 0.362406381361683 
1799	 0.362409410691726 
1800	 0.362373297886996 
1801	 0.352950607563894 
1802	 0.353316600054922 
1803	 0.353748298350077 
1804	 0.354200855164145 
1805	 0.354637117899867 
1806	 0.355013331932614 
1807	 0.355378990575601 
1808	 0.355665877097315 
1809	 0.355873818069993 
1810	 0.356064137234848 
1811	 0.356220984156339 
1812	 0.356331101647853 
1813	 0.356402219813943 
1814	 0.356443079079181 
1815	 0.3564464259138 
1816	 0.356462927689405 
1817	 0.356450694020133 
1818	 0.3563878092519 
1819	 0.356372094528509 
1820	 0.356382211280371 
1821	 0.356343662702345 
1822	 0.356292671803808 
1823	 0.356293923219929 
1824	 0.356277219998806 
1825	 0.356200066358849 
1826	 0.356097982935725 
1827	 0.35599634368794 
1828	 0.355860482715007 
1829	 0.355641877426555 
1830	 0.355464953100922 
1831	 0.355301041109964 
1832	 0.355150730154919 
1833	 0.354917084347671 
1834	 0.354682294300605 
1835	 0.354495180265222 
1836	 0.35429436616188 
1837	 0.35415192828629 
1838	 0.354051578554158 
1839	 0.353948431815453 
1840	 0.353864544048296 
1841	 0.353755674881887 
1842	 0.353642319149591 
1843	 0.353565295592756 
1844	 0.3534783299766 
1845	 0.353356122693998 
1846	 0.353228790323033 
1847	 0.353065907761867 
1848	 0.352833629636742 
1849	 0.352589086774245 
1850	 0.352329193191668 
1851	 0.352048579120961 
1852	 0.351739385229638 
1853	 0.351415596356077 
1854	 0.35103867990483 
1855	 0.350621671705934 
1856	 0.350153783525157 
1857	 0.349628651272926 
1858	 0.349093777850744 
1859	 0.348490114025888 
1860	 0.347779730938158 
1861	 0.346996514191929 
1862	 0.346151879645637 
1863	 0.345131205574207 
1864	 0.343990919456273 
1865	 0.342808466549953 
1866	 0.341461998244195 
1867	 0.340067063096908 
1868	 0.338610162677707 
1869	 0.337042691461478 
1870	 0.335463322743785 
1871	 0.333814760156813 
1872	 0.33210479224334 
1873	 0.330372191296239 
1874	 0.328614021585096 
1875	 0.326755853984914 
1876	 0.324846301779851 
1877	 0.322835444126096 
1878	 0.320627794559031 
1879	 0.318267408887562 
1880	 0.315718947810532 
1881	 0.312947343810691 
1882	 0.310066902073449 
1883	 0.307037422258911 
1884	 0.303806956220463 
1885	 0.300492675067376 
1886	 0.297074168956171 
1887	 0.293497632157246 
1888	 0.289875446661379 
1889	 0.286167610570035 
1890	 0.282400804224213 
1891	 0.278665945633242 
1892	 0.274867793765135 
1893	 0.271137686505554 
1894	 0.267412222439839 
1895	 0.263746145803076 
1896	 0.260109472742417 
1897	 0.256577941914137 
1898	 0.253119746379231 
1899	 0.249781909062194 
1900	 0.246636611958838 
1901	 0.243629335466915 
1902	 0.240824089038796 
1903	 0.238254407672806 
1904	 0.235816203017592 
1905	 0.233526306471054 
1906	 0.231443975594397 
1907	 0.229518704246872 
1908	 0.227710487233452 
1909	 0.226038091870562 
1910	 0.22447582147865 
1911	 0.223062823678084 
1912	 0.221735406596697 
1913	 0.22049684016808 
1914	 0.219374330630185 
1915	 0.218330803513163 
1916	 0.217355732941392 
1917	 0.216485184567217 
1918	 0.215739246746626 
1919	 0.215069844518574 
1920	 0.214509754437897 
1921	 0.214038802073776 
1922	 0.213599731267026 
1923	 0.213244394983963 
1924	 0.212944952842422 
1925	 0.212710679135865 
1926	 0.212515540995426 
1927	 0.212387280626276 
1928	 0.212290798539941 
1929	 0.212240549835039 
1930	 0.212238357470884 
1931	 0.21228405998899 
1932	 0.212379733790988 
1933	 0.212518150343165 
1934	 0.212684716974096 
1935	 0.212888222335441 
1936	 0.213125944331623 
1937	 0.213413815309197 
1938	 0.213750341412486 
1939	 0.214108164250069 
1940	 0.214502993323936 
1941	 0.214933306744126 
1942	 0.215404849656581 
1943	 0.215898269690695 
1944	 0.216418328097018 
1945	 0.216955584789033 
1946	 0.217494708953817 
1947	 0.218031063236672 
1948	 0.218588905984256 
1949	 0.219154844423301 
1950	 0.219746600341961 
1951	 0.220362582442222 
1952	 0.220975345591374 
1953	 0.22160871899934 
1954	 0.222296961423438 
1955	 0.222995410097456 
1956	 0.223696103015573 
1957	 0.224419580126279 
1958	 0.225165042836351 
1959	 0.225922625781311 
1960	 0.226703597813471 
1961	 0.227487388240979 
1962	 0.228294465194621 
1963	 0.229094737027853 
1964	 0.229896040209193 
1965	 0.230700437338215 
1966	 0.231506161267505 
1967	 0.232301466331266 
1968	 0.233114123801734 
1969	 0.233933335804443 
1970	 0.234750854885262 
1971	 0.235581314732521 
1972	 0.236405491125222 
1973	 0.237209619240794 
1974	 0.238043209162553 
1975	 0.238890691276368 
1976	 0.239748368398191 
1977	 0.240609089144958 
1978	 0.241475479362247 
1979	 0.24235608247495 
1980	 0.243260806985216 
1981	 0.244137599015035 
1982	 0.245023789539536 
1983	 0.245894694237978 
1984	 0.24673260124358 
1985	 0.247586169565912 
1986	 0.248465579840907 
1987	 0.249315122944878 
1988	 0.250144057296091 
1989	 0.250968981562117 
1990	 0.251815384568709 
1991	 0.252642488750944 
1992	 0.253485925515902 
1993	 0.254358742990833 
1994	 0.255205363976743 
1995	 0.256035693104669 
1996	 0.256876067062765 
1997	 0.257727311453198 
1998	 0.258561366335041 
1999	 0.259386264365448 
2000	 0.260210172789536 
2001	 0.261034158417632 
2002	 0.261829813242349 
2003	 0.262648721400339 
2004	 0.263456822993245 
2005	 0.264262906867244 
2006	 0.265060581370538 
2007	 0.265876570976787 
2008	 0.266701573119057 
2009	 0.267515249143218 
2010	 0.268359894859802 
2011	 0.26915157937491 
2012	 0.269889690503696 
2013	 0.270654720883223 
2014	 0.27140680944071 
2015	 0.272159661325068 
2016	 0.272926460939957 
2017	 0.273708788102559 
2018	 0.274461551430691 
2019	 0.275197147377231 
2020	 0.275928790201413 
2021	 0.276651556337763 
2022	 0.277364763323704 
2023	 0.278061027514454 
2024	 0.278766610341027 
2025	 0.279464764584524 
2026	 0.280165194753346 
2027	 0.280870328124865 
2028	 0.281581938313429 
2029	 0.282277455308763 
2030	 0.282972028852046 
2031	 0.283644656632178 
2032	 0.284306237789392 
2033	 0.284957571151323 
2034	 0.28558557789649 
2035	 0.286217637280289 
2036	 0.286829186329299 
2037	 0.287461970066971 
2038	 0.288121388469884 
2039	 0.288750601637245 
2040	 0.289370219834437 
2041	 0.290004222851238 
2042	 0.290590858529149 
2043	 0.291159868021464 
2044	 0.291742208000958 
2045	 0.292321802871881 
2046	 0.292901086608215 
2047	 0.293486780396534 
2048	 0.294059263638881 
2049	 0.294629991208987 
2050	 0.295190783758954 
2051	 0.295740324493203 
2052	 0.296284505194759 
2053	 0.296804969828892 
2054	 0.297345870468875 
2055	 0.297886673302825 
2056	 0.298449707340909 
2057	 0.298987818048392 
2058	 0.299544690199671 
2059	 0.300058759516227 
2060	 0.300534415583252 
2061	 0.301020778407973 
2062	 0.301480734501456 
2063	 0.301967868434896 
2064	 0.302474967822343 
2065	 0.302963166928353 
2066	 0.303471635985663 
2067	 0.303948359081464 
2068	 0.304392147161282 
2069	 0.304830970819807 
2070	 0.305285811653263 
2071	 0.305729853487911 
2072	 0.306191576708812 
2073	 0.306677795554104 
2074	 0.307143383905762 
2075	 0.30759624197575 
2076	 0.308066184750657 
2077	 0.308545223750624 
2078	 0.309014122496712 
2079	 0.30950492766054 
2080	 0.309963078385265 
2081	 0.310390434606267 
2082	 0.310823692330748 
2083	 0.311246632477314 
2084	 0.311669702957231 
2085	 0.312073764649545 
2086	 0.312473832392396 
2087	 0.31285983426278 
2088	 0.313204160219029 
2089	 0.313600812740843 
2090	 0.314013289414209 
2091	 0.314427499869919 
2092	 0.314882624341549 
2093	 0.315302112174546 
2094	 0.315679540039543 
2095	 0.31610434769959 
2096	 0.316563592277792 
2097	 0.316990798831213 
2098	 0.317427246798454 
2099	 0.317864657801679 
2100	 0.318280564820626 
2101	 0.318666185562802 
2102	 0.31904703962064 
2103	 0.319412761394917 
2104	 0.319800452067563 
2105	 0.320164989687112 
2106	 0.32055891124691 
2107	 0.320998760151198 
2108	 0.32141260932217 
2109	 0.321810124673804 
2110	 0.322225379729753 
2111	 0.322639695455216 
2112	 0.323068938993671 
2113	 0.323532443210435 
2114	 0.323972669481654 
2115	 0.324398402535906 
2116	 0.32483798421557 
2117	 0.325213463005148 
2118	 0.325540024144393 
2119	 0.325881021514931 
2120	 0.326171935008555 
2121	 0.326513711391831 
2122	 0.326894877441323 
2123	 0.32723879423005 
2124	 0.327591092009845 
2125	 0.327922695312091 
2126	 0.328219675868161 
2127	 0.328522632866584 
2128	 0.32883858678822 
2129	 0.32912678779706 
2130	 0.329397021067594 
2131	 0.329658636024859 
2132	 0.329902878683933 
2133	 0.330121282808605 
2134	 0.330342674249361 
2135	 0.330556350781472 
2136	 0.330761680029605 
2137	 0.330978025539409 
2138	 0.331144607723564 
2139	 0.331292193657276 
2140	 0.331410126990759 
2141	 0.331482601867866 
2142	 0.331546145513685 
2143	 0.331584084938316 
2144	 0.331615238534648 
2145	 0.331611322129487 
2146	 0.331623691155256 
2147	 0.331631725536139 
2148	 0.331660169693287 
2149	 0.331656782285006 
2150	 0.331656355259687 
2151	 0.331629606375867 
2152	 0.331578670728228 
2153	 0.331516693732474 
2154	 0.331438512671406 
2155	 0.331357325740589 
2156	 0.33125202424571 
2157	 0.331154380846561 
2158	 0.331070873581151 
2159	 0.330960301164156 
2160	 0.330849682845597 
2161	 0.330708924925122 
2162	 0.330531293645571 
2163	 0.330353732597522 
2164	 0.330150997073425 
2165	 0.329942235099332 
2166	 0.329763789423956 
2167	 0.329606888718618 
2168	 0.329423296407752 
2169	 0.329250150484489 
2170	 0.329058856507299 
2171	 0.32884080976428 
2172	 0.328629483610816 
2173	 0.328405999723013 
2174	 0.328208656626073 
2175	 0.32801923279384 
2176	 0.327827488496239 
2177	 0.3276527886306 
2178	 0.327477815901818 
2179	 0.327313446161169 
2180	 0.327123105024217 
2181	 0.326942097021119 
2182	 0.326736027340743 
2183	 0.326490949927327 
2184	 0.326224822091051 
2185	 0.326003912983599 
2186	 0.325796708480465 
2187	 0.3255757067718 
2188	 0.325382318049265 
2189	 0.325156718395032 
2190	 0.324883104027736 
2191	 0.324662876553578 
2192	 0.324464387569063 
2193	 0.324260612964225 
2194	 0.324073247178423 
2195	 0.323889668469412 
2196	 0.323689137418418 
2197	 0.323521677904237 
2198	 0.323369489620349 
2199	 0.323245426642715 
2200	 0.323162236092481 
2201	 0.323073250488008 
2202	 0.323004704216116 
2203	 0.322940072853927 
2204	 0.322876148729522 
2205	 0.322806176454337 
2206	 0.322746511765124 
2207	 0.322700762498982 
2208	 0.322649414400847 
2209	 0.322594433996754 
2210	 0.322551439055305 
2211	 0.322516872175598 
2212	 0.322479404684943 
2213	 0.322452799165125 
2214	 0.322412828706129 
2215	 0.322363328942349 
2216	 0.322318114748281 
2217	 0.322274576055164 
2218	 0.322223930614598 
2219	 0.322163027654194 
2220	 0.322113697863965 
2221	 0.322078974511466 
2222	 0.322021053863078 
2223	 0.321943632849269 
2224	 0.321880209504701 
2225	 0.321809298523951 
2226	 0.321707921763656 
2227	 0.321638789713571 
2228	 0.321605686514955 
2229	 0.321529991549385 
2230	 0.321439597864186 
2231	 0.32135096744263 
2232	 0.321248445454304 
2233	 0.321141416384355 
2234	 0.321034171888928 
2235	 0.320920798086965 
2236	 0.320798385414004 
2237	 0.320668669405397 
2238	 0.32053783667385 
2239	 0.320400253588366 
2240	 0.320225446078711 
2241	 0.320085920022828 
2242	 0.319956521580819 
2243	 0.319839961549639 
2244	 0.319741049168342 
2245	 0.319671716971583 
2246	 0.31958402083307 
2247	 0.3194895457239 
2248	 0.319403530135909 
2249	 0.31932217963402 
2250	 0.319226621519234 
2251	 0.319129943550339 
2252	 0.319028983168675 
2253	 0.318910143949677 
2254	 0.318806638243593 
2255	 0.318715497052862 
2256	 0.318610207677787 
2257	 0.318513648360847 
2258	 0.318387409040357 
2259	 0.318215584160687 
2260	 0.318099198126654 
2261	 0.317990850531718 
2262	 0.31789009657522 
2263	 0.317813262958441 
2264	 0.317754428938918 
2265	 0.317719772617798 
2266	 0.317658435749779 
2267	 0.317632995272241 
2268	 0.317578059335756 
2269	 0.317509897367868 
2270	 0.317365315656453 
2271	 0.317283783557496 
2272	 0.317152513882455 
2273	 0.317019605171771 
2274	 0.316962268220639 
2275	 0.316852717370494 
2276	 0.316735523426829 
2277	 0.316617945296211 
2278	 0.316481168976595 
2279	 0.316354664849856 
2280	 0.316244160212046 
2281	 0.316108144691123 
2282	 0.315958841287463 
2283	 0.315811338274531 
2284	 0.315642570881982 
2285	 0.315493888873616 
2286	 0.315345959423296 
2287	 0.31521321555798 
2288	 0.315088922452867 
2289	 0.314982229298638 
2290	 0.314924973189022 
2291	 0.314819774375938 
2292	 0.314681604462036 
2293	 0.314569416575653 
2294	 0.314455412979633 
2295	 0.314324198839198 
2296	 0.314191522597217 
2297	 0.314095456687686 
2298	 0.313937453721049 
2299	 0.313763057016972 
2300	 0.313633653190142 
2301	 0.313530989412784 
2302	 0.31340559589283 
2303	 0.31324691761301 
2304	 0.313050060290293 
2305	 0.312833579985761 
2306	 0.312649995001222 
2307	 0.312480671154737 
2308	 0.312301082158776 
2309	 0.312146414388482 
2310	 0.311950545530985 
2311	 0.311741802964611 
2312	 0.311495374070112 
2313	 0.311203299846777 
2314	 0.310928964843896 
2315	 0.310621453744678 
2316	 0.310343774581849 
2317	 0.310070075944406 
2318	 0.309832030910186 
2319	 0.309611439991959 
2320	 0.309411796536251 
2321	 0.309260640622768 
2322	 0.309099089152596 
2323	 0.308970032204789 
2324	 0.308791833638894 
2325	 0.308568822694982 
2326	 0.308378621750325 
2327	 0.3081824343149 
2328	 0.307975606282209 
2329	 0.307813499593024 
2330	 0.30768089496506 
2331	 0.307448704298037 
2332	 0.307258613867846 
2333	 0.307090203362148 
2334	 0.306842188383683 
2335	 0.30661922834437 
2336	 0.306352497978661 
2337	 0.30603203081025 
2338	 0.305787587062887 
2339	 0.305601983614994 
2340	 0.305397910290142 
2341	 0.305105482983556 
2342	 0.304772801815379 
2343	 0.304464740828618 
2344	 0.304128006943762 
2345	 0.30383874275811 
2346	 0.303679893232584 
2347	 0.303367444119369 
2348	 0.302975995589665 
2349	 0.30259773022525 
2350	 0.302131914848235 
2351	 0.301747624240388 
2352	 0.301422423200223 
2353	 0.301038051110043 
2354	 0.300645822048914 
2355	 0.300254965954237 
2356	 0.299840798086745 
2357	 0.299422180007161 
2358	 0.299040681534696 
2359	 0.298615667731368 
2360	 0.298124539532876 
2361	 0.297648881659446 
2362	 0.297143255658132 
2363	 0.296684201122568 
2364	 0.296271022152419 
2365	 0.29581968564202 
2366	 0.295363435488792 
2367	 0.294925521619004 
2368	 0.294479203992564 
2369	 0.294029166505514 
2370	 0.293592378177674 
2371	 0.293179471586031 
2372	 0.292755879745265 
2373	 0.292260395123852 
2374	 0.291764144286854 
2375	 0.291270660271598 
2376	 0.290745518188494 
2377	 0.290163426966851 
2378	 0.289644076149705 
2379	 0.289188596803398 
2380	 0.288643199217809 
2381	 0.288175812383173 
2382	 0.28773174068823 
2383	 0.287196476510329 
2384	 0.286674118960315 
2385	 0.286072580915409 
2386	 0.285468863427509 
2387	 0.284924362893643 
2388	 0.284399036549357 
2389	 0.283968546877325 
2390	 0.283535617172848 
2391	 0.283041720215137 
2392	 0.282578399215962 
2393	 0.282068623933903 
2394	 0.281485465073394 
2395	 0.280915263839716 
2396	 0.280320301145485 
2397	 0.279700162984567 
2398	 0.279109995905294 
2399	 0.278593501362492 
2400	 0.278113454237704 
2401	 0.277638594870578 
2402	 0.277150208698113 
2403	 0.276555312170431 
2404	 0.275877428381526 
2405	 0.275220091217084 
2406	 0.274696556318438 
2407	 0.274233468454714 
2408	 0.273717476066373 
2409	 0.273172441598918 
2410	 0.27264439644776 
2411	 0.272062539304603 
2412	 0.271432146065857 
2413	 0.270867671489107 
2414	 0.270188020577038 
2415	 0.269432390422986 
2416	 0.268764307013333 
2417	 0.268137478021828 
2418	 0.267536458061483 
2419	 0.266969788210428 
2420	 0.26644744900721 
2421	 0.266035171541703 
2422	 0.265471939991493 
2423	 0.264878019421105 
2424	 0.264243367906164 
2425	 0.263440652714795 
2426	 0.26279410385949 
2427	 0.262253309542395 
2428	 0.261659753443276 
2429	 0.261094136639884 
2430	 0.260507889322417 
2431	 0.259877183538578 
2432	 0.259285984782629 
2433	 0.25872152973021 
2434	 0.258160473625205 
2435	 0.257625534788228 
2436	 0.257048907414258 
2437	 0.256457318080187 
2438	 0.255851581181516 
2439	 0.255243663580277 
2440	 0.254593576436036 
2441	 0.253873858183362 
2442	 0.253291797372201 
2443	 0.252768005331882 
2444	 0.252128494456615 
2445	 0.251511113743287 
2446	 0.250923182375611 
2447	 0.250211877987212 
2448	 0.249644573297229 
2449	 0.249255755822223 
2450	 0.248687325116633 
2451	 0.248115114169099 
2452	 0.247549498840611 
2453	 0.246891975311825 
2454	 0.246281061750087 
2455	 0.245647236552785 
2456	 0.245076237137766 
2457	 0.244564174090898 
2458	 0.243963547991226 
2459	 0.243419383469241 
2460	 0.242812389519334 
2461	 0.242041187872514 
2462	 0.241482296831179 
2463	 0.241091135399058 
2464	 0.240480215925009 
2465	 0.239792474143058 
2466	 0.239194221679567 
2467	 0.238516740360013 
2468	 0.237868337556235 
2469	 0.23737756805729 
2470	 0.236708883168249 
2471	 0.236049831962808 
2472	 0.235684807157786 
2473	 0.235219486139608 
2474	 0.234539904398262 
2475	 0.233923390705921 
2476	 0.23320346464371 
2477	 0.232486781254527 
2478	 0.232146034526573 
2479	 0.23182168759419 
2480	 0.231355955410742 
2481	 0.231062807205796 
2482	 0.230699901745065 
2483	 0.230194377775297 
2484	 0.229749853100017 
2485	 0.229193870955982 
2486	 0.228650775552731 
2487	 0.228175241565743 
2488	 0.2276142746173 
2489	 0.22701072578893 
2490	 0.226371189506935 
2491	 0.225843908918428 
2492	 0.225522301411487 
2493	 0.225210855138137 
2494	 0.224843238636886 
2495	 0.224597780886987 
2496	 0.224287900982203 
2497	 0.223666737758847 
2498	 0.222991278683348 
2499	 0.222355951214364 
2500	 0.221839524217316 
