Wavelength	LMW_1800005.asd
350	 0.048816478692949 
351	 0.059773396064954 
352	 5.74524841531599E-02 
353	 0.038147896002386 
354	 0.047987452794475 
355	 5.25794776763263E-02 
356	 5.09368047931231E-02 
357	 5.06010262384329E-02 
358	 5.77000381710715E-02 
359	 5.81496127143561E-02 
360	 5.39588692876532E-02 
361	 5.65044364676304E-02 
362	 5.61935376309623E-02 
363	 0.052045583839218 
364	 4.75601093146249E-02 
365	 5.13951477176751E-02 
366	 5.50888314379719E-02 
367	 5.40544890852609E-02 
368	 4.87151822184075E-02 
369	 5.38677440334098E-02 
370	 5.42871413908814E-02 
371	 5.05547524816019E-02 
372	 5.35554584997046E-02 
373	 0.055828943582434 
374	 5.51622045951543E-02 
375	 5.28388524798749E-02 
376	 5.50386478756492E-02 
377	 5.42400888293938E-02 
378	 0.053140489676864 
379	 5.57206144574402E-02 
380	 5.82782479966678E-02 
381	 5.78142115885402E-02 
382	 5.57134795010504E-02 
383	 5.64411100242261E-02 
384	 5.99069565026064E-02 
385	 5.92659414953489E-02 
386	 5.35420496351679E-02 
387	 5.44166532443583E-02 
388	 5.60299664656557E-02 
389	 5.64882897936094E-02 
390	 5.57143197807684E-02 
391	 5.65398848956789E-02 
392	 5.68475870046524E-02 
393	 5.69905588326949E-02 
394	 5.93176973443781E-02 
395	 6.10394949020937E-02 
396	 6.09108559100721E-02 
397	 5.96524368406961E-02 
398	 6.17582248189527E-02 
399	 6.15707064584267E-02 
400	 6.10778705844748E-02 
401	 6.35133194121061E-02 
402	 0.062415240099922 
403	 6.08330676346033E-02 
404	 6.05361685568112E-02 
405	 6.13205546956648E-02 
406	 6.24393821557975E-02 
407	 6.34743883257952E-02 
408	 6.39974116446306E-02 
409	 6.31068005387009E-02 
410	 6.25334415174281E-02 
411	 6.26207969918154E-02 
412	 6.29624322010771E-02 
413	 6.31374765182196E-02 
414	 6.33485343582634E-02 
415	 0.063740043452211 
416	 6.43381034326485E-02 
417	 6.34526448002894E-02 
418	 6.26314466568384E-02 
419	 6.33673988792925E-02 
420	 6.44471907615493E-02 
421	 6.41714988940494E-02 
422	 6.34098301872188E-02 
423	 6.43702239122665E-02 
424	 6.46214135397479E-02 
425	 6.44044991341552E-02 
426	 6.42169767490872E-02 
427	 0.064397475127444 
428	 6.41402584385966E-02 
429	 0.064120333172119 
430	 6.49617630891272E-02 
431	 6.45291020180878E-02 
432	 6.43912744244062E-02 
433	 6.48145966578489E-02 
434	 0.064696290189128 
435	 0.064675177271031 
436	 6.49183284100117E-02 
437	 6.52330693047377E-02 
438	 6.46269901167598E-02 
439	 6.45634040680544E-02 
440	 6.50185677181155E-02 
441	 6.52318999907142E-02 
442	 6.51219536325845E-02 
443	 6.51711953350617E-02 
444	 0.065512825146177 
445	 6.56884897111827E-02 
446	 6.56708913838361E-02 
447	 6.56884569771713E-02 
448	 6.59202997455755E-02 
449	 6.59499734391561E-02 
450	 6.61114442550991E-02 
451	 6.63018327285574E-02 
452	 6.60849191096843E-02 
453	 6.62321369530262E-02 
454	 6.63733580016375E-02 
455	 6.63081328471843E-02 
456	 6.67959364867769E-02 
457	 6.70891878267344E-02 
458	 0.067085307743067 
459	 6.70123319437914E-02 
460	 6.71459445615252E-02 
461	 6.72304965084603E-02 
462	 6.71857871759991E-02 
463	 6.72431949529933E-02 
464	 6.73882767587539E-02 
465	 6.75671529736775E-02 
466	 6.77079658482345E-02 
467	 6.77368185965915E-02 
468	 6.77778031833031E-02 
469	 6.79475529468869E-02 
470	 6.83084044438655E-02 
471	 6.82343171305074E-02 
472	 6.81963513888263E-02 
473	 6.84686220322304E-02 
474	 0.068410201997843 
475	 6.83444087881929E-02 
476	 6.83584408425271E-02 
477	 6.84452053288945E-02 
478	 6.86341056372364E-02 
479	 6.89103172006418E-02 
480	 0.06912864486239 
481	 0.068963423044998 
482	 6.90318804912457E-02 
483	 6.93067173645505E-02 
484	 6.95681887665557E-02 
485	 6.96447815878676E-02 
486	 6.97100370233118E-02 
487	 0.069748587912531 
488	 6.96101646225799E-02 
489	 6.97617615734464E-02 
490	 6.99249294667689E-02 
491	 6.98960280807654E-02 
492	 6.99886279719412E-02 
493	 7.00282766695088E-02 
494	 7.00662945520022E-02 
495	 7.02432446083563E-02 
496	 7.05798894812911E-02 
497	 7.06842878642607E-02 
498	 7.05344907587977E-02 
499	 7.06995978357712E-02 
500	 7.08981001622626E-02 
501	 7.09449678026592E-02 
502	 7.08038915037847E-02 
503	 7.09765896307959E-02 
504	 0.071103797790196 
505	 7.11167804365818E-02 
506	 7.12282554165761E-02 
507	 7.12698144631052E-02 
508	 7.12882076588566E-02 
509	 7.13414341041566E-02 
510	 7.14099144598507E-02 
511	 7.14686996710771E-02 
512	 7.15294346339191E-02 
513	 7.16131087411677E-02 
514	 7.16215865292162E-02 
515	 7.16570732565832E-02 
516	 7.17758725164803E-02 
517	 7.19311131299231E-02 
518	 7.20094939392769E-02 
519	 7.19704835306721E-02 
520	 7.18557676311385E-02 
521	 7.19361525558637E-02 
522	 7.20723572452773E-02 
523	 7.21725430423852E-02 
524	 7.22215728119489E-02 
525	 7.21266852971279E-02 
526	 7.21055752399632E-02 
527	 7.23018124098176E-02 
528	 7.24265911965984E-02 
529	 7.24749490858396E-02 
530	 7.24929820780481E-02 
531	 7.25562841888632E-02 
532	 7.26306414762516E-02 
533	 7.27412653500218E-02 
534	 7.28566211512756E-02 
535	 7.27922477223105E-02 
536	 7.28066563703899E-02 
537	 0.072903023304829 
538	 7.29858258612855E-02 
539	 7.30592986319027E-02 
540	 7.30507900048249E-02 
541	 7.30070157713696E-02 
542	 0.073136761057284 
543	 7.32458027692674E-02 
544	 7.32997176820695E-02 
545	 7.33339003777072E-02 
546	 7.34809164816681E-02 
547	 7.35831177135104E-02 
548	 7.36430667106723E-02 
549	 7.37966533386089E-02 
550	 7.39204697322799E-02 
551	 7.39421443207726E-02 
552	 7.38994174539451E-02 
553	 7.41002162401519E-02 
554	 7.42262498012173E-02 
555	 7.42610749223838E-02 
556	 0.074338767525021 
557	 7.43986646645537E-02 
558	 7.44798982919001E-02 
559	 7.46004328120994E-02 
560	 7.47312589516901E-02 
561	 7.47854732077721E-02 
562	 7.48778947058956E-02 
563	 7.51227728460577E-02 
564	 7.52176958429637E-02 
565	 7.52811004855914E-02 
566	 7.54268801502358E-02 
567	 7.57304449419617E-02 
568	 7.59925376960237E-02 
569	 7.61691838669326E-02 
570	 0.076279251988245 
571	 7.63931060735301E-02 
572	 7.65357435790317E-02 
573	 7.67139837139175E-02 
574	 7.69145442350347E-02 
575	 0.077067298785076 
576	 0.07721322931215 
577	 7.73708065038937E-02 
578	 7.74442654790963E-02 
579	 7.76771443071506E-02 
580	 7.80378556663952E-02 
581	 7.83877309612402E-02 
582	 0.078812280851917 
583	 7.91053280223379E-02 
584	 7.92338798039719E-02 
585	 7.94414854821513E-02 
586	 7.95717786115171E-02 
587	 7.96314113969066E-02 
588	 7.96884995445196E-02 
589	 7.98712623350144E-02 
590	 8.00330138389033E-02 
591	 8.01429290085549E-02 
592	 8.02823676880417E-02 
593	 8.03940917181921E-02 
594	 8.05250708803451E-02 
595	 8.07235334975891E-02 
596	 8.09937005446098E-02 
597	 8.13022834659849E-02 
598	 8.16369024066773E-02 
599	 8.19880782349209E-02 
600	 0.082259971036155 
601	 8.24569638989297E-02 
602	 0.082610377401375 
603	 8.27777770779362E-02 
604	 8.29004386012393E-02 
605	 8.30125954464653E-02 
606	 8.31680960151286E-02 
607	 8.33391900995377E-02 
608	 8.35027658206498E-02 
609	 8.36514326875605E-02 
610	 8.37960883874512E-02 
611	 8.39280817285087E-02 
612	 8.40965493043515E-02 
613	 8.43121412079809E-02 
614	 8.44194307787174E-02 
615	 0.084477210216804 
616	 8.45553743878916E-02 
617	 8.47154107814915E-02 
618	 8.48306910910862E-02 
619	 8.48924769067363E-02 
620	 8.49390497419447E-02 
621	 8.50781128216282E-02 
622	 8.51511151938673E-02 
623	 8.52042486351216E-02 
624	 8.53391479816429E-02 
625	 8.54249573712406E-02 
626	 8.55014887204934E-02 
627	 8.55831709954087E-02 
628	 8.56325188105518E-02 
629	 8.57058176816982E-02 
630	 8.57723669469525E-02 
631	 8.58076441452866E-02 
632	 8.59149422641366E-02 
633	 8.59710892003712E-02 
634	 8.59851338230551E-02 
635	 8.60707048268669E-02 
636	 8.61378504850303E-02 
637	 8.62068828607282E-02 
638	 8.62885588192902E-02 
639	 8.63224010597277E-02 
640	 8.63573534036861E-02 
641	 8.64283575385795E-02 
642	 8.65493343965154E-02 
643	 8.66375166802965E-02 
644	 8.66783575246014E-02 
645	 8.67017355659864E-02 
646	 8.67916662478359E-02 
647	 8.68187061264789E-02 
648	 0.086847708910604 
649	 8.69619664833469E-02 
650	 8.70745548936009E-02 
651	 8.71623070453324E-02 
652	 8.72297341926373E-02 
653	 8.73041249025455E-02 
654	 8.73890916863529E-02 
655	 8.74460595251581E-02 
656	 8.74739087733416E-02 
657	 8.75878640403718E-02 
658	 8.76924217568064E-02 
659	 8.77783198472096E-02 
660	 8.78693267824966E-02 
661	 8.79096595949961E-02 
662	 8.79662916400658E-02 
663	 8.80563996011714E-02 
664	 8.81074955943618E-02 
665	 8.82139072274945E-02 
666	 8.83309579173705E-02 
667	 8.83966631316763E-02 
668	 8.84431511535099E-02 
669	 8.85608526571148E-02 
670	 8.87080294750279E-02 
671	 8.87439113237752E-02 
672	 0.08880195095179 
673	 8.89099714984243E-02 
674	 8.90526382225054E-02 
675	 8.91664261129767E-02 
676	 8.92179642568211E-02 
677	 8.92669963013589E-02 
678	 0.089395707807631 
679	 8.95092243154078E-02 
680	 8.96098406516548E-02 
681	 8.97043305722278E-02 
682	 8.97940689472891E-02 
683	 8.99061788238651E-02 
684	 9.00165508367474E-02 
685	 0.090100683007876 
686	 9.01823096433814E-02 
687	 9.02776921481479E-02 
688	 9.03807992064585E-02 
689	 9.04740733356971E-02 
690	 9.06185620891471E-02 
691	 9.07196628034076E-02 
692	 9.07563737921775E-02 
693	 9.09036932102688E-02 
694	 9.10080725956876E-02 
695	 9.10805332632182E-02 
696	 9.11878300514994E-02 
697	 9.13620861265018E-02 
698	 9.14767044176659E-02 
699	 9.15347966963373E-02 
700	 9.16793110430571E-02 
701	 9.17962299555591E-02 
702	 9.18835295401962E-02 
703	 9.19559568013078E-02 
704	 0.091997025332148 
705	 9.20998479379703E-02 
706	 9.22303947006579E-02 
707	 9.23045509775215E-02 
708	 9.24429176400537E-02 
709	 9.25678210735444E-02 
710	 9.26501264856268E-02 
711	 9.27606061014105E-02 
712	 9.28512642342339E-02 
713	 9.29315206625631E-02 
714	 9.30198726644919E-02 
715	 9.31069149200196E-02 
716	 9.31929543694819E-02 
717	 0.093278712203694 
718	 9.33631104621045E-02 
719	 9.34230438573347E-02 
720	 9.34706058244857E-02 
721	 9.35183416330095E-02 
722	 0.093565332571722 
723	 9.36597894374908E-02 
724	 9.37649073654556E-02 
725	 0.093830629710396 
726	 9.39094988112087E-02 
727	 0.093957576621292 
728	 0.093985760267253 
729	 0.094055769849289 
730	 9.41375049815084E-02 
731	 9.41913919133964E-02 
732	 9.42051668049598E-02 
733	 9.42323952958956E-02 
734	 9.42660814153406E-02 
735	 9.42924853465596E-02 
736	 9.43028866695915E-02 
737	 9.43487009174649E-02 
738	 9.43802841184738E-02 
739	 9.43937495018975E-02 
740	 9.44405400956163E-02 
741	 9.44554971148064E-02 
742	 9.44466793005418E-02 
743	 9.44416668964115E-02 
744	 9.44825860125532E-02 
745	 9.44700482820428E-02 
746	 9.44419738255031E-02 
747	 9.44771844041277E-02 
748	 9.44290847329766E-02 
749	 9.43974523997101E-02 
750	 9.44182494717684E-02 
751	 9.44247729736847E-02 
752	 9.44050044140796E-02 
753	 9.43802051263448E-02 
754	 9.43668892153344E-02 
755	 9.43384861170279E-02 
756	 9.43075628067462E-02 
757	 9.42804398409402E-02 
758	 9.42580801959624E-02 
759	 0.094229619723857 
760	 9.41813304334556E-02 
761	 9.41275053043885E-02 
762	 0.094115505649026 
763	 9.41200041636261E-02 
764	 9.40940091343873E-02 
765	 9.40224586172473E-02 
766	 9.39988663234385E-02 
767	 9.39519018376117E-02 
768	 9.38912928406301E-02 
769	 9.38606313349094E-02 
770	 9.38310479324412E-02 
771	 0.093787880138733 
772	 9.37320946327793E-02 
773	 9.36813098108162E-02 
774	 9.36179088957005E-02 
775	 9.35676523660077E-02 
776	 0.093543150503843 
777	 9.35005349100503E-02 
778	 9.34154028015345E-02 
779	 9.33412372061787E-02 
780	 9.33445687779011E-02 
781	 0.093327642600968 
782	 9.32720823197216E-02 
783	 9.31912480704462E-02 
784	 9.31249132367615E-02 
785	 9.30890671219836E-02 
786	 9.30295860024831E-02 
787	 0.092927743586393 
788	 9.28811669508964E-02 
789	 9.28538427111208E-02 
790	 9.28202245023129E-02 
791	 9.27581212557837E-02 
792	 9.26480855421862E-02 
793	 9.25878173518512E-02 
794	 9.25866158293609E-02 
795	 9.25713214095756E-02 
796	 9.25213653139882E-02 
797	 9.24476137767608E-02 
798	 0.092374690264298 
799	 9.23402229926719E-02 
800	 9.22781912825671E-02 
801	 9.22091775548414E-02 
802	 9.21703138962907E-02 
803	 9.21538585757775E-02 
804	 9.21234656344804E-02 
805	 9.20738083851106E-02 
806	 0.092022567840265 
807	 9.19924412164389E-02 
808	 9.19199417673021E-02 
809	 9.18183234427968E-02 
810	 9.18069914647734E-02 
811	 9.17901326234311E-02 
812	 9.17425842071906E-02 
813	 9.16729781925784E-02 
814	 9.16325544236273E-02 
815	 9.16084132438231E-02 
816	 9.15784357062241E-02 
817	 9.15287676436278E-02 
818	 9.15204455070068E-02 
819	 0.091484451814287 
820	 0.091404255022491 
821	 9.13204161818981E-02 
822	 9.13078774041851E-02 
823	 9.13095578031855E-02 
824	 9.12763446359314E-02 
825	 9.12079289715704E-02 
826	 9.11843835881264E-02 
827	 9.11603005695456E-02 
828	 9.10986451312573E-02 
829	 9.11155333329833E-02 
830	 9.10663627033704E-02 
831	 9.09930330818919E-02 
832	 9.10045559418188E-02 
833	 9.10063340224759E-02 
834	 9.09846235410145E-02 
835	 9.09379134936362E-02 
836	 9.08770885314056E-02 
837	 9.08741055766585E-02 
838	 9.08951783578836E-02 
839	 9.08916360195891E-02 
840	 0.090822514708167 
841	 0.090788084608292 
842	 9.07873918893602E-02 
843	 9.07904248553282E-02 
844	 9.07775471342372E-02 
845	 9.07626537160212E-02 
846	 9.07442705719157E-02 
847	 9.07158234729458E-02 
848	 9.06833605930053E-02 
849	 9.06523063091402E-02 
850	 9.06323184405535E-02 
851	 9.06317922279043E-02 
852	 9.06081004117774E-02 
853	 9.06073479645283E-02 
854	 9.06287177498616E-02 
855	 9.05889236200414E-02 
856	 9.05945838318138E-02 
857	 9.06243900305677E-02 
858	 9.06333316853504E-02 
859	 9.05941506287142E-02 
860	 9.05721359721944E-02 
861	 9.05826062728004E-02 
862	 9.06073135900771E-02 
863	 9.05779167462218E-02 
864	 9.05678183341859E-02 
865	 9.05850857413604E-02 
866	 9.05935667687563E-02 
867	 9.05799671467696E-02 
868	 0.090564869268544 
869	 9.05730429375405E-02 
870	 9.06231347823023E-02 
871	 9.06576976010064E-02 
872	 9.06840261085828E-02 
873	 9.07073524591003E-02 
874	 9.07115286553494E-02 
875	 9.06893692637335E-02 
876	 9.06788572787354E-02 
877	 9.07054201651043E-02 
878	 9.07348551174214E-02 
879	 9.07506529058502E-02 
880	 9.07679173397291E-02 
881	 9.08040027188369E-02 
882	 9.08280492926782E-02 
883	 0.090876666696058 
884	 9.09204319373234E-02 
885	 9.09110815601344E-02 
886	 9.09268949325471E-02 
887	 9.09496600463169E-02 
888	 9.09698204256388E-02 
889	 9.09933145193156E-02 
890	 9.10445241048646E-02 
891	 9.10955926796244E-02 
892	 9.11300004592548E-02 
893	 9.11544808541266E-02 
894	 0.091155874976521 
895	 9.11708906671277E-02 
896	 9.12318180854933E-02 
897	 9.13464356576079E-02 
898	 9.13836305611768E-02 
899	 0.091388907463797 
900	 0.091424814243435 
901	 0.091461625256985 
902	 9.14925164016565E-02 
903	 9.15114867120176E-02 
904	 9.15305545290311E-02 
905	 9.16239320656928E-02 
906	 9.16818255154691E-02 
907	 9.17064268404762E-02 
908	 9.17534290621698E-02 
909	 0.091834370185473 
910	 9.18848182802452E-02 
911	 9.19312500248757E-02 
912	 9.20376586805778E-02 
913	 9.20670493869846E-02 
914	 9.21181513479544E-02 
915	 9.21948973698565E-02 
916	 9.22129988950091E-02 
917	 9.22618296702988E-02 
918	 9.22875076379117E-02 
919	 9.23159644546053E-02 
920	 9.24617085288397E-02 
921	 9.24861966132857E-02 
922	 9.25481192999998E-02 
923	 9.27026420634669E-02 
924	 9.27616677920651E-02 
925	 9.27444158596758E-02 
926	 0.092772900228284 
927	 9.28718605312113E-02 
928	 9.28487535389337E-02 
929	 9.29591754260629E-02 
930	 9.31006538773596E-02 
931	 9.31608670333343E-02 
932	 9.32215973260904E-02 
933	 0.093338953707292 
934	 9.34396564631397E-02 
935	 9.34619430693873E-02 
936	 9.34926248948984E-02 
937	 9.35562250082355E-02 
938	 9.36673780381852E-02 
939	 0.09380825751044 
940	 9.38878370519159E-02 
941	 9.39499715825988E-02 
942	 9.40533911810098E-02 
943	 9.42063289664439E-02 
944	 9.42075544777355E-02 
945	 9.42371979215807E-02 
946	 9.43255109689221E-02 
947	 9.44128892852894E-02 
948	 9.43957813171243E-02 
949	 9.45129984918451E-02 
950	 9.46679825594748E-02 
951	 9.46553997117805E-02 
952	 9.46786031188463E-02 
953	 9.47496705126145E-02 
954	 9.48478360280773E-02 
955	 9.49524571851186E-02 
956	 9.51542604893254E-02 
957	 9.52721632338254E-02 
958	 9.52904956871631E-02 
959	 0.0953107027986 
960	 9.53775096876778E-02 
961	 0.095524853537302 
962	 9.56912154396998E-02 
963	 0.095776124553914 
964	 9.58246623406826E-02 
965	 9.58975125318459E-02 
966	 9.59781717548541E-02 
967	 9.60191864075634E-02 
968	 0.096126782919025 
969	 9.62681448846541E-02 
970	 9.63531335540962E-02 
971	 9.63245408277624E-02 
972	 9.64907841623818E-02 
973	 9.66087468694672E-02 
974	 9.66300870577287E-02 
975	 9.66700677760553E-02 
976	 9.67701200986557E-02 
977	 9.69598602122911E-02 
978	 9.70990813970887E-02 
979	 9.70295023728992E-02 
980	 9.70906261894563E-02 
981	 9.71983943288438E-02 
982	 9.73099448357549E-02 
983	 9.74238614263062E-02 
984	 9.75272456816102E-02 
985	 9.76602290374092E-02 
986	 9.76830417924649E-02 
987	 9.74915285939539E-02 
988	 9.76282615874935E-02 
989	 9.78398563487873E-02 
990	 9.79166249506021E-02 
991	 9.78168119004411E-02 
992	 9.79759379290709E-02 
993	 9.81322600450697E-02 
994	 9.82381465046116E-02 
995	 9.83383402373121E-02 
996	 9.83703950052572E-02 
997	 9.83791246039943E-02 
998	 9.83800821651808E-02 
999	 9.84200907116778E-02 
1000	 9.87078351361994E-02 
1001	 9.79449182931624E-02 
1002	 9.80153435514878E-02 
1003	 9.81227410669629E-02 
1004	 9.82362335516442E-02 
1005	 9.83840344109583E-02 
1006	 9.84559565112641E-02 
1007	 9.85214656019631E-02 
1008	 9.85332587012521E-02 
1009	 9.85370120747871E-02 
1010	 9.84867306274831E-02 
1011	 9.84863022157899E-02 
1012	 9.85299156415944E-02 
1013	 9.85242524009766E-02 
1014	 9.85695022172879E-02 
1015	 9.86035332832351E-02 
1016	 9.86147143285788E-02 
1017	 9.86801336489471E-02 
1018	 0.098823778193908 
1019	 9.88472145712234E-02 
1020	 9.88464990700371E-02 
1021	 9.89534213107591E-02 
1022	 0.098918752683175 
1023	 9.88690766309429E-02 
1024	 9.88668688817955E-02 
1025	 9.88036035672102E-02 
1026	 9.88345716267748E-02 
1027	 0.098910909456434 
1028	 9.89528953238877E-02 
1029	 9.89953524135247E-02 
1030	 9.90109076135147E-02 
1031	 9.90033118930125E-02 
1032	 9.89441506836628E-02 
1033	 0.098920174775278 
1034	 9.89578381371554E-02 
1035	 9.89740417897373E-02 
1036	 9.90181967839835E-02 
1037	 9.90636095723035E-02 
1038	 9.90111668178551E-02 
1039	 9.89774068740752E-02 
1040	 0.098977527436393 
1041	 9.89720654806799E-02 
1042	 9.90390902263838E-02 
1043	 9.90907310291362E-02 
1044	 9.90958611167827E-02 
1045	 9.90571893384292E-02 
1046	 9.90546015742593E-02 
1047	 9.90628198092582E-02 
1048	 9.90742020660553E-02 
1049	 9.91745720646813E-02 
1050	 9.92611464840592E-02 
1051	 0.099260717721818 
1052	 9.92744840922219E-02 
1053	 9.92997923077237E-02 
1054	 9.92859966214148E-02 
1055	 9.92511148166659E-02 
1056	 9.92564728855828E-02 
1057	 9.92896807476742E-02 
1058	 9.93243351690886E-02 
1059	 9.93791631797367E-02 
1060	 9.94917238434821E-02 
1061	 9.95726846787562E-02 
1062	 9.96549526863187E-02 
1063	 9.97275082556418E-02 
1064	 9.97569318951179E-02 
1065	 9.98206199953047E-02 
1066	 9.98701276464639E-02 
1067	 0.099905251347012 
1068	 9.99966508053517E-02 
1069	 0.100083461515485 
1070	 0.100146649307012 
1071	 0.100192062537579 
1072	 0.100240924720759 
1073	 0.100264445862037 
1074	 0.100315042140298 
1075	 0.100386204424763 
1076	 0.100437170595386 
1077	 0.100470519595907 
1078	 0.100509814897774 
1079	 0.100576943334319 
1080	 0.100666675202639 
1081	 0.100741290152248 
1082	 0.100819750141277 
1083	 0.100885476633485 
1084	 0.10091320888048 
1085	 0.100946228627192 
1086	 0.10099284324685 
1087	 0.101025717809326 
1088	 0.101023881891742 
1089	 0.10106349797626 
1090	 0.101119948864172 
1091	 0.101173555409623 
1092	 0.101233738881448 
1093	 0.101268037059744 
1094	 0.10129380555582 
1095	 0.101305528680599 
1096	 0.10130787130446 
1097	 0.101311226544972 
1098	 0.101332089746049 
1099	 0.101375010716297 
1100	 0.101387388088283 
1101	 0.101375928273716 
1102	 0.101406579718752 
1103	 0.10145024806312 
1104	 0.101469612069278 
1105	 0.101511261527399 
1106	 0.101559273601578 
1107	 0.101534216184285 
1108	 0.10149528211566 
1109	 0.101482670152274 
1110	 0.101468697753136 
1111	 0.101455419345536 
1112	 0.101447572604543 
1113	 0.101442926497297 
1114	 0.101435298895544 
1115	 0.101426293896993 
1116	 0.101435298448067 
1117	 0.101418007380247 
1118	 0.101372592327081 
1119	 0.101352115001487 
1120	 0.101342142659154 
1121	 0.101326286298155 
1122	 0.101314309015845 
1123	 0.101320465368605 
1124	 0.101321709232971 
1125	 0.1013220762277 
1126	 0.101307911888552 
1127	 0.101290065973573 
1128	 0.101274043084273 
1129	 0.101232297201643 
1130	 0.101224568006442 
1131	 0.101260058754533 
1132	 0.101261787626227 
1133	 0.101243865248257 
1134	 0.10124061992974 
1135	 0.10123059603771 
1136	 0.101223862861165 
1137	 0.101223105779851 
1138	 0.10124155313741 
1139	 0.101238382701385 
1140	 0.101214245110417 
1141	 0.101203240270536 
1142	 0.101198175022799 
1143	 0.10118610458547 
1144	 0.101166000172179 
1145	 0.101160469889312 
1146	 0.101168267900855 
1147	 0.101157353351984 
1148	 0.101146016567058 
1149	 0.101132266154723 
1150	 0.101096134402104 
1151	 0.101073186105535 
1152	 0.101077077461969 
1153	 0.101071073752856 
1154	 0.101061546714492 
1155	 0.101046260732155 
1156	 0.101054145114409 
1157	 0.101073299294236 
1158	 0.101076543235047 
1159	 0.101100811738913 
1160	 0.101097650907075 
1161	 0.101049827565143 
1162	 0.101037697328549 
1163	 0.101041599182043 
1164	 0.101038255872699 
1165	 0.101038560919973 
1166	 0.101046288860973 
1167	 0.101040610030112 
1168	 0.101060438809577 
1169	 0.101071762545757 
1170	 0.101091942140512 
1171	 0.101104957324064 
1172	 0.101114589498727 
1173	 0.101119459664109 
1174	 0.101119966049506 
1175	 0.101130401941154 
1176	 0.101143238969124 
1177	 0.101154209154107 
1178	 0.101171354276555 
1179	 0.101183567529524 
1180	 0.10118014410634 
1181	 0.101192025977918 
1182	 0.101213229459932 
1183	 0.101242618808889 
1184	 0.101257630323767 
1185	 0.101273217048478 
1186	 0.101290359802388 
1187	 0.101301627570273 
1188	 0.101310254099822 
1189	 0.101315102914435 
1190	 0.1013345708439 
1191	 0.101352340008064 
1192	 0.101374394632451 
1193	 0.101420989986048 
1194	 0.101449797210723 
1195	 0.101455508228242 
1196	 0.101480296320885 
1197	 0.101524818788191 
1198	 0.101550357167112 
1199	 0.101571466979878 
1200	 0.101596968481474 
1201	 0.10161211102124 
1202	 0.101600817062446 
1203	 0.101620715127653 
1204	 0.101652863696255 
1205	 0.101685986883502 
1206	 0.101738393723182 
1207	 0.1017715430839 
1208	 0.101796353979593 
1209	 0.101825791471838 
1210	 0.101848323860481 
1211	 0.101874065142798 
1212	 0.101910682971485 
1213	 0.101936559178721 
1214	 0.101939888039085 
1215	 0.101966448103635 
1216	 0.102001320508228 
1217	 0.102045930050902 
1218	 0.102076513254287 
1219	 0.102122639117493 
1220	 0.102146656811473 
1221	 0.102140641654135 
1222	 0.102159190537844 
1223	 0.102190750912807 
1224	 0.102208916887496 
1225	 0.102215290027807 
1226	 0.102242868218514 
1227	 0.102284988072665 
1228	 0.102309347979624 
1229	 0.102339954781531 
1230	 0.10236887548384 
1231	 0.102378686470683 
1232	 0.102392396171964 
1233	 0.102409325111919 
1234	 0.102439637140815 
1235	 0.102458182284781 
1236	 0.102464886293938 
1237	 0.102485912041774 
1238	 0.102515092803627 
1239	 0.102538339449754 
1240	 0.102575323049337 
1241	 0.102586154571266 
1242	 0.102565152870117 
1243	 0.102576967111919 
1244	 0.102589626162867 
1245	 0.102606561310765 
1246	 0.102662216459873 
1247	 0.102688868331689 
1248	 0.102696256196692 
1249	 0.102699944153968 
1250	 0.102700537283904 
1251	 0.102701002149073 
1252	 0.102713953590737 
1253	 0.102739393269156 
1254	 0.102751198000117 
1255	 0.102762916549938 
1256	 0.102776220024809 
1257	 0.102784227881949 
1258	 0.102792629583334 
1259	 0.102811015506577 
1260	 0.102816501479203 
1261	 0.102807494581102 
1262	 0.102806568736192 
1263	 0.102805576736601 
1264	 0.102804599529876 
1265	 0.102800549078412 
1266	 0.102801717398183 
1267	 0.102808238102453 
1268	 0.102809251124608 
1269	 0.10281885782644 
1270	 0.102845466471143 
1271	 0.102845581891393 
1272	 0.102826489406287 
1273	 0.102834441519006 
1274	 0.102837246522614 
1275	 0.102852417532828 
1276	 0.102891961222163 
1277	 0.102925439498524 
1278	 0.10295588260332 
1279	 0.102990121118061 
1280	 0.103030019199017 
1281	 0.103075547090836 
1282	 0.103121465068677 
1283	 0.103171108855486 
1284	 0.103226465568996 
1285	 0.103291379193046 
1286	 0.10335183422572 
1287	 0.1034080273982 
1288	 0.103473598395943 
1289	 0.103542613346692 
1290	 0.103615434989714 
1291	 0.103694897601366 
1292	 0.10377512218208 
1293	 0.103854396923079 
1294	 0.103945749887527 
1295	 0.104048965983472 
1296	 0.104142947906204 
1297	 0.104243992947251 
1298	 0.104338051607917 
1299	 0.10443020127605 
1300	 0.104511578255396 
1301	 0.104578127106602 
1302	 0.104654941750558 
1303	 0.104727813000334 
1304	 0.104799828086255 
1305	 0.104883655543205 
1306	 0.104979588381565 
1307	 0.105043374633934 
1308	 0.105091036553401 
1309	 0.105150402337969 
1310	 0.105200572766303 
1311	 0.105256828371014 
1312	 0.105328323082609 
1313	 0.105377522316094 
1314	 0.105414193538318 
1315	 0.105449776926251 
1316	 0.10547118931982 
1317	 0.105503481217179 
1318	 0.105548018709712 
1319	 0.105572081279021 
1320	 0.105597716562949 
1321	 0.10560865556472 
1322	 0.105604722134194 
1323	 0.105576283412387 
1324	 0.105581450893147 
1325	 0.105598420792687 
1326	 0.105609310338758 
1327	 0.105633807232889 
1328	 0.105620938261002 
1329	 0.105584140732354 
1330	 0.105568465769357 
1331	 0.10555408485002 
1332	 0.105532643820016 
1333	 0.105517282841078 
1334	 0.105495166638028 
1335	 0.105459523720863 
1336	 0.105434198755806 
1337	 0.105419607804328 
1338	 0.105395296119184 
1339	 0.105365567109336 
1340	 0.105333302679431 
1341	 0.105300701089977 
1342	 0.105262503391888 
1343	 0.1052095933348 
1344	 0.105175397581094 
1345	 0.105157916098381 
1346	 0.105121368888785 
1347	 0.105077317739927 
1348	 0.105037244106842 
1349	 0.104971837835029 
1350	 0.104892590129831 
1351	 0.104830159209368 
1352	 0.104780202967355 
1353	 0.104714554833124 
1354	 0.104650489635701 
1355	 0.10457726030454 
1356	 0.104480312643085 
1357	 0.104411643401694 
1358	 0.104351558831624 
1359	 0.104289697304536 
1360	 0.104229864586756 
1361	 0.104191613056512 
1362	 0.104154221483733 
1363	 0.104138703296081 
1364	 0.10416201977867 
1365	 0.104170626848609 
1366	 0.104185416082341 
1367	 0.104187419459902 
1368	 0.10419603205219 
1369	 0.104228257353462 
1370	 0.104240036220185 
1371	 0.104243551600714 
1372	 0.104252281604944 
1373	 0.104235349632144 
1374	 0.104215606998561 
1375	 0.104199106355106 
1376	 0.10416356968466 
1377	 0.104118060958466 
1378	 0.104044054965394 
1379	 0.103934854155005 
1380	 0.10385914323264 
1381	 0.103752215101198 
1382	 0.103693313275628 
1383	 0.103679950167184 
1384	 0.103659922144218 
1385	 0.103668503007334 
1386	 0.103657524172151 
1387	 0.103647638857273 
1388	 0.103628933421728 
1389	 0.10360021470618 
1390	 0.103560976233928 
1391	 0.10352790485531 
1392	 0.103488937612329 
1393	 0.103433568795567 
1394	 0.103383085916831 
1395	 0.103335981065906 
1396	 0.103289754157156 
1397	 0.103250048137633 
1398	 0.103220583977411 
1399	 0.103191745452138 
1400	 0.103165752630196 
1401	 0.103134629069825 
1402	 0.103107350412366 
1403	 0.10307837030493 
1404	 0.103035184698926 
1405	 0.103014459542746 
1406	 0.103013152616655 
1407	 0.102996445398549 
1408	 0.10298783152662 
1409	 0.102969533493237 
1410	 0.102927360679664 
1411	 0.102910309465825 
1412	 0.102903090909725 
1413	 0.102889651167908 
1414	 0.102917083721193 
1415	 0.102947713053147 
1416	 0.102965807447878 
1417	 0.102994412830282 
1418	 0.102999989283488 
1419	 0.102997048247812 
1420	 0.103019961833961 
1421	 0.103046988776008 
1422	 0.103083938023783 
1423	 0.10311482123025 
1424	 0.103130511661763 
1425	 0.103128098289911 
1426	 0.103143319369427 
1427	 0.103152789905761 
1428	 0.10316859698755 
1429	 0.103190598789258 
1430	 0.10321631402888 
1431	 0.103253781899196 
1432	 0.103276166697048 
1433	 0.103299237761046 
1434	 0.103318842738851 
1435	 0.103310561418775 
1436	 0.103330206395336 
1437	 0.103372112441383 
1438	 0.103404783290571 
1439	 0.103447119553965 
1440	 0.103486610661561 
1441	 0.103497673314871 
1442	 0.103507322717394 
1443	 0.103536405356825 
1444	 0.103560451451271 
1445	 0.103596566839832 
1446	 0.103644820406623 
1447	 0.103666275977573 
1448	 0.103677489084029 
1449	 0.103687647425664 
1450	 0.103696747138989 
1451	 0.103716945347794 
1452	 0.103741403077126 
1453	 0.103769983261577 
1454	 0.103811592486453 
1455	 0.103841340827056 
1456	 0.10386941567883 
1457	 0.103894572870159 
1458	 0.10391272741431 
1459	 0.103936648885065 
1460	 0.103965136785764 
1461	 0.103986980279872 
1462	 0.104012443933985 
1463	 0.10402629715379 
1464	 0.10402604414295 
1465	 0.104030788648048 
1466	 0.10402784636535 
1467	 0.104033844145277 
1468	 0.104037475225351 
1469	 0.104056399620824 
1470	 0.104093954420427 
1471	 0.104121227177264 
1472	 0.104151796169184 
1473	 0.104185587534734 
1474	 0.104188458183222 
1475	 0.104203244538164 
1476	 0.104219858737327 
1477	 0.104223801760011 
1478	 0.104258183050679 
1479	 0.104291976078321 
1480	 0.10430948862846 
1481	 0.104341402900067 
1482	 0.104369400958893 
1483	 0.104390406481667 
1484	 0.104411100787154 
1485	 0.10443285017232 
1486	 0.104462837272987 
1487	 0.104487264176252 
1488	 0.104516020566252 
1489	 0.104565626590259 
1490	 0.104596975808046 
1491	 0.10461603652444 
1492	 0.104640228942368 
1493	 0.104661404578452 
1494	 0.104683046697132 
1495	 0.104697173098098 
1496	 0.104726229107608 
1497	 0.104766882405653 
1498	 0.104801018680067 
1499	 0.104850185205314 
1500	 0.104877212206323 
1501	 0.10488530764131 
1502	 0.10490170325286 
1503	 0.104908972454376 
1504	 0.104921387212831 
1505	 0.104949858363017 
1506	 0.104968794966843 
1507	 0.104984171837578 
1508	 0.10501098913782 
1509	 0.105032391964152 
1510	 0.105046112795265 
1511	 0.105059078569342 
1512	 0.105063584533175 
1513	 0.105064074941029 
1514	 0.105062988049443 
1515	 0.105077910294621 
1516	 0.105101943083746 
1517	 0.105119839648219 
1518	 0.105147989761494 
1519	 0.10516767486251 
1520	 0.105172842626323 
1521	 0.105194935800337 
1522	 0.105230690996473 
1523	 0.105254189691892 
1524	 0.10527671224192 
1525	 0.105297614441248 
1526	 0.105319003598034 
1527	 0.105328090537095 
1528	 0.105330136321356 
1529	 0.105336753207583 
1530	 0.105330908619115 
1531	 0.105330880552249 
1532	 0.105332733504147 
1533	 0.105344826782784 
1534	 0.105362858956773 
1535	 0.105381933389029 
1536	 0.105417043531315 
1537	 0.105439619560348 
1538	 0.105455863707618 
1539	 0.105467582044312 
1540	 0.105463803144348 
1541	 0.105477773800347 
1542	 0.105497318101333 
1543	 0.105517608073666 
1544	 0.105560499943176 
1545	 0.105583165437631 
1546	 0.105592551342212 
1547	 0.105598676687027 
1548	 0.105608095908537 
1549	 0.105622728638587 
1550	 0.105649098818805 
1551	 0.105679190545485 
1552	 0.105700480045474 
1553	 0.105713498352409 
1554	 0.105720528965799 
1555	 0.105724905991404 
1556	 0.105724411134914 
1557	 0.105727944766345 
1558	 0.105743115098442 
1559	 0.105757971599293 
1560	 0.105765690496366 
1561	 0.105773531687793 
1562	 0.105782303354752 
1563	 0.105783867728858 
1564	 0.105789974543714 
1565	 0.105802018626566 
1566	 0.10581424274751 
1567	 0.105824959355096 
1568	 0.10583429772839 
1569	 0.10585267518051 
1570	 0.105854064094524 
1571	 0.105841415488755 
1572	 0.105836281554964 
1573	 0.105818168113494 
1574	 0.105823277041043 
1575	 0.105848239857481 
1576	 0.105859595802028 
1577	 0.105882173333691 
1578	 0.105888449983749 
1579	 0.1058696239582 
1580	 0.105872528948667 
1581	 0.10588871359763 
1582	 0.105889125350276 
1583	 0.105884469507046 
1584	 0.105891303444008 
1585	 0.105895175312517 
1586	 0.10589767488808 
1587	 0.10592153095392 
1588	 0.105923191168395 
1589	 0.105891599464944 
1590	 0.105887224407314 
1591	 0.10589363772152 
1592	 0.105895177924437 
1593	 0.105913709161837 
1594	 0.10591788811719 
1595	 0.105906916211717 
1596	 0.105899697476117 
1597	 0.105887596799885 
1598	 0.105880874733552 
1599	 0.105875831423334 
1600	 0.105873229477857 
1601	 0.1058705583509 
1602	 0.105876508673703 
1603	 0.105899721977536 
1604	 0.105904603887018 
1605	 0.105903039456392 
1606	 0.105902611499093 
1607	 0.105886276412646 
1608	 0.10587598343258 
1609	 0.10587969446213 
1610	 0.105891357255625 
1611	 0.105896126414242 
1612	 0.105902557859469 
1613	 0.105915082325642 
1614	 0.105923229826168 
1615	 0.105933314595732 
1616	 0.105934165283997 
1617	 0.105922765297368 
1618	 0.105922934629854 
1619	 0.105931808490481 
1620	 0.105930150949035 
1621	 0.10592712767886 
1622	 0.105923233955937 
1623	 0.105920101357684 
1624	 0.105910667747968 
1625	 0.105911319211928 
1626	 0.105925817791643 
1627	 0.10591142675007 
1628	 0.105880128786174 
1629	 0.105872540583014 
1630	 0.105857824971288 
1631	 0.105854339906134 
1632	 0.105879206190256 
1633	 0.105873908588949 
1634	 0.105844460148574 
1635	 0.105844159109928 
1636	 0.105854659622769 
1637	 0.105852130921481 
1638	 0.105858103815 
1639	 0.105856750188991 
1640	 0.105837381172269 
1641	 0.10583371400039 
1642	 0.105844719432416 
1643	 0.105840805406003 
1644	 0.105829668710687 
1645	 0.105825735732233 
1646	 0.105819826583761 
1647	 0.105815562000367 
1648	 0.105813746369129 
1649	 0.105816931719597 
1650	 0.105827657081628 
1651	 0.105822318017793 
1652	 0.105808724482639 
1653	 0.105810034224001 
1654	 0.105808012149987 
1655	 0.105805646431268 
1656	 0.10582700472979 
1657	 0.10581775537901 
1658	 0.105773608893022 
1659	 0.105762355569153 
1660	 0.1057572130792 
1661	 0.105753473426362 
1662	 0.105769746619362 
1663	 0.105769261470155 
1664	 0.105760149241038 
1665	 0.105749623613796 
1666	 0.105732917781453 
1667	 0.105721575815762 
1668	 0.10570542979238 
1669	 0.105697455471686 
1670	 0.105698497609648 
1671	 0.105694886133791 
1672	 0.105693032790483 
1673	 0.105689215445569 
1674	 0.105680970263904 
1675	 0.105679397308654 
1676	 0.105682753158495 
1677	 0.105681261196184 
1678	 0.105691553653232 
1679	 0.105675474728939 
1680	 0.105638123218587 
1681	 0.105612206632263 
1682	 0.105565187953029 
1683	 0.105548682263526 
1684	 0.10555754610397 
1685	 0.105553933469938 
1686	 0.105553702734597 
1687	 0.105561048708201 
1688	 0.105576806289024 
1689	 0.105574623870172 
1690	 0.105573023804568 
1691	 0.105568488528628 
1692	 0.10554180685395 
1693	 0.105533109588375 
1694	 0.10554308223357 
1695	 0.105535779600593 
1696	 0.105524817653138 
1697	 0.105508710604822 
1698	 0.105483437980031 
1699	 0.105461734361404 
1700	 0.105431102074576 
1701	 0.105414061305064 
1702	 0.105403750303163 
1703	 0.10539582187081 
1704	 0.105395982227703 
1705	 0.105396272501279 
1706	 0.105402268130163 
1707	 0.10539806205585 
1708	 0.10539416691443 
1709	 0.10538474111314 
1710	 0.105357124729487 
1711	 0.105353328414011 
1712	 0.105363029958553 
1713	 0.105365408049568 
1714	 0.105383628067751 
1715	 0.105380550595614 
1716	 0.105346122083941 
1717	 0.105349656080981 
1718	 0.105377444573871 
1719	 0.105372248543839 
1720	 0.105383636173469 
1721	 0.105362434947199 
1722	 0.105293832488443 
1723	 0.105250825121985 
1724	 0.10519812691754 
1725	 0.105174676193511 
1726	 0.105171686315013 
1727	 0.105156651667156 
1728	 0.105159035103402 
1729	 0.105143455502187 
1730	 0.1051053413277 
1731	 0.105088363495698 
1732	 0.105084970263252 
1733	 0.105070960289552 
1734	 0.105055045286341 
1735	 0.10504346032327 
1736	 0.105036750893603 
1737	 0.105007252050048 
1738	 0.104972735113284 
1739	 0.104937127263889 
1740	 0.104873404254606 
1741	 0.104842884921717 
1742	 0.104829043386833 
1743	 0.104818375276914 
1744	 0.104824812741437 
1745	 0.104815352521622 
1746	 0.104816204203246 
1747	 0.104780105048802 
1748	 0.104729099632667 
1749	 0.104676624440913 
1750	 0.10462170038415 
1751	 0.104579491048029 
1752	 0.104557843932167 
1753	 0.104545978419941 
1754	 0.104522217457836 
1755	 0.1045201108494 
1756	 0.104497579568442 
1757	 0.104464938647056 
1758	 0.104461665245951 
1759	 0.104421823509799 
1760	 0.104398282953733 
1761	 0.104396969774713 
1762	 0.104353172356536 
1763	 0.104339088019528 
1764	 0.104345279513399 
1765	 0.104321257115559 
1766	 0.104329100422764 
1767	 0.104332786965263 
1768	 0.10428970115971 
1769	 0.104262849477322 
1770	 0.104255112493311 
1771	 0.104251591447954 
1772	 0.104255704484943 
1773	 0.104239373407728 
1774	 0.104204940689899 
1775	 0.104175731869355 
1776	 0.104149549207142 
1777	 0.104136497488471 
1778	 0.104125203097658 
1779	 0.104111492029412 
1780	 0.104093668337976 
1781	 0.104063499563712 
1782	 0.104051995806059 
1783	 0.104034353307151 
1784	 0.104009453946701 
1785	 0.103989202901712 
1786	 0.103971066513189 
1787	 0.103947435645779 
1788	 0.103920591504504 
1789	 0.103884774016178 
1790	 0.103874058143056 
1791	 0.103874214679414 
1792	 0.103873275548453 
1793	 0.103906543354734 
1794	 0.103907679297882 
1795	 0.103870674851201 
1796	 0.103859254097311 
1797	 0.103869290546586 
1798	 0.103854279035059 
1799	 0.103816953464048 
1800	 0.103809032911272 
1801	 0.100242207004773 
1802	 0.100348360743669 
1803	 0.100465207708118 
1804	 0.100605566560567 
1805	 0.100750708717372 
1806	 0.100863471953971 
1807	 0.100965871578109 
1808	 0.101049103623975 
1809	 0.101106371743819 
1810	 0.101155315647971 
1811	 0.101185565253158 
1812	 0.101219316919625 
1813	 0.101259087014279 
1814	 0.101288968818859 
1815	 0.101319735377429 
1816	 0.101350215861507 
1817	 0.10137547092218 
1818	 0.101385781484938 
1819	 0.101400075134918 
1820	 0.10142535365643 
1821	 0.101434203647484 
1822	 0.10140505051373 
1823	 0.101389426249207 
1824	 0.10140286776172 
1825	 0.101429376263785 
1826	 0.101466471862812 
1827	 0.10147169710863 
1828	 0.101471505779908 
1829	 0.101432239319181 
1830	 0.101422822083421 
1831	 0.101413706052552 
1832	 0.101439770640492 
1833	 0.101439173245373 
1834	 0.101426487612971 
1835	 0.101424337531491 
1836	 0.101401401191623 
1837	 0.101407397957403 
1838	 0.101421695628766 
1839	 0.101434504292869 
1840	 0.10144222133063 
1841	 0.101469035851374 
1842	 0.101494687516651 
1843	 0.101533842170155 
1844	 0.101570970824572 
1845	 0.101601034708526 
1846	 0.1016530598132 
1847	 0.101678552024963 
1848	 0.101695492327088 
1849	 0.101740040261786 
1850	 0.101769094555857 
1851	 0.101784332631318 
1852	 0.101806162936255 
1853	 0.101838717923035 
1854	 0.101851262863638 
1855	 0.10185202978425 
1856	 0.101867260671078 
1857	 0.101883246379199 
1858	 0.101893372140971 
1859	 0.101929889600091 
1860	 0.101944213339474 
1861	 0.10195459081323 
1862	 0.101947643450949 
1863	 0.101928858907229 
1864	 0.101875479602503 
1865	 0.101812353631736 
1866	 0.101732328895115 
1867	 0.101659738531459 
1868	 0.101587928740478 
1869	 0.101518070656337 
1870	 0.101463188685342 
1871	 0.101424723632121 
1872	 0.101388254029248 
1873	 0.101388026691793 
1874	 0.101410642385176 
1875	 0.101452941278397 
1876	 0.101479153921258 
1877	 0.101485852752463 
1878	 0.101477139345207 
1879	 0.101441842317105 
1880	 0.101411547532602 
1881	 0.101399073876825 
1882	 0.101335054794627 
1883	 0.101245057474396 
1884	 0.101152705142983 
1885	 0.10102317627169 
1886	 0.100861477133238 
1887	 0.100699502860186 
1888	 0.100536481358618 
1889	 0.10035396604479 
1890	 0.100145434280207 
1891	 9.99479089971916E-02 
1892	 9.97596251926127E-02 
1893	 9.95451180996826E-02 
1894	 9.93092274492723E-02 
1895	 9.90958577878051E-02 
1896	 9.88610710290264E-02 
1897	 9.86010987976758E-02 
1898	 9.83696797529774E-02 
1899	 9.81256200787245E-02 
1900	 9.78884981498101E-02 
1901	 9.76895094703956E-02 
1902	 9.74943102884857E-02 
1903	 9.73172732551737E-02 
1904	 9.71435690693546E-02 
1905	 9.69874463593186E-02 
1906	 9.68217225231594E-02 
1907	 9.66591138495076E-02 
1908	 9.64966670429442E-02 
1909	 9.63529355513533E-02 
1910	 9.62054755421084E-02 
1911	 9.60484136508256E-02 
1912	 9.59199400660536E-02 
1913	 9.57929696197621E-02 
1914	 9.56696444313791E-02 
1915	 0.095548860654352 
1916	 9.54355761846657E-02 
1917	 9.53249844525772E-02 
1918	 9.52276015217251E-02 
1919	 9.51546368851039E-02 
1920	 9.51114292279992E-02 
1921	 0.095065902343573 
1922	 9.50161431288633E-02 
1923	 9.49977819490526E-02 
1924	 9.49701594517923E-02 
1925	 9.49440598682069E-02 
1926	 9.49277169054235E-02 
1927	 9.49282370074246E-02 
1928	 0.09489798825667 
1929	 9.48839734486444E-02 
1930	 9.48858303166947E-02 
1931	 9.48893362831548E-02 
1932	 9.48829895267478E-02 
1933	 9.48840532123253E-02 
1934	 9.48968480921345E-02 
1935	 9.49100331538532E-02 
1936	 0.09491806394158 
1937	 9.49470980593741E-02 
1938	 9.50047556335858E-02 
1939	 9.50374973679698E-02 
1940	 0.095059044220651 
1941	 9.51008271417543E-02 
1942	 9.51341898279544E-02 
1943	 9.51601537019304E-02 
1944	 9.52195898369067E-02 
1945	 9.52851526429915E-02 
1946	 9.53470775294982E-02 
1947	 9.54210333122836E-02 
1948	 9.54759790034494E-02 
1949	 9.55174556136489E-02 
1950	 9.55672147874901E-02 
1951	 9.56111807960272E-02 
1952	 9.56585612482592E-02 
1953	 9.57033476998572E-02 
1954	 0.09575335840178 
1955	 9.57973513251147E-02 
1956	 9.58263507814978E-02 
1957	 9.58864959212539E-02 
1958	 9.59682395349324E-02 
1959	 9.60446853210528E-02 
1960	 9.61394588441781E-02 
1961	 9.62262885408778E-02 
1962	 9.63070558650527E-02 
1963	 9.63882055573025E-02 
1964	 9.64616907763787E-02 
1965	 9.65569313703365E-02 
1966	 9.66550641824939E-02 
1967	 9.67432086352527E-02 
1968	 9.68203468304096E-02 
1969	 9.68924397525247E-02 
1970	 9.69625756946762E-02 
1971	 9.70106064446963E-02 
1972	 9.70794288659158E-02 
1973	 0.097167085731362 
1974	 9.72403468697526E-02 
1975	 9.72981731252242E-02 
1976	 0.097384906633663 
1977	 0.097466409142821 
1978	 9.75343937730009E-02 
1979	 9.76418339124694E-02 
1980	 0.09773493316752 
1981	 9.78190050486354E-02 
1982	 9.78967450466136E-02 
1983	 9.79814868142839E-02 
1984	 9.80648501387685E-02 
1985	 9.81389743689952E-02 
1986	 9.82157613263111E-02 
1987	 9.82863486980226E-02 
1988	 9.83381876814518E-02 
1989	 9.83876839804127E-02 
1990	 0.098482009472223 
1991	 9.85765011308369E-02 
1992	 0.09865708403716 
1993	 9.87447908687623E-02 
1994	 9.88336708071112E-02 
1995	 9.89097179743756E-02 
1996	 9.89911575873678E-02 
1997	 0.099103970802987 
1998	 9.91776636435251E-02 
1999	 9.92059454322699E-02 
2000	 9.92615247813131E-02 
2001	 9.93147754928323E-02 
2002	 9.93713381557263E-02 
2003	 9.94384282002288E-02 
2004	 9.95268063799117E-02 
2005	 9.96075489403498E-02 
2006	 9.96898337969086E-02 
2007	 9.97694334356394E-02 
2008	 9.98436776301637E-02 
2009	 0.099935989332578 
2010	 0.100048756646142 
2011	 0.100134280702247 
2012	 0.100222437210893 
2013	 0.100303445785016 
2014	 0.100365402208792 
2015	 0.100417908967659 
2016	 0.100464321567651 
2017	 0.100537553469182 
2018	 0.100605605971418 
2019	 0.100665323736263 
2020	 0.100735348054755 
2021	 0.100827205241058 
2022	 0.100898417959363 
2023	 0.100952711671022 
2024	 0.101024362519187 
2025	 0.101099209633565 
2026	 0.101174995599287 
2027	 0.101260920343947 
2028	 0.101348575091714 
2029	 0.101423498353719 
2030	 0.101490678868219 
2031	 0.101557068647819 
2032	 0.101612843370849 
2033	 0.101680506966367 
2034	 0.10174891825603 
2035	 0.101823139365074 
2036	 0.101904999033208 
2037	 0.101984287154433 
2038	 0.102085770114008 
2039	 0.10215414077718 
2040	 0.102193650753189 
2041	 0.102253945013291 
2042	 0.102299589096673 
2043	 0.102320652832694 
2044	 0.102353154207791 
2045	 0.102389004900681 
2046	 0.102427427642275 
2047	 0.102454608591299 
2048	 0.102498902175851 
2049	 0.102557688735058 
2050	 0.102616995151291 
2051	 0.102695672309925 
2052	 0.102752615445773 
2053	 0.102795103445785 
2054	 0.102849078020317 
2055	 0.102903416331129 
2056	 0.102948363312615 
2057	 0.102988234577229 
2058	 0.103033656006275 
2059	 0.10307499066995 
2060	 0.103094384952454 
2061	 0.103134586525943 
2062	 0.103193513475452 
2063	 0.103241279567835 
2064	 0.103293856168687 
2065	 0.10333468359213 
2066	 0.103369038555835 
2067	 0.103402929182211 
2068	 0.103425231702029 
2069	 0.103447531736253 
2070	 0.103485290675178 
2071	 0.103530235708561 
2072	 0.10357269650933 
2073	 0.103621473351999 
2074	 0.103673794710009 
2075	 0.103725382931665 
2076	 0.103782873141162 
2077	 0.103856572924665 
2078	 0.103916000494991 
2079	 0.103963249894343 
2080	 0.104021702399344 
2081	 0.104094822404487 
2082	 0.10414713423041 
2083	 0.104199407713071 
2084	 0.104241608609168 
2085	 0.104272499404888 
2086	 0.10427626680361 
2087	 0.104300198288856 
2088	 0.104319799595028 
2089	 0.104354626984657 
2090	 0.104403880574974 
2091	 0.104440501320525 
2092	 0.104480161626858 
2093	 0.104521755736814 
2094	 0.104558410439893 
2095	 0.104595527136778 
2096	 0.104644002959873 
2097	 0.10468246425004 
2098	 0.104722389126948 
2099	 0.104734969901754 
2100	 0.10476469544534 
2101	 0.10478874135004 
2102	 0.104829047977354 
2103	 0.10488234581157 
2104	 0.104926126543869 
2105	 0.104972555803476 
2106	 0.10502180080138 
2107	 0.105061359407174 
2108	 0.105117037580909 
2109	 0.105187715704055 
2110	 0.105256567479457 
2111	 0.105345913538071 
2112	 0.105409980180618 
2113	 0.105452907334912 
2114	 0.105507394798809 
2115	 0.105568224229003 
2116	 0.10562280275973 
2117	 0.105674947040105 
2118	 0.105741978268802 
2119	 0.105796920340878 
2120	 0.105836623589771 
2121	 0.105877974402523 
2122	 0.105929647868417 
2123	 0.105965065931652 
2124	 0.105991239412574 
2125	 0.106003563294143 
2126	 0.10598956706319 
2127	 0.1059964984737 
2128	 0.105994905231431 
2129	 0.106003735398553 
2130	 0.10602916878508 
2131	 0.106067071789532 
2132	 0.106090919595352 
2133	 0.106111856198282 
2134	 0.106130589196335 
2135	 0.106152869774033 
2136	 0.106155973000233 
2137	 0.106146101953705 
2138	 0.106138589514437 
2139	 0.106120341045085 
2140	 0.106102050554509 
2141	 0.106076081116424 
2142	 0.106062449775799 
2143	 0.106065340678373 
2144	 0.106043635416867 
2145	 0.106018965949166 
2146	 0.105990225356945 
2147	 0.105943641183591 
2148	 0.105884823562209 
2149	 0.105835788726254 
2150	 0.105794839599868 
2151	 0.105750875692521 
2152	 0.105706881360324 
2153	 0.105652535245157 
2154	 0.105598320232315 
2155	 0.105537082045319 
2156	 0.105462690828769 
2157	 0.105389467932119 
2158	 0.105316705884521 
2159	 0.105240977555423 
2160	 0.10515854658086 
2161	 0.105077931039879 
2162	 0.104995612660087 
2163	 0.104914027783569 
2164	 0.104846741405565 
2165	 0.104747527248973 
2166	 0.104664624387675 
2167	 0.104582564082225 
2168	 0.104506057827627 
2169	 0.104434336000805 
2170	 0.104358082057799 
2171	 0.104296670859891 
2172	 0.104202810335686 
2173	 0.10407287380903 
2174	 0.103979661871658 
2175	 0.103879024258028 
2176	 0.103797665765431 
2177	 0.103762231395968 
2178	 0.103696375884449 
2179	 0.10361761823519 
2180	 0.103540712017365 
2181	 0.10344388138474 
2182	 0.103368255769902 
2183	 0.103306848659693 
2184	 0.103247816048395 
2185	 0.103182115330625 
2186	 0.103130280738046 
2187	 0.103053040034132 
2188	 0.102944702390201 
2189	 0.102872680159027 
2190	 0.10280420941539 
2191	 0.10274727987571 
2192	 0.102733527246804 
2193	 0.102672962765074 
2194	 0.102577760819881 
2195	 0.102511149282846 
2196	 0.102430107984964 
2197	 0.102367737791401 
2198	 0.10232842962211 
2199	 0.102299786548673 
2200	 0.102296305837441 
2201	 0.102270480513492 
2202	 0.102266141631932 
2203	 0.102221166593137 
2204	 0.102183018993842 
2205	 0.102114721042373 
2206	 0.102072874219456 
2207	 0.102035999462466 
2208	 0.102018250677431 
2209	 0.10199610977764 
2210	 0.102013435732751 
2211	 0.10208429302913 
2212	 0.102111747298474 
2213	 0.102160775280972 
2214	 0.102171527899806 
2215	 0.102140573555482 
2216	 0.102118547818155 
2217	 0.102057938790639 
2218	 0.102044343011981 
2219	 0.102043709407892 
2220	 0.102056057828627 
2221	 0.10210761729518 
2222	 0.10216828932551 
2223	 0.102198035961489 
2224	 0.102196727470401 
2225	 0.102186133623903 
2226	 0.10213583241753 
2227	 0.102125743526293 
2228	 0.102116010050934 
2229	 0.102125267979502 
2230	 0.102164033522372 
2231	 0.102179453166548 
2232	 0.10218051877581 
2233	 0.102209048516384 
2234	 0.10224726325278 
2235	 0.102282947496611 
2236	 0.10236355160026 
2237	 0.102388289388612 
2238	 0.102358138309993 
2239	 0.102363387947341 
2240	 0.102347769707967 
2241	 0.102358362936547 
2242	 0.102432972693811 
2243	 0.102455961688637 
2244	 0.102455707214694 
2245	 0.102452595924664 
2246	 0.102427847503719 
2247	 0.102410205884797 
2248	 0.102421560383181 
2249	 0.102468441959392 
2250	 0.102483314221401 
2251	 0.102506563075208 
2252	 0.102506987971998 
2253	 0.102467207669854 
2254	 0.102480618259678 
2255	 0.102506879261552 
2256	 0.102540067392114 
2257	 0.102613483870735 
2258	 0.102652754287272 
2259	 0.102680612028413 
2260	 0.102709935666269 
2261	 0.102729299105971 
2262	 0.10275515272243 
2263	 0.102787316100631 
2264	 0.102802995530358 
2265	 0.102809212451991 
2266	 0.102818189488578 
2267	 0.10280661152085 
2268	 0.102817142363174 
2269	 0.102840720007584 
2270	 0.102875650565386 
2271	 0.102909858129094 
2272	 0.102918045251796 
2273	 0.10293659866254 
2274	 0.102926225049365 
2275	 0.10292176017343 
2276	 0.102915270980271 
2277	 0.102915058831483 
2278	 0.102903066580483 
2279	 0.102915225869656 
2280	 0.10293794969921 
2281	 0.102975645008337 
2282	 0.103037472340124 
2283	 0.103080070883223 
2284	 0.103142286064727 
2285	 0.10316669213188 
2286	 0.103158338693077 
2287	 0.103165608289977 
2288	 0.103147056144386 
2289	 0.103157908878193 
2290	 0.103194538188592 
2291	 0.10321755865025 
2292	 0.103240567807033 
2293	 0.103277160586666 
2294	 0.103324642728424 
2295	 0.103357997596189 
2296	 0.103401524776865 
2297	 0.103440433237797 
2298	 0.103424382143396 
2299	 0.10341224338936 
2300	 0.103390459223672 
2301	 0.103386942988443 
2302	 0.103438474650113 
2303	 0.10347422382568 
2304	 0.103519505116293 
2305	 0.103567099487713 
2306	 0.103581511979371 
2307	 0.103554819110815 
2308	 0.10355508137931 
2309	 0.103553185449011 
2310	 0.1035472653266 
2311	 0.103559786233802 
2312	 0.103550313788315 
2313	 0.103509055955586 
2314	 0.103497657217287 
2315	 0.103485033045348 
2316	 0.103476608336735 
2317	 0.103502010715765 
2318	 0.103493382030053 
2319	 0.103430029448269 
2320	 0.1034478290123 
2321	 0.103508399673344 
2322	 0.103545371211048 
2323	 0.103635556219714 
2324	 0.103694885112464 
2325	 0.103695436400562 
2326	 0.103727679361387 
2327	 0.103784706788772 
2328	 0.1038406892199 
2329	 0.103851754608945 
2330	 0.103889195944592 
2331	 0.103933433944958 
2332	 0.10393776049093 
2333	 0.103956316377952 
2334	 0.103981669101155 
2335	 0.103961650340233 
2336	 0.103926989251168 
2337	 0.10387974990771 
2338	 0.103881741460876 
2339	 0.103881690950459 
2340	 0.103858525028079 
2341	 0.103911950668298 
2342	 0.103927301737386 
2343	 0.103966386295096 
2344	 0.104059178549494 
2345	 0.104075459462685 
2346	 0.104049957462368 
2347	 0.10404119828295 
2348	 0.103967911365299 
2349	 0.103985384584346 
2350	 0.104083671022826 
2351	 0.104088011916524 
2352	 0.104081450975852 
2353	 0.104095304772782 
2354	 0.104085323510229 
2355	 0.104051341840974 
2356	 0.104062840288987 
2357	 0.103999337052699 
2358	 0.10379669245375 
2359	 0.103718771987486 
2360	 0.103657895636011 
2361	 0.103638001772396 
2362	 0.10372516983723 
2363	 0.103740750817396 
2364	 0.103762460051576 
2365	 0.103757162602206 
2366	 0.103680958189508 
2367	 0.103659016056616 
2368	 0.10364900541267 
2369	 0.10366135899997 
2370	 0.1037110924463 
2371	 0.103772700702846 
2372	 0.103766344225215 
2373	 0.103769630394007 
2374	 0.103825286690012 
2375	 0.103817665149141 
2376	 0.103830103889585 
2377	 0.103873667064056 
2378	 0.103813220809507 
2379	 0.103729826851 
2380	 0.103640211860653 
2381	 0.103563356550966 
2382	 0.103518667012598 
2383	 0.103505760285197 
2384	 0.103542506301826 
2385	 0.10349173152714 
2386	 0.103388373431703 
2387	 0.103297189949349 
2388	 0.103283060247594 
2389	 0.103354749731082 
2390	 0.103396530467101 
2391	 0.103447981731818 
2392	 0.103460110878047 
2393	 0.103394022484395 
2394	 0.103359975024061 
2395	 0.103332415825215 
2396	 0.10327845744823 
2397	 0.103220210545451 
2398	 0.103185618808194 
2399	 0.103181090539239 
2400	 0.103120556340322 
2401	 0.103085385102668 
2402	 0.103081208529967 
2403	 0.102964311258533 
2404	 0.102917614017674 
2405	 0.102944100377746 
2406	 0.102901467143926 
2407	 0.10291989198172 
2408	 0.102923548757034 
2409	 0.102815656351624 
2410	 0.102763449912051 
2411	 0.102802188142551 
2412	 0.102816696893629 
2413	 0.10279412680024 
2414	 0.102702167562534 
2415	 0.102554747910927 
2416	 0.102461824201768 
2417	 0.102351618272188 
2418	 0.102315133050206 
2419	 0.102362197898169 
2420	 0.102368116534632 
2421	 0.102418159260438 
2422	 0.102379588856069 
2423	 0.102302565321208 
2424	 0.102219214416876 
2425	 0.1020156959355 
2426	 0.101972954911676 
2427	 0.102039822102969 
2428	 0.101987619735106 
2429	 0.101978274267659 
2430	 0.101934140289434 
2431	 0.101787721113897 
2432	 0.101698304665374 
2433	 0.101641141326481 
2434	 0.101593902447727 
2435	 0.101498442206653 
2436	 0.101460225931253 
2437	 0.101590522495439 
2438	 0.101561194630541 
2439	 0.101425125420689 
2440	 0.101345215090765 
2441	 0.101137669107818 
2442	 0.101051523618785 
2443	 0.101156872043348 
2444	 0.101105060665824 
2445	 0.101000411082313 
2446	 0.10095226823029 
2447	 0.100812758611527 
2448	 0.100730194887586 
2449	 0.100759773608272 
2450	 0.100705872506985 
2451	 0.100589415018964 
2452	 0.100525095732254 
2453	 0.100494359127556 
2454	 0.100482690268505 
2455	 0.10046469321496 
2456	 0.100482952643068 
2457	 0.10059208300758 
2458	 0.100487118789389 
2459	 0.100304058439802 
2460	 0.1001442292833 
2461	 9.97864275560955E-02 
2462	 9.97247845239465E-02 
2463	 9.97358560645153E-02 
2464	 9.98343378831856E-02 
2465	 0.100262248091315 
2466	 0.100370850232789 
2467	 0.100465080071671 
2468	 0.100536072030771 
2469	 0.100417791154305 
2470	 0.100207386581139 
2471	 0.100016389805879 
2472	 0.09997571058929 
2473	 9.98201464817781E-02 
2474	 9.97963184843517E-02 
2475	 0.100002714274643 
2476	 0.100044428222248 
2477	 9.98568850807557E-02 
2478	 9.96957395199487E-02 
2479	 9.95246185664244E-02 
2480	 9.92455707443193E-02 
2481	 9.91910678815994E-02 
2482	 9.93942530635154E-02 
2483	 9.93348410789552E-02 
2484	 9.91635855380351E-02 
2485	 9.90779129965444E-02 
2486	 9.88129176195797E-02 
2487	 9.86706062645602E-02 
2488	 9.86751398840523E-02 
2489	 9.87031869805254E-02 
2490	 9.87712156865191E-02 
2491	 9.88472455947589E-02 
2492	 9.90437145609973E-02 
2493	 9.90049773666059E-02 
2494	 9.89562044415114E-02 
2495	 9.90485780927479E-02 
2496	 9.89953402994075E-02 
2497	 9.91254242083341E-02 
2498	 9.93499249711777E-02 
2499	 9.93858837858326E-02 
2500	 0.099307461144168 
