Wavelength	LMW_1300009.asd
350	 6.74049452877538E-02 
351	 5.68718877703252E-02 
352	 4.93608122630151E-02 
353	 4.82724175840723E-02 
354	 5.00465769007201E-02 
355	 5.02522569634171E-02 
356	 4.88231507143422E-02 
357	 4.81672389939737E-02 
358	 5.57754663578656E-02 
359	 5.39264335480877E-02 
360	 0.047502224777887 
361	 5.35473837258354E-02 
362	 4.88020170592703E-02 
363	 4.56141130693791E-02 
364	 5.02073756522866E-02 
365	 5.30838047127753E-02 
366	 4.97084227854869E-02 
367	 4.55127035228584E-02 
368	 4.67449545441035E-02 
369	 5.12388095778985E-02 
370	 5.08851893418121E-02 
371	 4.75139329257338E-02 
372	 4.91894521518269E-02 
373	 5.16299045815916E-02 
374	 5.28171539538875E-02 
375	 5.21483993818567E-02 
376	 5.09423649199985E-02 
377	 4.69041060855907E-02 
378	 4.53668342281097E-02 
379	 5.04390786058557E-02 
380	 5.23113632322165E-02 
381	 4.98638656688433E-02 
382	 4.77077365343589E-02 
383	 5.30872073587019E-02 
384	 5.20452572794963E-02 
385	 4.91747425679054E-02 
386	 4.90380812602152E-02 
387	 0.051159471843217 
388	 5.23748785610845E-02 
389	 5.18672587311385E-02 
390	 5.03555130987383E-02 
391	 5.09697175213749E-02 
392	 5.28787940851725E-02 
393	 5.46231647843133E-02 
394	 5.46102775484205E-02 
395	 5.41656112838767E-02 
396	 5.45888636197297E-02 
397	 5.58193897976185E-02 
398	 5.48777370407601E-02 
399	 5.44602065466262E-02 
400	 5.53887539597658E-02 
401	 5.70619049267015E-02 
402	 5.52217888588281E-02 
403	 5.46801954777872E-02 
404	 0.056362776421876 
405	 5.68539200781053E-02 
406	 0.057463634388715 
407	 5.83312469325819E-02 
408	 5.89016660727463E-02 
409	 5.69533748173068E-02 
410	 0.057204864581769 
411	 5.88171939366638E-02 
412	 5.86536640788581E-02 
413	 5.77431372643345E-02 
414	 5.71614289369217E-02 
415	 5.73016116424896E-02 
416	 5.77244144540391E-02 
417	 5.76446346323615E-02 
418	 5.77821536664915E-02 
419	 5.86613010186361E-02 
420	 5.89492825155278E-02 
421	 5.83714904087053E-02 
422	 5.77713885968901E-02 
423	 5.84099734278088E-02 
424	 0.057928331439802 
425	 5.71297815541178E-02 
426	 5.67483354649687E-02 
427	 5.66422725624232E-02 
428	 5.66870169601383E-02 
429	 5.66800275896778E-02 
430	 5.65078442330374E-02 
431	 5.66284587207127E-02 
432	 5.63172753501058E-02 
433	 5.58325157804799E-02 
434	 5.63458170191608E-02 
435	 0.056951137229268 
436	 5.69963837241178E-02 
437	 5.63668119897867E-02 
438	 0.056057711086833 
439	 5.63209893809253E-02 
440	 5.68919532389233E-02 
441	 5.72326596392218E-02 
442	 5.70569255148257E-02 
443	 0.057287959592445 
444	 5.79705591058113E-02 
445	 5.76536386853798E-02 
446	 5.77531423178792E-02 
447	 5.81876290165313E-02 
448	 5.85056166702611E-02 
449	 5.86222861926478E-02 
450	 0.058863820225271 
451	 5.92841113336361E-02 
452	 5.96843357471851E-02 
453	 5.98542565819438E-02 
454	 5.97576970547252E-02 
455	 5.95651602372827E-02 
456	 5.98613259663953E-02 
457	 6.01135906874079E-02 
458	 6.02587337178791E-02 
459	 6.04147445254236E-02 
460	 6.03381524489318E-02 
461	 6.03415574264163E-02 
462	 6.05734518685125E-02 
463	 6.08985452648748E-02 
464	 0.060966562618355 
465	 6.09727135981298E-02 
466	 6.11500548682657E-02 
467	 6.11867053493527E-02 
468	 6.12410689053375E-02 
469	 6.13347283106104E-02 
470	 6.13809898121318E-02 
471	 6.15472680900205E-02 
472	 6.16641896014087E-02 
473	 6.16518678055276E-02 
474	 6.17837603746723E-02 
475	 0.061800739151915 
476	 6.17403870955551E-02 
477	 6.17673677423583E-02 
478	 6.19558887849128E-02 
479	 6.20307366715034E-02 
480	 6.19619525807262E-02 
481	 6.20970975373926E-02 
482	 6.21076305309853E-02 
483	 6.21768219289725E-02 
484	 6.24772395937008E-02 
485	 6.25843356636947E-02 
486	 6.25808773443895E-02 
487	 6.25153447443511E-02 
488	 6.24142735707865E-02 
489	 0.062609309939256 
490	 0.062845306281686 
491	 6.28854268829045E-02 
492	 6.27842232526483E-02 
493	 6.27212820643406E-02 
494	 6.26402754275879E-02 
495	 6.24374271380138E-02 
496	 6.26066039895714E-02 
497	 6.27458007149429E-02 
498	 0.062697631750529 
499	 6.27934580760615E-02 
500	 6.28218066087059E-02 
501	 6.28594636944954E-02 
502	 6.29942732915693E-02 
503	 6.30074461198067E-02 
504	 6.29354221641341E-02 
505	 6.28622440511857E-02 
506	 6.28988261143358E-02 
507	 6.30012223255709E-02 
508	 0.06307402421298 
509	 6.30573197520249E-02 
510	 6.29895849431255E-02 
511	 6.30416661717006E-02 
512	 6.31295612432162E-02 
513	 6.30703799565634E-02 
514	 0.063173234338018 
515	 6.31963884878948E-02 
516	 6.30663287266506E-02 
517	 6.30955644369918E-02 
518	 6.31367733063079E-02 
519	 6.31111837405553E-02 
520	 0.063005672031365 
521	 6.30369924656169E-02 
522	 6.30937218471206E-02 
523	 6.31056947080808E-02 
524	 6.30685579792455E-02 
525	 6.31331154582275E-02 
526	 6.32146592710563E-02 
527	 6.32223102491726E-02 
528	 6.32171940324385E-02 
529	 6.32585200708283E-02 
530	 6.33066669327836E-02 
531	 6.32733296663451E-02 
532	 6.33240582503576E-02 
533	 6.34294388293421E-02 
534	 6.35154724707156E-02 
535	 0.063460329966213 
536	 6.34654155561204E-02 
537	 6.35419400736197E-02 
538	 0.063632276579218 
539	 6.37998850680438E-02 
540	 6.38338587901959E-02 
541	 6.37628318987108E-02 
542	 6.39561592184452E-02 
543	 6.40505046169786E-02 
544	 0.064046748972938 
545	 0.064050729107337 
546	 6.41657291850266E-02 
547	 0.064248505834542 
548	 0.06430356206077 
549	 6.44566315308857E-02 
550	 6.45461715190318E-02 
551	 6.46395633862973E-02 
552	 6.47904292782387E-02 
553	 6.49053108421118E-02 
554	 6.50177194031011E-02 
555	 6.51759848371006E-02 
556	 6.54121208869177E-02 
557	 6.55286268190466E-02 
558	 6.56251206856313E-02 
559	 6.58028024187983E-02 
560	 6.61208235020044E-02 
561	 6.63140673027328E-02 
562	 6.64803721891272E-02 
563	 0.066786988955346 
564	 6.70095437611677E-02 
565	 6.72464339078633E-02 
566	 0.06757332402118 
567	 6.80167867243094E-02 
568	 6.84331553737534E-02 
569	 6.88293595463465E-02 
570	 6.92177157031312E-02 
571	 6.94769520245145E-02 
572	 6.97910204775313E-02 
573	 7.02219725810025E-02 
574	 7.07281924326363E-02 
575	 7.11787799878516E-02 
576	 7.16393628696948E-02 
577	 7.21310691962043E-02 
578	 0.072480258593156 
579	 7.29372203405975E-02 
580	 7.35753821263701E-02 
581	 0.074351455379212 
582	 7.50249745023701E-02 
583	 7.56445098585336E-02 
584	 7.62571277771373E-02 
585	 7.68683870066355E-02 
586	 7.74924629526954E-02 
587	 7.80811359761973E-02 
588	 7.86171079980318E-02 
589	 7.93102905732719E-02 
590	 7.99506015209867E-02 
591	 8.05272744015963E-02 
592	 8.12155452658464E-02 
593	 8.18308069854809E-02 
594	 8.24435966589193E-02 
595	 8.31400251917467E-02 
596	 8.39223265463809E-02 
597	 8.47214245474055E-02 
598	 8.54990272569875E-02 
599	 8.62403136409994E-02 
600	 8.69371098136933E-02 
601	 8.75983995192497E-02 
602	 8.82165018975877E-02 
603	 8.87461895609819E-02 
604	 8.93358143162279E-02 
605	 8.99398274690995E-02 
606	 9.04704939621514E-02 
607	 9.10308668646676E-02 
608	 9.15669033807543E-02 
609	 0.092074334954785 
610	 9.26151900202147E-02 
611	 9.31013663586564E-02 
612	 9.35836932693655E-02 
613	 0.094097595119473 
614	 9.45245848150456E-02 
615	 9.48626961804926E-02 
616	 9.51803009291053E-02 
617	 9.55779400927098E-02 
618	 9.59283304577873E-02 
619	 9.62340890367239E-02 
620	 9.65207872289825E-02 
621	 9.68235650737769E-02 
622	 9.70651561844707E-02 
623	 9.73072596950328E-02 
624	 9.76362722977879E-02 
625	 9.78970242127191E-02 
626	 9.81024865144688E-02 
627	 9.83042575004841E-02 
628	 9.85853420386328E-02 
629	 0.098782904276404 
630	 9.89620003522669E-02 
631	 9.92047629740142E-02 
632	 9.93965944106166E-02 
633	 9.95965726275933E-02 
634	 9.97975765899614E-02 
635	 9.99441434441517E-02 
636	 0.100139011171362 
637	 0.100353461471025 
638	 0.100548413130652 
639	 0.100714853811849 
640	 0.100915233670116 
641	 0.101124121855875 
642	 0.101287789924198 
643	 0.101487892457131 
644	 0.101690460711328 
645	 0.101882078562696 
646	 0.102094232584602 
647	 0.102334659285838 
648	 0.102527417957258 
649	 0.102638135279981 
650	 0.102908409137156 
651	 0.103188948927639 
652	 0.103416456201983 
653	 0.103617043883547 
654	 0.103845180429656 
655	 0.104066494042122 
656	 0.10426275515668 
657	 0.104494139758669 
658	 0.104782684960739 
659	 0.105086481946599 
660	 0.105344077092474 
661	 0.105627291827555 
662	 0.105900734690981 
663	 0.106167641708468 
664	 0.106502306898711 
665	 0.10681112752435 
666	 0.107081054525516 
667	 0.1073468911652 
668	 0.107733313263165 
669	 0.108106576988064 
670	 0.108432254619218 
671	 0.108763910353781 
672	 0.109085095792396 
673	 0.109451088975358 
674	 0.109871880194312 
675	 0.110229124685173 
676	 0.110557310114988 
677	 0.110893403843851 
678	 0.111274971051158 
679	 0.111700228738217 
680	 0.112149529112298 
681	 0.112606811467042 
682	 0.113064826696987 
683	 0.113458339795791 
684	 0.113860961958348 
685	 0.114342930420952 
686	 0.114826477152524 
687	 0.11529218783243 
688	 0.115743152553769 
689	 0.116198628526112 
690	 0.116658205200232 
691	 0.117151809526759 
692	 0.117682327178968 
693	 0.118194855238273 
694	 0.118700667532557 
695	 0.119191332038155 
696	 0.119668604843774 
697	 0.120212634922351 
698	 0.120764497914113 
699	 0.121312973084336 
700	 0.12190329338064 
701	 0.122436539196609 
702	 0.122956829756785 
703	 0.12350699888961 
704	 0.1240341005389 
705	 0.124555407676447 
706	 0.125109309755189 
707	 0.125725196663976 
708	 0.126272201675585 
709	 0.126837465350467 
710	 0.127442608181057 
711	 0.127984558310899 
712	 0.128524228971673 
713	 0.129050494689402 
714	 0.129559429788788 
715	 0.130144936188172 
716	 0.13071846497193 
717	 0.131244491576647 
718	 0.131733667593652 
719	 0.132226874096607 
720	 0.13271063046615 
721	 0.133173035539002 
722	 0.13361878652186 
723	 0.134096549514599 
724	 0.134597591840138 
725	 0.135080684080278 
726	 0.135466406613309 
727	 0.135815413873371 
728	 0.136175317145466 
729	 0.136568074985578 
730	 0.136924385655287 
731	 0.13724508034067 
732	 0.137548562982375 
733	 0.13786243005542 
734	 0.138154219801044 
735	 0.138398645405766 
736	 0.138590902026066 
737	 0.13882476813928 
738	 0.139036001709564 
739	 0.139199436427531 
740	 0.13934563790939 
741	 0.139481027718191 
742	 0.13958230442389 
743	 0.139629815424304 
744	 0.139629711155292 
745	 0.139600329122544 
746	 0.139585861942162 
747	 0.139616536974867 
748	 0.139554549713098 
749	 0.139435131588225 
750	 0.139306837041836 
751	 0.139212032185586 
752	 0.139111456543663 
753	 0.138991825994825 
754	 0.138841619063548 
755	 0.138633417052454 
756	 0.138411759602673 
757	 0.138189077618039 
758	 0.1379610080858 
759	 0.137743479954498 
760	 0.137467823343662 
761	 0.137141355024804 
762	 0.136871765860564 
763	 0.136564999421465 
764	 0.136256098405627 
765	 0.135974500588814 
766	 0.135646479913154 
767	 0.135282913416546 
768	 0.134918755591273 
769	 0.134590682936633 
770	 0.134254826535759 
771	 0.133895719375582 
772	 0.13350241528755 
773	 0.133068080753346 
774	 0.132659088121925 
775	 0.132305887143955 
776	 0.131986088330921 
777	 0.13156174298822 
778	 0.131169776004862 
779	 0.130805171148372 
780	 0.130407298396109 
781	 0.130014512728326 
782	 0.129626194818888 
783	 0.129242669539293 
784	 0.128866577437102 
785	 0.12844851681084 
786	 0.128024238222503 
787	 0.127627976321817 
788	 0.127245906843627 
789	 0.126902836056825 
790	 0.126553749559786 
791	 0.126146835177036 
792	 0.125737980186942 
793	 0.125383404734904 
794	 0.125058775731997 
795	 0.124679674649243 
796	 0.124313594036411 
797	 0.123958242619211 
798	 0.123608017278525 
799	 0.123271502121433 
800	 0.122931782204274 
801	 0.122585995118498 
802	 0.122242174109431 
803	 0.121927813767618 
804	 0.121641135634119 
805	 0.121357250559077 
806	 0.121041218198377 
807	 0.120701015395093 
808	 0.120361151227037 
809	 0.120047243561534 
810	 0.119780129531247 
811	 0.119557117108684 
812	 0.119295908639016 
813	 0.118964300379088 
814	 0.118706305850376 
815	 0.118470935918852 
816	 0.1182346157634 
817	 0.117991003954625 
818	 0.117778319729478 
819	 0.117548003948117 
820	 0.117288555598257 
821	 0.117028346583754 
822	 0.116815121940468 
823	 0.116609891888789 
824	 0.116389015230927 
825	 0.116177587612234 
826	 0.115976331141843 
827	 0.115780228441542 
828	 0.115591863198195 
829	 0.115450136374823 
830	 0.115263200647463 
831	 0.115068137632458 
832	 0.114947837593556 
833	 0.114844839781033 
834	 0.114693221711765 
835	 0.114497531468035 
836	 0.114329326651333 
837	 0.114215284363844 
838	 0.114111915578865 
839	 0.113990923820093 
840	 0.11387254161236 
841	 0.113751974820124 
842	 0.113646419312568 
843	 0.113561848280901 
844	 0.113452078444608 
845	 0.113355820171562 
846	 0.113273439969434 
847	 0.113192327121153 
848	 0.113136879956788 
849	 0.113090213635239 
850	 0.113029165962922 
851	 0.112936827825129 
852	 0.112890598493424 
853	 0.11285499812358 
854	 0.11280506691638 
855	 0.112756359123967 
856	 0.112771051353861 
857	 0.112806318445787 
858	 0.112809078176609 
859	 0.112763996817058 
860	 0.112760516665845 
861	 0.112780905101551 
862	 0.112780987875751 
863	 0.112792665295241 
864	 0.112816400510479 
865	 0.11285267828777 
866	 0.112898733304917 
867	 0.112935144876304 
868	 0.11294051306375 
869	 0.112954435850062 
870	 0.113060695569828 
871	 0.113086656979832 
872	 0.11316403613032 
873	 0.113315145047456 
874	 0.113312503651298 
875	 0.11338378484618 
876	 0.113464981149863 
877	 0.113491632587992 
878	 0.113585732438166 
879	 0.113759605759485 
880	 0.113914488731165 
881	 0.113970166069923 
882	 0.114095044686716 
883	 0.114277009528582 
884	 0.114425801845671 
885	 0.114463309738653 
886	 0.114650559108491 
887	 0.114809876781525 
888	 0.114937467853476 
889	 0.115179133087147 
890	 0.115356943467793 
891	 0.115526146111869 
892	 0.115712459453591 
893	 0.115868821553736 
894	 0.116008046496893 
895	 0.116215260182593 
896	 0.116492104763139 
897	 0.116672590149901 
898	 0.116859979077319 
899	 0.117074982061948 
900	 0.117315705480022 
901	 0.117578678765535 
902	 0.11783132568862 
903	 0.118072031827594 
904	 0.118316301841238 
905	 0.118597261675891 
906	 0.118841684762576 
907	 0.119085266500512 
908	 0.11939981912745 
909	 0.119752071192644 
910	 0.120053114765538 
911	 0.120332834941334 
912	 0.120680739103543 
913	 0.120992008136099 
914	 0.121335231914488 
915	 0.121699806796951 
916	 0.122007697894262 
917	 0.12234588401726 
918	 0.122713394406454 
919	 0.123068888311044 
920	 0.123354158725026 
921	 0.123738648209495 
922	 0.1241919288069 
923	 0.124637969371786 
924	 0.125001319285893 
925	 0.125407744800951 
926	 0.125854963241885 
927	 0.126296414185066 
928	 0.126660511877065 
929	 0.127155743520238 
930	 0.127665548982393 
931	 0.128096048391738 
932	 0.128606269159922 
933	 0.129122990696591 
934	 0.129583188543875 
935	 0.129993302798092 
936	 0.130545808655113 
937	 0.131119555201105 
938	 0.131645005333677 
939	 0.132112776841287 
940	 0.13264449676394 
941	 0.133199664197507 
942	 0.133789141062963 
943	 0.134414281821752 
944	 0.134962647813242 
945	 0.135547933277619 
946	 0.136132162312761 
947	 0.136650191219508 
948	 0.137253266009016 
949	 0.137830189157709 
950	 0.138469951251105 
951	 0.139271321587649 
952	 0.139852764071672 
953	 0.140463451987633 
954	 0.141169416785832 
955	 0.141895795529122 
956	 0.142544267047868 
957	 0.143222443895407 
958	 0.143957480081866 
959	 0.144712451310257 
960	 0.145477406353847 
961	 0.146095041740823 
962	 0.146688456975591 
963	 0.147499239815254 
964	 0.148310786396717 
965	 0.149157860718156 
966	 0.149951778201282 
967	 0.150591066950583 
968	 0.151416541418324 
969	 0.152269516675328 
970	 0.15304147564874 
971	 0.153739560397322 
972	 0.154670513664353 
973	 0.15547491047646 
974	 0.156165794296218 
975	 0.157011220373652 
976	 0.157964202827924 
977	 0.158903313965342 
978	 0.159725090158801 
979	 0.160416246045139 
980	 0.161307407918012 
981	 0.162156115322704 
982	 0.162971442570656 
983	 0.163891280220862 
984	 0.164705446883042 
985	 0.165601681223496 
986	 0.166529819243826 
987	 0.16736484497437 
988	 0.168403607194489 
989	 0.16931025139939 
990	 0.170104810481948 
991	 0.170982591983463 
992	 0.171930808784274 
993	 0.172807784441281 
994	 0.173662081488835 
995	 0.174605627330501 
996	 0.175603751808853 
997	 0.17661070185805 
998	 0.177587791353525 
999	 0.178524045736548 
1000	 0.179473296349675 
1001	 0.179590719206082 
1002	 0.180505660663293 
1003	 0.181319406554864 
1004	 0.182146521542191 
1005	 0.182970751527545 
1006	 0.183819717336176 
1007	 0.184665935811446 
1008	 0.185510749961719 
1009	 0.186338733287753 
1010	 0.187108282938802 
1011	 0.187916174326535 
1012	 0.188756773758819 
1013	 0.189547262119306 
1014	 0.190353618909775 
1015	 0.191103881364323 
1016	 0.191823186775987 
1017	 0.192598295718443 
1018	 0.193415249024024 
1019	 0.19421714425738 
1020	 0.195009238252125 
1021	 0.195724810719668 
1022	 0.196375846465057 
1023	 0.197048423946711 
1024	 0.197670988056268 
1025	 0.198342495653564 
1026	 0.199068342857036 
1027	 0.199762983984339 
1028	 0.200502604062232 
1029	 0.201233795429093 
1030	 0.2018854958482 
1031	 0.202553046773575 
1032	 0.203210714837343 
1033	 0.203878356424751 
1034	 0.204507898643809 
1035	 0.20516245328944 
1036	 0.20585242105436 
1037	 0.206484195423639 
1038	 0.20711351560984 
1039	 0.207788911992786 
1040	 0.208421126553636 
1041	 0.209065907065659 
1042	 0.20975900917918 
1043	 0.210405495988627 
1044	 0.211007932064509 
1045	 0.211571690955425 
1046	 0.212118313155561 
1047	 0.212695045081133 
1048	 0.213315317140793 
1049	 0.213955801392458 
1050	 0.214627872253546 
1051	 0.215230239773035 
1052	 0.215740816772301 
1053	 0.21626707051708 
1054	 0.216757117373512 
1055	 0.217286608247657 
1056	 0.217911249850767 
1057	 0.218491939691945 
1058	 0.219106902662292 
1059	 0.219691647599864 
1060	 0.220260041185645 
1061	 0.220769235951457 
1062	 0.221331014570664 
1063	 0.221866077671965 
1064	 0.22238152871661 
1065	 0.222921366012141 
1066	 0.223430949504942 
1067	 0.223973626044318 
1068	 0.224516888319251 
1069	 0.224985077180668 
1070	 0.225495407031378 
1071	 0.226029728562302 
1072	 0.226510185294252 
1073	 0.226950208351797 
1074	 0.22744974612175 
1075	 0.227936811503355 
1076	 0.228428933227244 
1077	 0.228963454244691 
1078	 0.229510069408526 
1079	 0.230040567057677 
1080	 0.230517924427876 
1081	 0.230986624066528 
1082	 0.231459466804026 
1083	 0.231937000677021 
1084	 0.232393155134576 
1085	 0.232875594008289 
1086	 0.233402602234927 
1087	 0.233873840388286 
1088	 0.234323021154165 
1089	 0.234748967468548 
1090	 0.235201611413449 
1091	 0.235690413969927 
1092	 0.236200142114962 
1093	 0.236700721729036 
1094	 0.237178364832057 
1095	 0.237616059060255 
1096	 0.238075254768615 
1097	 0.238572111843721 
1098	 0.239017547187357 
1099	 0.239413624009177 
1100	 0.239869213269748 
1101	 0.240322693971882 
1102	 0.240787754506276 
1103	 0.241274536214066 
1104	 0.241810338539568 
1105	 0.242329107103645 
1106	 0.242799406458527 
1107	 0.243311344792021 
1108	 0.24381624206989 
1109	 0.244249625572948 
1110	 0.244714505476476 
1111	 0.24518340729868 
1112	 0.245633805636971 
1113	 0.246103222590681 
1114	 0.246582535505879 
1115	 0.247092546284923 
1116	 0.247636046347317 
1117	 0.248152224363634 
1118	 0.248698962095573 
1119	 0.249207893992846 
1120	 0.249678732177028 
1121	 0.250159732015507 
1122	 0.250626071825777 
1123	 0.251131648692849 
1124	 0.251632307256599 
1125	 0.252135073788891 
1126	 0.252631357516121 
1127	 0.253133223962392 
1128	 0.253629953121438 
1129	 0.254116041473415 
1130	 0.254611191640795 
1131	 0.255140408208791 
1132	 0.255623662031283 
1133	 0.256060579720508 
1134	 0.256531465782225 
1135	 0.257003792596797 
1136	 0.257463141552205 
1137	 0.257944564912734 
1138	 0.258419313468322 
1139	 0.258861691196121 
1140	 0.259254268358384 
1141	 0.259694283356765 
1142	 0.26015443732327 
1143	 0.260583373880436 
1144	 0.261027870190841 
1145	 0.261438792843375 
1146	 0.26179497256281 
1147	 0.262184406913005 
1148	 0.262589133717732 
1149	 0.262976954461724 
1150	 0.263354375146748 
1151	 0.263749151453377 
1152	 0.264132541116482 
1153	 0.264517031842292 
1154	 0.264901966964154 
1155	 0.265305868833492 
1156	 0.265677342384697 
1157	 0.26602791644737 
1158	 0.266385961789459 
1159	 0.266750029750051 
1160	 0.267088610998013 
1161	 0.267403553368884 
1162	 0.267736151322381 
1163	 0.268062734216399 
1164	 0.268383471712437 
1165	 0.268705854683799 
1166	 0.269048924603487 
1167	 0.269357697248031 
1168	 0.269653959530322 
1169	 0.269973400366213 
1170	 0.270309870552271 
1171	 0.270619562631448 
1172	 0.270932033762636 
1173	 0.27123465674941 
1174	 0.271512039074448 
1175	 0.271802933771388 
1176	 0.272108664472576 
1177	 0.27239703783777 
1178	 0.272677779382144 
1179	 0.272955883159082 
1180	 0.273224045088407 
1181	 0.273490861760102 
1182	 0.273767197529024 
1183	 0.274023776842719 
1184	 0.274266220268469 
1185	 0.274496463680244 
1186	 0.274728510580863 
1187	 0.274934400072038 
1188	 0.275172011333139 
1189	 0.275441665593065 
1190	 0.27567048654223 
1191	 0.275895911142875 
1192	 0.276109437717809 
1193	 0.276285936661521 
1194	 0.276482689616972 
1195	 0.276692710271196 
1196	 0.276891086093479 
1197	 0.277077265141469 
1198	 0.277275850809297 
1199	 0.277477617844086 
1200	 0.277686012726952 
1201	 0.277872757262532 
1202	 0.278061693262914 
1203	 0.278239705062885 
1204	 0.278388402303302 
1205	 0.278560176218198 
1206	 0.278753627195182 
1207	 0.27892080263706 
1208	 0.279073215228769 
1209	 0.279236380325018 
1210	 0.279398572718692 
1211	 0.279550496883227 
1212	 0.279707024822794 
1213	 0.279857012801556 
1214	 0.279991988511872 
1215	 0.280125478043725 
1216	 0.280257129918117 
1217	 0.280392841319698 
1218	 0.280518626372464 
1219	 0.280630332572234 
1220	 0.280756014303232 
1221	 0.280882631886309 
1222	 0.281014452885939 
1223	 0.281164781006959 
1224	 0.281290774285116 
1225	 0.281399621493718 
1226	 0.281523779516376 
1227	 0.28164386003988 
1228	 0.281763854911757 
1229	 0.281901042296286 
1230	 0.28202655476124 
1231	 0.282132344642244 
1232	 0.282249518406437 
1233	 0.282370103108833 
1234	 0.282501256654699 
1235	 0.28260908810522 
1236	 0.282707787129259 
1237	 0.282818114818089 
1238	 0.282927095189694 
1239	 0.283020437851342 
1240	 0.283113901716691 
1241	 0.283209093969052 
1242	 0.283282139840317 
1243	 0.283370434762189 
1244	 0.283477738857043 
1245	 0.283576542858715 
1246	 0.283675584419926 
1247	 0.283766782251156 
1248	 0.283848771235518 
1249	 0.283945301312561 
1250	 0.284032497294558 
1251	 0.284094787280054 
1252	 0.284174022905642 
1253	 0.284254064865605 
1254	 0.284340955670235 
1255	 0.284436191150474 
1256	 0.284522377903066 
1257	 0.284614060370446 
1258	 0.284693828095079 
1259	 0.284755410132383 
1260	 0.28483371987665 
1261	 0.284916128853074 
1262	 0.284997287943392 
1263	 0.285087526058703 
1264	 0.285174593692187 
1265	 0.285255292672092 
1266	 0.285340202387711 
1267	 0.285435349586052 
1268	 0.285517741253696 
1269	 0.285603045547703 
1270	 0.285697741509712 
1271	 0.285759742230094 
1272	 0.285804919187481 
1273	 0.285855241961894 
1274	 0.285877390364163 
1275	 0.28592685001603 
1276	 0.285984600083745 
1277	 0.286054696468629 
1278	 0.286144146230634 
1279	 0.286223042047815 
1280	 0.286320568543914 
1281	 0.28639550328155 
1282	 0.28645497576413 
1283	 0.286509772665859 
1284	 0.286546139201172 
1285	 0.28658733043999 
1286	 0.286648562511224 
1287	 0.286709648730792 
1288	 0.286767704688243 
1289	 0.286841756440266 
1290	 0.286903236908766 
1291	 0.286938746523567 
1292	 0.287010696212251 
1293	 0.287113732695454 
1294	 0.287179106445877 
1295	 0.287247756459134 
1296	 0.287305293131097 
1297	 0.287339216980975 
1298	 0.287374165539313 
1299	 0.287420493851187 
1300	 0.287438264801508 
1301	 0.287420175968141 
1302	 0.287418450291332 
1303	 0.28740676203644 
1304	 0.287403962773947 
1305	 0.287414808079365 
1306	 0.287420783624636 
1307	 0.287411709462968 
1308	 0.2873899483524 
1309	 0.287360288634143 
1310	 0.287312859788125 
1311	 0.287272576575014 
1312	 0.287225463955501 
1313	 0.287188438483931 
1314	 0.287153184332774 
1315	 0.287119761300934 
1316	 0.287088109574139 
1317	 0.287061153132016 
1318	 0.28703906329926 
1319	 0.287017642083616 
1320	 0.287003129342213 
1321	 0.286984846923365 
1322	 0.286962464991965 
1323	 0.286941976588548 
1324	 0.286935573671565 
1325	 0.286933719278441 
1326	 0.286915691288603 
1327	 0.286904951460778 
1328	 0.286875565590954 
1329	 0.286834058487349 
1330	 0.286832162482783 
1331	 0.286852540794873 
1332	 0.286869088841577 
1333	 0.286912116357685 
1334	 0.286939721299329 
1335	 0.286954604770518 
1336	 0.286979610768712 
1337	 0.287006607869126 
1338	 0.287038138931929 
1339	 0.287078684571074 
1340	 0.287117640998582 
1341	 0.287165133063099 
1342	 0.287203294566569 
1343	 0.287240753291163 
1344	 0.287259511768262 
1345	 0.287303254499609 
1346	 0.287339194949239 
1347	 0.287362506137952 
1348	 0.287391140434018 
1349	 0.287404092552169 
1350	 0.287385238844103 
1351	 0.287370525124084 
1352	 0.2873594068235 
1353	 0.28732390157957 
1354	 0.287264740857098 
1355	 0.287220101114133 
1356	 0.287145050538837 
1357	 0.287121516266274 
1358	 0.28712848061315 
1359	 0.287129650170167 
1360	 0.287144973115277 
1361	 0.287174640075305 
1362	 0.287208081955264 
1363	 0.287254872923086 
1364	 0.287322728740104 
1365	 0.287401755400275 
1366	 0.287496980271634 
1367	 0.28757984638914 
1368	 0.287684439513067 
1369	 0.287792092700277 
1370	 0.28787230147172 
1371	 0.28795050147018 
1372	 0.288007436909149 
1373	 0.288024603203604 
1374	 0.288009138172939 
1375	 0.287965571204043 
1376	 0.287885890979397 
1377	 0.287765756696189 
1378	 0.287626743908075 
1379	 0.287431086257347 
1380	 0.287273533938683 
1381	 0.287100263893126 
1382	 0.286947280362391 
1383	 0.286843032338789 
1384	 0.286693179503941 
1385	 0.286533742677637 
1386	 0.286356792175652 
1387	 0.286160471950059 
1388	 0.285941881515457 
1389	 0.285730244177051 
1390	 0.285464040412814 
1391	 0.285129651017523 
1392	 0.284778573078619 
1393	 0.284353571299493 
1394	 0.283914525701365 
1395	 0.283492019690597 
1396	 0.28303923844689 
1397	 0.282585888349916 
1398	 0.282128545523977 
1399	 0.281660524463757 
1400	 0.281178488675137 
1401	 0.280694839052336 
1402	 0.280199224064167 
1403	 0.27971751295283 
1404	 0.279226266116629 
1405	 0.278756443385866 
1406	 0.27831155817905 
1407	 0.277850377519387 
1408	 0.277382026735176 
1409	 0.276932312600305 
1410	 0.276454561287043 
1411	 0.276039258250919 
1412	 0.275654803147819 
1413	 0.275302604511809 
1414	 0.27501367660435 
1415	 0.274755375520321 
1416	 0.274481465887669 
1417	 0.274220351778502 
1418	 0.273955845629504 
1419	 0.273683187375395 
1420	 0.273453359584858 
1421	 0.273253240624181 
1422	 0.273066308645813 
1423	 0.272883143715591 
1424	 0.272686928250829 
1425	 0.272485532045894 
1426	 0.27229479885872 
1427	 0.272080385863449 
1428	 0.271918814727073 
1429	 0.271795257121474 
1430	 0.271661336264466 
1431	 0.27155459098466 
1432	 0.271437790888987 
1433	 0.271301851929265 
1434	 0.271194285869424 
1435	 0.271095940035753 
1436	 0.271011723039163 
1437	 0.270959994993181 
1438	 0.270892639089682 
1439	 0.270828357493903 
1440	 0.270769330963822 
1441	 0.270682561067417 
1442	 0.270595734225608 
1443	 0.270520854398339 
1444	 0.270450059817147 
1445	 0.270410848206314 
1446	 0.270387898046708 
1447	 0.270358582091584 
1448	 0.270331600034609 
1449	 0.270300511286432 
1450	 0.270267283401862 
1451	 0.27026408818878 
1452	 0.270277936153003 
1453	 0.270311958187113 
1454	 0.270382847619187 
1455	 0.270424650295679 
1456	 0.270470609552773 
1457	 0.270506468981191 
1458	 0.270517586723467 
1459	 0.270557168091544 
1460	 0.270605327835408 
1461	 0.270664759257735 
1462	 0.27074686138095 
1463	 0.270814725369048 
1464	 0.27089026651415 
1465	 0.27095508022737 
1466	 0.27099898782325 
1467	 0.271061870515478 
1468	 0.271110631456329 
1469	 0.271193429735238 
1470	 0.271306217293873 
1471	 0.271423776321693 
1472	 0.271547060975549 
1473	 0.271684365854374 
1474	 0.271785119007571 
1475	 0.271895148194265 
1476	 0.272021012588333 
1477	 0.272144291899675 
1478	 0.272305059753099 
1479	 0.272482495238602 
1480	 0.272654018494253 
1481	 0.272823963015417 
1482	 0.27296764945551 
1483	 0.273081582008925 
1484	 0.273222631622143 
1485	 0.273350554212557 
1486	 0.273504133125688 
1487	 0.273692908810047 
1488	 0.273849707380024 
1489	 0.274005022937826 
1490	 0.274149394218332 
1491	 0.274274970684009 
1492	 0.274410490962996 
1493	 0.274534504776401 
1494	 0.274679330803316 
1495	 0.274841996331067 
1496	 0.274989106366246 
1497	 0.275149467284985 
1498	 0.275295491410953 
1499	 0.275421690089958 
1500	 0.275555631390837 
1501	 0.275688024269022 
1502	 0.275816617069265 
1503	 0.275938491377397 
1504	 0.276069464989578 
1505	 0.276203623183111 
1506	 0.276338470785314 
1507	 0.276462608287656 
1508	 0.276574798906178 
1509	 0.27668571996504 
1510	 0.276796341466126 
1511	 0.276911987041607 
1512	 0.277031034813491 
1513	 0.277157481355193 
1514	 0.277268901491765 
1515	 0.277379164046339 
1516	 0.27750749950307 
1517	 0.277612769028644 
1518	 0.277702395595423 
1519	 0.277801678101826 
1520	 0.277888703747077 
1521	 0.277995357114951 
1522	 0.278113438017299 
1523	 0.278231796583133 
1524	 0.278370970664376 
1525	 0.278476319558719 
1526	 0.278567716500505 
1527	 0.278660122156897 
1528	 0.278729570107818 
1529	 0.278817146309293 
1530	 0.278916078354001 
1531	 0.279009351568626 
1532	 0.279106316751546 
1533	 0.279193617968775 
1534	 0.279276883140116 
1535	 0.279361072143497 
1536	 0.279436846083386 
1537	 0.279517557307161 
1538	 0.279606824308894 
1539	 0.279680791901009 
1540	 0.279740550258487 
1541	 0.279815535011539 
1542	 0.279888130986475 
1543	 0.279965511768234 
1544	 0.280064333654219 
1545	 0.280147034179285 
1546	 0.280212623853028 
1547	 0.280291229137737 
1548	 0.280383243639112 
1549	 0.280454420658081 
1550	 0.280536394332705 
1551	 0.28063313526322 
1552	 0.280725276278703 
1553	 0.280814798782698 
1554	 0.280889233666769 
1555	 0.280951059766167 
1556	 0.281007554609452 
1557	 0.281076441902914 
1558	 0.281164637912266 
1559	 0.281240640544901 
1560	 0.281299878906303 
1561	 0.281337627662137 
1562	 0.281393361749787 
1563	 0.281443258478548 
1564	 0.281506279342627 
1565	 0.281594795848042 
1566	 0.281650876382399 
1567	 0.28168722694572 
1568	 0.281735032999211 
1569	 0.281778353254645 
1570	 0.281816765022469 
1571	 0.281864879605328 
1572	 0.281897986900177 
1573	 0.28191338442602 
1574	 0.28193229434877 
1575	 0.281940264360258 
1576	 0.281965922908553 
1577	 0.281998005227582 
1578	 0.282027467515784 
1579	 0.282058339823602 
1580	 0.282107244652609 
1581	 0.282175705128885 
1582	 0.282218811389297 
1583	 0.282258305546718 
1584	 0.282308855757905 
1585	 0.282335129075056 
1586	 0.282383534058874 
1587	 0.282480962724546 
1588	 0.282537683512087 
1589	 0.282569463134816 
1590	 0.2826102793485 
1591	 0.282640609792586 
1592	 0.2826714915973 
1593	 0.282715343659899 
1594	 0.282741348268361 
1595	 0.282746758509451 
1596	 0.282759192207529 
1597	 0.282764849585911 
1598	 0.282773765690234 
1599	 0.28279870778437 
1600	 0.282803887224626 
1601	 0.282777880906849 
1602	 0.282786542904957 
1603	 0.282801427144283 
1604	 0.282818813331455 
1605	 0.282868434821134 
1606	 0.282907777178345 
1607	 0.282935573736075 
1608	 0.282966466822045 
1609	 0.283025443686217 
1610	 0.28306024902317 
1611	 0.283080653703487 
1612	 0.283126918889099 
1613	 0.283146555136761 
1614	 0.28314895818484 
1615	 0.283161967913709 
1616	 0.283164261565422 
1617	 0.283174782363512 
1618	 0.283191712370151 
1619	 0.283215925567024 
1620	 0.283245955645492 
1621	 0.283264053007309 
1622	 0.283281576773875 
1623	 0.283294328849226 
1624	 0.283299679989602 
1625	 0.283302160893321 
1626	 0.283299964602608 
1627	 0.283305320475576 
1628	 0.283307067763057 
1629	 0.283312238342057 
1630	 0.283326770381767 
1631	 0.28333533549186 
1632	 0.283336908976073 
1633	 0.283346077700667 
1634	 0.283362733191775 
1635	 0.283368756668315 
1636	 0.283374106690641 
1637	 0.28337493657339 
1638	 0.283362229312883 
1639	 0.28336824260526 
1640	 0.283379254765252 
1641	 0.283392234075501 
1642	 0.283417317795177 
1643	 0.283436065520168 
1644	 0.283450475262524 
1645	 0.283472608470902 
1646	 0.283505438618993 
1647	 0.283519306873103 
1648	 0.283528691732602 
1649	 0.283534989680029 
1650	 0.283524496610282 
1651	 0.28352794064118 
1652	 0.283532834236348 
1653	 0.283548961165037 
1654	 0.283582753584347 
1655	 0.283592330412404 
1656	 0.283612019321777 
1657	 0.283598047524151 
1658	 0.283541752983418 
1659	 0.283514854084501 
1660	 0.283479798430788 
1661	 0.283460580899899 
1662	 0.283460926268004 
1663	 0.28345437015135 
1664	 0.28345295844406 
1665	 0.283443358138056 
1666	 0.28344040912814 
1667	 0.283416412219474 
1668	 0.283374224437415 
1669	 0.283338059728613 
1670	 0.283286031431598 
1671	 0.283251063181283 
1672	 0.283211478784383 
1673	 0.283205284064367 
1674	 0.283227961119116 
1675	 0.283237231605717 
1676	 0.283280710266724 
1677	 0.283279837770856 
1678	 0.283240581799543 
1679	 0.283224394444329 
1680	 0.283196285270442 
1681	 0.283184202255616 
1682	 0.283189211629177 
1683	 0.28318992003192 
1684	 0.283195629013685 
1685	 0.283194509894587 
1686	 0.283196979734021 
1687	 0.283189555990116 
1688	 0.28316440440959 
1689	 0.283158803801495 
1690	 0.283166186056596 
1691	 0.283156932268153 
1692	 0.283150852606618 
1693	 0.283138025966791 
1694	 0.283105410035422 
1695	 0.283085349001079 
1696	 0.28306812049328 
1697	 0.283059366923114 
1698	 0.283059979490358 
1699	 0.283051872404868 
1700	 0.283052468947635 
1701	 0.283040718222707 
1702	 0.283015622011856 
1703	 0.282991388756178 
1704	 0.282958735883161 
1705	 0.282940563462594 
1706	 0.282920210325492 
1707	 0.282912691104058 
1708	 0.282941925631211 
1709	 0.28291937701021 
1710	 0.282870093107423 
1711	 0.28283764373675 
1712	 0.282773311222791 
1713	 0.282742562319373 
1714	 0.282743935909331 
1715	 0.282732981536895 
1716	 0.282722607719713 
1717	 0.28271629662724 
1718	 0.282730507054367 
1719	 0.282705877299497 
1720	 0.282662690985512 
1721	 0.282619383303432 
1722	 0.282557626554161 
1723	 0.282486899341357 
1724	 0.282414234062871 
1725	 0.282339990472838 
1726	 0.282236836179517 
1727	 0.282162250106056 
1728	 0.28209716225156 
1729	 0.282053004291834 
1730	 0.282023538178776 
1731	 0.282002348820913 
1732	 0.282019784044559 
1733	 0.281993751312817 
1734	 0.281961074425053 
1735	 0.281903069964181 
1736	 0.281813139031861 
1737	 0.281728964819119 
1738	 0.281634878518833 
1739	 0.281537472783084 
1740	 0.281424248455295 
1741	 0.281336513055501 
1742	 0.281243319014022 
1743	 0.281180705144973 
1744	 0.28116349629856 
1745	 0.281104455099145 
1746	 0.281039995037311 
1747	 0.28097196912751 
1748	 0.280878738226714 
1749	 0.280797128627196 
1750	 0.280735009135393 
1751	 0.280656562323513 
1752	 0.280577228702079 
1753	 0.280526194692476 
1754	 0.280475024903952 
1755	 0.280413870359206 
1756	 0.280365619914155 
1757	 0.280319848507081 
1758	 0.280253077067845 
1759	 0.28018459587924 
1760	 0.280131606071058 
1761	 0.280061643670521 
1762	 0.280000682427592 
1763	 0.279949148872121 
1764	 0.279915984347383 
1765	 0.279906595089064 
1766	 0.279876802779427 
1767	 0.279848140453969 
1768	 0.279817781942537 
1769	 0.279785737375292 
1770	 0.279734861575398 
1771	 0.279694963886128 
1772	 0.279675857288882 
1773	 0.279612534488589 
1774	 0.279580660333658 
1775	 0.279575478700878 
1776	 0.279506959821864 
1777	 0.279419131274555 
1778	 0.279337537994657 
1779	 0.279256237677425 
1780	 0.27919995862191 
1781	 0.279187992723063 
1782	 0.279210561045453 
1783	 0.279222956484825 
1784	 0.279214991696916 
1785	 0.279188042564721 
1786	 0.27915768349149 
1787	 0.279113224760875 
1788	 0.279073421609993 
1789	 0.27902691210111 
1790	 0.279015497170543 
1791	 0.279026425369828 
1792	 0.279028505249155 
1793	 0.279045864751001 
1794	 0.279055570308663 
1795	 0.279055724834948 
1796	 0.279049128691013 
1797	 0.279061774977956 
1798	 0.279053259669662 
1799	 0.279021084250099 
1800	 0.278986136802487 
1801	 0.277599422710509 
1802	 0.277790333538259 
1803	 0.277985621856185 
1804	 0.278186517902791 
1805	 0.278359313831695 
1806	 0.278525831727497 
1807	 0.278700561297036 
1808	 0.278827485359959 
1809	 0.278931093096302 
1810	 0.279010243677203 
1811	 0.279047857113628 
1812	 0.279074918079136 
1813	 0.27913075457719 
1814	 0.279190255974733 
1815	 0.27925487480225 
1816	 0.279305449863437 
1817	 0.279321444397549 
1818	 0.279281114307729 
1819	 0.279284641805844 
1820	 0.279289558468428 
1821	 0.27928557247441 
1822	 0.279310412790235 
1823	 0.27933865260693 
1824	 0.279353879518477 
1825	 0.279350813974049 
1826	 0.279329376764707 
1827	 0.279314032536555 
1828	 0.279289027181444 
1829	 0.279257428579277 
1830	 0.279219584331529 
1831	 0.279182073323604 
1832	 0.279118806765322 
1833	 0.279053281088518 
1834	 0.278972956497783 
1835	 0.278926659139808 
1836	 0.278907122127322 
1837	 0.278913824175595 
1838	 0.278917761709832 
1839	 0.278910251191644 
1840	 0.278898840099931 
1841	 0.278891400005044 
1842	 0.278867668127505 
1843	 0.278867363583284 
1844	 0.278874241938436 
1845	 0.278860005607395 
1846	 0.278837003917811 
1847	 0.278816876142245 
1848	 0.278799725925834 
1849	 0.278765305797044 
1850	 0.278737439823413 
1851	 0.278723105149554 
1852	 0.27867904234169 
1853	 0.278606884241543 
1854	 0.278573126027827 
1855	 0.278518119679767 
1856	 0.27845284256797 
1857	 0.278401307451833 
1858	 0.278304960311311 
1859	 0.278184151722637 
1860	 0.278042123824687 
1861	 0.27788265044254 
1862	 0.27769327916227 
1863	 0.277461033165679 
1864	 0.277168678896083 
1865	 0.276820793049778 
1866	 0.276403125430653 
1867	 0.275995270736385 
1868	 0.275570711460454 
1869	 0.275129619913844 
1870	 0.27473015359233 
1871	 0.274312832455191 
1872	 0.273877908884831 
1873	 0.27346698252884 
1874	 0.273056921065095 
1875	 0.272638654301802 
1876	 0.27221916394717 
1877	 0.271736305250727 
1878	 0.271200232066075 
1879	 0.270584893396253 
1880	 0.269877791017523 
1881	 0.26907462913871 
1882	 0.268215797734849 
1883	 0.267292196768381 
1884	 0.266261117283509 
1885	 0.26516569136402 
1886	 0.264012665007417 
1887	 0.262755374473512 
1888	 0.261434482364463 
1889	 0.260070629992016 
1890	 0.258636608862536 
1891	 0.257169546596299 
1892	 0.255658833521921 
1893	 0.254098777168429 
1894	 0.252485732804808 
1895	 0.250828817090495 
1896	 0.249135603462191 
1897	 0.247424076281812 
1898	 0.245690491470656 
1899	 0.244006478782026 
1900	 0.242379744804362 
1901	 0.240794239416206 
1902	 0.239289875471832 
1903	 0.237903071502985 
1904	 0.236516184052377 
1905	 0.235160097315895 
1906	 0.233870799551785 
1907	 0.232630652385853 
1908	 0.231445586927317 
1909	 0.23032278219473 
1910	 0.229237032510944 
1911	 0.228230359085524 
1912	 0.227240373171763 
1913	 0.226291472444481 
1914	 0.225371935045662 
1915	 0.224543588035376 
1916	 0.223759734302427 
1917	 0.223034241416982 
1918	 0.222405360207937 
1919	 0.221802471774018 
1920	 0.221264234526511 
1921	 0.220767038215868 
1922	 0.220319353428273 
1923	 0.219974517381449 
1924	 0.21965086528081 
1925	 0.219373938433447 
1926	 0.219136509300243 
1927	 0.218970629518982 
1928	 0.218782996284916 
1929	 0.21861410387042 
1930	 0.218497209371045 
1931	 0.21837220832571 
1932	 0.218288417592498 
1933	 0.218260247672824 
1934	 0.218242004374566 
1935	 0.218252809884005 
1936	 0.218300135445426 
1937	 0.218363112471635 
1938	 0.218451752735335 
1939	 0.218554163480885 
1940	 0.218681114210533 
1941	 0.218802747369138 
1942	 0.218971737793725 
1943	 0.219161690265465 
1944	 0.219369707462062 
1945	 0.219630242874091 
1946	 0.219878472299726 
1947	 0.220128491808736 
1948	 0.220395275586209 
1949	 0.220672706555876 
1950	 0.220962068504757 
1951	 0.221262188046038 
1952	 0.221583982060879 
1953	 0.221910712002247 
1954	 0.222241642766059 
1955	 0.22257779206897 
1956	 0.222940348385831 
1957	 0.223315165313511 
1958	 0.223714434929217 
1959	 0.224108909526572 
1960	 0.224527902048603 
1961	 0.224919428119084 
1962	 0.225301270976834 
1963	 0.22568494407192 
1964	 0.22605649602136 
1965	 0.226432921568633 
1966	 0.22681373145012 
1967	 0.227186175249365 
1968	 0.227579475984418 
1969	 0.227984954885365 
1970	 0.228384177142964 
1971	 0.228797246105146 
1972	 0.22920726996622 
1973	 0.229600247957011 
1974	 0.23001328919193 
1975	 0.230450797052347 
1976	 0.230873713257412 
1977	 0.231274796327673 
1978	 0.231698529336831 
1979	 0.232123938126962 
1980	 0.232549113065321 
1981	 0.23298809612262 
1982	 0.23345842231145 
1983	 0.233903835225186 
1984	 0.234341185648628 
1985	 0.234779987549806 
1986	 0.235223269646101 
1987	 0.235651002248988 
1988	 0.236061515631097 
1989	 0.236492943183578 
1990	 0.236900825931389 
1991	 0.237294217481819 
1992	 0.237699678000292 
1993	 0.238109240037124 
1994	 0.238511126260296 
1995	 0.23890181754124 
1996	 0.23931179720675 
1997	 0.239728926040258 
1998	 0.240148157231379 
1999	 0.240590168293317 
2000	 0.241016328230539 
2001	 0.24145029287175 
2002	 0.241845191535328 
2003	 0.242239278690177 
2004	 0.242647154331123 
2005	 0.243063777728379 
2006	 0.243495731867721 
2007	 0.243907906466292 
2008	 0.244321561510831 
2009	 0.244730480576123 
2010	 0.24513459626503 
2011	 0.245525112901084 
2012	 0.245899328874251 
2013	 0.246289958594554 
2014	 0.246684655773514 
2015	 0.24705964365193 
2016	 0.247440892305246 
2017	 0.247833077197934 
2018	 0.248203794070927 
2019	 0.248546531050393 
2020	 0.248900995674808 
2021	 0.249259437469876 
2022	 0.249609018972824 
2023	 0.249940388118286 
2024	 0.250292212328953 
2025	 0.250638216702796 
2026	 0.25100847996328 
2027	 0.251404404263941 
2028	 0.251808155241353 
2029	 0.25219051382892 
2030	 0.252584180513387 
2031	 0.252943784114654 
2032	 0.253273304554208 
2033	 0.253610894382363 
2034	 0.253935073878268 
2035	 0.254266425774305 
2036	 0.254598249566244 
2037	 0.254926882249365 
2038	 0.255260134404661 
2039	 0.255581689703424 
2040	 0.255888744225768 
2041	 0.256211209471679 
2042	 0.256505873230207 
2043	 0.256794190649779 
2044	 0.2570829064102 
2045	 0.257363371447285 
2046	 0.257638864870354 
2047	 0.257914201995595 
2048	 0.258184848872956 
2049	 0.258438712879114 
2050	 0.258706911820882 
2051	 0.25898950009902 
2052	 0.259254977844998 
2053	 0.259515144003476 
2054	 0.259776750987324 
2055	 0.260032469507778 
2056	 0.260283137483528 
2057	 0.260528304459621 
2058	 0.260772767967785 
2059	 0.261017693670144 
2060	 0.261255568225713 
2061	 0.261489579306376 
2062	 0.261732024116413 
2063	 0.261958928735365 
2064	 0.262168826597697 
2065	 0.262381345654269 
2066	 0.262579917954896 
2067	 0.262793858149413 
2068	 0.263011733667355 
2069	 0.26323184025055 
2070	 0.263457575924669 
2071	 0.263700628479283 
2072	 0.263921969203167 
2073	 0.264135080931009 
2074	 0.264352786344355 
2075	 0.264564507490899 
2076	 0.264777106930982 
2077	 0.264992765410724 
2078	 0.265205023690417 
2079	 0.265406956687426 
2080	 0.265620182320041 
2081	 0.265848031650323 
2082	 0.266063389824694 
2083	 0.266277112111825 
2084	 0.266489073380343 
2085	 0.266696337642973 
2086	 0.266892466344626 
2087	 0.267092663895201 
2088	 0.267297225698654 
2089	 0.267492506734567 
2090	 0.267675897478301 
2091	 0.267870226235425 
2092	 0.268066029697708 
2093	 0.268260789248277 
2094	 0.268463056607052 
2095	 0.268660359945266 
2096	 0.268853829440273 
2097	 0.26904514903378 
2098	 0.269233079716044 
2099	 0.269425058854417 
2100	 0.269610728920344 
2101	 0.269796821874532 
2102	 0.269968509062617 
2103	 0.270123629510761 
2104	 0.270298356930556 
2105	 0.270451529941106 
2106	 0.270648793202431 
2107	 0.270883880227879 
2108	 0.271111419761569 
2109	 0.27137454257287 
2110	 0.271608101634562 
2111	 0.271806867785349 
2112	 0.272040305428104 
2113	 0.272298036488904 
2114	 0.272532824093704 
2115	 0.272759590907191 
2116	 0.273007846137107 
2117	 0.273220792083184 
2118	 0.27338277463135 
2119	 0.273588685460785 
2120	 0.273818516994045 
2121	 0.274024436061389 
2122	 0.274235772043417 
2123	 0.27442930779718 
2124	 0.27460350028276 
2125	 0.274774059800375 
2126	 0.274940737147399 
2127	 0.275096860685649 
2128	 0.275237317741814 
2129	 0.275378407741971 
2130	 0.275529186558614 
2131	 0.275652329180408 
2132	 0.275755889031359 
2133	 0.275834090319784 
2134	 0.275934259045913 
2135	 0.276019410274288 
2136	 0.276108402869833 
2137	 0.276232078736757 
2138	 0.276309540415901 
2139	 0.276369840289363 
2140	 0.276399038652151 
2141	 0.276385687472644 
2142	 0.276384372283269 
2143	 0.276362705201627 
2144	 0.276337309785916 
2145	 0.276321966246185 
2146	 0.276290339791889 
2147	 0.276230096088977 
2148	 0.276178423631165 
2149	 0.276122018466956 
2150	 0.276068896813674 
2151	 0.275995313499637 
2152	 0.27591563570407 
2153	 0.275821966139162 
2154	 0.275711336902031 
2155	 0.275593786943242 
2156	 0.275480158494201 
2157	 0.275331413714163 
2158	 0.275145201820097 
2159	 0.274972171417484 
2160	 0.274776048076287 
2161	 0.274590120064597 
2162	 0.274430273076614 
2163	 0.274244628406723 
2164	 0.274037072460533 
2165	 0.273830744768011 
2166	 0.273634205958568 
2167	 0.273428202422431 
2168	 0.273235077798848 
2169	 0.273068108469997 
2170	 0.272870587870246 
2171	 0.272649126445035 
2172	 0.272452462517578 
2173	 0.272248307292306 
2174	 0.272062441461438 
2175	 0.271897033838582 
2176	 0.271733953879032 
2177	 0.271595281541802 
2178	 0.271428579530619 
2179	 0.271253447955164 
2180	 0.271081004872837 
2181	 0.270920965813323 
2182	 0.270714940115754 
2183	 0.270499351396439 
2184	 0.27024637212479 
2185	 0.26999810601597 
2186	 0.269695333120554 
2187	 0.269443923190954 
2188	 0.269213004297512 
2189	 0.268988068829984 
2190	 0.268773879681756 
2191	 0.268559117125286 
2192	 0.268342436851363 
2193	 0.268159896898413 
2194	 0.267977641226775 
2195	 0.267832421560838 
2196	 0.267745821605925 
2197	 0.267637608847123 
2198	 0.267523316678885 
2199	 0.26743878019694 
2200	 0.267368925458315 
2201	 0.267306699582144 
2202	 0.267266438320827 
2203	 0.267247137461687 
2204	 0.267215648230229 
2205	 0.267172983764443 
2206	 0.267154469965428 
2207	 0.267144525603013 
2208	 0.267152052771647 
2209	 0.267182279056987 
2210	 0.267202745432708 
2211	 0.267241585628828 
2212	 0.267260707044277 
2213	 0.267251875131607 
2214	 0.267279062738889 
2215	 0.267311279768589 
2216	 0.267358616800079 
2217	 0.267438904185747 
2218	 0.267510364643444 
2219	 0.267609667431185 
2220	 0.267667548090976 
2221	 0.26771284103669 
2222	 0.267739038746404 
2223	 0.267722259060888 
2224	 0.267716156971675 
2225	 0.267729159368296 
2226	 0.267756546457462 
2227	 0.267765582808212 
2228	 0.267780269307291 
2229	 0.267784768235068 
2230	 0.2677522004927 
2231	 0.267775062016259 
2232	 0.267853480539649 
2233	 0.267869368836134 
2234	 0.267879642257722 
2235	 0.267888072043215 
2236	 0.267861604928263 
2237	 0.26783459537341 
2238	 0.267838152657825 
2239	 0.267797000319006 
2240	 0.267695173366494 
2241	 0.267621671399029 
2242	 0.267518551881456 
2243	 0.267457563409022 
2244	 0.267437602944926 
2245	 0.267418542960956 
2246	 0.267369629586821 
2247	 0.267331358019257 
2248	 0.267260109056054 
2249	 0.26713423402935 
2250	 0.267059112261041 
2251	 0.266984486257702 
2252	 0.266944117720875 
2253	 0.266939515084191 
2254	 0.266906064909584 
2255	 0.266879706128854 
2256	 0.266870051662279 
2257	 0.266872932791794 
2258	 0.266839607031088 
2259	 0.266802104127973 
2260	 0.266766779745669 
2261	 0.266680576281735 
2262	 0.266636712939082 
2263	 0.266632039033655 
2264	 0.266626371284515 
2265	 0.266616379917364 
2266	 0.266630144778282 
2267	 0.266679946515553 
2268	 0.266717357855804 
2269	 0.266773496783253 
2270	 0.26680530584827 
2271	 0.266824084949242 
2272	 0.266855152624527 
2273	 0.266876570550469 
2274	 0.266884600574123 
2275	 0.266889008655587 
2276	 0.26688020040977 
2277	 0.266877333190467 
2278	 0.266877391681676 
2279	 0.266873834561125 
2280	 0.266857360917293 
2281	 0.266869792401636 
2282	 0.266891935647134 
2283	 0.266904542821098 
2284	 0.266935030195171 
2285	 0.266959336493014 
2286	 0.266983230571511 
2287	 0.266992175346246 
2288	 0.267001452548549 
2289	 0.267004493496261 
2290	 0.266979929534546 
2291	 0.266964602250556 
2292	 0.266961743904482 
2293	 0.266947918193492 
2294	 0.266921371349435 
2295	 0.266896704119443 
2296	 0.266874647963774 
2297	 0.266848370754528 
2298	 0.266773521465898 
2299	 0.266750355987049 
2300	 0.266708376801073 
2301	 0.26665929949601 
2302	 0.26667899699446 
2303	 0.266631459320859 
2304	 0.266587272408573 
2305	 0.266576771615798 
2306	 0.266522973899959 
2307	 0.266448441276291 
2308	 0.266375316806523 
2309	 0.266263334919768 
2310	 0.266194061412049 
2311	 0.266163856568196 
2312	 0.266089685666358 
2313	 0.266036027322215 
2314	 0.265924143736704 
2315	 0.265706438408653 
2316	 0.265584792028505 
2317	 0.265495735183458 
2318	 0.265391988843465 
2319	 0.265347223435488 
2320	 0.26526704885477 
2321	 0.265115514955803 
2322	 0.265027998022721 
2323	 0.26498888762266 
2324	 0.26492112745801 
2325	 0.264853050714763 
2326	 0.264804731282945 
2327	 0.26474519544697 
2328	 0.264719469874081 
2329	 0.264695604377954 
2330	 0.264692213921627 
2331	 0.26465311341028 
2332	 0.264541035191809 
2333	 0.264418759133298 
2334	 0.264288463286548 
2335	 0.264164939518296 
2336	 0.26404519824321 
2337	 0.263901021075864 
2338	 0.263816975458488 
2339	 0.263786272606064 
2340	 0.263729094253922 
2341	 0.263704331984687 
2342	 0.263685861844908 
2343	 0.263601853090034 
2344	 0.263469182602677 
2345	 0.263317014276529 
2346	 0.263112849687231 
2347	 0.26294948849436 
2348	 0.262779501224827 
2349	 0.262602686873571 
2350	 0.262442756828916 
2351	 0.262263466337737 
2352	 0.26204245890557 
2353	 0.26184399566369 
2354	 0.261667337293864 
2355	 0.26149090926289 
2356	 0.261339495687112 
2357	 0.26114333989391 
2358	 0.260903872178355 
2359	 0.260697143418092 
2360	 0.26050618767043 
2361	 0.260253701110402 
2362	 0.259979398070024 
2363	 0.259737831008739 
2364	 0.259464160220715 
2365	 0.259175767140913 
2366	 0.258898837936814 
2367	 0.258661987588726 
2368	 0.258416392627533 
2369	 0.258154542531982 
2370	 0.257919298061383 
2371	 0.25772338114088 
2372	 0.257473777565799 
2373	 0.257224210908271 
2374	 0.257035322699608 
2375	 0.256813315075995 
2376	 0.256493932053372 
2377	 0.256113250516381 
2378	 0.255807065702543 
2379	 0.255543527875877 
2380	 0.255188953120406 
2381	 0.254870953054173 
2382	 0.254567350887019 
2383	 0.25420654492719 
2384	 0.253939047420819 
2385	 0.25371024254949 
2386	 0.253430639929292 
2387	 0.253132493572757 
2388	 0.252887294048602 
2389	 0.252589794748333 
2390	 0.252262813011287 
2391	 0.252002337968511 
2392	 0.251638815001277 
2393	 0.251350720750977 
2394	 0.251197538177757 
2395	 0.250916388133567 
2396	 0.250673782246784 
2397	 0.250528431178891 
2398	 0.250194127421414 
2399	 0.24983630977773 
2400	 0.249632077531695 
2401	 0.249333829542565 
2402	 0.248979090883918 
2403	 0.248678745712364 
2404	 0.248301027429331 
2405	 0.247930179050945 
2406	 0.247673706378362 
2407	 0.247441293822855 
2408	 0.247097798384124 
2409	 0.246631638600652 
2410	 0.246233574137704 
2411	 0.245913301324405 
2412	 0.245691516767101 
2413	 0.245550300250975 
2414	 0.245384950509104 
2415	 0.245163234099138 
2416	 0.244851182150906 
2417	 0.24442806974494 
2418	 0.244101849761168 
2419	 0.24368053100867 
2420	 0.24335235740611 
2421	 0.243116429036353 
2422	 0.242851553446032 
2423	 0.242694291244877 
2424	 0.242416630879547 
2425	 0.242068254858329 
2426	 0.241745236491882 
2427	 0.241306644981188 
2428	 0.240917137376629 
2429	 0.24060519509254 
2430	 0.240284000080656 
2431	 0.239957373195013 
2432	 0.239627827435997 
2433	 0.239332614800679 
2434	 0.238952583728354 
2435	 0.238505024624079 
2436	 0.238114551124367 
2437	 0.237696606223178 
2438	 0.2373347491366 
2439	 0.236989202215157 
2440	 0.236646744927543 
2441	 0.236358652170194 
2442	 0.236088934653763 
2443	 0.235903962058303 
2444	 0.235599885337208 
2445	 0.235186812572869 
2446	 0.234888775677336 
2447	 0.234584238600204 
2448	 0.234282368187488 
2449	 0.234104101188944 
2450	 0.233772570019981 
2451	 0.233300255340298 
2452	 0.232939011333211 
2453	 0.232604265412136 
2454	 0.232259511787925 
2455	 0.231952882462 
2456	 0.231565461342258 
2457	 0.231081110817144 
2458	 0.230680653514646 
2459	 0.230333110630622 
2460	 0.229898469250375 
2461	 0.229394629124329 
2462	 0.229130066095449 
2463	 0.228959558836065 
2464	 0.228709042423575 
2465	 0.228598532405263 
2466	 0.22838462548185 
2467	 0.227995101149937 
2468	 0.227673258371854 
2469	 0.227451256768919 
2470	 0.227182111098607 
2471	 0.226990422227585 
2472	 0.226830473770914 
2473	 0.22648402925015 
2474	 0.226092045508876 
2475	 0.225728359408484 
2476	 0.225339191028616 
2477	 0.224940753532188 
2478	 0.224623076144279 
2479	 0.224291924308306 
2480	 0.224005399014222 
2481	 0.223896586446637 
2482	 0.223817581196757 
2483	 0.223462435579147 
2484	 0.223026090177768 
2485	 0.222724363711882 
2486	 0.222389728754503 
2487	 0.222119896085162 
2488	 0.22185717597789 
2489	 0.221622857384969 
2490	 0.221407776052182 
2491	 0.221329347504173 
2492	 0.221487234648433 
2493	 0.221296442466232 
2494	 0.220787874391213 
2495	 0.220343857189827 
2496	 0.219980673396494 
2497	 0.219708714560196 
2498	 0.219622114231423 
2499	 0.21963989415431 
2500	 0.219352966205056 
