Wavelength	LMW_12_00002.asd
350	 0.113625940470873 
351	 0.119913189764348 
352	 0.111424995948714 
353	 9.80738229845819E-02 
354	 0.105811751263646 
355	 0.10657690874442 
356	 0.10350380102525 
357	 0.105368037593796 
358	 0.110815676594378 
359	 0.107795540934837 
360	 0.102886520832433 
361	 0.111824879676504 
362	 0.110813097091792 
363	 0.110041194142279 
364	 0.11345569287618 
365	 0.10836793760201 
366	 0.107447138829431 
367	 0.109122705726626 
368	 0.109777370145602 
369	 0.114780060266135 
370	 0.115918213237066 
371	 0.114604959749048 
372	 0.118024528163432 
373	 0.117927679677534 
374	 0.117756178182608 
375	 0.120268253903342 
376	 0.124996987830136 
377	 0.122588908097942 
378	 0.120394150157234 
379	 0.126081326833236 
380	 0.125998293681612 
381	 0.124985687143094 
382	 0.126165373723724 
383	 0.13032047913886 
384	 0.132271257292309 
385	 0.132216828533687 
386	 0.132421485108408 
387	 0.137845003800509 
388	 0.139712187386684 
389	 0.139095388668178 
390	 0.139643661370705 
391	 0.140343238119591 
392	 0.142557388469904 
393	 0.145753309155634 
394	 0.147863986232277 
395	 0.148864380020876 
396	 0.149935324156229 
397	 0.151898938490894 
398	 0.154587364641515 
399	 0.155998832132565 
400	 0.157134956884048 
401	 0.159716290153106 
402	 0.162916956396294 
403	 0.164327298307539 
404	 0.164463940636904 
405	 0.166688961031381 
406	 0.168478220270312 
407	 0.16959992907267 
408	 0.170503509076099 
409	 0.172222435598744 
410	 0.173331804412455 
411	 0.173704725950748 
412	 0.174075580623755 
413	 0.176680855018167 
414	 0.177935228795675 
415	 0.177089669727485 
416	 0.177548118066335 
417	 0.177701017759797 
418	 0.178293909678399 
419	 0.179842747045096 
420	 0.180456316647746 
421	 0.180397201638955 
422	 0.18030750854012 
423	 0.18086953709967 
424	 0.180582774694221 
425	 0.180265622093172 
426	 0.180392924878381 
427	 0.18028373225888 
428	 0.180313602218217 
429	 0.18019045302344 
430	 0.179616645275181 
431	 0.179242320320718 
432	 0.179160047025783 
433	 0.179377156305166 
434	 0.179840332233096 
435	 0.180106886746923 
436	 0.180273319663194 
437	 0.180538150408528 
438	 0.181043338803084 
439	 0.18169625643046 
440	 0.182526521401845 
441	 0.183572765928924 
442	 0.18444397771736 
443	 0.185394652310865 
444	 0.186465077336093 
445	 0.187264947954946 
446	 0.188289645905869 
447	 0.189439128417069 
448	 0.190467084235202 
449	 0.191253855421719 
450	 0.192361179067532 
451	 0.193735860302977 
452	 0.194815252121184 
453	 0.19586327741926 
454	 0.196589150132679 
455	 0.197014270862469 
456	 0.198147967179781 
457	 0.199283673133876 
458	 0.20010123612216 
459	 0.20057979812742 
460	 0.201582787895963 
461	 0.202127203882951 
462	 0.202130671568269 
463	 0.202979195969489 
464	 0.203835949920608 
465	 0.204557313525642 
466	 0.205170179810416 
467	 0.205630069448777 
468	 0.206024305997495 
469	 0.206368322433795 
470	 0.206641646909363 
471	 0.207318675885376 
472	 0.207861305561048 
473	 0.20799605483179 
474	 0.208458100802637 
475	 0.208988026402493 
476	 0.209528584115536 
477	 0.210080223405115 
478	 0.210525636055593 
479	 0.210910567487731 
480	 0.211330769913216 
481	 0.211927559771872 
482	 0.212606076049921 
483	 0.213151057624048 
484	 0.213444705192095 
485	 0.213879418878509 
486	 0.214261084487353 
487	 0.214630642933086 
488	 0.215213928324789 
489	 0.215758221413872 
490	 0.216224520525502 
491	 0.216648425113728 
492	 0.217157874002035 
493	 0.217544461070406 
494	 0.217957007594906 
495	 0.218628437276815 
496	 0.219046690911092 
497	 0.219457383901911 
498	 0.220003981030244 
499	 0.220578428738511 
500	 0.221026570926991 
501	 0.221439579241898 
502	 0.221939060871446 
503	 0.222413546547532 
504	 0.22288348837583 
505	 0.223340687587758 
506	 0.223756360132023 
507	 0.224339418925871 
508	 0.224899289228432 
509	 0.225292763058036 
510	 0.225697017176288 
511	 0.226208204027147 
512	 0.226773763780291 
513	 0.227273764800864 
514	 0.227829762686255 
515	 0.228309425269886 
516	 0.22870610425299 
517	 0.229283209094104 
518	 0.229730782284681 
519	 0.230078260106703 
520	 0.230477075221147 
521	 0.231081880534433 
522	 0.231656739013139 
523	 0.232142773081702 
524	 0.232685896250126 
525	 0.233085039378372 
526	 0.233444760695402 
527	 0.233881124250565 
528	 0.234324837822251 
529	 0.234746906106482 
530	 0.23521309665512 
531	 0.235824199034835 
532	 0.236302814903207 
533	 0.236772598933699 
534	 0.237323933946258 
535	 0.237860923214776 
536	 0.238370921155678 
537	 0.238853706044645 
538	 0.239314422805242 
539	 0.239711398911018 
540	 0.240171925881769 
541	 0.240747985310851 
542	 0.241380542026935 
543	 0.241897235062129 
544	 0.242387873171766 
545	 0.242969073654533 
546	 0.243542423358096 
547	 0.244071889254179 
548	 0.244641374930285 
549	 0.245409731723581 
550	 0.245944254680161 
551	 0.246439726375703 
552	 0.247087476946528 
553	 0.247766010396074 
554	 0.248408526460462 
555	 0.249012886649263 
556	 0.249616689974118 
557	 0.250239894402153 
558	 0.250834948800415 
559	 0.251403687712367 
560	 0.252046573844107 
561	 0.252713676246019 
562	 0.253440434690512 
563	 0.254266335059383 
564	 0.255090011645911 
565	 0.256023774474603 
566	 0.257126396646124 
567	 0.258380275559068 
568	 0.259584287311124 
569	 0.260530350229588 
570	 0.261138149981692 
571	 0.261658786362102 
572	 0.262356269979446 
573	 0.263279750637332 
574	 0.264292784714932 
575	 0.265110226803029 
576	 0.265873234512498 
577	 0.26671629195759 
578	 0.267565069354506 
579	 0.268689598806941 
580	 0.270083844535417 
581	 0.271601097947759 
582	 0.273146228416827 
583	 0.274489000597691 
584	 0.27552582847697 
585	 0.276334190582699 
586	 0.277192472884939 
587	 0.278025257963124 
588	 0.278712380209231 
589	 0.279470680735569 
590	 0.280205289397271 
591	 0.280897686399846 
592	 0.28160674616584 
593	 0.282229822906746 
594	 0.282856993684032 
595	 0.283668301148075 
596	 0.28500486622033 
597	 0.286500684141316 
598	 0.288007723409875 
599	 0.289495848112287 
600	 0.290840032903196 
601	 0.291965945146516 
602	 0.292887061179905 
603	 0.293758259015357 
604	 0.294527216245855 
605	 0.295318442561415 
606	 0.296263888964028 
607	 0.297219112814286 
608	 0.298069310773845 
609	 0.298811753610685 
610	 0.299570664878638 
611	 0.300477459655072 
612	 0.301497749983874 
613	 0.302519794144832 
614	 0.303363057240013 
615	 0.304164960546425 
616	 0.304967064213459 
617	 0.305741245787205 
618	 0.306557886820125 
619	 0.307319448948227 
620	 0.307988901894192 
621	 0.308709181372327 
622	 0.309410510458586 
623	 0.310094292329662 
624	 0.310785005071759 
625	 0.311466690763711 
626	 0.31218670229132 
627	 0.312919461617389 
628	 0.313535790506029 
629	 0.314210457967412 
630	 0.314889231151556 
631	 0.315505934817574 
632	 0.316204095308241 
633	 0.316886905747465 
634	 0.31752225794573 
635	 0.318143366003121 
636	 0.318854809416328 
637	 0.319584954529727 
638	 0.320251156363317 
639	 0.320817535412788 
640	 0.321425213411959 
641	 0.322105256876854 
642	 0.322818304858989 
643	 0.323454147367531 
644	 0.324114947665642 
645	 0.324821756404053 
646	 0.325445930406311 
647	 0.326089592448223 
648	 0.326750470642206 
649	 0.327419323384754 
650	 0.328200209784794 
651	 0.32891739834186 
652	 0.32953886963901 
653	 0.3301718481783 
654	 0.330952885977032 
655	 0.331685677395298 
656	 0.332260261947283 
657	 0.332930631905444 
658	 0.33364287211169 
659	 0.334411612149598 
660	 0.335243635771613 
661	 0.335903359524148 
662	 0.336544774353223 
663	 0.33726891126653 
664	 0.338042580615001 
665	 0.338880943915666 
666	 0.339639715870761 
667	 0.340232151768568 
668	 0.340971498112997 
669	 0.341799524849145 
670	 0.342626489141535 
671	 0.343354160218126 
672	 0.344088694635294 
673	 0.344858449668889 
674	 0.345671617661607 
675	 0.346548033867812 
676	 0.347258973862964 
677	 0.347931987604927 
678	 0.348804835267256 
679	 0.34964964498183 
680	 0.350458234066085 
681	 0.351246148568011 
682	 0.352035339910972 
683	 0.352851288027618 
684	 0.353669525152896 
685	 0.354468789837629 
686	 0.355293242547683 
687	 0.356113932395464 
688	 0.356921499699197 
689	 0.357727133760889 
690	 0.358616096477019 
691	 0.35949771603693 
692	 0.360319754231673 
693	 0.36116236868958 
694	 0.36194976285431 
695	 0.362751569365093 
696	 0.363656999131711 
697	 0.364561015976192 
698	 0.365432608532905 
699	 0.366276635362897 
700	 0.367129063424123 
701	 0.367869988015422 
702	 0.368678394820702 
703	 0.369646607883569 
704	 0.370441290473301 
705	 0.371289379287146 
706	 0.37214947104757 
707	 0.372874577869229 
708	 0.373680865557974 
709	 0.374504295116675 
710	 0.375322939024048 
711	 0.376227227599125 
712	 0.376991868366912 
713	 0.377717258257083 
714	 0.378530922006996 
715	 0.379280706962437 
716	 0.379998715239419 
717	 0.380745705168516 
718	 0.381575081089454 
719	 0.382232757260736 
720	 0.382866307528693 
721	 0.383564056126702 
722	 0.384172882439108 
723	 0.384903449520609 
724	 0.385706137726997 
725	 0.386452708667726 
726	 0.387134573432448 
727	 0.387704604485338 
728	 0.388224552192639 
729	 0.388843911561851 
730	 0.389426145212426 
731	 0.390035658823479 
732	 0.390685009758743 
733	 0.391174337815081 
734	 0.391642578178209 
735	 0.392138269032322 
736	 0.392661306118419 
737	 0.393149534245571 
738	 0.393636153119206 
739	 0.394123241062925 
740	 0.394571859755228 
741	 0.394974286351812 
742	 0.395352797267336 
743	 0.395720985050364 
744	 0.396042481324393 
745	 0.396392500359467 
746	 0.396752584607612 
747	 0.397062612334856 
748	 0.397329523116308 
749	 0.397568065498153 
750	 0.397795232678372 
751	 0.398028277160927 
752	 0.398326227171766 
753	 0.398591237915842 
754	 0.398761212586861 
755	 0.398991229778666 
756	 0.399188031566444 
757	 0.399335798861967 
758	 0.399462909917845 
759	 0.399618409320788 
760	 0.399671246719518 
761	 0.399654355626758 
762	 0.399817644456839 
763	 0.399954274375427 
764	 0.400064496230025 
765	 0.400176581684899 
766	 0.400265188599272 
767	 0.400241890255851 
768	 0.400205950201869 
769	 0.400310057217441 
770	 0.400344714320973 
771	 0.400338039894033 
772	 0.400325532822165 
773	 0.400323702129225 
774	 0.400276089995798 
775	 0.400258972443359 
776	 0.400304473751011 
777	 0.400240771663268 
778	 0.400190886963081 
779	 0.400141467553162 
780	 0.400046488505111 
781	 0.400075340127382 
782	 0.400041075422447 
783	 0.399930683386197 
784	 0.399931907136216 
785	 0.399853641321365 
786	 0.399716582518092 
787	 0.399594168833763 
788	 0.399586639546708 
789	 0.399600064604453 
790	 0.399545890470882 
791	 0.399372385183142 
792	 0.399179674736837 
793	 0.399110575578317 
794	 0.399155352195912 
795	 0.399166166618711 
796	 0.399040899253558 
797	 0.398908261294509 
798	 0.398848836872562 
799	 0.39878309312065 
800	 0.398703043290478 
801	 0.398581984046543 
802	 0.398426896068526 
803	 0.398372616760112 
804	 0.39837201896083 
805	 0.398339079148375 
806	 0.398194955312763 
807	 0.398108028060534 
808	 0.398028234807501 
809	 0.39792674053399 
810	 0.397834464683343 
811	 0.397805661491646 
812	 0.397767708022078 
813	 0.397662402046979 
814	 0.397546756234537 
815	 0.397447882140053 
816	 0.397406100880649 
817	 0.397428307247641 
818	 0.397343195528399 
819	 0.39727549682008 
820	 0.397234217684362 
821	 0.397127531975037 
822	 0.397065299942586 
823	 0.397048979722879 
824	 0.397021729692881 
825	 0.396859927413836 
826	 0.39682535884601 
827	 0.396826841942292 
828	 0.396764797017906 
829	 0.396866513401056 
830	 0.396792966572983 
831	 0.39664177754546 
832	 0.396684462436949 
833	 0.396808858958488 
834	 0.396818702707543 
835	 0.396694401625603 
836	 0.396598505563046 
837	 0.39668873758257 
838	 0.396787596051324 
839	 0.396781421839755 
840	 0.396769269570603 
841	 0.396715051353612 
842	 0.396652255340459 
843	 0.396616276935184 
844	 0.396579251002708 
845	 0.396680162302301 
846	 0.396772029919418 
847	 0.396652826388773 
848	 0.396610237311456 
849	 0.396706892557467 
850	 0.396890605916507 
851	 0.397023018457527 
852	 0.397040723342034 
853	 0.397025542123772 
854	 0.39704377924175 
855	 0.397100527750714 
856	 0.397204254243391 
857	 0.397362833912574 
858	 0.397511434063106 
859	 0.397385710463167 
860	 0.397383562065174 
861	 0.397556195559812 
862	 0.397786583527398 
863	 0.397874216253073 
864	 0.397901238307385 
865	 0.397985061197875 
866	 0.398211378296685 
867	 0.398360661428158 
868	 0.398377745334052 
869	 0.398359558495377 
870	 0.398516729274552 
871	 0.398702581598069 
872	 0.398922349525979 
873	 0.399159634540855 
874	 0.399330588137936 
875	 0.399351678167695 
876	 0.399348564098426 
877	 0.399464146981901 
878	 0.399747860174641 
879	 0.40000736645827 
880	 0.400167155746898 
881	 0.400257881580602 
882	 0.400509903986058 
883	 0.400793383378681 
884	 0.401024388889333 
885	 0.40118774869324 
886	 0.401466015506053 
887	 0.401755796238281 
888	 0.402007505764094 
889	 0.402243288549629 
890	 0.402518212422525 
891	 0.402761976419429 
892	 0.40293234494469 
893	 0.403050347190141 
894	 0.403244776294469 
895	 0.403515538691117 
896	 0.403848185876265 
897	 0.404259728777447 
898	 0.404543464951371 
899	 0.404812316424758 
900	 0.405151619694303 
901	 0.40532027636656 
902	 0.4055615246101 
903	 0.405872509338465 
904	 0.406195745710099 
905	 0.406626804949296 
906	 0.407001637092191 
907	 0.407263007452397 
908	 0.407464791582681 
909	 0.407866671499016 
910	 0.408315402885426 
911	 0.408756407057135 
912	 0.409193122381199 
913	 0.409438944358569 
914	 0.409722102382608 
915	 0.41010840931909 
916	 0.4104999995064 
917	 0.411054576125322 
918	 0.411481617526681 
919	 0.411752310751831 
920	 0.412179127501565 
921	 0.412630248843517 
922	 0.413048424247621 
923	 0.413444202585654 
924	 0.41390810698591 
925	 0.414355612980153 
926	 0.414800100280931 
927	 0.415240899422421 
928	 0.415613402170475 
929	 0.416103675987346 
930	 0.416635455922778 
931	 0.417123391122592 
932	 0.417626749757261 
933	 0.418202442225809 
934	 0.418678903335548 
935	 0.418973309247469 
936	 0.419432100760334 
937	 0.420037711739158 
938	 0.420681327439837 
939	 0.421272474602297 
940	 0.421940170735194 
941	 0.422514264815684 
942	 0.42301014759947 
943	 0.423494038983798 
944	 0.423885228237821 
945	 0.42433375290288 
946	 0.42492455494749 
947	 0.425631929346798 
948	 0.426170937359602 
949	 0.426600708926078 
950	 0.427062051866689 
951	 0.427686393321959 
952	 0.428391373279975 
953	 0.429001095703013 
954	 0.42950815578218 
955	 0.430004460651098 
956	 0.43048040676219 
957	 0.431136913732051 
958	 0.431832073167069 
959	 0.432281833517178 
960	 0.432678136480185 
961	 0.433302024095823 
962	 0.434134115551607 
963	 0.434920775912085 
964	 0.435382557317089 
965	 0.435888312466097 
966	 0.436593431116418 
967	 0.437428908194469 
968	 0.438226461267364 
969	 0.438854908804889 
970	 0.43937691978214 
971	 0.439989373229941 
972	 0.440849481215004 
973	 0.441663730870945 
974	 0.442327961650911 
975	 0.442930782550094 
976	 0.443670412667767 
977	 0.444236941558779 
978	 0.444754958194031 
979	 0.445534506082607 
980	 0.446131603539585 
981	 0.446615022254296 
982	 0.447087027608161 
983	 0.447663707009225 
984	 0.448500893153776 
985	 0.449426863679585 
986	 0.450166634555812 
987	 0.450556203479699 
988	 0.451073905905375 
989	 0.451839394505388 
990	 0.452664559233275 
991	 0.453313652608203 
992	 0.454117906766973 
993	 0.454630376329162 
994	 0.455039529509769 
995	 0.455714094639238 
996	 0.456446846073476 
997	 0.456962416760774 
998	 0.457523547719416 
999	 0.458403335503634 
1000	 0.459116992427172 
1001	 0.463044234296931 
1002	 0.463598227106932 
1003	 0.464071122281259 
1004	 0.464612227608476 
1005	 0.465214224540125 
1006	 0.465731404123554 
1007	 0.466219241697919 
1008	 0.466750858317824 
1009	 0.467210159967068 
1010	 0.467738995080361 
1011	 0.468329912311961 
1012	 0.468846793365311 
1013	 0.469311723904056 
1014	 0.469707863416796 
1015	 0.470134866114025 
1016	 0.470567415379579 
1017	 0.47101411798147 
1018	 0.471491105235848 
1019	 0.472028293662897 
1020	 0.472487536440919 
1021	 0.472958685595719 
1022	 0.473433176638564 
1023	 0.473786887398728 
1024	 0.474131317232507 
1025	 0.474528322057282 
1026	 0.474961799244628 
1027	 0.475416328891987 
1028	 0.475855641935183 
1029	 0.476305877822429 
1030	 0.476727157739493 
1031	 0.477101805653778 
1032	 0.477425581767103 
1033	 0.477833253854567 
1034	 0.478240929043456 
1035	 0.478593104016811 
1036	 0.479021767612832 
1037	 0.479358422660402 
1038	 0.47963015980129 
1039	 0.479981480196917 
1040	 0.480340194439457 
1041	 0.480750959571737 
1042	 0.481143821829622 
1043	 0.481464252051537 
1044	 0.481824098182623 
1045	 0.482188083902822 
1046	 0.48255511925054 
1047	 0.482905075861592 
1048	 0.483258256080796 
1049	 0.483583115279022 
1050	 0.483897798673418 
1051	 0.484230606688754 
1052	 0.484584149783663 
1053	 0.484953111139219 
1054	 0.485304967846806 
1055	 0.485673739867927 
1056	 0.486071126759292 
1057	 0.486433256513917 
1058	 0.486779822481755 
1059	 0.487103822406345 
1060	 0.487403462548615 
1061	 0.487707363786496 
1062	 0.487950904727724 
1063	 0.488253900031421 
1064	 0.48859493695789 
1065	 0.48887622868899 
1066	 0.489242398146218 
1067	 0.489609512364988 
1068	 0.489875398980864 
1069	 0.490167689554666 
1070	 0.490459064651479 
1071	 0.490713993596407 
1072	 0.490962203191307 
1073	 0.491226479200599 
1074	 0.491496210069081 
1075	 0.491730582982225 
1076	 0.491999254229187 
1077	 0.492330039152753 
1078	 0.492599617246343 
1079	 0.492794285751172 
1080	 0.493030652796145 
1081	 0.493230434306205 
1082	 0.49337362266022 
1083	 0.493584768968016 
1084	 0.4938553119644 
1085	 0.494067433105453 
1086	 0.494299791792655 
1087	 0.494482095772146 
1088	 0.494611572694959 
1089	 0.494735849934043 
1090	 0.494900997447938 
1091	 0.49512225691029 
1092	 0.495395715983727 
1093	 0.495613614582222 
1094	 0.495786696572487 
1095	 0.495944465323529 
1096	 0.496104013451795 
1097	 0.496268636680284 
1098	 0.496432480449576 
1099	 0.496602713280782 
1100	 0.496787885868506 
1101	 0.496963320521689 
1102	 0.497167327375987 
1103	 0.497419464244783 
1104	 0.497614769036345 
1105	 0.497844626351601 
1106	 0.498079441917954 
1107	 0.498279686739233 
1108	 0.498505981800932 
1109	 0.498693251666496 
1110	 0.498878288581031 
1111	 0.499086873375594 
1112	 0.499307399400101 
1113	 0.499513964871098 
1114	 0.499733625406801 
1115	 0.499949380775274 
1116	 0.500127943479992 
1117	 0.500362179929423 
1118	 0.500647343375024 
1119	 0.500891952982906 
1120	 0.501164063061769 
1121	 0.501429305717332 
1122	 0.501647284721012 
1123	 0.501912397971108 
1124	 0.502178768204361 
1125	 0.502469330424322 
1126	 0.502707730959577 
1127	 0.502923361742585 
1128	 0.503164464543756 
1129	 0.503384671401147 
1130	 0.503612422222036 
1131	 0.50387874479396 
1132	 0.504118724368545 
1133	 0.504331032556035 
1134	 0.504553059454748 
1135	 0.504778161288613 
1136	 0.504997262624995 
1137	 0.505257266791852 
1138	 0.505466878546433 
1139	 0.505660381166824 
1140	 0.505852053313452 
1141	 0.506031015418846 
1142	 0.506150009591634 
1143	 0.506328430126894 
1144	 0.506554945614592 
1145	 0.506738467658394 
1146	 0.506920728430823 
1147	 0.50708894084646 
1148	 0.507256262413005 
1149	 0.507386542594038 
1150	 0.5074648036082 
1151	 0.507585684439539 
1152	 0.507732490492395 
1153	 0.507821940917619 
1154	 0.507950684036232 
1155	 0.508134897461652 
1156	 0.50826256734684 
1157	 0.508344847268276 
1158	 0.508472588018887 
1159	 0.508613254935529 
1160	 0.50874573669162 
1161	 0.508899392788828 
1162	 0.509033921116473 
1163	 0.509153209368181 
1164	 0.509269646584516 
1165	 0.509388252764163 
1166	 0.50949789649519 
1167	 0.509553269310008 
1168	 0.50965222535253 
1169	 0.509770781955119 
1170	 0.509896566802978 
1171	 0.510024781068819 
1172	 0.510193700271508 
1173	 0.510332065846419 
1174	 0.510464142502023 
1175	 0.510575061116536 
1176	 0.510670038110498 
1177	 0.51077201441568 
1178	 0.510840521043657 
1179	 0.510939297432306 
1180	 0.511084602460724 
1181	 0.511191958980876 
1182	 0.511290282601531 
1183	 0.511372719999358 
1184	 0.511470919348975 
1185	 0.511548196749867 
1186	 0.511654571819944 
1187	 0.511797259147765 
1188	 0.511906106278803 
1189	 0.512011327103842 
1190	 0.512104854226777 
1191	 0.512176880883435 
1192	 0.512258959837828 
1193	 0.512338400479107 
1194	 0.512418585311367 
1195	 0.512497344458821 
1196	 0.512582572556723 
1197	 0.512666236516083 
1198	 0.512755874548348 
1199	 0.512850811934641 
1200	 0.512954443434234 
1201	 0.513056317143336 
1202	 0.513166574489866 
1203	 0.513261918767322 
1204	 0.51335374109829 
1205	 0.513442954702375 
1206	 0.513516052113892 
1207	 0.51360573016838 
1208	 0.513703928109776 
1209	 0.51379976602278 
1210	 0.513906529319043 
1211	 0.51400194105111 
1212	 0.514090963523666 
1213	 0.514179401057373 
1214	 0.514263704586634 
1215	 0.51434578393098 
1216	 0.514425925490049 
1217	 0.514509737684314 
1218	 0.514576967044837 
1219	 0.514631765467122 
1220	 0.514694710021582 
1221	 0.5147444514925 
1222	 0.514811801885364 
1223	 0.514899365707527 
1224	 0.5149683866872 
1225	 0.51503084361183 
1226	 0.515100434134969 
1227	 0.515164367369526 
1228	 0.515231161500517 
1229	 0.51531720597785 
1230	 0.515384055048959 
1231	 0.515414340600481 
1232	 0.515479583865813 
1233	 0.515556635718469 
1234	 0.515648939079106 
1235	 0.515713848766759 
1236	 0.515802936485285 
1237	 0.515852316080462 
1238	 0.515847421812705 
1239	 0.515881311980942 
1240	 0.515925505021023 
1241	 0.515964817478268 
1242	 0.516004444573213 
1243	 0.516053474328824 
1244	 0.5161071513011 
1245	 0.516154660914431 
1246	 0.516203322610614 
1247	 0.516262150017641 
1248	 0.516315433753011 
1249	 0.516387370687513 
1250	 0.516445337806415 
1251	 0.516499691221104 
1252	 0.516558926292588 
1253	 0.516601978775095 
1254	 0.516663161320212 
1255	 0.51675160170388 
1256	 0.516809758472563 
1257	 0.516848482644428 
1258	 0.516905900511714 
1259	 0.516961773443749 
1260	 0.517016429124643 
1261	 0.517090276753225 
1262	 0.517145046534307 
1263	 0.517182922182144 
1264	 0.51722469665759 
1265	 0.517246445288784 
1266	 0.517290807478683 
1267	 0.517353756595024 
1268	 0.517411494688959 
1269	 0.517462005598843 
1270	 0.517525679528859 
1271	 0.517574284059089 
1272	 0.51759484259259 
1273	 0.517649669216674 
1274	 0.517725644639243 
1275	 0.51778404292733 
1276	 0.517846317054431 
1277	 0.517906091756739 
1278	 0.517953533431377 
1279	 0.518008482486333 
1280	 0.518081109104698 
1281	 0.51813377205239 
1282	 0.518165996594775 
1283	 0.518214416820202 
1284	 0.518257670774607 
1285	 0.518304168859319 
1286	 0.518382256666943 
1287	 0.518470442247775 
1288	 0.518552613332363 
1289	 0.51864490064851 
1290	 0.518732444773175 
1291	 0.518810807165423 
1292	 0.518904191233008 
1293	 0.519022955049727 
1294	 0.519101958296661 
1295	 0.519182586872628 
1296	 0.519232113465387 
1297	 0.519229150504368 
1298	 0.519257872716283 
1299	 0.519293117219531 
1300	 0.519312441540092 
1301	 0.519347658025818 
1302	 0.519352612854191 
1303	 0.519319676469315 
1304	 0.519300052661055 
1305	 0.519273820213799 
1306	 0.519240637210874 
1307	 0.519208699678966 
1308	 0.519138732468752 
1309	 0.519071770459166 
1310	 0.518985823583723 
1311	 0.518905092481577 
1312	 0.518832653721981 
1313	 0.518732762289404 
1314	 0.518605595426439 
1315	 0.518496858544442 
1316	 0.518362471111865 
1317	 0.518269239904761 
1318	 0.518203215349763 
1319	 0.518141937075538 
1320	 0.518116915126633 
1321	 0.518065010290522 
1322	 0.517998580785754 
1323	 0.517951102506613 
1324	 0.517900806323602 
1325	 0.517833237882696 
1326	 0.517769374661655 
1327	 0.517693006494225 
1328	 0.517605923917838 
1329	 0.5175395854582 
1330	 0.517510771234373 
1331	 0.51752229890476 
1332	 0.517521734897853 
1333	 0.517543463033451 
1334	 0.517561991176012 
1335	 0.51756632824701 
1336	 0.517596579001255 
1337	 0.517652065990754 
1338	 0.517700928950272 
1339	 0.517767199897283 
1340	 0.5178187450965 
1341	 0.517867835299355 
1342	 0.517905885425182 
1343	 0.517925347060648 
1344	 0.517960524291091 
1345	 0.517993242200374 
1346	 0.51800172828582 
1347	 0.518012513036403 
1348	 0.518014277034116 
1349	 0.518012811953326 
1350	 0.518027434738396 
1351	 0.518010751698577 
1352	 0.517988843683576 
1353	 0.517945809642748 
1354	 0.517871742916795 
1355	 0.517807478586461 
1356	 0.517723420231431 
1357	 0.517674723087698 
1358	 0.517628782167526 
1359	 0.517600633327996 
1360	 0.517595543232539 
1361	 0.517601887912763 
1362	 0.517616329641796 
1363	 0.5176469752306 
1364	 0.517710684944938 
1365	 0.517759793181779 
1366	 0.517811188702984 
1367	 0.517871963562655 
1368	 0.517918526908253 
1369	 0.51793980545039 
1370	 0.517920173007469 
1371	 0.517865870037974 
1372	 0.517771653367029 
1373	 0.517648563361245 
1374	 0.517504816603977 
1375	 0.517368597646183 
1376	 0.517124082375045 
1377	 0.516823261790084 
1378	 0.516482791082208 
1379	 0.516035612274206 
1380	 0.515628585948768 
1381	 0.515226343604321 
1382	 0.514774885080782 
1383	 0.514326146368587 
1384	 0.513812112521249 
1385	 0.513299947955947 
1386	 0.512659023949344 
1387	 0.511996145341088 
1388	 0.511167770503855 
1389	 0.510227766641575 
1390	 0.509150696476437 
1391	 0.507889829715797 
1392	 0.506486142761304 
1393	 0.504919501935343 
1394	 0.503257528456923 
1395	 0.501531875467133 
1396	 0.499753147411574 
1397	 0.498000516814212 
1398	 0.496191042107701 
1399	 0.494460846945922 
1400	 0.492721156844719 
1401	 0.491097954919069 
1402	 0.489498329532174 
1403	 0.488054468985704 
1404	 0.48670459768743 
1405	 0.485476617230831 
1406	 0.484361026016103 
1407	 0.483358488658664 
1408	 0.482374683807758 
1409	 0.481687801496469 
1410	 0.481071401474464 
1411	 0.480833574727185 
1412	 0.480874078239659 
1413	 0.4812044338569 
1414	 0.481856725545495 
1415	 0.482781804255684 
1416	 0.483954478261581 
1417	 0.485297978638451 
1418	 0.486740761054271 
1419	 0.488183913058545 
1420	 0.489601844945383 
1421	 0.490951997206395 
1422	 0.492155636535221 
1423	 0.4932658548659 
1424	 0.494186459698297 
1425	 0.494917919986115 
1426	 0.495591719047523 
1427	 0.496101429413604 
1428	 0.496590883607981 
1429	 0.497016940570177 
1430	 0.497368533589384 
1431	 0.497635377928995 
1432	 0.49787095393583 
1433	 0.498023699748941 
1434	 0.498171663725544 
1435	 0.498274064720562 
1436	 0.498376119650554 
1437	 0.498473725555775 
1438	 0.498537257763029 
1439	 0.498576566116832 
1440	 0.49859676559655 
1441	 0.498615124444741 
1442	 0.498605636343088 
1443	 0.498603930428837 
1444	 0.498601623258424 
1445	 0.498586479222656 
1446	 0.498582187218882 
1447	 0.498551807379511 
1448	 0.498523265041516 
1449	 0.498488141969979 
1450	 0.4984287785322 
1451	 0.498405192207568 
1452	 0.498414824782701 
1453	 0.498395922383397 
1454	 0.498395906408036 
1455	 0.49834434256652 
1456	 0.498258458652843 
1457	 0.498168007961228 
1458	 0.498031391835049 
1459	 0.497943467291393 
1460	 0.497849897000516 
1461	 0.497798694168359 
1462	 0.497786531286731 
1463	 0.497771695576533 
1464	 0.497785536905124 
1465	 0.497795911995074 
1466	 0.497807582543093 
1467	 0.497832412645377 
1468	 0.497846665468088 
1469	 0.49789784048857 
1470	 0.497980222733151 
1471	 0.498067884922212 
1472	 0.498159299206931 
1473	 0.498273623575415 
1474	 0.498358263207699 
1475	 0.498450772442757 
1476	 0.49857694487603 
1477	 0.49870979547305 
1478	 0.498888896421652 
1479	 0.499073303862481 
1480	 0.499224559351807 
1481	 0.499381715672976 
1482	 0.499521190871728 
1483	 0.499624130630386 
1484	 0.499754402957665 
1485	 0.499894714711886 
1486	 0.500027840102663 
1487	 0.500165784640368 
1488	 0.500292640288222 
1489	 0.500419151366984 
1490	 0.500535908623954 
1491	 0.500640392158554 
1492	 0.500744941381011 
1493	 0.500829231097135 
1494	 0.500940626109029 
1495	 0.501068573956918 
1496	 0.501186681901142 
1497	 0.501336646190578 
1498	 0.501443939767107 
1499	 0.501523800315034 
1500	 0.501599409100211 
1501	 0.501641795307746 
1502	 0.501698979490337 
1503	 0.501752526149882 
1504	 0.50181101204344 
1505	 0.501885683297399 
1506	 0.501971907748829 
1507	 0.502062900824322 
1508	 0.502151742143904 
1509	 0.502237551093424 
1510	 0.502302497460913 
1511	 0.502370362045256 
1512	 0.502431319846486 
1513	 0.502464159870796 
1514	 0.502519117494563 
1515	 0.502601359432291 
1516	 0.502683062788652 
1517	 0.502751120441808 
1518	 0.502838357959294 
1519	 0.502902711369074 
1520	 0.502928597648242 
1521	 0.502986264930732 
1522	 0.503067464277507 
1523	 0.503123335109272 
1524	 0.503173475550645 
1525	 0.503218012461713 
1526	 0.503243786713749 
1527	 0.503286691857187 
1528	 0.503339312397069 
1529	 0.503381451753943 
1530	 0.503433356661506 
1531	 0.50346662908735 
1532	 0.503483959664984 
1533	 0.50350002600722 
1534	 0.50349798670573 
1535	 0.50351030891201 
1536	 0.50350828076594 
1537	 0.503542616612135 
1538	 0.5035993837322 
1539	 0.503665342392843 
1540	 0.503776252607628 
1541	 0.503854300641787 
1542	 0.503925733725689 
1543	 0.503996768056791 
1544	 0.504053456477943 
1545	 0.504105992556179 
1546	 0.504159866686182 
1547	 0.504201429422215 
1548	 0.504250177736095 
1549	 0.504304674939795 
1550	 0.504353762026875 
1551	 0.504407145878836 
1552	 0.504447564509328 
1553	 0.504470844779833 
1554	 0.504502603762419 
1555	 0.504537688187463 
1556	 0.504557440745975 
1557	 0.504572045509737 
1558	 0.504593874489064 
1559	 0.504614579797904 
1560	 0.504633683245578 
1561	 0.504654134901492 
1562	 0.504681278023225 
1563	 0.504694683620913 
1564	 0.504743983948336 
1565	 0.504822368554579 
1566	 0.504883781552173 
1567	 0.504964262149429 
1568	 0.505021891839657 
1569	 0.5050654220962 
1570	 0.505099789627614 
1571	 0.505132255698643 
1572	 0.505148818365044 
1573	 0.505137700499615 
1574	 0.505147832863616 
1575	 0.505157247876748 
1576	 0.505163175814254 
1577	 0.505181967438537 
1578	 0.505185278216401 
1579	 0.505156125371034 
1580	 0.505176363832909 
1581	 0.505232541553871 
1582	 0.5052556361307 
1583	 0.505285560206213 
1584	 0.505310429619516 
1585	 0.505316770242478 
1586	 0.505317936953272 
1587	 0.505343756161036 
1588	 0.505335662695234 
1589	 0.505273258043149 
1590	 0.50524268615726 
1591	 0.505208650116602 
1592	 0.505188847625991 
1593	 0.505199242012415 
1594	 0.505191363956752 
1595	 0.505179030986436 
1596	 0.505165585638108 
1597	 0.505145019484746 
1598	 0.505123272657313 
1599	 0.505107126118959 
1600	 0.505083465301451 
1601	 0.505027261633968 
1602	 0.50501479712736 
1603	 0.505035901382886 
1604	 0.505035975553868 
1605	 0.505057103242972 
1606	 0.505067858047839 
1607	 0.505056025099159 
1608	 0.505046685452408 
1609	 0.505035474572233 
1610	 0.505021292644303 
1611	 0.50501191476261 
1612	 0.504993349678932 
1613	 0.504985303080054 
1614	 0.504966098417001 
1615	 0.504904066467785 
1616	 0.504846536602196 
1617	 0.504822718357958 
1618	 0.504815476959027 
1619	 0.504829976328801 
1620	 0.504844491183448 
1621	 0.50483100186749 
1622	 0.504800024273253 
1623	 0.504753277129711 
1624	 0.504686447125542 
1625	 0.504628648389656 
1626	 0.504546630039731 
1627	 0.50450576456234 
1628	 0.504492349817874 
1629	 0.504449675268226 
1630	 0.504410399066401 
1631	 0.50437512466255 
1632	 0.50431583411172 
1633	 0.504295083916074 
1634	 0.504305457648766 
1635	 0.504300753501529 
1636	 0.504312948506234 
1637	 0.504293684071028 
1638	 0.504260081762207 
1639	 0.5042271465273 
1640	 0.504170836032528 
1641	 0.504137547631818 
1642	 0.504129760382482 
1643	 0.504078627629911 
1644	 0.50401737551492 
1645	 0.503943719161857 
1646	 0.503826518299165 
1647	 0.503750498802926 
1648	 0.50368860138025 
1649	 0.503625592084814 
1650	 0.503582623171391 
1651	 0.503516552727005 
1652	 0.503428451129042 
1653	 0.503373366595878 
1654	 0.503324624120821 
1655	 0.503279772212169 
1656	 0.503269172499856 
1657	 0.503222032876579 
1658	 0.503152993364941 
1659	 0.503090404207192 
1660	 0.503003077067322 
1661	 0.502957020120687 
1662	 0.502942269354216 
1663	 0.502898520170101 
1664	 0.502879298368043 
1665	 0.502816057682492 
1666	 0.502710913824479 
1667	 0.502614148828994 
1668	 0.502492867657306 
1669	 0.502399249525792 
1670	 0.502298551324056 
1671	 0.502232474825043 
1672	 0.502192614539759 
1673	 0.502164423231271 
1674	 0.50218558364055 
1675	 0.502149924421644 
1676	 0.502116675197159 
1677	 0.502042767205245 
1678	 0.501909348412574 
1679	 0.501802214458513 
1680	 0.501668370341898 
1681	 0.501578027370012 
1682	 0.501517809552823 
1683	 0.501443138451201 
1684	 0.50138579588015 
1685	 0.50132222817737 
1686	 0.501241851507235 
1687	 0.501178086083867 
1688	 0.501140244061302 
1689	 0.501075617413428 
1690	 0.500993826843026 
1691	 0.500928083564316 
1692	 0.500860562446064 
1693	 0.500791669205649 
1694	 0.500734613685454 
1695	 0.500668399966566 
1696	 0.500582827807867 
1697	 0.500517395610137 
1698	 0.500472170083947 
1699	 0.500408262111294 
1700	 0.500330994619615 
1701	 0.500280549076805 
1702	 0.500246315438067 
1703	 0.500184637761019 
1704	 0.50014529900838 
1705	 0.500058090062366 
1706	 0.49989734877113 
1707	 0.499803536239932 
1708	 0.499742195824245 
1709	 0.499644879564953 
1710	 0.499555659001271 
1711	 0.499464582752355 
1712	 0.499328454497804 
1713	 0.499239016002922 
1714	 0.49919412689535 
1715	 0.499126077691676 
1716	 0.499055357818582 
1717	 0.498991085026353 
1718	 0.498947469457494 
1719	 0.498853612222119 
1720	 0.498742555172627 
1721	 0.498624713155831 
1722	 0.498464648797688 
1723	 0.498327884432846 
1724	 0.498202786199279 
1725	 0.498069616817781 
1726	 0.497927270757627 
1727	 0.497796470903238 
1728	 0.497675683232225 
1729	 0.49754218722947 
1730	 0.497398828286502 
1731	 0.497276125889018 
1732	 0.497152095371605 
1733	 0.497041983797881 
1734	 0.4969674133497 
1735	 0.496848594954683 
1736	 0.496720872938018 
1737	 0.496571456177383 
1738	 0.496382660578247 
1739	 0.496228576288513 
1740	 0.496080743327968 
1741	 0.495924676430238 
1742	 0.49577503720729 
1743	 0.495622428367335 
1744	 0.495446505971696 
1745	 0.495322459877374 
1746	 0.495235864664782 
1747	 0.495144808954337 
1748	 0.495032150041529 
1749	 0.494859540840912 
1750	 0.494702280325993 
1751	 0.494553038924753 
1752	 0.494374710912803 
1753	 0.494211278992864 
1754	 0.49406826845783 
1755	 0.493927255082074 
1756	 0.493785339701723 
1757	 0.493662484822842 
1758	 0.493529286762414 
1759	 0.493388292786344 
1760	 0.493277575416792 
1761	 0.493152434451683 
1762	 0.493022936488112 
1763	 0.492891657630645 
1764	 0.492725395122326 
1765	 0.492574685095349 
1766	 0.492438531866932 
1767	 0.492281726358101 
1768	 0.492136114075238 
1769	 0.492007457642888 
1770	 0.491872829860451 
1771	 0.491764266534082 
1772	 0.491674373865829 
1773	 0.491575837069523 
1774	 0.491485725005976 
1775	 0.491390218238227 
1776	 0.491270994189656 
1777	 0.491156211295256 
1778	 0.491038269049006 
1779	 0.490907910730532 
1780	 0.49082100793221 
1781	 0.490738089924439 
1782	 0.490641671281359 
1783	 0.490615382586482 
1784	 0.490550195024988 
1785	 0.490485850558457 
1786	 0.490423628380186 
1787	 0.490328463817015 
1788	 0.490246524216257 
1789	 0.490179026355322 
1790	 0.490101627275599 
1791	 0.490032046495035 
1792	 0.489942253204965 
1793	 0.489836117437776 
1794	 0.489741442420605 
1795	 0.489627323112556 
1796	 0.489533616259298 
1797	 0.489463387345334 
1798	 0.48938684201542 
1799	 0.489317931142573 
1800	 0.489236388891331 
1801	 0.489062150399236 
1802	 0.489243702683683 
1803	 0.489463450214382 
1804	 0.489722398341064 
1805	 0.489969093723911 
1806	 0.490160991054807 
1807	 0.490351295580719 
1808	 0.490478110927664 
1809	 0.490528741802401 
1810	 0.490564926852792 
1811	 0.490585323260073 
1812	 0.490557892304364 
1813	 0.490482810301461 
1814	 0.490414184029126 
1815	 0.490352591083232 
1816	 0.490283178734228 
1817	 0.490208223766849 
1818	 0.490110594387985 
1819	 0.490036573161992 
1820	 0.489970879365194 
1821	 0.489904317722475 
1822	 0.489833984667255 
1823	 0.489795529798013 
1824	 0.489758480474258 
1825	 0.489692423710552 
1826	 0.489599360626724 
1827	 0.489514772043808 
1828	 0.489398781682125 
1829	 0.489229310237573 
1830	 0.489078491210232 
1831	 0.488929427080371 
1832	 0.488764473389955 
1833	 0.488589318122196 
1834	 0.488454807023048 
1835	 0.48830361611959 
1836	 0.488150734469409 
1837	 0.488008278951394 
1838	 0.487830243595738 
1839	 0.487699695607849 
1840	 0.487587747523485 
1841	 0.48749622209023 
1842	 0.487430342084314 
1843	 0.487421074380896 
1844	 0.48741486169053 
1845	 0.48739974965499 
1846	 0.487416485652422 
1847	 0.487412375493594 
1848	 0.487344746147933 
1849	 0.487302631717322 
1850	 0.487259690922489 
1851	 0.487193417572165 
1852	 0.487128409138376 
1853	 0.487123979136932 
1854	 0.487068855759525 
1855	 0.486986962564178 
1856	 0.486908069467339 
1857	 0.486795855268409 
1858	 0.486696766237964 
1859	 0.48659285293224 
1860	 0.486438794623385 
1861	 0.486253556623335 
1862	 0.486050222134163 
1863	 0.485792980394434 
1864	 0.48545668954315 
1865	 0.485100770859689 
1866	 0.484660009555649 
1867	 0.484183053919356 
1868	 0.483731498615028 
1869	 0.483272552612511 
1870	 0.482828596799752 
1871	 0.482366428061884 
1872	 0.481900499559201 
1873	 0.481422509658748 
1874	 0.480964994260534 
1875	 0.480530877716367 
1876	 0.480078958056974 
1877	 0.479603820091562 
1878	 0.47901207541687 
1879	 0.478288986366135 
1880	 0.477452032308196 
1881	 0.476492149308909 
1882	 0.475426433874191 
1883	 0.474258297087263 
1884	 0.472950670392448 
1885	 0.471550910006185 
1886	 0.470064044316634 
1887	 0.468459017495158 
1888	 0.466781039209413 
1889	 0.464966947739628 
1890	 0.46305512454472 
1891	 0.461102489545924 
1892	 0.459014365816981 
1893	 0.456950126694596 
1894	 0.454859240508287 
1895	 0.452729102666908 
1896	 0.450585556294722 
1897	 0.448449678974322 
1898	 0.446289761261161 
1899	 0.444213050876793 
1900	 0.442265746173288 
1901	 0.440416400343256 
1902	 0.438699767199592 
1903	 0.437172844496068 
1904	 0.435694972436035 
1905	 0.434308560976366 
1906	 0.433010813339096 
1907	 0.431812336439746 
1908	 0.430680037719599 
1909	 0.429597152898115 
1910	 0.428580542926735 
1911	 0.427632188119649 
1912	 0.426710011287645 
1913	 0.425859750335993 
1914	 0.425085772292775 
1915	 0.424349216450393 
1916	 0.423658656124185 
1917	 0.423019247253735 
1918	 0.422453086954876 
1919	 0.421943262050535 
1920	 0.421505270906285 
1921	 0.421130247830028 
1922	 0.42076872010846 
1923	 0.420453846959065 
1924	 0.420190945632135 
1925	 0.419987188556723 
1926	 0.419800188521233 
1927	 0.419656826796009 
1928	 0.419544457943471 
1929	 0.419469124362793 
1930	 0.419378084689277 
1931	 0.419306565476008 
1932	 0.419282489271653 
1933	 0.4192495166914 
1934	 0.419217395599311 
1935	 0.419226118691556 
1936	 0.419258048062801 
1937	 0.419322011258079 
1938	 0.419407725433722 
1939	 0.41954208864098 
1940	 0.419716939621943 
1941	 0.419926792464883 
1942	 0.420176442195627 
1943	 0.420430915022415 
1944	 0.420689967077835 
1945	 0.42095896368589 
1946	 0.421226233898623 
1947	 0.421497649667506 
1948	 0.421759072008222 
1949	 0.422016914639379 
1950	 0.42228093928896 
1951	 0.422543843769746 
1952	 0.42279676630483 
1953	 0.423061429884053 
1954	 0.423343764687287 
1955	 0.423608075814086 
1956	 0.423897411000403 
1957	 0.42420421474204 
1958	 0.424516525250133 
1959	 0.42486306134738 
1960	 0.425256619988402 
1961	 0.425627819539528 
1962	 0.426019590469974 
1963	 0.42640321914564 
1964	 0.426770735640533 
1965	 0.42714567610657 
1966	 0.42753965400209 
1967	 0.427934966310278 
1968	 0.42833539855556 
1969	 0.428753074665349 
1970	 0.429146106478402 
1971	 0.429527891143051 
1972	 0.429923896217672 
1973	 0.430306812130944 
1974	 0.430701591430379 
1975	 0.431121750846334 
1976	 0.431515410364247 
1977	 0.43191461968269 
1978	 0.432358615744349 
1979	 0.432769935184775 
1980	 0.433226926445577 
1981	 0.433669147898933 
1982	 0.434102865918514 
1983	 0.43454117608262 
1984	 0.435005581197559 
1985	 0.43543576507841 
1986	 0.43584775704754 
1987	 0.436267511479119 
1988	 0.436676563995779 
1989	 0.437081652775533 
1990	 0.437496537359344 
1991	 0.437888403945743 
1992	 0.438284039018744 
1993	 0.438666967799178 
1994	 0.439061074872065 
1995	 0.439449897596815 
1996	 0.439856974424212 
1997	 0.440276578276905 
1998	 0.440693454604192 
1999	 0.441112682782252 
2000	 0.441547737128459 
2001	 0.442008464385705 
2002	 0.44243510167692 
2003	 0.442864806966205 
2004	 0.44333404855407 
2005	 0.443772376590591 
2006	 0.444189147073558 
2007	 0.444618320027593 
2008	 0.445044938026634 
2009	 0.445477067189333 
2010	 0.44592247091957 
2011	 0.446355562270453 
2012	 0.446773417840972 
2013	 0.447209277677138 
2014	 0.447637329479421 
2015	 0.448092031066535 
2016	 0.44855961386259 
2017	 0.448994681958522 
2018	 0.449402769879895 
2019	 0.449775045349177 
2020	 0.450148468874161 
2021	 0.450492900610795 
2022	 0.450854972703571 
2023	 0.451207514136372 
2024	 0.451578501857403 
2025	 0.451971403324601 
2026	 0.452342552283084 
2027	 0.452703967801822 
2028	 0.453090994458616 
2029	 0.453448790755638 
2030	 0.453794783115885 
2031	 0.454114763989718 
2032	 0.454424084881555 
2033	 0.454711499012198 
2034	 0.454947486724074 
2035	 0.455221741505402 
2036	 0.455501981590454 
2037	 0.455779447643772 
2038	 0.456065911898497 
2039	 0.456351208619855 
2040	 0.456626261814725 
2041	 0.456927669581194 
2042	 0.457194942194316 
2043	 0.457441620075692 
2044	 0.457684916942154 
2045	 0.457898654975173 
2046	 0.458116451367285 
2047	 0.458345638221068 
2048	 0.458551034410299 
2049	 0.458713796137765 
2050	 0.458916405247039 
2051	 0.459135247865567 
2052	 0.4593398646258 
2053	 0.459554495385668 
2054	 0.459770363485584 
2055	 0.459983371834194 
2056	 0.460182613319814 
2057	 0.460384020595349 
2058	 0.460609744341494 
2059	 0.460787829359743 
2060	 0.460939400269967 
2061	 0.461081089586458 
2062	 0.461195966857804 
2063	 0.461309635498638 
2064	 0.46140511426017 
2065	 0.461508533584442 
2066	 0.461577580135761 
2067	 0.461697025872787 
2068	 0.461840892263268 
2069	 0.462007377760925 
2070	 0.462153715995854 
2071	 0.462331584941088 
2072	 0.462471404488021 
2073	 0.462570509419271 
2074	 0.462700211842486 
2075	 0.462846131883421 
2076	 0.462970646033029 
2077	 0.463094284169328 
2078	 0.463213078165473 
2079	 0.463326737949259 
2080	 0.463425372376078 
2081	 0.463505758135822 
2082	 0.463594924487073 
2083	 0.463665007909099 
2084	 0.463753836219696 
2085	 0.463837289767003 
2086	 0.463938746118985 
2087	 0.464017214079697 
2088	 0.464081957314328 
2089	 0.464145979044312 
2090	 0.464199836783937 
2091	 0.464262719087358 
2092	 0.464322296598363 
2093	 0.464386923184719 
2094	 0.464467471424614 
2095	 0.464529380377924 
2096	 0.464564786646543 
2097	 0.464630150035852 
2098	 0.464707321990211 
2099	 0.46479117114802 
2100	 0.46484331612983 
2101	 0.464900301406843 
2102	 0.464947924627441 
2103	 0.464933678823587 
2104	 0.465001861944865 
2105	 0.4651282323952 
2106	 0.465225565726195 
2107	 0.465330275960569 
2108	 0.465452454740947 
2109	 0.465562522928311 
2110	 0.465701115616566 
2111	 0.46588630677037 
2112	 0.466060045591662 
2113	 0.466251799130827 
2114	 0.466414369712169 
2115	 0.46660221263794 
2116	 0.466804453885415 
2117	 0.466984551162365 
2118	 0.467170881636766 
2119	 0.4673371506839 
2120	 0.467483751301163 
2121	 0.46762531223409 
2122	 0.467746423616407 
2123	 0.467887663114324 
2124	 0.468020432409791 
2125	 0.468168728216519 
2126	 0.468359592076526 
2127	 0.468509588350411 
2128	 0.468654193011933 
2129	 0.468777480674598 
2130	 0.468894642456756 
2131	 0.468971654114114 
2132	 0.469000106699213 
2133	 0.468987390889675 
2134	 0.468970664221652 
2135	 0.468891275237452 
2136	 0.468845474774794 
2137	 0.468846280975709 
2138	 0.468761028287005 
2139	 0.46864932024756 
2140	 0.468493584025003 
2141	 0.468259647009981 
2142	 0.468036078987559 
2143	 0.467807711019934 
2144	 0.467539594852856 
2145	 0.46724386131812 
2146	 0.466930401237342 
2147	 0.466590511316254 
2148	 0.466221749969912 
2149	 0.465819137996829 
2150	 0.465399560819883 
2151	 0.46493943564405 
2152	 0.464445114895681 
2153	 0.46389988300334 
2154	 0.463322007522968 
2155	 0.462698848094647 
2156	 0.461988496616932 
2157	 0.461308361597533 
2158	 0.460617009496006 
2159	 0.459907027979673 
2160	 0.459212589296496 
2161	 0.45846743575398 
2162	 0.45772592128106 
2163	 0.456893609454388 
2164	 0.455994133054182 
2165	 0.455045491870188 
2166	 0.454070277479122 
2167	 0.453022772050487 
2168	 0.451969486106638 
2169	 0.450900759312977 
2170	 0.44979597968625 
2171	 0.448652913036792 
2172	 0.44747351857263 
2173	 0.446279050637561 
2174	 0.445024564004646 
2175	 0.443716206345627 
2176	 0.442369320132404 
2177	 0.440968195952697 
2178	 0.439543491196634 
2179	 0.438075605351429 
2180	 0.436578987916508 
2181	 0.435056567065155 
2182	 0.433497805206163 
2183	 0.431890289581712 
2184	 0.43024791490338 
2185	 0.428632644513907 
2186	 0.426969787819855 
2187	 0.425388292232754 
2188	 0.423827439380378 
2189	 0.422329308330646 
2190	 0.420837631287999 
2191	 0.419478629080194 
2192	 0.418159884123878 
2193	 0.416997716538844 
2194	 0.415948390814578 
2195	 0.415031042840443 
2196	 0.41423563570097 
2197	 0.413580409573781 
2198	 0.413046169072297 
2199	 0.412672718747856 
2200	 0.412477205309817 
2201	 0.412382665583228 
2202	 0.41244388245068 
2203	 0.412605601806898 
2204	 0.412886908088255 
2205	 0.413265882568414 
2206	 0.41380677222751 
2207	 0.414505915996809 
2208	 0.415285142173193 
2209	 0.416210712287422 
2210	 0.417204973333463 
2211	 0.418335048046256 
2212	 0.419456479526219 
2213	 0.420700690222446 
2214	 0.421882668432402 
2215	 0.423077431906267 
2216	 0.424239533804598 
2217	 0.425412378878707 
2218	 0.426521005560722 
2219	 0.42762202807375 
2220	 0.428630678166149 
2221	 0.429578891723091 
2222	 0.430459427776767 
2223	 0.431248120845777 
2224	 0.431967651388796 
2225	 0.432653964920896 
2226	 0.433291074000274 
2227	 0.433849538251985 
2228	 0.434354891725246 
2229	 0.434785802706896 
2230	 0.435103530459686 
2231	 0.435444381999169 
2232	 0.435743440671731 
2233	 0.43602794659039 
2234	 0.436309751422141 
2235	 0.436536558305841 
2236	 0.436740237082177 
2237	 0.436876673393845 
2238	 0.436940006260403 
2239	 0.436993878266401 
2240	 0.436973442473605 
2241	 0.436974943900091 
2242	 0.436999258959724 
2243	 0.436973941712796 
2244	 0.436928432257729 
2245	 0.436856332417798 
2246	 0.436741074294458 
2247	 0.436583249820117 
2248	 0.436441435258492 
2249	 0.436291552267337 
2250	 0.436127925640415 
2251	 0.435943873908054 
2252	 0.435779145307073 
2253	 0.43558633603667 
2254	 0.435450704971266 
2255	 0.435357308833497 
2256	 0.435258783713072 
2257	 0.435191993115408 
2258	 0.435110669274012 
2259	 0.434996624544423 
2260	 0.434943063314083 
2261	 0.434927227158929 
2262	 0.434906727604621 
2263	 0.434894254462783 
2264	 0.43493520467883 
2265	 0.435001971743038 
2266	 0.435079496228615 
2267	 0.435223087053598 
2268	 0.435351236193733 
2269	 0.435482708955531 
2270	 0.435598655612593 
2271	 0.435714867267346 
2272	 0.435835941402419 
2273	 0.435940975486846 
2274	 0.436048567562599 
2275	 0.43616040286444 
2276	 0.436295813273107 
2277	 0.436381833842176 
2278	 0.436449328027768 
2279	 0.436509215859953 
2280	 0.436517791684698 
2281	 0.436581443606251 
2282	 0.436676230525843 
2283	 0.4367469630081 
2284	 0.436854933029892 
2285	 0.436906242441915 
2286	 0.436913351429597 
2287	 0.436913815689842 
2288	 0.43686642613777 
2289	 0.436856660538397 
2290	 0.43686638471637 
2291	 0.436856143330243 
2292	 0.436904007997507 
2293	 0.436842229565846 
2294	 0.436683586845303 
2295	 0.43654872239537 
2296	 0.436341165578781 
2297	 0.436173868450353 
2298	 0.436064112321096 
2299	 0.435939703957462 
2300	 0.435746510195793 
2301	 0.435549332284452 
2302	 0.435364862496376 
2303	 0.435134420711654 
2304	 0.434956967557687 
2305	 0.434762987997162 
2306	 0.43452226500761 
2307	 0.434225895270694 
2308	 0.433967199074303 
2309	 0.433685283887681 
2310	 0.43343895451841 
2311	 0.433240116693506 
2312	 0.432979625759233 
2313	 0.432727380624744 
2314	 0.432399848006345 
2315	 0.431990064977109 
2316	 0.43160863659916 
2317	 0.431179728903991 
2318	 0.430806435347707 
2319	 0.43045156461378 
2320	 0.430121395491194 
2321	 0.429845738714945 
2322	 0.429518418156754 
2323	 0.429194924307581 
2324	 0.428855850314795 
2325	 0.428488011828075 
2326	 0.428110587024714 
2327	 0.427722848535077 
2328	 0.427315789973962 
2329	 0.426955452167572 
2330	 0.426600298779204 
2331	 0.426287792997826 
2332	 0.42597344661751 
2333	 0.425553080118104 
2334	 0.4251021107735 
2335	 0.424655674217559 
2336	 0.424186042422219 
2337	 0.42376749300208 
2338	 0.423425404397144 
2339	 0.423012546972655 
2340	 0.422559683714289 
2341	 0.422130853801133 
2342	 0.421679450500451 
2343	 0.421341780408888 
2344	 0.42107530107045 
2345	 0.420807428606225 
2346	 0.420620858007216 
2347	 0.420386500707244 
2348	 0.420090465713089 
2349	 0.419918005549112 
2350	 0.419815958885608 
2351	 0.419688739489562 
2352	 0.419623814711383 
2353	 0.419544013074248 
2354	 0.419407005396707 
2355	 0.419362199042608 
2356	 0.419372268259151 
2357	 0.419416360192887 
2358	 0.419578189857473 
2359	 0.41963571503403 
2360	 0.419680071789916 
2361	 0.41969938468975 
2362	 0.419647344886394 
2363	 0.419613243849317 
2364	 0.41959807617811 
2365	 0.419525952061626 
2366	 0.419450507006462 
2367	 0.419308550712311 
2368	 0.419069203902036 
2369	 0.418875979262001 
2370	 0.418686042777484 
2371	 0.418450024361882 
2372	 0.418126051215408 
2373	 0.417892807942805 
2374	 0.417766987764832 
2375	 0.417438113537985 
2376	 0.417147949155989 
2377	 0.416951857362725 
2378	 0.416644297499937 
2379	 0.416416432657378 
2380	 0.416183223410585 
2381	 0.415909162316701 
2382	 0.415571946831527 
2383	 0.415116336897009 
2384	 0.414695616967127 
2385	 0.414283486662913 
2386	 0.413908320446476 
2387	 0.413566274250536 
2388	 0.413320647870756 
2389	 0.413139343284646 
2390	 0.412834926991365 
2391	 0.412536751096088 
2392	 0.412186485767996 
2393	 0.41173238572277 
2394	 0.41138256711225 
2395	 0.411013787455292 
2396	 0.410654442420787 
2397	 0.410361994823979 
2398	 0.40988451751107 
2399	 0.409382110489216 
2400	 0.408842570111233 
2401	 0.408233717135007 
2402	 0.40778465055922 
2403	 0.407286579005528 
2404	 0.40668868115198 
2405	 0.406171696847559 
2406	 0.405648460470556 
2407	 0.40501945990883 
2408	 0.404420429178226 
2409	 0.403814088221436 
2410	 0.403068020646036 
2411	 0.402314219608197 
2412	 0.401671211266297 
2413	 0.40100224496346 
2414	 0.400328261057556 
2415	 0.399730026312692 
2416	 0.399064152900456 
2417	 0.398335190558961 
2418	 0.397665195154767 
2419	 0.396993350618765 
2420	 0.39632149141869 
2421	 0.395646906525066 
2422	 0.395026253430382 
2423	 0.394466066681192 
2424	 0.393834961383151 
2425	 0.393240839863941 
2426	 0.39260608036103 
2427	 0.39188215514017 
2428	 0.391160870231372 
2429	 0.390409432851621 
2430	 0.389768799217438 
2431	 0.389132402481274 
2432	 0.388527849069683 
2433	 0.388074483173416 
2434	 0.387511360816576 
2435	 0.386842601092982 
2436	 0.386261342607681 
2437	 0.385675826574797 
2438	 0.385206854399072 
2439	 0.384867952561757 
2440	 0.384474204763057 
2441	 0.384103163733838 
2442	 0.383740091354481 
2443	 0.383366815818421 
2444	 0.383032272964153 
2445	 0.382833388164045 
2446	 0.382481936250732 
2447	 0.381956026543424 
2448	 0.381545797510776 
2449	 0.381093938459712 
2450	 0.380708613190639 
2451	 0.380493024979817 
2452	 0.380155728511944 
2453	 0.379767260566927 
2454	 0.379463003461769 
2455	 0.379127803884066 
2456	 0.378884728414701 
2457	 0.378713845624818 
2458	 0.378508843134588 
2459	 0.378402564446661 
2460	 0.378091270822826 
2461	 0.377723804444435 
2462	 0.377355795474723 
2463	 0.376758936352738 
2464	 0.376378058394909 
2465	 0.376083261499181 
2466	 0.375860288973963 
2467	 0.375837901894851 
2468	 0.375640265494449 
2469	 0.375400478721694 
2470	 0.375037910567146 
2471	 0.374695798867488 
2472	 0.37440805824669 
2473	 0.374107476675177 
2474	 0.373618318806632 
2475	 0.373143191476906 
2476	 0.372690906804093 
2477	 0.372335596276732 
2478	 0.372161235403012 
2479	 0.371891939558474 
2480	 0.371638769277934 
2481	 0.371218772509658 
2482	 0.370730082097688 
2483	 0.370438052771803 
2484	 0.36997058035309 
2485	 0.369572409051198 
2486	 0.369529350918738 
2487	 0.36949328520082 
2488	 0.369334211959226 
2489	 0.369148333711819 
2490	 0.368865153353367 
2491	 0.36853127987354 
2492	 0.368191775795136 
2493	 0.367959130951557 
2494	 0.36760014185357 
2495	 0.36704232214632 
2496	 0.366803043948907 
2497	 0.366662770745419 
2498	 0.366557956348375 
2499	 0.366493577645418 
2500	 0.36628233201402 
