Wavelength	LMW_2200004.asd
350	 8.44525429607974E-02 
351	 8.26487099519154E-02 
352	 0.074245133267982 
353	 6.68654075608087E-02 
354	 6.28888210053655E-02 
355	 6.18443944579274E-02 
356	 6.25260182414821E-02 
357	 0.06440956467105 
358	 7.13657692670003E-02 
359	 7.17658986617427E-02 
360	 6.65918677183751E-02 
361	 6.45437067696454E-02 
362	 0.060427289381386 
363	 6.16531705886146E-02 
364	 6.80987265715056E-02 
365	 0.065991119872121 
366	 6.50470484435896E-02 
367	 6.42462755992511E-02 
368	 6.18628901630394E-02 
369	 6.51438375971012E-02 
370	 6.71092650261156E-02 
371	 6.67593372224409E-02 
372	 6.73217775907075E-02 
373	 6.73832245550685E-02 
374	 0.066283480630806 
375	 6.54256720418171E-02 
376	 7.01794240141361E-02 
377	 6.75629902513593E-02 
378	 6.38228905870516E-02 
379	 6.74978946950374E-02 
380	 7.13958560204268E-02 
381	 7.04160271758647E-02 
382	 6.71175703156707E-02 
383	 6.90999737875858E-02 
384	 7.05845105829273E-02 
385	 0.070652853903676 
386	 7.01479623111774E-02 
387	 7.19380274164982E-02 
388	 7.32387819972264E-02 
389	 7.46183020732364E-02 
390	 7.69264491808355E-02 
391	 7.72752717424597E-02 
392	 7.71330738157005E-02 
393	 7.82522289803021E-02 
394	 8.19392985872434E-02 
395	 8.08646037743725E-02 
396	 8.06221895623624E-02 
397	 8.40457911329709E-02 
398	 8.33018743577913E-02 
399	 8.40500418032927E-02 
400	 8.65572931696009E-02 
401	 8.89864665700349E-02 
402	 8.96771705688124E-02 
403	 9.01771103622163E-02 
404	 9.13747609738842E-02 
405	 9.32185074262297E-02 
406	 9.40405823773375E-02 
407	 0.095057427574662 
408	 0.096940947881182 
409	 9.75520709984532E-02 
410	 9.74358885489392E-02 
411	 9.77843790348933E-02 
412	 9.95597747794282E-02 
413	 9.98257164523112E-02 
414	 0.099576154214108 
415	 0.099873098358368 
416	 0.101427484654924 
417	 0.101134885056466 
418	 0.10050680633026 
419	 0.101281699654229 
420	 0.102092281851841 
421	 0.10154603129517 
422	 0.100525019067043 
423	 0.101022385765903 
424	 0.100101840084292 
425	 9.90799038792113E-02 
426	 9.89177977026076E-02 
427	 9.91264659669824E-02 
428	 9.79317585947295E-02 
429	 9.62725978647813E-02 
430	 9.55892496675014E-02 
431	 9.48461206882485E-02 
432	 0.094231363048721 
433	 9.38707547044731E-02 
434	 9.37640061788809E-02 
435	 9.35714810043951E-02 
436	 9.34624287171148E-02 
437	 9.35774919511298E-02 
438	 9.36695066571352E-02 
439	 9.41548590071165E-02 
440	 9.49206485805173E-02 
441	 9.56135380922852E-02 
442	 9.62966065231743E-02 
443	 0.09706294363222 
444	 9.79352151101915E-02 
445	 9.88310085534339E-02 
446	 9.96029598708823E-02 
447	 0.100458610915547 
448	 0.10154649882981 
449	 0.102327444858346 
450	 0.103013525115838 
451	 0.103828497609291 
452	 0.104933891290505 
453	 0.105503042475146 
454	 0.10599597585237 
455	 0.106832092993608 
456	 0.10780218232965 
457	 0.108583111616833 
458	 0.108961632347544 
459	 0.108958999717076 
460	 0.10971149941177 
461	 0.110509538779973 
462	 0.110880044986287 
463	 0.110902608358313 
464	 0.111452756806196 
465	 0.111998437996178 
466	 0.111963651211254 
467	 0.112324588185379 
468	 0.112660150376684 
469	 0.112855376607911 
470	 0.113067206706663 
471	 0.113274215010271 
472	 0.113537702274995 
473	 0.113838285445277 
474	 0.113915428187414 
475	 0.114184661616584 
476	 0.114430464281136 
477	 0.114284230357667 
478	 0.114434347220222 
479	 0.114611713164654 
480	 0.114729899633731 
481	 0.115074541709959 
482	 0.115367205583412 
483	 0.115531881054837 
484	 0.11557452031021 
485	 0.115548154356966 
486	 0.115643690162758 
487	 0.115835813344713 
488	 0.11592074724438 
489	 0.115849933809276 
490	 0.115896125041697 
491	 0.116180334567753 
492	 0.116322576762139 
493	 0.116487916385302 
494	 0.116644667930193 
495	 0.116709127785094 
496	 0.116888559700815 
497	 0.117101336292114 
498	 0.117279359419138 
499	 0.117419590289777 
500	 0.117477031464648 
501	 0.117518817544628 
502	 0.117617869027205 
503	 0.117709803623788 
504	 0.117845465744292 
505	 0.117983448644024 
506	 0.118008837486272 
507	 0.11816421933156 
508	 0.11831173978853 
509	 0.118337477515199 
510	 0.118383492425013 
511	 0.118474913282795 
512	 0.118574605220209 
513	 0.11862330538606 
514	 0.118702609649684 
515	 0.118914560248462 
516	 0.119202764627776 
517	 0.119253186023977 
518	 0.119106644089687 
519	 0.119016005743816 
520	 0.119215829946226 
521	 0.119444011094858 
522	 0.119583035449896 
523	 0.119651271675883 
524	 0.119794659419327 
525	 0.119834751839512 
526	 0.119866075153961 
527	 0.119986301952019 
528	 0.120118829607989 
529	 0.120186000545827 
530	 0.120236463061195 
531	 0.120381771159782 
532	 0.120383762151955 
533	 0.120507943851989 
534	 0.120813181332924 
535	 0.120770839605505 
536	 0.120757724544914 
537	 0.120862196329913 
538	 0.121045206172166 
539	 0.121192808262595 
540	 0.121353689814023 
541	 0.12151446745065 
542	 0.121558460143007 
543	 0.121660406714422 
544	 0.121833245110643 
545	 0.122047000641614 
546	 0.122319420989464 
547	 0.122507625199305 
548	 0.122598645268574 
549	 0.122698340803918 
550	 0.122941401262396 
551	 0.12324551050218 
552	 0.123514439897467 
553	 0.12372682414557 
554	 0.123964874000135 
555	 0.124248471091356 
556	 0.124568236152375 
557	 0.124993536547998 
558	 0.125383277910303 
559	 0.125718003501706 
560	 0.126240684556146 
561	 0.126652892559373 
562	 0.127045795885667 
563	 0.127587867645865 
564	 0.128085168678324 
565	 0.128567867823889 
566	 0.129055567609048 
567	 0.129542174103187 
568	 0.130179994506931 
569	 0.13089567151522 
570	 0.131599392636723 
571	 0.132356684482785 
572	 0.13310986933308 
573	 0.133880335398869 
574	 0.134739883138082 
575	 0.135625195988193 
576	 0.136590912918645 
577	 0.137610153819367 
578	 0.138437807116226 
579	 0.139208219195032 
580	 0.13994723157047 
581	 0.140649794221442 
582	 0.141373540185598 
583	 0.142122188647836 
584	 0.142949327561827 
585	 0.143990526156857 
586	 0.145183675606696 
587	 0.146412099890814 
588	 0.147575597227211 
589	 0.148739900845189 
590	 0.149930829958348 
591	 0.151173919091545 
592	 0.152493955123738 
593	 0.15382658887218 
594	 0.15512922050133 
595	 0.15635341968278 
596	 0.157422422120517 
597	 0.158371762990771 
598	 0.159235457790525 
599	 0.160061703326595 
600	 0.160965169509958 
601	 0.161857411762011 
602	 0.162700563897336 
603	 0.163597642405139 
604	 0.164516626762967 
605	 0.165424697067485 
606	 0.166292494408764 
607	 0.167123884788044 
608	 0.167968625082609 
609	 0.168855272456938 
610	 0.169781043771002 
611	 0.170461558109457 
612	 0.171008493550652 
613	 0.171580640766356 
614	 0.172132967005782 
615	 0.172652120798263 
616	 0.173151941332523 
617	 0.173657676880612 
618	 0.17412356636099 
619	 0.174531621561699 
620	 0.174904312090981 
621	 0.175341308063357 
622	 0.175770160874915 
623	 0.176151041871081 
624	 0.176472235743364 
625	 0.176825993833536 
626	 0.177128991474731 
627	 0.177389799323395 
628	 0.177755639264006 
629	 0.178082234115367 
630	 0.17835320416554 
631	 0.178596123955848 
632	 0.178854111415171 
633	 0.17913240216586 
634	 0.179426097177758 
635	 0.179720493172157 
636	 0.179971870390347 
637	 0.180208735443718 
638	 0.180455981183826 
639	 0.180692752373173 
640	 0.180965704008464 
641	 0.181250279235427 
642	 0.181497741262341 
643	 0.181764020415679 
644	 0.182001056095891 
645	 0.182219273265286 
646	 0.182528750861674 
647	 0.182792506060365 
648	 0.1830659469775 
649	 0.183405725494508 
650	 0.183624951096682 
651	 0.183851893607751 
652	 0.184128338255569 
653	 0.184413065443141 
654	 0.184716689818109 
655	 0.184991791410004 
656	 0.185239653868965 
657	 0.185611515994031 
658	 0.185958063749685 
659	 0.186286251602402 
660	 0.186659042419028 
661	 0.186961007176547 
662	 0.187274955028672 
663	 0.187650699396185 
664	 0.188065219339353 
665	 0.188436561269419 
666	 0.188790318483411 
667	 0.189168321347495 
668	 0.189523085456153 
669	 0.189903158790823 
670	 0.190330599216004 
671	 0.190794629452498 
672	 0.191175945613443 
673	 0.191585327199305 
674	 0.192082974499982 
675	 0.192515596125842 
676	 0.19293210212704 
677	 0.193358778041445 
678	 0.193818278807786 
679	 0.194350005813392 
680	 0.19485419734621 
681	 0.195300569387904 
682	 0.19576347113614 
683	 0.196264105935864 
684	 0.1967591675076 
685	 0.197226047792848 
686	 0.197790604727199 
687	 0.198363715268383 
688	 0.198880464818489 
689	 0.19931105608757 
690	 0.199792796754621 
691	 0.200319856833057 
692	 0.200875587415575 
693	 0.201478052752073 
694	 0.202036925261951 
695	 0.202544146213492 
696	 0.203037540656392 
697	 0.203603945034654 
698	 0.204170831882718 
699	 0.2047152463697 
700	 0.205275530136054 
701	 0.205805109397292 
702	 0.206317701147284 
703	 0.206830295200225 
704	 0.207329752031798 
705	 0.20784305838214 
706	 0.208368287635334 
707	 0.208885080629713 
708	 0.209371296088392 
709	 0.209886465139876 
710	 0.210435165891316 
711	 0.210933846457652 
712	 0.211407358811748 
713	 0.211861919166956 
714	 0.212311724030263 
715	 0.212819659596531 
716	 0.213266287811817 
717	 0.213652900853659 
718	 0.21406590907678 
719	 0.214448016346883 
720	 0.21481913324949 
721	 0.215197130298802 
722	 0.215579629262834 
723	 0.21592712343643 
724	 0.216239006772457 
725	 0.21652742315201 
726	 0.216777516541982 
727	 0.217059904624942 
728	 0.21736863933586 
729	 0.217625600404596 
730	 0.217863586786396 
731	 0.218064794212047 
732	 0.21822330820461 
733	 0.218379204247783 
734	 0.218526776557839 
735	 0.218617525339467 
736	 0.218623864654174 
737	 0.218762303197958 
738	 0.218851130180524 
739	 0.218830509413416 
740	 0.218806572926858 
741	 0.218846856585456 
742	 0.218857165680169 
743	 0.218768817635033 
744	 0.218687200045415 
745	 0.218545719213768 
746	 0.218410167970616 
747	 0.218368854402244 
748	 0.218206996190083 
749	 0.21803097054049 
750	 0.217858096865903 
751	 0.217567654189413 
752	 0.217343471420885 
753	 0.217132307151948 
754	 0.216864277739245 
755	 0.216591970275305 
756	 0.216302322700074 
757	 0.216007083070018 
758	 0.215722898833487 
759	 0.215416244409688 
760	 0.215060268223824 
761	 0.214659739892732 
762	 0.214256490988888 
763	 0.213837588051477 
764	 0.213442585257233 
765	 0.213088265685559 
766	 0.212695993259333 
767	 0.212278502034612 
768	 0.211841417060417 
769	 0.211385379845738 
770	 0.210887039117335 
771	 0.210430470721202 
772	 0.210018708092212 
773	 0.209551772592785 
774	 0.209106412416821 
775	 0.208643697633268 
776	 0.208132163234508 
777	 0.207626085510477 
778	 0.207120181264018 
779	 0.206629323190985 
780	 0.206169060135206 
781	 0.205715832265355 
782	 0.205250397324105 
783	 0.204751717267855 
784	 0.204203753656095 
785	 0.203709592258686 
786	 0.20322201607043 
787	 0.202698780483857 
788	 0.202179006207675 
789	 0.201691908776867 
790	 0.201212828978647 
791	 0.200707154319409 
792	 0.200216632558213 
793	 0.199720838224255 
794	 0.199224292666816 
795	 0.198751116833521 
796	 0.198249681462565 
797	 0.197746080702709 
798	 0.197270536482102 
799	 0.196838963281524 
800	 0.196379370580314 
801	 0.19591719065792 
802	 0.195485953872842 
803	 0.195033298931971 
804	 0.194517022958606 
805	 0.193999047988235 
806	 0.193584842894388 
807	 0.19314512028738 
808	 0.192714878947179 
809	 0.192290370757485 
810	 0.191798731490526 
811	 0.191427474013136 
812	 0.191040278001368 
813	 0.19055016699028 
814	 0.190216411471895 
815	 0.189819916489658 
816	 0.189381337161991 
817	 0.189002950829864 
818	 0.1886435347288 
819	 0.188317740111875 
820	 0.187982272340356 
821	 0.187558610324991 
822	 0.187161467716687 
823	 0.186807643130202 
824	 0.186487334005095 
825	 0.18617493895504 
826	 0.185906780807441 
827	 0.185587116894794 
828	 0.18516030923889 
829	 0.184797688470037 
830	 0.184491665969308 
831	 0.184231645486808 
832	 0.183987521643453 
833	 0.183654062874371 
834	 0.183352484490153 
835	 0.183107122624419 
836	 0.182838984834708 
837	 0.182580967643364 
838	 0.182309312213317 
839	 0.182012130125037 
840	 0.181706608806651 
841	 0.181532075617672 
842	 0.181383327651518 
843	 0.181141047050097 
844	 0.18086325552956 
845	 0.18069294189412 
846	 0.180568790189341 
847	 0.180362568911437 
848	 0.180193909290501 
849	 0.179969923003173 
850	 0.179715279072213 
851	 0.179552013052623 
852	 0.179424463583332 
853	 0.179279146674325 
854	 0.179091807835921 
855	 0.178882692244513 
856	 0.178755818508735 
857	 0.178698048050246 
858	 0.178642894414643 
859	 0.178463178173777 
860	 0.178361585277774 
861	 0.178292495995448 
862	 0.178152658121625 
863	 0.178004514563199 
864	 0.17794081473853 
865	 0.17790560393891 
866	 0.177778602928515 
867	 0.177689542201822 
868	 0.177682077394279 
869	 0.177689582834728 
870	 0.177565900011965 
871	 0.177523694489507 
872	 0.177503152628745 
873	 0.177468822522934 
874	 0.177496692140477 
875	 0.177509688358161 
876	 0.177501890769668 
877	 0.177476023409099 
878	 0.177396470368367 
879	 0.177397453534635 
880	 0.177476108510308 
881	 0.177563444968439 
882	 0.177565900889182 
883	 0.177561479882996 
884	 0.177554916979081 
885	 0.177534016325615 
886	 0.177662011524834 
887	 0.177795633753349 
888	 0.17787266267957 
889	 0.177927040144932 
890	 0.178001315877911 
891	 0.178039338032264 
892	 0.178051327993918 
893	 0.178138078732977 
894	 0.17821681991315 
895	 0.17833884871164 
896	 0.178528456260624 
897	 0.178719655285458 
898	 0.178878368402559 
899	 0.179022436563464 
900	 0.179176827404488 
901	 0.179342476550637 
902	 0.17946786398196 
903	 0.179556966012108 
904	 0.179653636117404 
905	 0.179859203932033 
906	 0.180072711060001 
907	 0.180256398433552 
908	 0.180420645906574 
909	 0.18062508921462 
910	 0.180835125486933 
911	 0.181052219232457 
912	 0.181286915791052 
913	 0.181411004364187 
914	 0.181626832306238 
915	 0.181930440553431 
916	 0.182133030738281 
917	 0.182354941325056 
918	 0.182637117028246 
919	 0.182950541518863 
920	 0.183207489116965 
921	 0.183505469963148 
922	 0.183806939999109 
923	 0.184076883800477 
924	 0.184322433075798 
925	 0.184631227991628 
926	 0.18500488044307 
927	 0.185358670157102 
928	 0.185499449087393 
929	 0.185830214289369 
930	 0.186197404274104 
931	 0.186446648645085 
932	 0.186761288813763 
933	 0.187198387214892 
934	 0.187639081033085 
935	 0.187964446446672 
936	 0.188222602595003 
937	 0.188504094321643 
938	 0.188879340336962 
939	 0.189341616595583 
940	 0.18968581754808 
941	 0.190045020237002 
942	 0.190498036217706 
943	 0.191014555635261 
944	 0.191250996666946 
945	 0.191577494798886 
946	 0.192050645777145 
947	 0.19254054980574 
948	 0.192863563380005 
949	 0.193266127477988 
950	 0.193717739935495 
951	 0.194083735716843 
952	 0.194524690822678 
953	 0.194937729817381 
954	 0.195333673392944 
955	 0.195787331461615 
956	 0.196311476437725 
957	 0.196797260819572 
958	 0.197262010927393 
959	 0.197770128555471 
960	 0.198155071337072 
961	 0.198531943074694 
962	 0.198980363741619 
963	 0.199503895515027 
964	 0.199910644852452 
965	 0.200377513270779 
966	 0.200928369018755 
967	 0.201471250438138 
968	 0.20201597930518 
969	 0.202504427576313 
970	 0.202906748043374 
971	 0.203252906177981 
972	 0.203760480901876 
973	 0.204261332560333 
974	 0.204665093702675 
975	 0.205020883048905 
976	 0.205706857356769 
977	 0.206251723406277 
978	 0.206617630480891 
979	 0.207069744146058 
980	 0.207579653682609 
981	 0.208079000146655 
982	 0.208561206400566 
983	 0.209056708630432 
984	 0.209534999327632 
985	 0.210045031343349 
986	 0.210512108667738 
987	 0.210862882841718 
988	 0.211377026057072 
989	 0.211949630066138 
990	 0.212448905722407 
991	 0.212805383490238 
992	 0.213216317177852 
993	 0.213630123011906 
994	 0.214137827326985 
995	 0.214770094183761 
996	 0.215076049124828 
997	 0.215502960166771 
998	 0.216002920046672 
999	 0.216396756639294 
1000	 0.21683117895051 
1001	 0.215541355100053 
1002	 0.21593706181184 
1003	 0.216274743450437 
1004	 0.216682378086326 
1005	 0.217195638322174 
1006	 0.217575314819075 
1007	 0.217880926760204 
1008	 0.218276165234264 
1009	 0.218666855509249 
1010	 0.219005537912047 
1011	 0.219415096286485 
1012	 0.219787006017668 
1013	 0.220077737997842 
1014	 0.220342910293831 
1015	 0.220650915069991 
1016	 0.221028433160241 
1017	 0.221393564066709 
1018	 0.221779758449555 
1019	 0.222182200045798 
1020	 0.222570566106708 
1021	 0.222906875627118 
1022	 0.223218004711964 
1023	 0.223509217636144 
1024	 0.223788493242568 
1025	 0.224021350105333 
1026	 0.224294228186852 
1027	 0.224584924618443 
1028	 0.224796083762853 
1029	 0.225078300590804 
1030	 0.225399630042037 
1031	 0.225672121024422 
1032	 0.225906254298426 
1033	 0.226191881120202 
1034	 0.226529275584329 
1035	 0.226826613251952 
1036	 0.227096455851505 
1037	 0.227348326571758 
1038	 0.227513625263238 
1039	 0.2276370765258 
1040	 0.227805154589511 
1041	 0.228054045085297 
1042	 0.228316217448263 
1043	 0.228534379050097 
1044	 0.228744209454448 
1045	 0.228962397110139 
1046	 0.229131110314459 
1047	 0.229272564421116 
1048	 0.229455030947035 
1049	 0.229672628571006 
1050	 0.229886977134657 
1051	 0.230090065339022 
1052	 0.230327871240359 
1053	 0.230517155080221 
1054	 0.230704704292494 
1055	 0.230947427746342 
1056	 0.231167701686918 
1057	 0.231401452643247 
1058	 0.231654584734852 
1059	 0.231901838474129 
1060	 0.232156284799148 
1061	 0.232410236861773 
1062	 0.232596302594721 
1063	 0.232812275893099 
1064	 0.232991947022744 
1065	 0.233154246166723 
1066	 0.233370435456022 
1067	 0.233571606503005 
1068	 0.233793045702789 
1069	 0.234033450627779 
1070	 0.234259502584245 
1071	 0.234518088017654 
1072	 0.234724668002072 
1073	 0.234881445995219 
1074	 0.235053203139112 
1075	 0.235204461281129 
1076	 0.235357743037078 
1077	 0.235534698506806 
1078	 0.235737088424926 
1079	 0.235941844730735 
1080	 0.236154742710705 
1081	 0.23632666847936 
1082	 0.236493434561047 
1083	 0.236658892665268 
1084	 0.236787914422949 
1085	 0.236935316572518 
1086	 0.237100869946937 
1087	 0.237263407972467 
1088	 0.237418287958905 
1089	 0.237587725366235 
1090	 0.237745354115211 
1091	 0.237912563377128 
1092	 0.238072060296529 
1093	 0.238202159923675 
1094	 0.238411620940263 
1095	 0.238601411383771 
1096	 0.238740136213268 
1097	 0.238921852098996 
1098	 0.23906753308396 
1099	 0.239157341603613 
1100	 0.239285031894934 
1101	 0.239421025979602 
1102	 0.239560061056683 
1103	 0.239710986023717 
1104	 0.239858445433489 
1105	 0.23999057805026 
1106	 0.240141549432974 
1107	 0.240266422306278 
1108	 0.240373338766138 
1109	 0.240499735191003 
1110	 0.240606403955269 
1111	 0.24073654915698 
1112	 0.240889568194427 
1113	 0.241027145615726 
1114	 0.241185792059338 
1115	 0.241306774821265 
1116	 0.241385914896163 
1117	 0.241486372602167 
1118	 0.241574337445835 
1119	 0.241679752730341 
1120	 0.241776268501761 
1121	 0.241899099263469 
1122	 0.242022413946623 
1123	 0.24211023215671 
1124	 0.242212859672694 
1125	 0.242329284222123 
1126	 0.242431466419294 
1127	 0.242527814648789 
1128	 0.242612271892104 
1129	 0.242684182621777 
1130	 0.24276319086788 
1131	 0.24283323582265 
1132	 0.242909561386753 
1133	 0.242987432394746 
1134	 0.24307556453753 
1135	 0.243180758209659 
1136	 0.243264085266503 
1137	 0.243349702238318 
1138	 0.243417185407413 
1139	 0.243476342151001 
1140	 0.24350604413378 
1141	 0.24355852446306 
1142	 0.243620495672212 
1143	 0.243673538814188 
1144	 0.243727507693508 
1145	 0.24377422150882 
1146	 0.243809174341211 
1147	 0.243852162793612 
1148	 0.243889376441789 
1149	 0.243937823094694 
1150	 0.244001493483057 
1151	 0.244057989517387 
1152	 0.244108351210999 
1153	 0.244148701545944 
1154	 0.244195867526754 
1155	 0.244234285841559 
1156	 0.24427864772147 
1157	 0.24433276395264 
1158	 0.244382536098309 
1159	 0.244434169747334 
1160	 0.244476021367334 
1161	 0.244504063945134 
1162	 0.244546913813023 
1163	 0.244585020258414 
1164	 0.244631560203626 
1165	 0.244684241288588 
1166	 0.244764575990224 
1167	 0.244815009497999 
1168	 0.244863235663892 
1169	 0.244916271569921 
1170	 0.244962948133268 
1171	 0.245018776943664 
1172	 0.245079537845795 
1173	 0.245144978217907 
1174	 0.24521960544406 
1175	 0.245283679336909 
1176	 0.245346168876702 
1177	 0.245415266268046 
1178	 0.245478586975064 
1179	 0.245547307357754 
1180	 0.24562630402746 
1181	 0.245702502212514 
1182	 0.245780021424815 
1183	 0.245854269674391 
1184	 0.245925283227121 
1185	 0.246001979769675 
1186	 0.246063235811971 
1187	 0.246102025041282 
1188	 0.246170983521533 
1189	 0.246253742786572 
1190	 0.246319885931239 
1191	 0.246400076121442 
1192	 0.246463780891163 
1193	 0.246498165376386 
1194	 0.246550572337712 
1195	 0.246615863507168 
1196	 0.246670226318719 
1197	 0.246717815428635 
1198	 0.246772053501307 
1199	 0.246826880818281 
1200	 0.24687961371676 
1201	 0.246928822604575 
1202	 0.246984324668211 
1203	 0.247029743436111 
1204	 0.247058420735676 
1205	 0.24710498161471 
1206	 0.24716142327749 
1207	 0.247209160274572 
1208	 0.247262551481633 
1209	 0.247308383655863 
1210	 0.24734285203222 
1211	 0.247382918782202 
1212	 0.247422426732628 
1213	 0.24746431635308 
1214	 0.24751041308588 
1215	 0.247553469677193 
1216	 0.247595948463313 
1217	 0.247640085170985 
1218	 0.247679892911271 
1219	 0.247721190974274 
1220	 0.247750089286327 
1221	 0.247765221544559 
1222	 0.247795418113766 
1223	 0.24782714179682 
1224	 0.247853407134805 
1225	 0.247891660075465 
1226	 0.247916918805533 
1227	 0.247926958255208 
1228	 0.247939795338553 
1229	 0.24794383998462 
1230	 0.247959538233707 
1231	 0.247988834383508 
1232	 0.248003192047988 
1233	 0.248014244740541 
1234	 0.248024926850861 
1235	 0.248044287352734 
1236	 0.24805069234896 
1237	 0.248077170150126 
1238	 0.248128666302873 
1239	 0.248163692214405 
1240	 0.248202798003933 
1241	 0.248229398247073 
1242	 0.248248563569878 
1243	 0.248264840653609 
1244	 0.248265023822743 
1245	 0.248275490263333 
1246	 0.248291891833412 
1247	 0.24830515719615 
1248	 0.248324722694363 
1249	 0.248336510484255 
1250	 0.248331924887978 
1251	 0.248337714719224 
1252	 0.248349578891226 
1253	 0.248363898096683 
1254	 0.248375610487064 
1255	 0.248404462914982 
1256	 0.248407600604281 
1257	 0.248388275128128 
1258	 0.248384216490903 
1259	 0.248378822273249 
1260	 0.248370233623161 
1261	 0.248367061116091 
1262	 0.248361552036048 
1263	 0.248341277802944 
1264	 0.248334510526564 
1265	 0.248330643273913 
1266	 0.248337197589652 
1267	 0.248360496582569 
1268	 0.248384737929747 
1269	 0.248390060164545 
1270	 0.248396718126273 
1271	 0.248388210786366 
1272	 0.248353610052621 
1273	 0.248339595926931 
1274	 0.248328009931506 
1275	 0.248320986173515 
1276	 0.248317951659136 
1277	 0.248318251117008 
1278	 0.248318621613723 
1279	 0.248328535234095 
1280	 0.248348918268562 
1281	 0.248364670116227 
1282	 0.248390962913671 
1283	 0.248410093909889 
1284	 0.24841982087652 
1285	 0.248431629034874 
1286	 0.248465300131239 
1287	 0.248492733911534 
1288	 0.248526224739034 
1289	 0.248576813371936 
1290	 0.248614907986284 
1291	 0.24863816823331 
1292	 0.248679873625519 
1293	 0.248734329303555 
1294	 0.248780559093257 
1295	 0.248836093006447 
1296	 0.248877370647117 
1297	 0.248904383491955 
1298	 0.24893983586173 
1299	 0.248974646278385 
1300	 0.249009176911022 
1301	 0.249055753820592 
1302	 0.2490821955405 
1303	 0.249096367220485 
1304	 0.249107285510895 
1305	 0.249104418745766 
1306	 0.2491004629322 
1307	 0.249107912853128 
1308	 0.249122600594767 
1309	 0.249124069060661 
1310	 0.249126037990332 
1311	 0.24912861193759 
1312	 0.249128210460297 
1313	 0.249110707658604 
1314	 0.249093301215631 
1315	 0.249061885428307 
1316	 0.249003979566378 
1317	 0.248962540059112 
1318	 0.248933137316326 
1319	 0.248886048163844 
1320	 0.24882332911495 
1321	 0.248770816880942 
1322	 0.248710566669257 
1323	 0.248663840337373 
1324	 0.248616522452738 
1325	 0.248542978803163 
1326	 0.248467835988217 
1327	 0.248387197603422 
1328	 0.248316600160872 
1329	 0.248264828871096 
1330	 0.248202585983776 
1331	 0.248143956469393 
1332	 0.248074887773873 
1333	 0.248000299327476 
1334	 0.247928323329965 
1335	 0.247843837306638 
1336	 0.247775833211242 
1337	 0.247721324637345 
1338	 0.247655450828531 
1339	 0.247591734242203 
1340	 0.247531118662812 
1341	 0.247457353497812 
1342	 0.247397588752756 
1343	 0.2473543521989 
1344	 0.247305090065543 
1345	 0.247241919221918 
1346	 0.247197560623428 
1347	 0.247136780868836 
1348	 0.247055306406517 
1349	 0.246984503010186 
1350	 0.246914782454245 
1351	 0.246862316939277 
1352	 0.246827751744794 
1353	 0.246783471466806 
1354	 0.246747342803177 
1355	 0.246705189914232 
1356	 0.24665844152122 
1357	 0.246602845721361 
1358	 0.24655402243648 
1359	 0.246485126695828 
1360	 0.24639592443085 
1361	 0.24630951581811 
1362	 0.24620867780184 
1363	 0.246120088640699 
1364	 0.246042963822702 
1365	 0.245953912764976 
1366	 0.245872883933754 
1367	 0.245770532602966 
1368	 0.245656223592361 
1369	 0.245532555034259 
1370	 0.245412802665506 
1371	 0.245296082859407 
1372	 0.245176605613543 
1373	 0.245053471141069 
1374	 0.24490262663118 
1375	 0.244730479633823 
1376	 0.244553054017876 
1377	 0.244358474937677 
1378	 0.244151402597626 
1379	 0.243943238640359 
1380	 0.243707422999507 
1381	 0.243449536208694 
1382	 0.243177276455844 
1383	 0.242884006514961 
1384	 0.242578937485927 
1385	 0.242273581265042 
1386	 0.24193245247433 
1387	 0.241567590155049 
1388	 0.241193706803168 
1389	 0.240802672830295 
1390	 0.24037953969113 
1391	 0.239959942289072 
1392	 0.239478811377668 
1393	 0.238952961312205 
1394	 0.238404289768182 
1395	 0.237840989880002 
1396	 0.237278125870423 
1397	 0.236693254034246 
1398	 0.236107103831419 
1399	 0.235490776362531 
1400	 0.234841388033042 
1401	 0.234195088912981 
1402	 0.233520631985307 
1403	 0.232876709123014 
1404	 0.232228896729245 
1405	 0.231605942983264 
1406	 0.231000853462214 
1407	 0.230416669692631 
1408	 0.229846492867942 
1409	 0.229295665082763 
1410	 0.228756789099051 
1411	 0.228250977821889 
1412	 0.22776497557735 
1413	 0.227304239804095 
1414	 0.22688701271095 
1415	 0.226510321598344 
1416	 0.22616349162214 
1417	 0.225844038090169 
1418	 0.225545681756039 
1419	 0.225252834689029 
1420	 0.224964598720419 
1421	 0.224693318458776 
1422	 0.224427986031883 
1423	 0.224187103627958 
1424	 0.223955068320687 
1425	 0.223738557561522 
1426	 0.223526701030903 
1427	 0.223319369507477 
1428	 0.223136143721971 
1429	 0.22296758657168 
1430	 0.222813366466265 
1431	 0.222686050296565 
1432	 0.222554683559644 
1433	 0.222418279431099 
1434	 0.222306743244907 
1435	 0.222216061616999 
1436	 0.222124283122814 
1437	 0.222052461801411 
1438	 0.221978695437964 
1439	 0.221906865168358 
1440	 0.221827306129506 
1441	 0.221763486610117 
1442	 0.221699045808928 
1443	 0.221635406303563 
1444	 0.221576463156323 
1445	 0.221519919200315 
1446	 0.221456767632605 
1447	 0.221387076870183 
1448	 0.221326315527119 
1449	 0.221255478953972 
1450	 0.221181264047827 
1451	 0.221115481705165 
1452	 0.221057700737013 
1453	 0.22098919972814 
1454	 0.220921496662913 
1455	 0.220845814285361 
1456	 0.220759929857918 
1457	 0.220678198294786 
1458	 0.220595082746277 
1459	 0.220512293208604 
1460	 0.22042275961934 
1461	 0.22034728546682 
1462	 0.220267991738155 
1463	 0.220213174690696 
1464	 0.220158113471148 
1465	 0.220142862960317 
1466	 0.220144986510363 
1467	 0.220185992571016 
1468	 0.220265250552303 
1469	 0.220373279305032 
1470	 0.220519953559597 
1471	 0.220687185965426 
1472	 0.220863463917512 
1473	 0.221072132645445 
1474	 0.221273355700168 
1475	 0.221488358552329 
1476	 0.221729081017457 
1477	 0.221950075809301 
1478	 0.222181832134086 
1479	 0.222415486454781 
1480	 0.222613247178337 
1481	 0.222799131403966 
1482	 0.222979885638405 
1483	 0.223136765482591 
1484	 0.22330556326386 
1485	 0.223483190609446 
1486	 0.223647260804117 
1487	 0.223803659283859 
1488	 0.223958807006316 
1489	 0.224106130580016 
1490	 0.224249711890402 
1491	 0.224392313741044 
1492	 0.224535798349446 
1493	 0.224664920181596 
1494	 0.224807433593203 
1495	 0.224972591221881 
1496	 0.225108149601335 
1497	 0.225231544268497 
1498	 0.225363462975311 
1499	 0.225475426948223 
1500	 0.225600389507627 
1501	 0.225753829604633 
1502	 0.225878183946572 
1503	 0.225987900984853 
1504	 0.226094555271687 
1505	 0.226195574335259 
1506	 0.226299560300434 
1507	 0.226423737973044 
1508	 0.226541106503352 
1509	 0.226625944357933 
1510	 0.226707809926656 
1511	 0.226780683216775 
1512	 0.226853457209902 
1513	 0.226958643728887 
1514	 0.227064354077516 
1515	 0.227161429929466 
1516	 0.227268782177603 
1517	 0.227366308689521 
1518	 0.227456147703118 
1519	 0.227544308778629 
1520	 0.227631775017906 
1521	 0.227715994733744 
1522	 0.227790947843563 
1523	 0.227875519970004 
1524	 0.227961307163984 
1525	 0.228053339480043 
1526	 0.228160252579867 
1527	 0.228246794439097 
1528	 0.228333790301865 
1529	 0.228404736494974 
1530	 0.228447988820119 
1531	 0.228509941138075 
1532	 0.228568693844369 
1533	 0.22863572300645 
1534	 0.228711506716926 
1535	 0.228791685681523 
1536	 0.22888346589834 
1537	 0.228966295604304 
1538	 0.229041535469943 
1539	 0.229128717094424 
1540	 0.229231592864312 
1541	 0.229313472339337 
1542	 0.229396433140873 
1543	 0.229468783061662 
1544	 0.229505670794272 
1545	 0.229561417086582 
1546	 0.229618067635506 
1547	 0.229702130693279 
1548	 0.229765307791495 
1549	 0.229820924797382 
1550	 0.229860265677384 
1551	 0.2298867414138 
1552	 0.22993271021158 
1553	 0.229977506102151 
1554	 0.23002838445413 
1555	 0.230084517387956 
1556	 0.230143321007429 
1557	 0.230198654925558 
1558	 0.230236694865745 
1559	 0.230278768917528 
1560	 0.230321150160677 
1561	 0.230350094764002 
1562	 0.230390183603199 
1563	 0.230448435004035 
1564	 0.23047997644378 
1565	 0.230496328308705 
1566	 0.230524695855012 
1567	 0.230549090588485 
1568	 0.230573626729347 
1569	 0.23060664562956 
1570	 0.230618929779731 
1571	 0.230615187210568 
1572	 0.230621239618203 
1573	 0.230620265164623 
1574	 0.230631571745803 
1575	 0.230648117356965 
1576	 0.230670236810254 
1577	 0.230694623114832 
1578	 0.230728866793533 
1579	 0.230787184361182 
1580	 0.230817493765361 
1581	 0.230842970662066 
1582	 0.230861640639346 
1583	 0.230860642622311 
1584	 0.230864933159906 
1585	 0.230870060617586 
1586	 0.230872968552004 
1587	 0.230861722849029 
1588	 0.230865011559758 
1589	 0.230880655955263 
1590	 0.230893486608233 
1591	 0.2309120339561 
1592	 0.230928081225066 
1593	 0.230946175024322 
1594	 0.230954840270495 
1595	 0.230957105437819 
1596	 0.230964886319322 
1597	 0.230972623468993 
1598	 0.230973100374123 
1599	 0.230973070291864 
1600	 0.230971994928108 
1601	 0.23095537849729 
1602	 0.230950387176501 
1603	 0.23096267810037 
1604	 0.230960834769282 
1605	 0.230962585567588 
1606	 0.230951706426571 
1607	 0.230912348262948 
1608	 0.230896057203654 
1609	 0.230881057916615 
1610	 0.230849211806106 
1611	 0.230829560988873 
1612	 0.230808177306957 
1613	 0.230786556592821 
1614	 0.230768698607514 
1615	 0.230757056357433 
1616	 0.230734916615062 
1617	 0.230699711097824 
1618	 0.230673170487089 
1619	 0.23065593491644 
1620	 0.230638689576431 
1621	 0.230626660068389 
1622	 0.230629535832272 
1623	 0.230614103782206 
1624	 0.230594964924761 
1625	 0.230564519323962 
1626	 0.230526469995536 
1627	 0.23047992195453 
1628	 0.23040748803427 
1629	 0.230385841367095 
1630	 0.230387047736614 
1631	 0.230356507540558 
1632	 0.230345437321954 
1633	 0.230312734258921 
1634	 0.230236314251523 
1635	 0.230199470897736 
1636	 0.230191084377831 
1637	 0.230160157360793 
1638	 0.230124703741936 
1639	 0.230089022429629 
1640	 0.230045722538733 
1641	 0.230009350710179 
1642	 0.229973219896041 
1643	 0.229943738355956 
1644	 0.229923754104529 
1645	 0.229892040272035 
1646	 0.22985782218126 
1647	 0.22982526914054 
1648	 0.229789628360926 
1649	 0.22975011538338 
1650	 0.229716637678127 
1651	 0.229669380627079 
1652	 0.229612450933067 
1653	 0.229547282823644 
1654	 0.229461407275052 
1655	 0.229404007555959 
1656	 0.229344797810892 
1657	 0.2293030056403 
1658	 0.229291211145127 
1659	 0.229264621418 
1660	 0.229249403780307 
1661	 0.229204982336189 
1662	 0.229145899522926 
1663	 0.229088092189338 
1664	 0.228992629827452 
1665	 0.228946185405768 
1666	 0.228932802225343 
1667	 0.228901559274626 
1668	 0.22890050410239 
1669	 0.22885512144436 
1670	 0.228775551576722 
1671	 0.228708392565904 
1672	 0.228619359419445 
1673	 0.228553401377379 
1674	 0.228506418695754 
1675	 0.228444725968519 
1676	 0.228383289764618 
1677	 0.228321400106037 
1678	 0.228248515846565 
1679	 0.228186781324667 
1680	 0.228133774595746 
1681	 0.228079290541065 
1682	 0.228024210886632 
1683	 0.227976403454639 
1684	 0.227941501860041 
1685	 0.227888735460766 
1686	 0.227833802090928 
1687	 0.227772264597032 
1688	 0.227687314367584 
1689	 0.22762543573451 
1690	 0.227573822762713 
1691	 0.227523609618243 
1692	 0.227495794517859 
1693	 0.227436771499054 
1694	 0.227363711071467 
1695	 0.227287963181641 
1696	 0.227191852085004 
1697	 0.227104420839712 
1698	 0.227016001433332 
1699	 0.226936703400404 
1700	 0.226852012971193 
1701	 0.226786792089113 
1702	 0.226751417254505 
1703	 0.226686885229195 
1704	 0.226616983782209 
1705	 0.226547211266232 
1706	 0.226462767132086 
1707	 0.226381309700295 
1708	 0.226307957132027 
1709	 0.226227764999492 
1710	 0.226132956847541 
1711	 0.226052327562792 
1712	 0.225986385428921 
1713	 0.225901237632923 
1714	 0.225801368275311 
1715	 0.22572340571888 
1716	 0.225640438360425 
1717	 0.225571362733252 
1718	 0.225537993055375 
1719	 0.225471230992268 
1720	 0.225385148027675 
1721	 0.225314544485949 
1722	 0.225260582337555 
1723	 0.225154136940566 
1724	 0.225028406298805 
1725	 0.224901024295661 
1726	 0.224724425911654 
1727	 0.224586158273592 
1728	 0.224468639519108 
1729	 0.224356537423165 
1730	 0.224238722421613 
1731	 0.224148387019078 
1732	 0.224107100625078 
1733	 0.224002702363657 
1734	 0.223884315007725 
1735	 0.223763766089021 
1736	 0.223603975044461 
1737	 0.223465459628372 
1738	 0.223338479240227 
1739	 0.223212550589297 
1740	 0.223089459351437 
1741	 0.222955334329937 
1742	 0.222830267916789 
1743	 0.222698123728333 
1744	 0.222539438925617 
1745	 0.222394298876311 
1746	 0.222256564285189 
1747	 0.222108909086842 
1748	 0.221989047796705 
1749	 0.221865101087589 
1750	 0.221738248958016 
1751	 0.221620883515717 
1752	 0.221521212044446 
1753	 0.221423634255572 
1754	 0.221329347373353 
1755	 0.221201483540077 
1756	 0.221048090189314 
1757	 0.220905531404334 
1758	 0.220749988495038 
1759	 0.220616279402279 
1760	 0.220495590777311 
1761	 0.220355744427821 
1762	 0.220226040239004 
1763	 0.220092099417354 
1764	 0.219945812452587 
1765	 0.219802260681172 
1766	 0.21965826468821 
1767	 0.21952468314303 
1768	 0.219417041119483 
1769	 0.219309466832293 
1770	 0.219193515668458 
1771	 0.219080275513555 
1772	 0.218949774198563 
1773	 0.218813837932702 
1774	 0.218691098375195 
1775	 0.21857121283455 
1776	 0.218440034284107 
1777	 0.218324965120419 
1778	 0.218221207480372 
1779	 0.218086618066568 
1780	 0.217963294867554 
1781	 0.217854764016947 
1782	 0.217751605168719 
1783	 0.217691974622654 
1784	 0.217603112386126 
1785	 0.217501622207479 
1786	 0.217409831991706 
1787	 0.217308806271076 
1788	 0.217224566583659 
1789	 0.217152639396708 
1790	 0.217075353414994 
1791	 0.217005858431883 
1792	 0.216926860971294 
1793	 0.216846344507171 
1794	 0.216757350374259 
1795	 0.216653037861111 
1796	 0.216556540819151 
1797	 0.216462045960362 
1798	 0.216376091901875 
1799	 0.216280625773371 
1800	 0.216213166001307 
1801	 0.209992830147645 
1802	 0.209967058396002 
1803	 0.209904407704422 
1804	 0.209849224794495 
1805	 0.20978448180283 
1806	 0.209691714280924 
1807	 0.209626378817301 
1808	 0.209564392514344 
1809	 0.209487436992383 
1810	 0.209432279285811 
1811	 0.20940172089189 
1812	 0.209377851450685 
1813	 0.209317906929734 
1814	 0.209258482966595 
1815	 0.20921923461251 
1816	 0.20916991752639 
1817	 0.209116631375894 
1818	 0.209075170461457 
1819	 0.209036008975462 
1820	 0.208996922881328 
1821	 0.208931703655821 
1822	 0.208878481493661 
1823	 0.208821971418522 
1824	 0.208732022673976 
1825	 0.20863420709229 
1826	 0.208562295619561 
1827	 0.208485059114161 
1828	 0.208382726693519 
1829	 0.208278628987786 
1830	 0.208150889529692 
1831	 0.207996181132468 
1832	 0.207829826991112 
1833	 0.207661252232282 
1834	 0.207482309397411 
1835	 0.207288869429573 
1836	 0.207087854695347 
1837	 0.206905020501857 
1838	 0.206714409929391 
1839	 0.206524941469231 
1840	 0.206343578342719 
1841	 0.206167999479745 
1842	 0.205967968595063 
1843	 0.205774633386251 
1844	 0.205587444191956 
1845	 0.205375985803417 
1846	 0.205190816534992 
1847	 0.205029578880978 
1848	 0.20485659899659 
1849	 0.204708770963438 
1850	 0.204548504514193 
1851	 0.204389522461993 
1852	 0.204194221886014 
1853	 0.204004136542798 
1854	 0.203821109259702 
1855	 0.203629759204074 
1856	 0.203441453098935 
1857	 0.203258950116642 
1858	 0.203052743213298 
1859	 0.20283416771304 
1860	 0.202600293713187 
1861	 0.202353633276265 
1862	 0.202090446367095 
1863	 0.201816381883521 
1864	 0.201504335788025 
1865	 0.201174814034107 
1866	 0.200816350705365 
1867	 0.200421535559945 
1868	 0.200035461251169 
1869	 0.199618865381675 
1870	 0.199166630114931 
1871	 0.19865903851709 
1872	 0.198125443424635 
1873	 0.197509033657304 
1874	 0.196841811099073 
1875	 0.196120288758785 
1876	 0.195337199500508 
1877	 0.194501787066751 
1878	 0.193602061830618 
1879	 0.192627554553847 
1880	 0.191583852145694 
1881	 0.190440543296236 
1882	 0.189298662260735 
1883	 0.188116275646578 
1884	 0.18685224369677 
1885	 0.185587412852055 
1886	 0.184244543258809 
1887	 0.182791922811856 
1888	 0.181330937787192 
1889	 0.179795176966038 
1890	 0.178208829848484 
1891	 0.176609099547181 
1892	 0.174942154032197 
1893	 0.17329168510748 
1894	 0.171618541885903 
1895	 0.169953166997335 
1896	 0.168301253930359 
1897	 0.166688056995624 
1898	 0.165084407220169 
1899	 0.163524057032175 
1900	 0.162019531325092 
1901	 0.160570387229029 
1902	 0.159206609982326 
1903	 0.157945437251894 
1904	 0.15672057447079 
1905	 0.155552350926042 
1906	 0.15446361747345 
1907	 0.153427393702086 
1908	 0.152469424564121 
1909	 0.151601293577394 
1910	 0.150765676171243 
1911	 0.149967036254506 
1912	 0.149208921069818 
1913	 0.14850920271016 
1914	 0.147843566425485 
1915	 0.147248186572105 
1916	 0.146724872182274 
1917	 0.146242427543046 
1918	 0.145791579212652 
1919	 0.14538221209663 
1920	 0.145007432974731 
1921	 0.144687036123012 
1922	 0.14441289231316 
1923	 0.144161523230158 
1924	 0.14393274619538 
1925	 0.143731868985337 
1926	 0.143553394193938 
1927	 0.143387641383036 
1928	 0.143265087641251 
1929	 0.143191165060713 
1930	 0.143132567133612 
1931	 0.143102003314093 
1932	 0.143091347125719 
1933	 0.143084058587571 
1934	 0.143099969235469 
1935	 0.143127674273404 
1936	 0.143172241176696 
1937	 0.143236969588524 
1938	 0.143314729496864 
1939	 0.143408423097517 
1940	 0.143528818243905 
1941	 0.143647078161593 
1942	 0.14379060662149 
1943	 0.143947914785663 
1944	 0.144118618158014 
1945	 0.144338579590122 
1946	 0.14454321839342 
1947	 0.144759641570849 
1948	 0.144978056525699 
1949	 0.145198128580182 
1950	 0.145412879714187 
1951	 0.145621450887362 
1952	 0.145849039065649 
1953	 0.146093828050746 
1954	 0.14635563612296 
1955	 0.146606825794734 
1956	 0.146867651451863 
1957	 0.147131759656593 
1958	 0.147375056123931 
1959	 0.147649784549076 
1960	 0.147952249864997 
1961	 0.148248935737588 
1962	 0.148545405087765 
1963	 0.148857948586746 
1964	 0.149176247192879 
1965	 0.149521479190307 
1966	 0.14985715812967 
1967	 0.150209317808753 
1968	 0.150563869402122 
1969	 0.150927123037065 
1970	 0.151278462127664 
1971	 0.151642128311648 
1972	 0.151988238150005 
1973	 0.152303729459986 
1974	 0.152646965769067 
1975	 0.153001445461188 
1976	 0.153348198630493 
1977	 0.153719519530604 
1978	 0.154090658006284 
1979	 0.154443303827952 
1980	 0.154794244064548 
1981	 0.155151683889213 
1982	 0.155504338294439 
1983	 0.155862831803811 
1984	 0.156237681163801 
1985	 0.156598776016199 
1986	 0.156957913641839 
1987	 0.157303762894208 
1988	 0.157635874784449 
1989	 0.157969423831515 
1990	 0.158304067482593 
1991	 0.15864423652155 
1992	 0.158984053876698 
1993	 0.159333656022576 
1994	 0.159679961841822 
1995	 0.160019172256973 
1996	 0.160364899489098 
1997	 0.160724113431354 
1998	 0.161071102577325 
1999	 0.161410898062969 
2000	 0.161756139800985 
2001	 0.162105928284938 
2002	 0.162438366464931 
2003	 0.162802514694583 
2004	 0.16314512503768 
2005	 0.16347256883035 
2006	 0.163789642731767 
2007	 0.164110848276951 
2008	 0.164404882514859 
2009	 0.164721706700319 
2010	 0.165060674567971 
2011	 0.165381526550539 
2012	 0.165711747284257 
2013	 0.166019501519119 
2014	 0.166310870373534 
2015	 0.166595380473943 
2016	 0.166857794942882 
2017	 0.1671235801704 
2018	 0.167416475800421 
2019	 0.167728447079768 
2020	 0.168028626049823 
2021	 0.168352584761499 
2022	 0.1686534241406 
2023	 0.168927891183732 
2024	 0.169222359287462 
2025	 0.169539731687275 
2026	 0.169825695397626 
2027	 0.170104870059945 
2028	 0.1703718385466 
2029	 0.170634125198307 
2030	 0.170876964456133 
2031	 0.171114865712167 
2032	 0.17134712408157 
2033	 0.171584063667452 
2034	 0.171800900485216 
2035	 0.172034079533001 
2036	 0.172291301427057 
2037	 0.172526443736504 
2038	 0.172748960742286 
2039	 0.172977316268582 
2040	 0.173207566592122 
2041	 0.173432081132272 
2042	 0.173646019370501 
2043	 0.173836783468635 
2044	 0.174020441035922 
2045	 0.174168798456311 
2046	 0.174346702105486 
2047	 0.174528704466869 
2048	 0.174714070948415 
2049	 0.174905535071276 
2050	 0.175101474014197 
2051	 0.175314342137338 
2052	 0.175503044972142 
2053	 0.175687165341572 
2054	 0.175868784751114 
2055	 0.176012469464151 
2056	 0.17619239169884 
2057	 0.176372089098224 
2058	 0.176565022854455 
2059	 0.1767434880091 
2060	 0.176940468042138 
2061	 0.177097934441835 
2062	 0.177223130429513 
2063	 0.177366399374803 
2064	 0.177483577934835 
2065	 0.177625848534603 
2066	 0.177798719503904 
2067	 0.177953849192514 
2068	 0.178107003225334 
2069	 0.178268519581339 
2070	 0.178401696595865 
2071	 0.178512811325717 
2072	 0.178638741811157 
2073	 0.178747033880356 
2074	 0.178879945919656 
2075	 0.179040548782267 
2076	 0.179174511622673 
2077	 0.179294037315762 
2078	 0.179433388677548 
2079	 0.179565683998404 
2080	 0.179709338991779 
2081	 0.179888997717355 
2082	 0.180045431541548 
2083	 0.180189536571499 
2084	 0.180331960328021 
2085	 0.180474045105634 
2086	 0.18060877188664 
2087	 0.180743617833753 
2088	 0.180883829805092 
2089	 0.18101211940762 
2090	 0.181126983617851 
2091	 0.181250008015766 
2092	 0.181367502732946 
2093	 0.181491700070373 
2094	 0.18163739936043 
2095	 0.18175607090618 
2096	 0.181844798535642 
2097	 0.181961601674379 
2098	 0.182073688927919 
2099	 0.182191993357162 
2100	 0.182330328283469 
2101	 0.182510054898098 
2102	 0.182649737288452 
2103	 0.182784928943299 
2104	 0.182909290365031 
2105	 0.183011929771326 
2106	 0.183127084326954 
2107	 0.183247076605263 
2108	 0.183354895776404 
2109	 0.18344443332279 
2110	 0.183558721610235 
2111	 0.183669003103835 
2112	 0.183794916043014 
2113	 0.183943833352525 
2114	 0.184120387138618 
2115	 0.184234067653269 
2116	 0.184321243606672 
2117	 0.184424727238195 
2118	 0.184492340513102 
2119	 0.184594345965236 
2120	 0.184736933391879 
2121	 0.184844260222501 
2122	 0.184929636773255 
2123	 0.18503401974237 
2124	 0.185140781604535 
2125	 0.185242353022626 
2126	 0.185378217602125 
2127	 0.18546543658048 
2128	 0.18551206962128 
2129	 0.185565573958157 
2130	 0.18559886006343 
2131	 0.185618336930833 
2132	 0.185656971566627 
2133	 0.185714028024635 
2134	 0.185746605805062 
2135	 0.185778059656793 
2136	 0.185791398309213 
2137	 0.185788583206323 
2138	 0.185778148432529 
2139	 0.185762217397905 
2140	 0.185730440681869 
2141	 0.185677715299084 
2142	 0.18562765499923 
2143	 0.185565827134231 
2144	 0.185500680205078 
2145	 0.185446653469955 
2146	 0.185368825719957 
2147	 0.185266632955037 
2148	 0.185164857440473 
2149	 0.185066108045249 
2150	 0.184954069899902 
2151	 0.184851580304183 
2152	 0.184764808187263 
2153	 0.184657477739408 
2154	 0.184548995197008 
2155	 0.184419492604482 
2156	 0.184264314023879 
2157	 0.184124948338287 
2158	 0.183978816644275 
2159	 0.183830861814964 
2160	 0.183707813576617 
2161	 0.183551105759391 
2162	 0.183367703551602 
2163	 0.183182061841618 
2164	 0.182972123801747 
2165	 0.182771645555644 
2166	 0.182564279678274 
2167	 0.182347591439251 
2168	 0.182149911981936 
2169	 0.181951944033716 
2170	 0.181767612364357 
2171	 0.1816076351417 
2172	 0.181428514707068 
2173	 0.181249652924084 
2174	 0.181063968179032 
2175	 0.180867751386986 
2176	 0.180675253768491 
2177	 0.180486265321161 
2178	 0.180287575564237 
2179	 0.180072560199475 
2180	 0.179875518592118 
2181	 0.179698622717407 
2182	 0.179494959890397 
2183	 0.179287307285193 
2184	 0.17907448911927 
2185	 0.178859290511184 
2186	 0.178612998795484 
2187	 0.178400276960031 
2188	 0.178221136163096 
2189	 0.178000928216835 
2190	 0.177752305732494 
2191	 0.177542537353848 
2192	 0.177328217577012 
2193	 0.177127543254556 
2194	 0.176952632513575 
2195	 0.176784814371418 
2196	 0.176615148974298 
2197	 0.17646117464759 
2198	 0.176344549401727 
2199	 0.176211718617498 
2200	 0.176068533527936 
2201	 0.175936544384159 
2202	 0.175813143730211 
2203	 0.175684334081459 
2204	 0.175558851016068 
2205	 0.175432455682627 
2206	 0.175331026191365 
2207	 0.175237779810553 
2208	 0.175149433310284 
2209	 0.175077708961116 
2210	 0.175013455670017 
2211	 0.174946129497338 
2212	 0.17489927757066 
2213	 0.174896949997324 
2214	 0.174857012297802 
2215	 0.174793694710646 
2216	 0.17475354218075 
2217	 0.174703975650329 
2218	 0.174669597720846 
2219	 0.174667534995531 
2220	 0.174651787322246 
2221	 0.174640262798333 
2222	 0.174609672519139 
2223	 0.1745906790292 
2224	 0.174577098556943 
2225	 0.174550965986842 
2226	 0.1745227556448 
2227	 0.174492552833807 
2228	 0.174453304123669 
2229	 0.174417908101414 
2230	 0.174373200710839 
2231	 0.174353382491711 
2232	 0.174382508309751 
2233	 0.174319657857143 
2234	 0.17421373660294 
2235	 0.174136146153843 
2236	 0.17400204616856 
2237	 0.173898466205303 
2238	 0.173864194923073 
2239	 0.173772699538354 
2240	 0.173651780313665 
2241	 0.173510183027524 
2242	 0.173343522381739 
2243	 0.17316603134372 
2244	 0.172964810071352 
2245	 0.172751269719118 
2246	 0.17252296797742 
2247	 0.172277393386598 
2248	 0.171994600740749 
2249	 0.171672553914311 
2250	 0.171344134358088 
2251	 0.170971191522881 
2252	 0.170647113082091 
2253	 0.170321264611715 
2254	 0.170018632089128 
2255	 0.169735736607519 
2256	 0.169473535318143 
2257	 0.169223122111429 
2258	 0.168994208019931 
2259	 0.168771813729492 
2260	 0.168610042891445 
2261	 0.168481318241731 
2262	 0.168383799011272 
2263	 0.168346192658865 
2264	 0.168324466087957 
2265	 0.168329454560327 
2266	 0.168351547030017 
2267	 0.16842936656222 
2268	 0.168485611092021 
2269	 0.168541744730148 
2270	 0.168589718563326 
2271	 0.168646398112908 
2272	 0.168745455894195 
2273	 0.168878039025853 
2274	 0.169038500096689 
2275	 0.169212670569715 
2276	 0.169415758649582 
2277	 0.169609886383435 
2278	 0.169823571788523 
2279	 0.170025799106359 
2280	 0.170227058718608 
2281	 0.170443791026835 
2282	 0.170678207173625 
2283	 0.170882249928828 
2284	 0.171098962505638 
2285	 0.171264828251577 
2286	 0.171393374153436 
2287	 0.171507203914633 
2288	 0.171585819558309 
2289	 0.171660071677155 
2290	 0.171714554361887 
2291	 0.171760676171695 
2292	 0.171787057309512 
2293	 0.171820838558751 
2294	 0.171864902554501 
2295	 0.17188142439082 
2296	 0.171890176940417 
2297	 0.17186743420295 
2298	 0.171858632494035 
2299	 0.17186013354369 
2300	 0.171871009641681 
2301	 0.171952102584897 
2302	 0.172018284732426 
2303	 0.172033406063599 
2304	 0.172079660220949 
2305	 0.172083366830396 
2306	 0.172079445562517 
2307	 0.172048886706075 
2308	 0.172055525597581 
2309	 0.172060530685817 
2310	 0.172078617023872 
2311	 0.172125175223653 
2312	 0.17214116016006 
2313	 0.172144296512697 
2314	 0.172143412707747 
2315	 0.172158888246433 
2316	 0.172133796206321 
2317	 0.172082190834927 
2318	 0.172011950041121 
2319	 0.171900196107512 
2320	 0.171794268186504 
2321	 0.171664268698253 
2322	 0.171569444508936 
2323	 0.171474594280165 
2324	 0.171405962151479 
2325	 0.171356421075914 
2326	 0.1713247647394 
2327	 0.171337486369416 
2328	 0.171328000747043 
2329	 0.171285721151558 
2330	 0.17121139069918 
2331	 0.171086651142289 
2332	 0.17093912745167 
2333	 0.170801220580234 
2334	 0.170730757970233 
2335	 0.170651004936733 
2336	 0.170567098963117 
2337	 0.170560189089627 
2338	 0.170531705249376 
2339	 0.170442880972914 
2340	 0.170369110793588 
2341	 0.170228004941519 
2342	 0.170042077276903 
2343	 0.16991516817054 
2344	 0.169786737000216 
2345	 0.169647670293371 
2346	 0.169484554835715 
2347	 0.16935594032554 
2348	 0.16927453729645 
2349	 0.169127937677329 
2350	 0.168973542158376 
2351	 0.168818302028903 
2352	 0.168595076835218 
2353	 0.168397542876826 
2354	 0.168263304252216 
2355	 0.168067670379848 
2356	 0.167784229184363 
2357	 0.167590628024491 
2358	 0.167425030586427 
2359	 0.167233368924922 
2360	 0.167116914586311 
2361	 0.166928953627543 
2362	 0.166693950531466 
2363	 0.166418028994705 
2364	 0.166044021009314 
2365	 0.165783660861781 
2366	 0.165556932570649 
2367	 0.165307573575736 
2368	 0.165143784035471 
2369	 0.164907515149889 
2370	 0.164591117405099 
2371	 0.164281030438122 
2372	 0.164059084292146 
2373	 0.163841339987383 
2374	 0.163610872096389 
2375	 0.163388504549653 
2376	 0.1631487369248 
2377	 0.162877940720885 
2378	 0.162599530743588 
2379	 0.1623184766583 
2380	 0.162010779865542 
2381	 0.161689704055498 
2382	 0.161384983984876 
2383	 0.161182704933125 
2384	 0.161007485794732 
2385	 0.160754972860653 
2386	 0.160516411325441 
2387	 0.16019434147166 
2388	 0.159886854624358 
2389	 0.159713314030488 
2390	 0.15946786028344 
2391	 0.159228165627972 
2392	 0.158979619030406 
2393	 0.158621698785906 
2394	 0.158360914943808 
2395	 0.158111344109226 
2396	 0.157764795327701 
2397	 0.157504623471913 
2398	 0.157233588106349 
2399	 0.156961001135021 
2400	 0.156841120771906 
2401	 0.156631102815307 
2402	 0.156266221896717 
2403	 0.155956748220922 
2404	 0.15565582889474 
2405	 0.155314812239968 
2406	 0.155065873162683 
2407	 0.154830909137701 
2408	 0.154467907470877 
2409	 0.154152369892695 
2410	 0.153898332657036 
2411	 0.153601477259612 
2412	 0.153362490150667 
2413	 0.153190923567377 
2414	 0.152943985684372 
2415	 0.152606539176602 
2416	 0.152367729779353 
2417	 0.152162101061339 
2418	 0.151917608087719 
2419	 0.151746058599256 
2420	 0.151537346137307 
2421	 0.151254931240405 
2422	 0.151040259838578 
2423	 0.150868055887204 
2424	 0.150615823489817 
2425	 0.150306884414611 
2426	 0.150013259766503 
2427	 0.149721788713157 
2428	 0.149432555900459 
2429	 0.149209535904467 
2430	 0.148951144537337 
2431	 0.148600183698253 
2432	 0.148296120855641 
2433	 0.148027340071851 
2434	 0.147736169647985 
2435	 0.147409689090817 
2436	 0.147105985765163 
2437	 0.146816425147001 
2438	 0.146480931670545 
2439	 0.146168705496141 
2440	 0.145875118739122 
2441	 0.145569520558122 
2442	 0.145249046503255 
2443	 0.144931977290772 
2444	 0.144562052588125 
2445	 0.144090576004856 
2446	 0.143758837120297 
2447	 0.143571939968252 
2448	 0.143243017207042 
2449	 0.142904218023962 
2450	 0.14255456244866 
2451	 0.142017294281293 
2452	 0.141585854518135 
2453	 0.141242591354832 
2454	 0.140897331235045 
2455	 0.140632928591124 
2456	 0.140327829709858 
2457	 0.139970020766587 
2458	 0.13970956520191 
2459	 0.139505446773276 
2460	 0.139189417087843 
2461	 0.138945631150068 
2462	 0.138630824988996 
2463	 0.138033078267288 
2464	 0.137723764303938 
2465	 0.137631962678326 
2466	 0.137369007038269 
2467	 0.137264893637016 
2468	 0.137017245863405 
2469	 0.136488435743553 
2470	 0.136201213780831 
2471	 0.13589207177424 
2472	 0.135590446332546 
2473	 0.135365947235889 
2474	 0.135277984768865 
2475	 0.134976504028032 
2476	 0.134649420152603 
2477	 0.134661412263062 
2478	 0.134443391646892 
2479	 0.134281870428709 
2480	 0.134309353356621 
2481	 0.133926736976959 
2482	 0.133461638763992 
2483	 0.133119977189557 
2484	 0.132667948405736 
2485	 0.132320629765274 
2486	 0.132170909478575 
2487	 0.132020757802352 
2488	 0.131868224321138 
2489	 0.131623024733871 
2490	 0.131289917670199 
2491	 0.130950547545651 
2492	 0.130617258622795 
2493	 0.130364725236486 
2494	 0.130051473521422 
2495	 0.129736438574744 
2496	 0.129548590164948 
2497	 0.129329331888833 
2498	 0.129154329293482 
2499	 0.129100080797094 
2500	 0.12882662403816 
