Wavelength	LMW_1700007.asd
350	 0.058846559737577 
351	 5.64934687749223E-02 
352	 5.42301532893908E-02 
353	 5.58963236223503E-02 
354	 4.74981464401906E-02 
355	 4.94971358719383E-02 
356	 5.55249996501588E-02 
357	 5.61060342220391E-02 
358	 5.84553482194154E-02 
359	 0.054224500185429 
360	 4.90404257999687E-02 
361	 5.55151811531605E-02 
362	 5.78833553662787E-02 
363	 0.057071501162081 
364	 5.48700523169098E-02 
365	 0.050350886635775 
366	 5.23284461859454E-02 
367	 5.59996310254605E-02 
368	 5.54863057621501E-02 
369	 5.73925697120888E-02 
370	 0.054548942072084 
371	 5.04659520602767E-02 
372	 5.47044965189791E-02 
373	 5.65280926848522E-02 
374	 5.91402407312823E-02 
375	 6.32037253896361E-02 
376	 6.17391850824667E-02 
377	 5.94963365394996E-02 
378	 5.83063680720853E-02 
379	 5.89188417391908E-02 
380	 6.17617305935549E-02 
381	 6.33797577871597E-02 
382	 6.32235274943918E-02 
383	 6.32030205055023E-02 
384	 6.56730849340915E-02 
385	 6.59728644502866E-02 
386	 0.063381364180624 
387	 6.67606772774238E-02 
388	 6.75656989543964E-02 
389	 6.78915871844183E-02 
390	 7.10805195103138E-02 
391	 6.93792724686777E-02 
392	 6.98581154766811E-02 
393	 0.072390616434851 
394	 7.08083921036245E-02 
395	 7.09481305714227E-02 
396	 7.20195038894788E-02 
397	 0.073110190046662 
398	 7.57288183171004E-02 
399	 0.076710921685709 
400	 7.70932274031918E-02 
401	 7.87550717445273E-02 
402	 7.88249150115003E-02 
403	 7.78935234229397E-02 
404	 7.73064631682743E-02 
405	 7.87817975371181E-02 
406	 8.00171938333694E-02 
407	 8.09400442481768E-02 
408	 8.16441888914316E-02 
409	 8.13807391238086E-02 
410	 8.06438760681011E-02 
411	 8.08458956870033E-02 
412	 8.31347368681254E-02 
413	 8.39883237065774E-02 
414	 8.38596551142043E-02 
415	 8.35838850528068E-02 
416	 8.39293631781179E-02 
417	 8.44895517655766E-02 
418	 8.48454936589629E-02 
419	 8.48979108049722E-02 
420	 0.085683424506878 
421	 8.59926511948547E-02 
422	 8.60716709122287E-02 
423	 8.69751713407987E-02 
424	 8.76060409292131E-02 
425	 8.74017348055082E-02 
426	 8.66731869868862E-02 
427	 8.70761119562761E-02 
428	 8.80978786477669E-02 
429	 8.88822253166429E-02 
430	 8.88473769848462E-02 
431	 0.089508747769129 
432	 8.96313833638968E-02 
433	 8.93783295179922E-02 
434	 9.02653705378808E-02 
435	 9.05381064367439E-02 
436	 9.04391209914502E-02 
437	 9.04852821568164E-02 
438	 9.08366939069532E-02 
439	 9.13405553325387E-02 
440	 0.091725162092109 
441	 9.17486751212824E-02 
442	 9.18421894050099E-02 
443	 9.22706393290297E-02 
444	 0.092879896100571 
445	 9.29307693237011E-02 
446	 9.30881837344765E-02 
447	 9.34233584711942E-02 
448	 9.38015463344858E-02 
449	 9.39920711061625E-02 
450	 9.42195592460178E-02 
451	 9.44633066825786E-02 
452	 9.45025683757325E-02 
453	 9.45619297724951E-02 
454	 9.46845742846215E-02 
455	 9.49345784364105E-02 
456	 9.55634008543699E-02 
457	 9.60432608525059E-02 
458	 9.61890469549772E-02 
459	 9.60624893063712E-02 
460	 9.61463118343044E-02 
461	 9.64142866531133E-02 
462	 9.67607884656685E-02 
463	 9.70483775920796E-02 
464	 9.74063860918546E-02 
465	 9.77465736657835E-02 
466	 9.79556058721898E-02 
467	 9.80364924871477E-02 
468	 9.83209601168721E-02 
469	 9.86817442610761E-02 
470	 9.86683941810942E-02 
471	 9.89451352077074E-02 
472	 9.92847062767495E-02 
473	 9.94936185584514E-02 
474	 9.98378016198672E-02 
475	 0.100033573446749 
476	 0.100129901858259 
477	 0.100312464590896 
478	 0.100579661275933 
479	 0.100906211649192 
480	 0.101214644707114 
481	 0.101359908566174 
482	 0.101599893293488 
483	 0.1019016479999 
484	 0.102176632523813 
485	 0.102499365567424 
486	 0.102632517461508 
487	 0.102637599192136 
488	 0.102821607750702 
489	 0.10322262052344 
490	 0.103508295873871 
491	 0.103518188574595 
492	 0.103652654790968 
493	 0.103861681705681 
494	 0.104039235409359 
495	 0.104088171115163 
496	 0.104285145648694 
497	 0.104460861161231 
498	 0.104609760900265 
499	 0.105047299471836 
500	 0.105184109443765 
501	 0.105233649341708 
502	 0.105510697997867 
503	 0.105645141579409 
504	 0.105804038018995 
505	 0.105995391383142 
506	 0.106078598724587 
507	 0.106250373342334 
508	 0.106519513940634 
509	 0.106802520282744 
510	 0.106873615784683 
511	 0.106907198701018 
512	 0.107022373543723 
513	 0.107274073308562 
514	 0.107428129804894 
515	 0.107594060900853 
516	 0.10780339120082 
517	 0.107881960795352 
518	 0.107985025861321 
519	 0.108140350590733 
520	 0.108305566438843 
521	 0.108292562696417 
522	 0.108419254755503 
523	 0.108679210166602 
524	 0.108709285038256 
525	 0.108766769116283 
526	 0.108918041823401 
527	 0.109149154737355 
528	 0.109350077155276 
529	 0.109478181827543 
530	 0.109562544512393 
531	 0.109674407625112 
532	 0.109756751109841 
533	 0.109873203736514 
534	 0.110026568545026 
535	 0.110044641929233 
536	 0.11015549075514 
537	 0.110336757771406 
538	 0.110474995201524 
539	 0.110578689232459 
540	 0.110673608543223 
541	 0.110777372600667 
542	 0.110892735423671 
543	 0.111049061184601 
544	 0.111189451082501 
545	 0.11125887361424 
546	 0.111299212888414 
547	 0.111381364606699 
548	 0.111517501590012 
549	 0.111664612764267 
550	 0.111710953648679 
551	 0.111776368662299 
552	 0.111942852603004 
553	 0.112091986564056 
554	 0.11215061609264 
555	 0.112220676708453 
556	 0.112460029354087 
557	 0.112583648443889 
558	 0.112728593448664 
559	 0.112954831340781 
560	 0.113107599516113 
561	 0.113199905083139 
562	 0.113275599089087 
563	 0.113373246315392 
564	 0.113406815003521 
565	 0.113444236091619 
566	 0.113477353536446 
567	 0.113407579529038 
568	 0.113498704468465 
569	 0.113678558318026 
570	 0.113830116212993 
571	 0.113983014499771 
572	 0.114163691591098 
573	 0.114325402157143 
574	 0.114383389346563 
575	 0.114468746526411 
576	 0.114608635591545 
577	 0.114748905678458 
578	 0.114683036943559 
579	 0.114637841747078 
580	 0.11458501983322 
581	 0.114426735615858 
582	 0.114377124350723 
583	 0.114388900436161 
584	 0.114452104147784 
585	 0.114646845738009 
586	 0.114870083422061 
587	 0.115031214462624 
588	 0.115091875724562 
589	 0.115197354605601 
590	 0.115371380275149 
591	 0.11556669475289 
592	 0.115683132808589 
593	 0.115823249908258 
594	 0.115996784471393 
595	 0.116143551844033 
596	 0.116054886225556 
597	 0.115974599327626 
598	 0.115931114441395 
599	 0.115846741915981 
600	 0.115819997760611 
601	 0.115866126843275 
602	 0.11594211269221 
603	 0.115910155133968 
604	 0.115986314326022 
605	 0.116109415874513 
606	 0.116149195117129 
607	 0.116177220598255 
608	 0.11626912015868 
609	 0.11642655820604 
610	 0.116567116116082 
611	 0.116634798158399 
612	 0.116663070362333 
613	 0.116697346612818 
614	 0.116729497028772 
615	 0.116769514572208 
616	 0.116806604237345 
617	 0.116822997938063 
618	 0.116912330473234 
619	 0.11699179702657 
620	 0.117013607705274 
621	 0.117062410277614 
622	 0.117093051407638 
623	 0.117125254530434 
624	 0.117193400965596 
625	 0.117259452306174 
626	 0.117286151745132 
627	 0.117298345863567 
628	 0.117401077715517 
629	 0.11748324065699 
630	 0.117553228900067 
631	 0.117633097447246 
632	 0.117659475420956 
633	 0.117707967709268 
634	 0.117789192021362 
635	 0.117859225151926 
636	 0.117933358852102 
637	 0.118001399739573 
638	 0.118057773239981 
639	 0.118118029995815 
640	 0.118161605551843 
641	 0.118219608644496 
642	 0.118329341543875 
643	 0.118382632363626 
644	 0.118432670639877 
645	 0.118513190235943 
646	 0.118608667712997 
647	 0.118659777721583 
648	 0.118702601265556 
649	 0.118779069410028 
650	 0.118822512247497 
651	 0.118861068664877 
652	 0.11891964696424 
653	 0.119012728520139 
654	 0.119061791489675 
655	 0.119102663724394 
656	 0.119168814561784 
657	 0.11923361276062 
658	 0.11928781726556 
659	 0.11935352014645 
660	 0.119452034289413 
661	 0.119468786736635 
662	 0.119502480524575 
663	 0.119601658673888 
664	 0.11971568893236 
665	 0.119762668492163 
666	 0.119781981348366 
667	 0.11983145490461 
668	 0.119866790634902 
669	 0.11995129504105 
670	 0.120056392980059 
671	 0.120086159315712 
672	 0.120183469256696 
673	 0.120263006241391 
674	 0.120277130266478 
675	 0.120360909829849 
676	 0.12045649152836 
677	 0.12052036241678 
678	 0.12052546092982 
679	 0.12051903178985 
680	 0.120577339504768 
681	 0.12067938323602 
682	 0.120677473372866 
683	 0.120749581170383 
684	 0.120853814852172 
685	 0.120913900056918 
686	 0.120947802540805 
687	 0.120986171210757 
688	 0.121037854368556 
689	 0.121092466877087 
690	 0.121120128083305 
691	 0.121138033949384 
692	 0.121176091249576 
693	 0.121284849742904 
694	 0.121322032599227 
695	 0.12132326953959 
696	 0.121369945681445 
697	 0.12139295644004 
698	 0.121410505906311 
699	 0.12143435325005 
700	 0.121464782255924 
701	 0.121529134673324 
702	 0.121578290208325 
703	 0.12157924135405 
704	 0.121585355324404 
705	 0.121612894237171 
706	 0.12165414504354 
707	 0.121688566074561 
708	 0.121719236263896 
709	 0.121764114665313 
710	 0.12181504576519 
711	 0.121824031128203 
712	 0.121845906413057 
713	 0.121850600633904 
714	 0.121817755350475 
715	 0.121852794171695 
716	 0.121910105855135 
717	 0.121944598056664 
718	 0.121924151445726 
719	 0.121933901828463 
720	 0.121960101669985 
721	 0.121984934685316 
722	 0.122014258774235 
723	 0.122035026075344 
724	 0.122035199321274 
725	 0.122010786130381 
726	 0.121985242070652 
727	 0.121986851209208 
728	 0.122016678322545 
729	 0.12204896840288 
730	 0.122044053543047 
731	 0.12204576918021 
732	 0.122073656772706 
733	 0.122046975473746 
734	 0.122045575578594 
735	 0.122043076671853 
736	 0.121988178277977 
737	 0.121956309845192 
738	 0.121973679288493 
739	 0.122001110129919 
740	 0.121939269663335 
741	 0.121938758793858 
742	 0.121941903654634 
743	 0.121896949167496 
744	 0.121893824004296 
745	 0.121887286953885 
746	 0.121876910627785 
747	 0.121880753838316 
748	 0.121896676119445 
749	 0.121876465692776 
750	 0.1218294572985 
751	 0.12183606338846 
752	 0.121780954124305 
753	 0.121722641327042 
754	 0.12172165036811 
755	 0.12172713578952 
756	 0.121707101411819 
757	 0.121691153749088 
758	 0.121725375765323 
759	 0.121719774417034 
760	 0.121667676033453 
761	 0.121612044047933 
762	 0.12164296351228 
763	 0.121658786106741 
764	 0.121656453231687 
765	 0.121646873213486 
766	 0.12160509505406 
767	 0.121580569239955 
768	 0.121582700938645 
769	 0.121592042233406 
770	 0.121553033651446 
771	 0.121532253252244 
772	 0.121538660834761 
773	 0.121502009871358 
774	 0.12153316586949 
775	 0.121533816762635 
776	 0.121446234057061 
777	 0.121454366575901 
778	 0.121438758212934 
779	 0.121416753483444 
780	 0.121444649085103 
781	 0.121405935404637 
782	 0.121405082656372 
783	 0.121433381949644 
784	 0.121355093453273 
785	 0.121321169828278 
786	 0.121325525119489 
787	 0.121326378720921 
788	 0.121267446569023 
789	 0.121252329003746 
790	 0.121269840768825 
791	 0.121269276026651 
792	 0.121251072852393 
793	 0.121235609456202 
794	 0.121211773114258 
795	 0.1211489212946 
796	 0.121147759864092 
797	 0.1211518468084 
798	 0.121131791409576 
799	 0.121157722251614 
800	 0.121127735473236 
801	 0.121065437832751 
802	 0.121026282148814 
803	 0.121027100610436 
804	 0.12099795204808 
805	 0.120968841364621 
806	 0.121012139840779 
807	 0.12097728712011 
808	 0.120926964884627 
809	 0.120904746900999 
810	 0.120896784315142 
811	 0.120888015536785 
812	 0.120874579413505 
813	 0.120860846932993 
814	 0.120869014881598 
815	 0.120829806849779 
816	 0.120785896491889 
817	 0.120802979318933 
818	 0.120796025980633 
819	 0.120783037906804 
820	 0.120761512134214 
821	 0.12071256196115 
822	 0.120684653620888 
823	 0.120679957403829 
824	 0.120684800689232 
825	 0.120674077239805 
826	 0.120631627282145 
827	 0.120593770918662 
828	 0.120595011703543 
829	 0.120622309921451 
830	 0.120583378362433 
831	 0.120528239788739 
832	 0.120551810375358 
833	 0.120549821848746 
834	 0.120504743396827 
835	 0.120447639447703 
836	 0.120444564221984 
837	 0.120476274312043 
838	 0.12050257684749 
839	 0.120486239254879 
840	 0.120401604812148 
841	 0.120359009396921 
842	 0.120345873066015 
843	 0.120325882451566 
844	 0.12030461408306 
845	 0.120349458331663 
846	 0.120388573304665 
847	 0.120326161571077 
848	 0.120337074367491 
849	 0.120302058682551 
850	 0.120222774625532 
851	 0.120210031093613 
852	 0.120227478528276 
853	 0.120234627910152 
854	 0.12022257268704 
855	 0.120229597314156 
856	 0.120234743517397 
857	 0.120222325328805 
858	 0.120196746761516 
859	 0.120213231847962 
860	 0.120201237175155 
861	 0.12015958472522 
862	 0.120118166049938 
863	 0.12011681291456 
864	 0.120114608400898 
865	 0.120102530407024 
866	 0.12009531316475 
867	 0.12010960013873 
868	 0.120121099195056 
869	 0.120124283927991 
870	 0.120134982438398 
871	 0.120136106784703 
872	 0.120105925624752 
873	 0.120058429202872 
874	 0.120062096131402 
875	 0.120063980492665 
876	 0.12003882096965 
877	 0.119987953303976 
878	 0.119955164814982 
879	 0.119988938919982 
880	 0.12002774138016 
881	 0.120004804242366 
882	 0.120012171924959 
883	 0.120021241460778 
884	 0.120015045158903 
885	 0.11998867998607 
886	 0.119954974191962 
887	 0.119948894077382 
888	 0.119959241564224 
889	 0.119945887809831 
890	 0.120014908200048 
891	 0.120000041639513 
892	 0.119902430799895 
893	 0.119956317112017 
894	 0.11998978711935 
895	 0.119968712341016 
896	 0.119925610241356 
897	 0.119961056937621 
898	 0.119953109040322 
899	 0.119943236802243 
900	 0.1199676661789 
901	 0.119926887585576 
902	 0.119934239124975 
903	 0.119956482605303 
904	 0.119935772476022 
905	 0.119922679676619 
906	 0.119932623159304 
907	 0.119942204705658 
908	 0.119926441595989 
909	 0.11995563953408 
910	 0.119984754313422 
911	 0.119996700178416 
912	 0.119999862342897 
913	 0.120009252200745 
914	 0.120011097771108 
915	 0.119985315733651 
916	 0.11992341505987 
917	 0.119943767958228 
918	 0.119986557017615 
919	 0.119992004669318 
920	 0.119941668233605 
921	 0.119965966629344 
922	 0.120007910259932 
923	 0.120037679764204 
924	 0.120109167205097 
925	 0.120054113513556 
926	 0.120024035577203 
927	 0.120094510242159 
928	 0.120078028446163 
929	 0.120097869655328 
930	 0.120110735965384 
931	 0.120076541738778 
932	 0.120050487265862 
933	 0.120154065207759 
934	 0.120192293768667 
935	 0.120047209504159 
936	 0.120103100943573 
937	 0.120059751392285 
938	 0.120001159165803 
939	 0.12006013625223 
940	 0.120073175495017 
941	 0.120168442664826 
942	 0.120251432761507 
943	 0.120209709382258 
944	 0.120219938996005 
945	 0.120223704952269 
946	 0.120190782452123 
947	 0.120134470386387 
948	 0.120190128399124 
949	 0.120181581006203 
950	 0.120137969084685 
951	 0.120173088200679 
952	 0.120226673907464 
953	 0.120208753866137 
954	 0.120146714871681 
955	 0.120136384999643 
956	 0.120229102062085 
957	 0.120315315760297 
958	 0.120308368611742 
959	 0.120206629203154 
960	 0.12031815792412 
961	 0.120308146315489 
962	 0.120235522618745 
963	 0.120351777512276 
964	 0.120272864942385 
965	 0.120256227107134 
966	 0.12031509027998 
967	 0.120290853960524 
968	 0.120228302508054 
969	 0.120284748403459 
970	 0.120346228578646 
971	 0.120192713676505 
972	 0.120142084563178 
973	 0.120234466836431 
974	 0.120299168839426 
975	 0.120163253619844 
976	 0.12043282746489 
977	 0.120412057501179 
978	 0.120194065010035 
979	 0.120311866189575 
980	 0.120314486931507 
981	 0.120261664903934 
982	 0.120284677747639 
983	 0.120435435911806 
984	 0.120217094172276 
985	 0.120184398585888 
986	 0.120305083722711 
987	 0.120258184465834 
988	 0.120290119367408 
989	 0.120350738608246 
990	 0.120310983385118 
991	 0.120109562709875 
992	 0.120095353717179 
993	 0.120199064786114 
994	 0.120340861021789 
995	 0.120427713987881 
996	 0.12031625974748 
997	 0.120370707066106 
998	 0.12042362452235 
999	 0.12026287073 
1000	 0.120323068379771 
1001	 0.11898833674605 
1002	 0.119013363226674 
1003	 0.11904683668089 
1004	 0.119042744774152 
1005	 0.119014044824463 
1006	 0.118975605391384 
1007	 0.118886570928565 
1008	 0.118850712077016 
1009	 0.118863525219948 
1010	 0.11887112443863 
1011	 0.118881753696948 
1012	 0.118884135001673 
1013	 0.118899493788694 
1014	 0.118948194995613 
1015	 0.118963592957788 
1016	 0.118971164519853 
1017	 0.118997248634033 
1018	 0.119025753939999 
1019	 0.119025094119264 
1020	 0.119046380756035 
1021	 0.119079879917453 
1022	 0.119081281473892 
1023	 0.119073153000618 
1024	 0.119049269538028 
1025	 0.119032933897263 
1026	 0.11903757447324 
1027	 0.119006743898577 
1028	 0.11896680540781 
1029	 0.118988452478228 
1030	 0.119034629838566 
1031	 0.119045926446138 
1032	 0.119052543546202 
1033	 0.119086377553792 
1034	 0.119105932144041 
1035	 0.119053014053098 
1036	 0.119012862809257 
1037	 0.119009403404974 
1038	 0.118985121039019 
1039	 0.118969238796407 
1040	 0.119027185204824 
1041	 0.119068180373897 
1042	 0.119039381134675 
1043	 0.119070012521335 
1044	 0.119096592979615 
1045	 0.119124951127512 
1046	 0.119108683319346 
1047	 0.119093074236888 
1048	 0.119058563335279 
1049	 0.118987991939275 
1050	 0.118948095444619 
1051	 0.119002998832121 
1052	 0.119038670882861 
1053	 0.119069767393903 
1054	 0.119127925609768 
1055	 0.119141771204125 
1056	 0.119161882461643 
1057	 0.119179960916008 
1058	 0.119173739507636 
1059	 0.119194731675352 
1060	 0.119226271743955 
1061	 0.11926135312821 
1062	 0.119351196464243 
1063	 0.119420484589735 
1064	 0.119454196150704 
1065	 0.119480405613917 
1066	 0.119458825860294 
1067	 0.119424836710396 
1068	 0.119393954711648 
1069	 0.119411419664861 
1070	 0.11940665729681 
1071	 0.119388670121737 
1072	 0.119373845218772 
1073	 0.119350328577911 
1074	 0.11933295050784 
1075	 0.119310707198623 
1076	 0.119324465283072 
1077	 0.119333539044345 
1078	 0.119358636060841 
1079	 0.1193420476526 
1080	 0.119289138936492 
1081	 0.119236211920758 
1082	 0.119181610600443 
1083	 0.11915370112586 
1084	 0.119141431136195 
1085	 0.119146025207732 
1086	 0.119186040596776 
1087	 0.11919504732715 
1088	 0.119192762849928 
1089	 0.119218620893289 
1090	 0.119229968699972 
1091	 0.119207990179305 
1092	 0.119201632061867 
1093	 0.119201961802403 
1094	 0.119211309027616 
1095	 0.119225625884589 
1096	 0.119221903941745 
1097	 0.119202457365582 
1098	 0.119177492587427 
1099	 0.11909949573731 
1100	 0.119084598054703 
1101	 0.119108045609005 
1102	 0.119116977442543 
1103	 0.119135712212619 
1104	 0.119169979827425 
1105	 0.119191804140893 
1106	 0.119183770460129 
1107	 0.119217426066455 
1108	 0.119249097586058 
1109	 0.119261282503462 
1110	 0.119274311095249 
1111	 0.119286566244892 
1112	 0.119289373737859 
1113	 0.1192966648303 
1114	 0.119287479378836 
1115	 0.119323296530336 
1116	 0.11939544886105 
1117	 0.119429405209083 
1118	 0.119467995528719 
1119	 0.119518739708427 
1120	 0.119521300477013 
1121	 0.119527984981983 
1122	 0.119589549367612 
1123	 0.119655230973762 
1124	 0.119708425078801 
1125	 0.119773216221421 
1126	 0.119819155948484 
1127	 0.11984817593864 
1128	 0.119885902127238 
1129	 0.119924069559871 
1130	 0.119960691754425 
1131	 0.119993569212815 
1132	 0.120028334521021 
1133	 0.120062825887536 
1134	 0.120095754235684 
1135	 0.120118880120445 
1136	 0.120162836314449 
1137	 0.120210643590081 
1138	 0.120259266932834 
1139	 0.120305194761798 
1140	 0.120362836313696 
1141	 0.120400386193107 
1142	 0.120429968599531 
1143	 0.120451848184084 
1144	 0.120459912265629 
1145	 0.120480631509905 
1146	 0.120493496848002 
1147	 0.120511373948823 
1148	 0.120547225627147 
1149	 0.120566880260097 
1150	 0.120565717102693 
1151	 0.120589218599515 
1152	 0.120601531299039 
1153	 0.120618905719311 
1154	 0.12064319188304 
1155	 0.120668597529939 
1156	 0.120708025919729 
1157	 0.120771544633038 
1158	 0.12080417109801 
1159	 0.120840044389265 
1160	 0.120863372117206 
1161	 0.120857361464114 
1162	 0.120862419003885 
1163	 0.120857852529803 
1164	 0.120873482327587 
1165	 0.120890072340755 
1166	 0.120928086767039 
1167	 0.120984237762127 
1168	 0.121018028452089 
1169	 0.121046100648978 
1170	 0.121063150110619 
1171	 0.121087012839518 
1172	 0.121104631577336 
1173	 0.121127974549371 
1174	 0.121153224971127 
1175	 0.121178116219076 
1176	 0.121194659232027 
1177	 0.121229404114754 
1178	 0.121291811264404 
1179	 0.121327944458775 
1180	 0.121356373364292 
1181	 0.121387989470587 
1182	 0.12140939250356 
1183	 0.121416935581854 
1184	 0.121449173224907 
1185	 0.121506867557784 
1186	 0.121536015541071 
1187	 0.121559847142244 
1188	 0.121583586001951 
1189	 0.121586873039712 
1190	 0.121612257755315 
1191	 0.121655514205269 
1192	 0.121686664550219 
1193	 0.121720104142853 
1194	 0.121752174004617 
1195	 0.12177637476687 
1196	 0.121803521593713 
1197	 0.121829554724513 
1198	 0.121862451105648 
1199	 0.121898835416622 
1200	 0.121937861092 
1201	 0.121977513329175 
1202	 0.122029090523824 
1203	 0.122061788137456 
1204	 0.12208783810782 
1205	 0.122109378525877 
1206	 0.12211776266454 
1207	 0.122133858098221 
1208	 0.122135201816732 
1209	 0.122164463080792 
1210	 0.122211453535768 
1211	 0.122255625868952 
1212	 0.122326268402802 
1213	 0.122378070820765 
1214	 0.122425219004358 
1215	 0.122460705789789 
1216	 0.122487071856705 
1217	 0.122500560016075 
1218	 0.122521024418538 
1219	 0.122528458188618 
1220	 0.122552913645966 
1221	 0.122587383638101 
1222	 0.1226194484456 
1223	 0.122656121308213 
1224	 0.122693112302515 
1225	 0.122734286885912 
1226	 0.12277031078031 
1227	 0.122805246527248 
1228	 0.122840117810068 
1229	 0.122877322606785 
1230	 0.122905786841186 
1231	 0.122929569282992 
1232	 0.122953282522285 
1233	 0.122973487932254 
1234	 0.122977081401031 
1235	 0.123009350490772 
1236	 0.123056103580074 
1237	 0.12309519283021 
1238	 0.123145953459232 
1239	 0.123189688859668 
1240	 0.123236901449694 
1241	 0.123265882861817 
1242	 0.12328427866839 
1243	 0.123307050505019 
1244	 0.123300152528417 
1245	 0.123323468168793 
1246	 0.123382963929997 
1247	 0.123419290828121 
1248	 0.12345245094378 
1249	 0.123492298672641 
1250	 0.1235118470613 
1251	 0.123525283252408 
1252	 0.123544144691949 
1253	 0.123566058514863 
1254	 0.123584583962698 
1255	 0.123597811943462 
1256	 0.123619452954922 
1257	 0.123639954217547 
1258	 0.12367098043915 
1259	 0.123716799424141 
1260	 0.12375025193739 
1261	 0.123789347184916 
1262	 0.123818739881524 
1263	 0.123836619713146 
1264	 0.123856258161687 
1265	 0.123866519805004 
1266	 0.123885492986817 
1267	 0.123907241951801 
1268	 0.123928637919259 
1269	 0.123959092448252 
1270	 0.124001629194283 
1271	 0.124035277628926 
1272	 0.12406825510914 
1273	 0.124103814140081 
1274	 0.124143363298473 
1275	 0.124170721742345 
1276	 0.124187758506112 
1277	 0.124220680553085 
1278	 0.124252861792886 
1279	 0.124287041960072 
1280	 0.124324324852702 
1281	 0.124376415341036 
1282	 0.124432157538356 
1283	 0.124490324592483 
1284	 0.124562281907826 
1285	 0.124648703711036 
1286	 0.124707901542604 
1287	 0.124776451173676 
1288	 0.124832590272989 
1289	 0.124875011998564 
1290	 0.124937244827319 
1291	 0.125011552661311 
1292	 0.125059658075759 
1293	 0.125106930401306 
1294	 0.125155117997475 
1295	 0.125183001165684 
1296	 0.125215701937896 
1297	 0.125261660632284 
1298	 0.125296604216595 
1299	 0.125322240694716 
1300	 0.125341315788389 
1301	 0.125357305330688 
1302	 0.125372039036182 
1303	 0.125381155521547 
1304	 0.125378330752475 
1305	 0.125381810467006 
1306	 0.125377647147126 
1307	 0.125367980883176 
1308	 0.125358216631476 
1309	 0.125351254019432 
1310	 0.125345749836694 
1311	 0.125340188226214 
1312	 0.125338830371324 
1313	 0.125331779317999 
1314	 0.125309498151981 
1315	 0.125317996577187 
1316	 0.125346134243804 
1317	 0.125357475131535 
1318	 0.125383485961462 
1319	 0.125398662258316 
1320	 0.12539714824852 
1321	 0.125395113382272 
1322	 0.125387635112139 
1323	 0.125391261262877 
1324	 0.125390638313501 
1325	 0.125403648767245 
1326	 0.125439982509436 
1327	 0.125462577019563 
1328	 0.125471053695051 
1329	 0.125481841746441 
1330	 0.125509787657096 
1331	 0.125544611823192 
1332	 0.125578732945219 
1333	 0.125632403928433 
1334	 0.12566730648931 
1335	 0.125678194586076 
1336	 0.125712982124984 
1337	 0.125760718953911 
1338	 0.125803001632353 
1339	 0.125852857691451 
1340	 0.125901548738817 
1341	 0.125941062884623 
1342	 0.125989290760315 
1343	 0.126049707576595 
1344	 0.126100717600522 
1345	 0.126148442992931 
1346	 0.126208497059689 
1347	 0.12625709325135 
1348	 0.126302026830064 
1349	 0.126360733226048 
1350	 0.126419668471712 
1351	 0.126472202381566 
1352	 0.126522240580322 
1353	 0.126580194478748 
1354	 0.126632977664467 
1355	 0.12669805371254 
1356	 0.12678048383518 
1357	 0.126849548752575 
1358	 0.126922431171194 
1359	 0.126981703042849 
1360	 0.127021562785227 
1361	 0.127081539597172 
1362	 0.127148384974591 
1363	 0.127206489484052 
1364	 0.127275430688445 
1365	 0.127329358306766 
1366	 0.127366156882743 
1367	 0.127410101349831 
1368	 0.127440894442425 
1369	 0.127482100801466 
1370	 0.12752110290336 
1371	 0.127540835580661 
1372	 0.127552456657394 
1373	 0.127570901791693 
1374	 0.127589820426906 
1375	 0.127600532695195 
1376	 0.127625252289541 
1377	 0.127664697091591 
1378	 0.127690135742536 
1379	 0.127717368838588 
1380	 0.127740516115772 
1381	 0.127759285195108 
1382	 0.127771892087478 
1383	 0.127776557424019 
1384	 0.127787184877573 
1385	 0.127800958491371 
1386	 0.127801801379657 
1387	 0.127800261623147 
1388	 0.127800128560412 
1389	 0.127796151450086 
1390	 0.127774823879271 
1391	 0.127769207700208 
1392	 0.12775138690424 
1393	 0.127719784760245 
1394	 0.127688912814799 
1395	 0.127651570082465 
1396	 0.127614500604313 
1397	 0.127565881106595 
1398	 0.12750991181107 
1399	 0.127448748527015 
1400	 0.127380227032046 
1401	 0.127300099699447 
1402	 0.127201842955266 
1403	 0.127123204427362 
1404	 0.127039502213958 
1405	 0.126972534040895 
1406	 0.126926756938388 
1407	 0.126871380936562 
1408	 0.126813398477098 
1409	 0.126761417773258 
1410	 0.126710475259817 
1411	 0.126664655514582 
1412	 0.126613588690366 
1413	 0.126592431975217 
1414	 0.126568640380813 
1415	 0.126548234245833 
1416	 0.126556150947769 
1417	 0.126550092822936 
1418	 0.12653766646184 
1419	 0.126544485544994 
1420	 0.126567419230863 
1421	 0.126593102159201 
1422	 0.126623399131351 
1423	 0.126653204562235 
1424	 0.12666959100547 
1425	 0.126664876938605 
1426	 0.126674425708945 
1427	 0.126679694178328 
1428	 0.126699978875557 
1429	 0.126734814221076 
1430	 0.126752780657265 
1431	 0.126771573641674 
1432	 0.126793204496579 
1433	 0.126807001681384 
1434	 0.126822502941147 
1435	 0.126837286926676 
1436	 0.126862668425111 
1437	 0.126895331707246 
1438	 0.126919671201839 
1439	 0.126949293920083 
1440	 0.126978612635211 
1441	 0.127003287354712 
1442	 0.127023306429604 
1443	 0.127047324849755 
1444	 0.127090282137005 
1445	 0.127134588853952 
1446	 0.127158860996118 
1447	 0.127200190703995 
1448	 0.127247013041927 
1449	 0.127263360308742 
1450	 0.127295163622186 
1451	 0.127335129813884 
1452	 0.12737988471417 
1453	 0.127413339742108 
1454	 0.127453546545697 
1455	 0.127490061809353 
1456	 0.12751559753588 
1457	 0.12754691567731 
1458	 0.127588668434258 
1459	 0.127619498854794 
1460	 0.127635314851762 
1461	 0.127663704650398 
1462	 0.127697805548805 
1463	 0.127731190974938 
1464	 0.127772252505778 
1465	 0.127805196777619 
1466	 0.127826398070871 
1467	 0.127861380013653 
1468	 0.127905954653771 
1469	 0.127943232358594 
1470	 0.127985978032231 
1471	 0.128023401027709 
1472	 0.128054391360601 
1473	 0.128076457338046 
1474	 0.128099612459056 
1475	 0.128137821396628 
1476	 0.128173371552732 
1477	 0.128210539262682 
1478	 0.128238483703196 
1479	 0.128247581684761 
1480	 0.128260838519493 
1481	 0.128273278419415 
1482	 0.128295529138471 
1483	 0.128325700389862 
1484	 0.12836492795484 
1485	 0.128419375810433 
1486	 0.128452816909594 
1487	 0.128486135100143 
1488	 0.12851933138826 
1489	 0.128534999987216 
1490	 0.128564663773219 
1491	 0.128609421257869 
1492	 0.128644119947772 
1493	 0.128669644879853 
1494	 0.128702938154121 
1495	 0.128737225748943 
1496	 0.128777950168932 
1497	 0.128837997869172 
1498	 0.128876105880247 
1499	 0.128905118884947 
1500	 0.128933662668293 
1501	 0.128943492014764 
1502	 0.128962801266451 
1503	 0.128989011391583 
1504	 0.129015401715545 
1505	 0.129035445366708 
1506	 0.129064829579491 
1507	 0.129099459852026 
1508	 0.129122892629782 
1509	 0.129149164186747 
1510	 0.129175592338984 
1511	 0.129183916258491 
1512	 0.129199487854654 
1513	 0.129222247454809 
1514	 0.129224209043076 
1515	 0.129225670659102 
1516	 0.12923740232406 
1517	 0.129254083277986 
1518	 0.129272595797732 
1519	 0.129292370418692 
1520	 0.129323665293586 
1521	 0.129341809867761 
1522	 0.129345323378009 
1523	 0.129360977772468 
1524	 0.129384267519345 
1525	 0.129405030955524 
1526	 0.129428777193125 
1527	 0.129451376367624 
1528	 0.129474427122788 
1529	 0.129487974352293 
1530	 0.129493793531465 
1531	 0.129509822589482 
1532	 0.129525924919431 
1533	 0.129541386209658 
1534	 0.129564382027924 
1535	 0.129580864954567 
1536	 0.129586745138322 
1537	 0.129602183368573 
1538	 0.129628799861668 
1539	 0.129645442421242 
1540	 0.129652421513227 
1541	 0.129667321168721 
1542	 0.129690736676635 
1543	 0.129701904134748 
1544	 0.129706252213387 
1545	 0.129720675156062 
1546	 0.129743115831617 
1547	 0.129737668241212 
1548	 0.129727508759242 
1549	 0.129749030860393 
1550	 0.129757745421519 
1551	 0.129746541353724 
1552	 0.12976199159549 
1553	 0.129778216027126 
1554	 0.129773245577303 
1555	 0.129788496606368 
1556	 0.129807930888288 
1557	 0.129805807327922 
1558	 0.129819441352865 
1559	 0.129829498751906 
1560	 0.129838797719672 
1561	 0.129849098818772 
1562	 0.129864752140704 
1563	 0.129879375126072 
1564	 0.129896990231648 
1565	 0.129922413017275 
1566	 0.129938490401592 
1567	 0.129953897826136 
1568	 0.129960312538985 
1569	 0.129958000313663 
1570	 0.129960365065605 
1571	 0.12996013213983 
1572	 0.129957914586388 
1573	 0.129953345010658 
1574	 0.129959115549921 
1575	 0.129956221102698 
1576	 0.129970772484566 
1577	 0.130010510908962 
1578	 0.130033406123 
1579	 0.130064557173564 
1580	 0.130076042417691 
1581	 0.130066025119785 
1582	 0.130067584531655 
1583	 0.13006791284343 
1584	 0.130065803912908 
1585	 0.130059173876316 
1586	 0.130064826349027 
1587	 0.130068845796954 
1588	 0.130079467076855 
1589	 0.130114869742336 
1590	 0.130130747706494 
1591	 0.130131469789504 
1592	 0.130140572540817 
1593	 0.130147805354203 
1594	 0.130157265692216 
1595	 0.130177200118148 
1596	 0.13018630446513 
1597	 0.130183104021878 
1598	 0.130186892598451 
1599	 0.130190672577556 
1600	 0.130194183492701 
1601	 0.130197200808539 
1602	 0.130208418419681 
1603	 0.130234420266646 
1604	 0.130242287216019 
1605	 0.130242650308304 
1606	 0.130247622498197 
1607	 0.130244745544427 
1608	 0.130233432065733 
1609	 0.130243546391665 
1610	 0.130242046030904 
1611	 0.130214633133149 
1612	 0.130192910064175 
1613	 0.130181755517254 
1614	 0.130182176827088 
1615	 0.130190274098398 
1616	 0.130193411018407 
1617	 0.130212547879748 
1618	 0.130219958711281 
1619	 0.130218241801689 
1620	 0.130246386181073 
1621	 0.13026883616995 
1622	 0.13028595065139 
1623	 0.130300348131441 
1624	 0.130329727782438 
1625	 0.130339340104729 
1626	 0.130332071782395 
1627	 0.130324248748507 
1628	 0.130312393887359 
1629	 0.130306210115444 
1630	 0.130280406601462 
1631	 0.130295971563712 
1632	 0.130340838511488 
1633	 0.130369528837732 
1634	 0.130425792743321 
1635	 0.130431965775931 
1636	 0.130403896412092 
1637	 0.130395481586697 
1638	 0.130368561085354 
1639	 0.130359605158112 
1640	 0.130371829330647 
1641	 0.130365616744826 
1642	 0.130344021161424 
1643	 0.130345772012982 
1644	 0.13035427406974 
1645	 0.130363183891887 
1646	 0.13038654338136 
1647	 0.130402540763592 
1648	 0.130413257750425 
1649	 0.130426172992766 
1650	 0.13044759606228 
1651	 0.130455312541547 
1652	 0.130453704132383 
1653	 0.130455177323717 
1654	 0.130448147960091 
1655	 0.130451172384292 
1656	 0.130462290228292 
1657	 0.13046494106364 
1658	 0.130469665244918 
1659	 0.130468517669538 
1660	 0.13045416279643 
1661	 0.130455002591309 
1662	 0.130464279572746 
1663	 0.130466467506805 
1664	 0.130467991065028 
1665	 0.13047811135575 
1666	 0.130493838229235 
1667	 0.130497026337211 
1668	 0.130499216723299 
1669	 0.130507713352236 
1670	 0.130507219026166 
1671	 0.130511028850686 
1672	 0.130535739682346 
1673	 0.130536187052244 
1674	 0.130505233938245 
1675	 0.130509625380384 
1676	 0.130524859221692 
1677	 0.130538972551387 
1678	 0.130582161934313 
1679	 0.130593451196019 
1680	 0.130587144907513 
1681	 0.130578888505492 
1682	 0.130545846324505 
1683	 0.130543590874914 
1684	 0.130561696986271 
1685	 0.130555334779217 
1686	 0.130552961713658 
1687	 0.130545819405649 
1688	 0.130500581661966 
1689	 0.130503129411934 
1690	 0.130538954067106 
1691	 0.130564599253836 
1692	 0.130621634805508 
1693	 0.130637404676588 
1694	 0.130628904582753 
1695	 0.130627375679797 
1696	 0.130606933406467 
1697	 0.130595641903669 
1698	 0.130592195628445 
1699	 0.130584678950835 
1700	 0.130567673324779 
1701	 0.130562721515507 
1702	 0.130564815018527 
1703	 0.130567848584054 
1704	 0.130573255261668 
1705	 0.130586650332859 
1706	 0.130614002426178 
1707	 0.130621604779164 
1708	 0.13063179625481 
1709	 0.130626783467055 
1710	 0.130590671103826 
1711	 0.130585032504178 
1712	 0.130583463947683 
1713	 0.130594105927621 
1714	 0.130633928306543 
1715	 0.130644933435935 
1716	 0.130644699901903 
1717	 0.130654785528474 
1718	 0.130656541384436 
1719	 0.130664044939798 
1720	 0.130694658462642 
1721	 0.130689092835993 
1722	 0.130658770747195 
1723	 0.130644144207506 
1724	 0.130617005829488 
1725	 0.130597184708472 
1726	 0.130591392699714 
1727	 0.130570265294348 
1728	 0.130525799919679 
1729	 0.130521844011439 
1730	 0.130542827439948 
1731	 0.130544478678883 
1732	 0.130565746806009 
1733	 0.130564414334651 
1734	 0.130527169211957 
1735	 0.130521311074081 
1736	 0.130540768698411 
1737	 0.130522559537835 
1738	 0.130496045447273 
1739	 0.130470534280069 
1740	 0.130412603291934 
1741	 0.130387083537201 
1742	 0.130384850127892 
1743	 0.130373105417988 
1744	 0.130361358416379 
1745	 0.130358654871985 
1746	 0.130360452255419 
1747	 0.130372342481494 
1748	 0.130392812041813 
1749	 0.130397900435236 
1750	 0.130395669727785 
1751	 0.130362583786573 
1752	 0.130320354025394 
1753	 0.130323943557685 
1754	 0.130310661862432 
1755	 0.130293761667536 
1756	 0.130296045097959 
1757	 0.130269086123558 
1758	 0.130245231650202 
1759	 0.130261024506513 
1760	 0.130263482982592 
1761	 0.130260400344815 
1762	 0.130277393873766 
1763	 0.130283403000795 
1764	 0.13026894122785 
1765	 0.130259046071967 
1766	 0.130256985549823 
1767	 0.130218420913542 
1768	 0.1302119559172 
1769	 0.130223766459887 
1770	 0.130189266856326 
1771	 0.130187987775307 
1772	 0.130200149056681 
1773	 0.130198645206424 
1774	 0.130207799805861 
1775	 0.13023896835689 
1776	 0.130266824303575 
1777	 0.130262041696621 
1778	 0.130260750013506 
1779	 0.130221349879031 
1780	 0.130170758171799 
1781	 0.130168497192136 
1782	 0.130178683750315 
1783	 0.130240465790823 
1784	 0.130261152895052 
1785	 0.130265963869496 
1786	 0.130281025679649 
1787	 0.130281899359173 
1788	 0.130268587223971 
1789	 0.130253036649191 
1790	 0.130244283412778 
1791	 0.13021946692293 
1792	 0.130217453324185 
1793	 0.130245041747312 
1794	 0.130252107909687 
1795	 0.130245635731355 
1796	 0.130241422839534 
1797	 0.130236970926909 
1798	 0.130234524486934 
1799	 0.130226101898884 
1800	 0.130232050580446 
1801	 0.127691055686729 
1802	 0.127679646461632 
1803	 0.127679097161389 
1804	 0.12769303951912 
1805	 0.127701113285333 
1806	 0.127736790192281 
1807	 0.127768468600346 
1808	 0.127766045325265 
1809	 0.127722979938311 
1810	 0.127717358905608 
1811	 0.127704217063988 
1812	 0.127690120250301 
1813	 0.127721361024759 
1814	 0.127744970782098 
1815	 0.12777071180893 
1816	 0.127824760729539 
1817	 0.127856199563694 
1818	 0.127891364848044 
1819	 0.127917064926859 
1820	 0.127928878123245 
1821	 0.127939569753971 
1822	 0.127961062103352 
1823	 0.127987208066004 
1824	 0.127995432675602 
1825	 0.128012045134923 
1826	 0.128045584005024 
1827	 0.128072359475686 
1828	 0.128105199672148 
1829	 0.128165053124167 
1830	 0.128189776796208 
1831	 0.128184686114853 
1832	 0.128210424611736 
1833	 0.128245758902169 
1834	 0.128267972478345 
1835	 0.128287351619953 
1836	 0.128285874636712 
1837	 0.128253772494341 
1838	 0.128230758535691 
1839	 0.128218820503879 
1840	 0.128217666986479 
1841	 0.128211695917859 
1842	 0.128202916164323 
1843	 0.128207999082383 
1844	 0.128211587025553 
1845	 0.128211828211526 
1846	 0.128220122212428 
1847	 0.128224697215716 
1848	 0.128226494594085 
1849	 0.12824160473333 
1850	 0.128255258281456 
1851	 0.128283101992585 
1852	 0.12830079395869 
1853	 0.128287790645653 
1854	 0.128255964655347 
1855	 0.128246087651625 
1856	 0.128220888433596 
1857	 0.128189416056091 
1858	 0.12818871396268 
1859	 0.128149790482678 
1860	 0.128099821163397 
1861	 0.128023826460654 
1862	 0.127980135423687 
1863	 0.127934411861536 
1864	 0.127906334472283 
1865	 0.127905786711887 
1866	 0.127886945919382 
1867	 0.127868919313124 
1868	 0.127848306204865 
1869	 0.12781807890121 
1870	 0.12779757950049 
1871	 0.127754040502657 
1872	 0.127696590273426 
1873	 0.127616733253607 
1874	 0.12753039986354 
1875	 0.127433495600714 
1876	 0.127334655153899 
1877	 0.127231155504016 
1878	 0.127125745532788 
1879	 0.127025719773866 
1880	 0.126918350447054 
1881	 0.126820290037616 
1882	 0.126693836576188 
1883	 0.126565416135703 
1884	 0.126394836025531 
1885	 0.126189616863216 
1886	 0.125987554969479 
1887	 0.125783331598428 
1888	 0.125590496036994 
1889	 0.125404002159565 
1890	 0.125201796295687 
1891	 0.124986948223157 
1892	 0.124756735432666 
1893	 0.124511630734333 
1894	 0.124256794362533 
1895	 0.123986581822577 
1896	 0.123687796434248 
1897	 0.123399631318548 
1898	 0.123105278861858 
1899	 0.122800371909338 
1900	 0.122515896399108 
1901	 0.122227998333937 
1902	 0.121951718786615 
1903	 0.121694527282285 
1904	 0.121432733465463 
1905	 0.121172971273022 
1906	 0.120916631652341 
1907	 0.120674748271639 
1908	 0.120427359731673 
1909	 0.120170234522825 
1910	 0.119939223319818 
1911	 0.119725501405049 
1912	 0.119496565992671 
1913	 0.119300278954948 
1914	 0.119153453993617 
1915	 0.118985480679284 
1916	 0.118810343293811 
1917	 0.118653040079538 
1918	 0.118519513430294 
1919	 0.118367706172548 
1920	 0.118216713392111 
1921	 0.118093383581243 
1922	 0.117976780197801 
1923	 0.11785890949872 
1924	 0.117752606197506 
1925	 0.117667948938899 
1926	 0.117582992409337 
1927	 0.117502570660951 
1928	 0.117416299601088 
1929	 0.117347013858023 
1930	 0.117286768481848 
1931	 0.117226202736164 
1932	 0.117190570931384 
1933	 0.117164323664501 
1934	 0.117152132541075 
1935	 0.117153039614844 
1936	 0.117185107634918 
1937	 0.117192368898059 
1938	 0.117191630514952 
1939	 0.117203659583075 
1940	 0.117208388912289 
1941	 0.117217578028057 
1942	 0.11725534597109 
1943	 0.117307188699634 
1944	 0.117354443463823 
1945	 0.117404272587497 
1946	 0.117460134820916 
1947	 0.117521953146235 
1948	 0.117586971953042 
1949	 0.117660863269472 
1950	 0.117728587979457 
1951	 0.117798244172693 
1952	 0.117857157812321 
1953	 0.117930896100489 
1954	 0.118017946101807 
1955	 0.118090922111608 
1956	 0.118163917705621 
1957	 0.118233164085981 
1958	 0.118290050672804 
1959	 0.118350940911097 
1960	 0.118403227175981 
1961	 0.118478475157986 
1962	 0.118571971985426 
1963	 0.118647859076005 
1964	 0.11873622664127 
1965	 0.11881658395522 
1966	 0.11886478298003 
1967	 0.118907766310132 
1968	 0.118974158143562 
1969	 0.119052480269265 
1970	 0.119127722326097 
1971	 0.119220747614597 
1972	 0.119298471446797 
1973	 0.119360783817262 
1974	 0.119431758679091 
1975	 0.119504866840662 
1976	 0.119571738299861 
1977	 0.11965600122076 
1978	 0.119761620173894 
1979	 0.119855944614794 
1980	 0.119971777372019 
1981	 0.120070815427855 
1982	 0.120156482288396 
1983	 0.120250599467511 
1984	 0.120359051889983 
1985	 0.120441795119553 
1986	 0.120513589872394 
1987	 0.120587965995676 
1988	 0.120651630625375 
1989	 0.120699887636614 
1990	 0.120767447830921 
1991	 0.120838594903889 
1992	 0.120920510550219 
1993	 0.121018494807225 
1994	 0.12109858976598 
1995	 0.121189582286848 
1996	 0.121257858327892 
1997	 0.121291907553394 
1998	 0.121348115946434 
1999	 0.121394513320061 
2000	 0.12146534358001 
2001	 0.121557279191321 
2002	 0.1216553418839 
2003	 0.121752828652171 
2004	 0.121842500027766 
2005	 0.121918354084647 
2006	 0.121969731931028 
2007	 0.122041996903306 
2008	 0.122107988753581 
2009	 0.122187518927238 
2010	 0.122282634222876 
2011	 0.122373266884143 
2012	 0.122469366390393 
2013	 0.122565372185593 
2014	 0.122665110193604 
2015	 0.122761805646627 
2016	 0.122844499066468 
2017	 0.122932223217824 
2018	 0.123034163578101 
2019	 0.123136462361583 
2020	 0.123248002976658 
2021	 0.123387081306464 
2022	 0.123504760135723 
2023	 0.123604147923349 
2024	 0.123725562662499 
2025	 0.123859346448008 
2026	 0.123981935180145 
2027	 0.124115266643036 
2028	 0.124243411209866 
2029	 0.124357385185101 
2030	 0.124453224298861 
2031	 0.124559885860108 
2032	 0.124664763478999 
2033	 0.124766931995803 
2034	 0.124859915228326 
2035	 0.124967521758868 
2036	 0.125086881287641 
2037	 0.1251948583306 
2038	 0.125311619957908 
2039	 0.125416747432106 
2040	 0.125507688985192 
2041	 0.125601071732559 
2042	 0.125675083951998 
2043	 0.125747380584775 
2044	 0.125829086349656 
2045	 0.125896679342512 
2046	 0.125985110147426 
2047	 0.126110713679095 
2048	 0.126198041697182 
2049	 0.126273400243579 
2050	 0.126347624166157 
2051	 0.126398145481225 
2052	 0.126458322663307 
2053	 0.126519738779513 
2054	 0.126587749471394 
2055	 0.12666132864713 
2056	 0.126732044678753 
2057	 0.126803313596049 
2058	 0.126880700497879 
2059	 0.126951686752121 
2060	 0.127022826214347 
2061	 0.127082617617316 
2062	 0.127127850160964 
2063	 0.127190777106426 
2064	 0.127253541431935 
2065	 0.127317264976874 
2066	 0.127395432684814 
2067	 0.127468771042527 
2068	 0.127545211138662 
2069	 0.127601600118158 
2070	 0.127667691622241 
2071	 0.127742324198774 
2072	 0.127801267222954 
2073	 0.127843795817997 
2074	 0.127904231507669 
2075	 0.127970250600602 
2076	 0.128029726728874 
2077	 0.128083883241681 
2078	 0.128155798889381 
2079	 0.128233429616405 
2080	 0.128307871584981 
2081	 0.128426215108819 
2082	 0.128497480835455 
2083	 0.128539338978251 
2084	 0.12855455639026 
2085	 0.128606880723364 
2086	 0.128651025978972 
2087	 0.128696078245995 
2088	 0.128774427641976 
2089	 0.128819861261544 
2090	 0.128817525544307 
2091	 0.128861763207501 
2092	 0.128916035292705 
2093	 0.128986840452958 
2094	 0.129096322389314 
2095	 0.129184036819344 
2096	 0.129280489701955 
2097	 0.129363695313748 
2098	 0.129437281186287 
2099	 0.129494117940411 
2100	 0.129563556143262 
2101	 0.129631158305709 
2102	 0.129701377884587 
2103	 0.12978403150674 
2104	 0.129845745408962 
2105	 0.129888470165754 
2106	 0.129950013708084 
2107	 0.13000668246283 
2108	 0.130069793655355 
2109	 0.130152270760372 
2110	 0.130225363154932 
2111	 0.130282705613671 
2112	 0.130357680055838 
2113	 0.130430008931138 
2114	 0.130527481497821 
2115	 0.130627687469174 
2116	 0.13075234752396 
2117	 0.130842414789636 
2118	 0.13093188301908 
2119	 0.131006492579183 
2120	 0.131056887675602 
2121	 0.131111854570986 
2122	 0.131158865835227 
2123	 0.131212955369235 
2124	 0.131264101125138 
2125	 0.131316758816876 
2126	 0.131380536449853 
2127	 0.131432435576078 
2128	 0.131469754424521 
2129	 0.13151548554281 
2130	 0.131558032592658 
2131	 0.131614293877403 
2132	 0.131650223877859 
2133	 0.131686037622713 
2134	 0.13171410217799 
2135	 0.131720035337396 
2136	 0.131743961193281 
2137	 0.131785311833156 
2138	 0.131802257519649 
2139	 0.131817964546241 
2140	 0.131819129608135 
2141	 0.131803097753735 
2142	 0.131780709822656 
2143	 0.131736612526114 
2144	 0.131707500882524 
2145	 0.131686888820352 
2146	 0.131648834031693 
2147	 0.131595793970672 
2148	 0.131563011241064 
2149	 0.131530603996641 
2150	 0.131491701403583 
2151	 0.131450163870757 
2152	 0.131435128627683 
2153	 0.131380925247418 
2154	 0.131283714107435 
2155	 0.13121708158348 
2156	 0.131174838937769 
2157	 0.13108741029105 
2158	 0.13096961503063 
2159	 0.130879604912456 
2160	 0.130773143238748 
2161	 0.130667882895577 
2162	 0.130584687597197 
2163	 0.130502050024702 
2164	 0.130411063083632 
2165	 0.130314538833439 
2166	 0.130220185607009 
2167	 0.130143478944151 
2168	 0.130049486855167 
2169	 0.129933541964914 
2170	 0.129835438922272 
2171	 0.129749084030314 
2172	 0.129654404421701 
2173	 0.129553882631688 
2174	 0.129461721084629 
2175	 0.129370857556301 
2176	 0.129282531250765 
2177	 0.129203687560532 
2178	 0.129118795967494 
2179	 0.129038352410542 
2180	 0.128945519833781 
2181	 0.12883535251981 
2182	 0.128738588800124 
2183	 0.128643152757613 
2184	 0.128545287309738 
2185	 0.128450415696213 
2186	 0.128363851687901 
2187	 0.128276015845498 
2188	 0.128185948766479 
2189	 0.128095578137105 
2190	 0.127993750195316 
2191	 0.127928429423182 
2192	 0.127875900728154 
2193	 0.127829092418033 
2194	 0.12783355779702 
2195	 0.127792293069195 
2196	 0.127716812629877 
2197	 0.127662840286505 
2198	 0.127589588524178 
2199	 0.12754148630746 
2200	 0.127529251127181 
2201	 0.127500063484206 
2202	 0.127444458991536 
2203	 0.127438611417282 
2204	 0.127434487995335 
2205	 0.127427103935022 
2206	 0.127444359692445 
2207	 0.127508959907506 
2208	 0.127528997152434 
2209	 0.127540518347069 
2210	 0.127552824274214 
2211	 0.127555330449428 
2212	 0.127547115008918 
2213	 0.127530785258812 
2214	 0.127518575655227 
2215	 0.127484601002825 
2216	 0.127473771897083 
2217	 0.127474290280145 
2218	 0.127485721499144 
2219	 0.127512983122487 
2220	 0.127539329772904 
2221	 0.127574727419654 
2222	 0.127623509910164 
2223	 0.127640289414708 
2224	 0.127630361264647 
2225	 0.127655943221666 
2226	 0.127677972138672 
2227	 0.127706313253944 
2228	 0.127767476544163 
2229	 0.127800311446367 
2230	 0.127809666789737 
2231	 0.127835313904804 
2232	 0.127863932913609 
2233	 0.12789149088202 
2234	 0.127918446991431 
2235	 0.127948833386003 
2236	 0.127981582258172 
2237	 0.12801811556423 
2238	 0.128078635441803 
2239	 0.12810432469399 
2240	 0.128104339985298 
2241	 0.128117095217538 
2242	 0.128106070534354 
2243	 0.128110954962519 
2244	 0.128133402569055 
2245	 0.128157865934358 
2246	 0.128196594227901 
2247	 0.12820226939819 
2248	 0.128233256840346 
2249	 0.128268349016456 
2250	 0.128321982335207 
2251	 0.128403510397549 
2252	 0.128453964795481 
2253	 0.128522798324699 
2254	 0.128535226454923 
2255	 0.128481704213959 
2256	 0.12848418562037 
2257	 0.128485738373788 
2258	 0.128490463616176 
2259	 0.128526345178062 
2260	 0.128542062743071 
2261	 0.128523719991322 
2262	 0.128540759973867 
2263	 0.128584562958511 
2264	 0.128621237503659 
2265	 0.128674832539831 
2266	 0.128714810274646 
2267	 0.128743887172822 
2268	 0.128774250946422 
2269	 0.128793426140485 
2270	 0.128831434477578 
2271	 0.12884631610397 
2272	 0.128880571536003 
2273	 0.128921899224594 
2274	 0.128923802787075 
2275	 0.128951830269965 
2276	 0.128995248784916 
2277	 0.129014951425525 
2278	 0.129026459901464 
2279	 0.129047736518468 
2280	 0.129057884667453 
2281	 0.129078685497098 
2282	 0.129115999476526 
2283	 0.129144748375383 
2284	 0.129164920651601 
2285	 0.1291915139143 
2286	 0.129228520886632 
2287	 0.129246144529711 
2288	 0.129245920054744 
2289	 0.129277024109074 
2290	 0.129311519267626 
2291	 0.129348562021452 
2292	 0.129416808392784 
2293	 0.129459307986517 
2294	 0.129503561168672 
2295	 0.129521310891387 
2296	 0.12951950915704 
2297	 0.129500638201368 
2298	 0.129487672320615 
2299	 0.129470182692545 
2300	 0.129491488026718 
2301	 0.129549393515676 
2302	 0.129558301408701 
2303	 0.129577224462176 
2304	 0.129590304351269 
2305	 0.129566146666428 
2306	 0.12954575343069 
2307	 0.129519463315757 
2308	 0.129489578542244 
2309	 0.129428458377573 
2310	 0.12941839090692 
2311	 0.129436907529046 
2312	 0.129451520994321 
2313	 0.129507461424829 
2314	 0.129517698545724 
2315	 0.12950373411307 
2316	 0.129495385603818 
2317	 0.129463217518641 
2318	 0.129439663483826 
2319	 0.129434888625128 
2320	 0.129411750139425 
2321	 0.129356038483053 
2322	 0.12933915005135 
2323	 0.12933574986917 
2324	 0.129322883346828 
2325	 0.129327354469881 
2326	 0.129345336514448 
2327	 0.129379476919311 
2328	 0.129374903122461 
2329	 0.129401363099969 
2330	 0.129393149786269 
2331	 0.129360155485546 
2332	 0.12936722626604 
2333	 0.129354386218148 
2334	 0.129351720765076 
2335	 0.12938408079816 
2336	 0.12939325842571 
2337	 0.129454800350707 
2338	 0.129557361264304 
2339	 0.12957190117488 
2340	 0.129575159682773 
2341	 0.129532887519986 
2342	 0.129475232557341 
2343	 0.129498809157222 
2344	 0.129490566599149 
2345	 0.129478165849142 
2346	 0.129495159087442 
2347	 0.129456112512883 
2348	 0.129375254485973 
2349	 0.129311736152961 
2350	 0.12921568491503 
2351	 0.129142360837478 
2352	 0.129045840179938 
2353	 0.129009813236 
2354	 0.129042403430647 
2355	 0.12905570467217 
2356	 0.12911486174086 
2357	 0.129115719732051 
2358	 0.12906639982871 
2359	 0.129026918355643 
2360	 0.12898506031064 
2361	 0.128925012644943 
2362	 0.128856531458492 
2363	 0.128776433910054 
2364	 0.128660587800909 
2365	 0.128568628965879 
2366	 0.128457995547041 
2367	 0.128395848488646 
2368	 0.128380821391381 
2369	 0.128324968814313 
2370	 0.128272392472727 
2371	 0.128243810760841 
2372	 0.12820391694908 
2373	 0.128174960845004 
2374	 0.12816281823704 
2375	 0.128162158298215 
2376	 0.12807007356823 
2377	 0.127968190294174 
2378	 0.127845389227255 
2379	 0.127722869383197 
2380	 0.127698750699723 
2381	 0.127682109743543 
2382	 0.127672737738902 
2383	 0.127653045456662 
2384	 0.1275678090991 
2385	 0.127508813840241 
2386	 0.12744419690082 
2387	 0.127327939754103 
2388	 0.127259899799802 
2389	 0.127182380184669 
2390	 0.127114264292117 
2391	 0.127105440627113 
2392	 0.127041457653847 
2393	 0.126912559426881 
2394	 0.126796548800338 
2395	 0.126691606129356 
2396	 0.126619159142561 
2397	 0.126559463479457 
2398	 0.126445653420013 
2399	 0.126380398882995 
2400	 0.126320354676541 
2401	 0.126265528042639 
2402	 0.126269867693079 
2403	 0.126268798145155 
2404	 0.126233295918563 
2405	 0.126129591077015 
2406	 0.126013629760132 
2407	 0.125860428179828 
2408	 0.125750763015128 
2409	 0.125702310030172 
2410	 0.125690369952739 
2411	 0.125759712700334 
2412	 0.125735585154658 
2413	 0.125727008598609 
2414	 0.125739051456295 
2415	 0.125637653853613 
2416	 0.125490909438718 
2417	 0.125253486238816 
2418	 0.125131874319118 
2419	 0.124966376506145 
2420	 0.124840247181925 
2421	 0.124861827493974 
2422	 0.124796447994193 
2423	 0.124648829426552 
2424	 0.124631640427675 
2425	 0.124685981762946 
2426	 0.12463751080449 
2427	 0.124590134418853 
2428	 0.124539482695413 
2429	 0.124457703936824 
2430	 0.12435931159413 
2431	 0.124252722093564 
2432	 0.124183420520361 
2433	 0.124072711492693 
2434	 0.12397507788638 
2435	 0.124002442006692 
2436	 0.123876670073879 
2437	 0.123568821271384 
2438	 0.123461396065722 
2439	 0.123392568735678 
2440	 0.123305733860661 
2441	 0.123372637553874 
2442	 0.123309292333013 
2443	 0.123118099204936 
2444	 0.123033061740407 
2445	 0.122945018432297 
2446	 0.122920877895435 
2447	 0.122955698458681 
2448	 0.122920787475922 
2449	 0.123007041541967 
2450	 0.122886374497544 
2451	 0.12253666185649 
2452	 0.122441308395088 
2453	 0.122305353663336 
2454	 0.12219697888903 
2455	 0.122353352076172 
2456	 0.122345692818042 
2457	 0.122190680607483 
2458	 0.122097523893784 
2459	 0.122020748978558 
2460	 0.121908587072278 
2461	 0.121753956146802 
2462	 0.121661222591231 
2463	 0.121582209272522 
2464	 0.121425787320277 
2465	 0.121274131135912 
2466	 0.121190968953576 
2467	 0.121076376952647 
2468	 0.121022925862369 
2469	 0.121090628928929 
2470	 0.120943269991666 
2471	 0.120809012659127 
2472	 0.120692711271364 
2473	 0.120634695544898 
2474	 0.120606488696146 
2475	 0.120551513194996 
2476	 0.120492882797442 
2477	 0.120451126971776 
2478	 0.120518284906572 
2479	 0.120519667092341 
2480	 0.120459086564354 
2481	 0.120362756828571 
2482	 0.120202856775147 
2483	 0.120215809568032 
2484	 0.12022982347099 
2485	 0.120162721162477 
2486	 0.120016293004517 
2487	 0.119929050052602 
2488	 0.11996386384911 
2489	 0.119877319724096 
2490	 0.119838795147441 
2491	 0.1196967762251 
2492	 0.119443923046581 
2493	 0.119400634827161 
2494	 0.119437776749783 
2495	 0.11950453694029 
2496	 0.119613896454989 
2497	 0.11966920266319 
2498	 0.119702613215972 
2499	 0.119684358587382 
2500	 0.119556577216036 
