Wavelength	LMW_2000001.asd
350	 3.41885028822925E-02 
351	 0.037793339264197 
352	 4.06545536131522E-02 
353	 3.55068663399916E-02 
354	 3.84336747999556E-02 
355	 3.63278578822216E-02 
356	 3.24782047213288E-02 
357	 0.032669827532512 
358	 3.63076053127674E-02 
359	 3.62312583711546E-02 
360	 3.38499286341121E-02 
361	 3.55229796190193E-02 
362	 3.66423887258188E-02 
363	 3.96276069920823E-02 
364	 4.31156657356057E-02 
365	 3.81769604277859E-02 
366	 4.01023297089226E-02 
367	 0.044710066802755 
368	 4.48031149619035E-02 
369	 4.39245567898396E-02 
370	 4.48575293076212E-02 
371	 4.68948271073473E-02 
372	 4.73147827104569E-02 
373	 4.94995850908884E-02 
374	 5.08032490730608E-02 
375	 4.98602555414455E-02 
376	 4.85840818700003E-02 
377	 4.81144207150685E-02 
378	 0.049506527030561 
379	 5.28809177232012E-02 
380	 5.61513433766582E-02 
381	 5.48989110024856E-02 
382	 5.23603347039298E-02 
383	 5.63791058473265E-02 
384	 5.52682508050196E-02 
385	 5.40025540432675E-02 
386	 5.61069120859359E-02 
387	 5.80110678233669E-02 
388	 5.80283708854841E-02 
389	 5.85407422420131E-02 
390	 6.17140326101792E-02 
391	 6.18009570072575E-02 
392	 6.11519230140129E-02 
393	 6.24949182797043E-02 
394	 6.78320817238746E-02 
395	 6.74088245380986E-02 
396	 6.72188768913257E-02 
397	 7.09453403241972E-02 
398	 7.17354076806453E-02 
399	 7.22816349388859E-02 
400	 7.32155870987199E-02 
401	 7.43078397326098E-02 
402	 7.42839129822921E-02 
403	 7.54587623905521E-02 
404	 7.74921455631301E-02 
405	 7.73665187024944E-02 
406	 7.84661638649049E-02 
407	 8.05274556103552E-02 
408	 8.21406812413924E-02 
409	 8.06581227059015E-02 
410	 8.02162622607125E-02 
411	 8.14739530644955E-02 
412	 0.083258528485435 
413	 0.084836927528101 
414	 8.47520474791429E-02 
415	 8.36092704336342E-02 
416	 8.45709288155236E-02 
417	 8.47796337590129E-02 
418	 8.48661613600239E-02 
419	 8.57300627364274E-02 
420	 0.086443002225256 
421	 8.58682015041791E-02 
422	 8.47846367282559E-02 
423	 8.49422801589865E-02 
424	 8.44111127389479E-02 
425	 8.36300529160324E-02 
426	 8.31168703811335E-02 
427	 8.29777661561791E-02 
428	 8.29729919645748E-02 
429	 8.28924844117806E-02 
430	 8.25706803851978E-02 
431	 8.19462453070673E-02 
432	 8.13905773233967E-02 
433	 8.12003949687818E-02 
434	 8.15470920314264E-02 
435	 8.17132222507112E-02 
436	 8.17784794158099E-02 
437	 8.18872174141111E-02 
438	 8.18002405081993E-02 
439	 8.23863455350602E-02 
440	 0.08336118573901 
441	 8.39344777691522E-02 
442	 8.44008759059813E-02 
443	 8.49441395158005E-02 
444	 8.55671876162088E-02 
445	 8.60096949199458E-02 
446	 8.66398935938476E-02 
447	 8.72740881579647E-02 
448	 8.77182066702107E-02 
449	 8.84663124836526E-02 
450	 8.91020387779994E-02 
451	 0.089497695769778 
452	 8.98010786267778E-02 
453	 9.00499866126361E-02 
454	 9.04603100095963E-02 
455	 9.10994454773914E-02 
456	 9.16502310348086E-02 
457	 9.20868184870872E-02 
458	 9.23511786763115E-02 
459	 9.24399049919983E-02 
460	 9.27442747077758E-02 
461	 9.30257607252002E-02 
462	 9.31465743716621E-02 
463	 9.31835392204374E-02 
464	 9.34189160513387E-02 
465	 9.37799313281065E-02 
466	 9.40716857729163E-02 
467	 9.40692734157503E-02 
468	 9.41992975749072E-02 
469	 0.094527152068734 
470	 9.48001001932529E-02 
471	 9.47920372194859E-02 
472	 9.46658255701942E-02 
473	 9.46411100563301E-02 
474	 9.49296111521854E-02 
475	 9.50964050835396E-02 
476	 9.51280561714663E-02 
477	 9.51872907251403E-02 
478	 9.51981338300301E-02 
479	 9.52002712139085E-02 
480	 9.52715156198377E-02 
481	 9.55328388400609E-02 
482	 9.57690018133732E-02 
483	 9.59152479139843E-02 
484	 9.59855722716763E-02 
485	 9.61318979551675E-02 
486	 9.60608018927023E-02 
487	 9.58489314391346E-02 
488	 9.58723068638706E-02 
489	 9.60663659518901E-02 
490	 9.61578529196851E-02 
491	 9.60683537988003E-02 
492	 9.63265005810646E-02 
493	 9.62684513553033E-02 
494	 9.60390393772823E-02 
495	 9.61145731473793E-02 
496	 9.63219960842564E-02 
497	 9.65133724431264E-02 
498	 9.65753561922039E-02 
499	 0.096427767158198 
500	 9.64971519646337E-02 
501	 9.66044148665464E-02 
502	 9.65155379098006E-02 
503	 9.66171562883393E-02 
504	 9.67505499737393E-02 
505	 9.68504602320633E-02 
506	 9.69492764931025E-02 
507	 9.69006940518573E-02 
508	 9.68713026682143E-02 
509	 9.69614894163936E-02 
510	 9.69328812873424E-02 
511	 9.68967893694733E-02 
512	 9.68748853903969E-02 
513	 9.68555350305529E-02 
514	 9.69618348272243E-02 
515	 0.097099945468426 
516	 9.71705414025607E-02 
517	 9.70950060780512E-02 
518	 9.70814729140115E-02 
519	 9.71352680748851E-02 
520	 9.71808841334542E-02 
521	 9.71141273318974E-02 
522	 9.71140265269994E-02 
523	 9.72023303810401E-02 
524	 9.72235114705811E-02 
525	 0.097239658314299 
526	 9.71906761307616E-02 
527	 9.70844320797645E-02 
528	 9.72350719738684E-02 
529	 9.72750852402334E-02 
530	 9.72330756191908E-02 
531	 9.73669029871388E-02 
532	 9.72977716421856E-02 
533	 9.73024423464661E-02 
534	 0.09750173385112 
535	 9.75105545331238E-02 
536	 9.74420841545589E-02 
537	 9.73943156700632E-02 
538	 9.74383970843152E-02 
539	 9.74272032872594E-02 
540	 9.74385809612105E-02 
541	 0.097488237651324 
542	 9.74872575729313E-02 
543	 9.74651293701151E-02 
544	 9.74755716303168E-02 
545	 9.75470147838109E-02 
546	 9.75811086123945E-02 
547	 9.76057108561763E-02 
548	 0.097633136402373 
549	 9.76607115573912E-02 
550	 9.77075819380911E-02 
551	 9.78077282939171E-02 
552	 9.79423198285642E-02 
553	 9.79475181190952E-02 
554	 9.79531691849546E-02 
555	 0.098012018309536 
556	 9.81284658476794E-02 
557	 9.82589073100099E-02 
558	 9.83766496803349E-02 
559	 9.84815753891302E-02 
560	 9.86200445515565E-02 
561	 9.86664980339687E-02 
562	 9.87328616514778E-02 
563	 9.89499239531501E-02 
564	 9.90763634322208E-02 
565	 0.099147950808781 
566	 9.92010766841981E-02 
567	 9.92544701669221E-02 
568	 9.94825229814692E-02 
569	 9.97377548283864E-02 
570	 0.099882691380786 
571	 0.100095814713366 
572	 0.100292422520584 
573	 0.100489634409523 
574	 0.100761190993923 
575	 0.100909262436253 
576	 0.101074433499542 
577	 0.101332821469877 
578	 0.101500170199067 
579	 0.101665998587995 
580	 0.101835699490701 
581	 0.101985854497206 
582	 0.102125071854653 
583	 0.102288647719086 
584	 0.102479927890253 
585	 0.102653205053706 
586	 0.102912038725199 
587	 0.10318728146962 
588	 0.103392602748372 
589	 0.103610194438735 
590	 0.103811288914093 
591	 0.104024437955472 
592	 0.104325407448629 
593	 0.104577770202192 
594	 0.10481427008974 
595	 0.105067253832864 
596	 0.105275691374003 
597	 0.105460160063386 
598	 0.105592376049403 
599	 0.105639821014343 
600	 0.105756127919884 
601	 0.105925306509668 
602	 0.106087035709894 
603	 0.106134098401157 
604	 0.10623225946444 
605	 0.106379135716551 
606	 0.106512145152587 
607	 0.106596188840746 
608	 0.106712803173114 
609	 0.106878500581378 
610	 0.107027929678781 
611	 0.107117268803833 
612	 0.107199002257481 
613	 0.107305264101585 
614	 0.107304699599004 
615	 0.107323476083988 
616	 0.107376520281598 
617	 0.10740604050348 
618	 0.107508533383728 
619	 0.107560787695372 
620	 0.107511859455578 
621	 0.107527217420153 
622	 0.107594120332252 
623	 0.107645153265142 
624	 0.107616327358528 
625	 0.107671198544562 
626	 0.107732352591113 
627	 0.107752956582732 
628	 0.107751899210696 
629	 0.107759455248114 
630	 0.107799595151522 
631	 0.107861769284854 
632	 0.107811639438114 
633	 0.107812675240116 
634	 0.107862699146856 
635	 0.107827527011844 
636	 0.107810054011162 
637	 0.107806278219959 
638	 0.107805001174434 
639	 0.107823506384193 
640	 0.107848612398474 
641	 0.107865456923097 
642	 0.107866146337027 
643	 0.107905869413537 
644	 0.107917593750062 
645	 0.107879057847902 
646	 0.107846907030082 
647	 0.107866514937796 
648	 0.107885607520799 
649	 0.107854609896581 
650	 0.107874336701272 
651	 0.107895483905216 
652	 0.107891929378169 
653	 0.107866873492308 
654	 0.107922986225552 
655	 0.107928242339197 
656	 0.107832124104296 
657	 0.10790034961654 
658	 0.107958093581045 
659	 0.107961384790211 
660	 0.10793589745237 
661	 0.107944211989362 
662	 0.107975052942836 
663	 0.108008494708313 
664	 0.10802461619067 
665	 0.108033749443578 
666	 0.108039798221283 
667	 0.108047861136456 
668	 0.108071768216187 
669	 0.108112692947207 
670	 0.108148798500544 
671	 0.108145562889832 
672	 0.108177539606091 
673	 0.108219709472422 
674	 0.108252051944431 
675	 0.108314210731468 
676	 0.10835171527579 
677	 0.10834044727916 
678	 0.108291741116115 
679	 0.108343696292547 
680	 0.108405870305954 
681	 0.108442831081993 
682	 0.108517533339137 
683	 0.108574646571945 
684	 0.108597221725913 
685	 0.108595669128275 
686	 0.108631378391145 
687	 0.108704606698497 
688	 0.108794863432801 
689	 0.108865763484724 
690	 0.108880996066711 
691	 0.108890578921782 
692	 0.108925333798203 
693	 0.108950801147693 
694	 0.108986860724162 
695	 0.109030153787298 
696	 0.109066277989063 
697	 0.109066856091509 
698	 0.109079320531942 
699	 0.109123306495413 
700	 0.109184118240632 
701	 0.109270313600377 
702	 0.109321670698457 
703	 0.109309229302876 
704	 0.109324155292798 
705	 0.109357104276449 
706	 0.109391371726953 
707	 0.109407518764076 
708	 0.109412404247063 
709	 0.109448919865672 
710	 0.109513896498244 
711	 0.109533545717918 
712	 0.109563673770027 
713	 0.109585936880309 
714	 0.109583526479664 
715	 0.109628298505396 
716	 0.109629347540473 
717	 0.109606438243277 
718	 0.109650832736959 
719	 0.109657273870351 
720	 0.109660260546686 
721	 0.109679196421382 
722	 0.109661408818473 
723	 0.109679761683723 
724	 0.10971976033603 
725	 0.109735586083949 
726	 0.109687198867724 
727	 0.109677433373619 
728	 0.109706727093159 
729	 0.109680175853572 
730	 0.109678731954788 
731	 0.109693914338696 
732	 0.109702171907365 
733	 0.109681913290605 
734	 0.10966767549096 
735	 0.109630926378513 
736	 0.109544513009983 
737	 0.109558024346026 
738	 0.109542180245688 
739	 0.109486341393253 
740	 0.109524902875387 
741	 0.109496675859966 
742	 0.109439812157358 
743	 0.109401135647544 
744	 0.109324873118737 
745	 0.109280877803053 
746	 0.109251091386998 
747	 0.109186490655359 
748	 0.10914562347646 
749	 0.109108165069159 
750	 0.109062652703472 
751	 0.109016622336376 
752	 0.108960935611849 
753	 0.108896242594478 
754	 0.108835332386854 
755	 0.108823853129495 
756	 0.108785566472417 
757	 0.108716839565753 
758	 0.108651254312358 
759	 0.108587314477879 
760	 0.108499823941645 
761	 0.108407298339215 
762	 0.108382786458151 
763	 0.108327371470791 
764	 0.108233916620069 
765	 0.108128642829892 
766	 0.108063405922593 
767	 0.10800876579119 
768	 0.10794319683436 
769	 0.107855290178312 
770	 0.107775918127379 
771	 0.107694096863556 
772	 0.107605555817917 
773	 0.107519023670062 
774	 0.107456375348519 
775	 0.107393681334593 
776	 0.107306561201024 
777	 0.107195409922929 
778	 0.10709902170207 
779	 0.107035201820687 
780	 0.106995360155266 
781	 0.106886960106558 
782	 0.106797695210344 
783	 0.10673869844829 
784	 0.106630432667771 
785	 0.106558835499603 
786	 0.106489699734785 
787	 0.106392625153532 
788	 0.106296829314648 
789	 0.106251243338511 
790	 0.106197233515606 
791	 0.106069975892033 
792	 0.10601394722703 
793	 0.105921380685667 
794	 0.105791883407747 
795	 0.105720007706818 
796	 0.105623754256529 
797	 0.105538700077077 
798	 0.105483189698456 
799	 0.105412910570073 
800	 0.105321472875999 
801	 0.105229595106101 
802	 0.105153708642241 
803	 0.105051003058902 
804	 0.104983061642026 
805	 0.104926067253872 
806	 0.104813541845076 
807	 0.104718370384299 
808	 0.104628845971706 
809	 0.104542807986391 
810	 0.104481356230961 
811	 0.104435645002139 
812	 0.104368391819233 
813	 0.104263856938021 
814	 0.10417402901257 
815	 0.104129963700221 
816	 0.104084823860919 
817	 0.103981587425593 
818	 0.103907179837344 
819	 0.103839432165966 
820	 0.103763914534587 
821	 0.10368111298464 
822	 0.103627453206889 
823	 0.103571358677297 
824	 0.103504131172187 
825	 0.103472029182792 
826	 0.10341914347412 
827	 0.103351795604715 
828	 0.103286265365759 
829	 0.10321098311301 
830	 0.103134512821635 
831	 0.103067505002105 
832	 0.103016926354528 
833	 0.102967522113988 
834	 0.102893456157963 
835	 0.102813871939102 
836	 0.102784091342966 
837	 0.102755925831454 
838	 0.102703261390602 
839	 0.10261708209804 
840	 0.102508520704632 
841	 0.102454698473337 
842	 0.102452310846082 
843	 0.10246212854856 
844	 0.102420108636738 
845	 0.102375190181099 
846	 0.102335334787057 
847	 0.102284466180783 
848	 0.102186565729474 
849	 0.102110510576745 
850	 0.102070539535547 
851	 0.102027397551172 
852	 0.101965404397107 
853	 0.10190589560184 
854	 0.101871204920979 
855	 0.101874432405607 
856	 0.101879803417364 
857	 0.101870502455524 
858	 0.101836997152207 
859	 0.101769042344327 
860	 0.101721484692153 
861	 0.101693007900933 
862	 0.101660287145838 
863	 0.101610246429678 
864	 0.101555158622118 
865	 0.101508477880233 
866	 0.101483286301379 
867	 0.10149573953613 
868	 0.101486201948282 
869	 0.101437986792074 
870	 0.101389693354567 
871	 0.10141747614869 
872	 0.101415306236767 
873	 0.101347748172627 
874	 0.101339818530437 
875	 0.101311464528034 
876	 0.101283788251031 
877	 0.101278478556852 
878	 0.101256080339377 
879	 0.10122121077276 
880	 0.101207307275113 
881	 0.10123500246546 
882	 0.101234580281674 
883	 0.101197603920633 
884	 0.101141479672314 
885	 0.101101515495594 
886	 0.101121754719628 
887	 0.101122334167202 
888	 0.10110132085515 
889	 0.101122546278111 
890	 0.101126676549862 
891	 0.101127404644369 
892	 0.101135915716853 
893	 0.101145685417772 
894	 0.10108330673643 
895	 0.101024336584048 
896	 0.101031060703053 
897	 0.101086834323394 
898	 0.10108867388757 
899	 0.101068259410133 
900	 0.101068913167227 
901	 0.101053052819615 
902	 0.101093853834302 
903	 0.101118340811099 
904	 0.101066269427 
905	 0.101123565546488 
906	 0.101142400635376 
907	 0.101134596664691 
908	 0.101173914332442 
909	 0.101217288876855 
910	 0.101205104830082 
911	 0.101167366217344 
912	 0.101179726819977 
913	 0.101179922034104 
914	 0.101217401280014 
915	 0.101264093247676 
916	 0.101234421261008 
917	 0.101237246785407 
918	 0.101258019986475 
919	 0.101276327190114 
920	 0.1012856797358 
921	 0.101307559535715 
922	 0.10131436543604 
923	 0.101322452947613 
924	 0.101415682378288 
925	 0.101484527719822 
926	 0.101527578372901 
927	 0.101533758865189 
928	 0.101431646340801 
929	 0.101458856664806 
930	 0.101560629205749 
931	 0.101631098834937 
932	 0.101642316790249 
933	 0.101638710325198 
934	 0.101618984537302 
935	 0.101599189854214 
936	 0.101689591150229 
937	 0.101715891291999 
938	 0.101707771874627 
939	 0.101740912774966 
940	 0.101783046993574 
941	 0.101860227400448 
942	 0.101946314606343 
943	 0.101997234177482 
944	 0.101984485044281 
945	 0.101996470496189 
946	 0.102040177327822 
947	 0.102082133213743 
948	 0.102108526905629 
949	 0.102152577754944 
950	 0.10219932236823 
951	 0.102218382056392 
952	 0.102241658948204 
953	 0.102238023663942 
954	 0.102227375333732 
955	 0.102255584204244 
956	 0.102331113164014 
957	 0.102436040108564 
958	 0.10249857263771 
959	 0.102461512919075 
960	 0.102508879936271 
961	 0.102535125829114 
962	 0.102551283648468 
963	 0.10262905579103 
964	 0.102653535242957 
965	 0.102727923950934 
966	 0.102796795527489 
967	 0.102751661844681 
968	 0.102891642067426 
969	 0.10295278946392 
970	 0.102890133485192 
971	 0.10284240085823 
972	 0.102885137435927 
973	 0.102906638126882 
974	 0.102929553309791 
975	 0.103053809189117 
976	 0.103222929166712 
977	 0.10328434331532 
978	 0.103199763100848 
979	 0.103062280640586 
980	 0.103160597312691 
981	 0.103231582176782 
982	 0.103216713256446 
983	 0.103212249032451 
984	 0.103244851023627 
985	 0.10328075066867 
986	 0.103353897355063 
987	 0.103496821819545 
988	 0.103544748268296 
989	 0.103544747511403 
990	 0.103530362660716 
991	 0.103523888376057 
992	 0.103540254182789 
993	 0.10366592510298 
994	 0.103737270407569 
995	 0.103615389511373 
996	 0.10371933236426 
997	 0.103790701481746 
998	 0.103768551462526 
999	 0.103732257684368 
1000	 0.103917820463329 
1001	 0.102353963086164 
1002	 0.102378667197972 
1003	 0.102428989462324 
1004	 0.102445109325769 
1005	 0.102443442117408 
1006	 0.102445298107879 
1007	 0.10243582986132 
1008	 0.102379937686695 
1009	 0.102416466109295 
1010	 0.102439327308754 
1011	 0.102407876637448 
1012	 0.102458386155273 
1013	 0.102488072119764 
1014	 0.102469438955386 
1015	 0.102519492839961 
1016	 0.102535862025259 
1017	 0.102535149035884 
1018	 0.10251545954844 
1019	 0.102518065279578 
1020	 0.102436977502017 
1021	 0.102382677189979 
1022	 0.102408906083817 
1023	 0.102428448279265 
1024	 0.102452881804485 
1025	 0.102478325460282 
1026	 0.10248763722801 
1027	 0.102484858895588 
1028	 0.102526980760593 
1029	 0.102606230996365 
1030	 0.102638168236635 
1031	 0.10263688247924 
1032	 0.102595646481704 
1033	 0.10254432246739 
1034	 0.102508172373649 
1035	 0.102438846965522 
1036	 0.102341098840836 
1037	 0.102339621803891 
1038	 0.102367284816777 
1039	 0.102356723118104 
1040	 0.10236761642346 
1041	 0.102362810952621 
1042	 0.102347918579182 
1043	 0.102378179800657 
1044	 0.102387106507823 
1045	 0.102441203075632 
1046	 0.102443226271584 
1047	 0.102388203013046 
1048	 0.102333841082881 
1049	 0.102326790013848 
1050	 0.102316705836844 
1051	 0.102285158580364 
1052	 0.102281427460537 
1053	 0.102288249919852 
1054	 0.102299027311034 
1055	 0.102345088976189 
1056	 0.102403880408279 
1057	 0.102427100973332 
1058	 0.102403518856166 
1059	 0.102424357992626 
1060	 0.102462558048251 
1061	 0.10247367806977 
1062	 0.102472031681331 
1063	 0.102503390101487 
1064	 0.102536860779436 
1065	 0.102545989319438 
1066	 0.102567539229217 
1067	 0.102563246858396 
1068	 0.102531562714733 
1069	 0.102529849539995 
1070	 0.102531780713257 
1071	 0.102565287040519 
1072	 0.102579266744936 
1073	 0.102572871640066 
1074	 0.102573898750586 
1075	 0.102573689839282 
1076	 0.10259855717606 
1077	 0.102585496850872 
1078	 0.102588106101391 
1079	 0.102581808776814 
1080	 0.102520374883225 
1081	 0.102500988777043 
1082	 0.102519694151064 
1083	 0.102509876159463 
1084	 0.102501437882095 
1085	 0.102493741667581 
1086	 0.102474997693006 
1087	 0.102443928166188 
1088	 0.102397948300434 
1089	 0.102388640886623 
1090	 0.102366018214917 
1091	 0.1023138926995 
1092	 0.102320218522945 
1093	 0.102320390981102 
1094	 0.102308836339684 
1095	 0.102360080141574 
1096	 0.102339994379235 
1097	 0.10229090561531 
1098	 0.102267490653081 
1099	 0.102212414152846 
1100	 0.102191714307012 
1101	 0.102224547290447 
1102	 0.102220610129686 
1103	 0.102209648722706 
1104	 0.102204844972693 
1105	 0.102146057396627 
1106	 0.102075439614507 
1107	 0.102025762560996 
1108	 0.101999887770427 
1109	 0.102035981564871 
1110	 0.102067187378861 
1111	 0.102062002714413 
1112	 0.102046162860393 
1113	 0.102020970636582 
1114	 0.101946783678571 
1115	 0.101923568764224 
1116	 0.101925046010415 
1117	 0.101916476955941 
1118	 0.101915055593681 
1119	 0.101923498259803 
1120	 0.101929802878639 
1121	 0.101932652991786 
1122	 0.101921670662365 
1123	 0.101928366902923 
1124	 0.101925170818167 
1125	 0.10190851928724 
1126	 0.101899528837465 
1127	 0.101904777385108 
1128	 0.101882298612463 
1129	 0.10183455733017 
1130	 0.101814709927706 
1131	 0.101790210522079 
1132	 0.101780127488202 
1133	 0.101807376904078 
1134	 0.101802802740682 
1135	 0.101788058910355 
1136	 0.101766526169675 
1137	 0.101724704881473 
1138	 0.101702018517481 
1139	 0.101687523497847 
1140	 0.101685360214932 
1141	 0.101673924558055 
1142	 0.101673446950528 
1143	 0.101657699209971 
1144	 0.101620549836892 
1145	 0.101604820081431 
1146	 0.101601941440481 
1147	 0.101586914024318 
1148	 0.101584394776805 
1149	 0.101566953010457 
1150	 0.101535034354631 
1151	 0.101490398014661 
1152	 0.10146768081429 
1153	 0.101450610880711 
1154	 0.101418088171599 
1155	 0.101385384808481 
1156	 0.101352256138684 
1157	 0.101297140877287 
1158	 0.101269933728262 
1159	 0.1012679415138 
1160	 0.101249761091686 
1161	 0.101234773894726 
1162	 0.101214071576621 
1163	 0.101179932061642 
1164	 0.101155270763124 
1165	 0.101142699897877 
1166	 0.101117179184593 
1167	 0.101077382099025 
1168	 0.10105758647234 
1169	 0.101029697004247 
1170	 0.100986021550355 
1171	 0.100969668479953 
1172	 0.100976023210091 
1173	 0.100961867406809 
1174	 0.10095020644695 
1175	 0.100937597858827 
1176	 0.10090871011793 
1177	 0.100895019255598 
1178	 0.100902845557635 
1179	 0.100892122568615 
1180	 0.100868596079956 
1181	 0.100855454028316 
1182	 0.100843436804916 
1183	 0.100826326328968 
1184	 0.100808241991169 
1185	 0.100794017228391 
1186	 0.100784467909959 
1187	 0.100764811745376 
1188	 0.100761838467881 
1189	 0.10078966246784 
1190	 0.100781384236184 
1191	 0.100748725606783 
1192	 0.100740144881415 
1193	 0.1007270587583 
1194	 0.100718430810619 
1195	 0.100742679054612 
1196	 0.100738748013234 
1197	 0.100704649057674 
1198	 0.100684609936756 
1199	 0.100665260142175 
1200	 0.100640590687675 
1201	 0.10062157952889 
1202	 0.100609758401656 
1203	 0.100599491518939 
1204	 0.100585406053515 
1205	 0.100580591487495 
1206	 0.10059366948271 
1207	 0.100587982535686 
1208	 0.100571714119886 
1209	 0.100564872583279 
1210	 0.100558205608204 
1211	 0.100546230683042 
1212	 0.100535415733012 
1213	 0.100527557954039 
1214	 0.100511845525094 
1215	 0.100500421137016 
1216	 0.100492896707991 
1217	 0.100499293135523 
1218	 0.100487145671323 
1219	 0.100466505527221 
1220	 0.100450024720864 
1221	 0.100427043211204 
1222	 0.100408668844207 
1223	 0.10039822482594 
1224	 0.100377747322997 
1225	 0.100345440398664 
1226	 0.100326394917757 
1227	 0.100301655770499 
1228	 0.100291597954233 
1229	 0.100318862778971 
1230	 0.10031081353518 
1231	 0.100279929053652 
1232	 0.100263120253406 
1233	 0.100243543314766 
1234	 0.100203535966154 
1235	 0.100183386475196 
1236	 0.100185275844309 
1237	 0.100171039348836 
1238	 0.100141958088373 
1239	 0.100131910584224 
1240	 0.100138010673009 
1241	 0.100127999456296 
1242	 0.100119760026643 
1243	 0.100106475082126 
1244	 0.100078636622717 
1245	 0.100057533976565 
1246	 0.100038277063177 
1247	 0.100022516722533 
1248	 0.1000174203021 
1249	 9.99953353171118E-02 
1250	 9.99774648065563E-02 
1251	 9.99558656045216E-02 
1252	 9.99314848089929E-02 
1253	 0.099896643719779 
1254	 9.98706991499835E-02 
1255	 9.98498882495562E-02 
1256	 9.98234073256389E-02 
1257	 0.099796497584189 
1258	 9.97663227276175E-02 
1259	 9.97357511962103E-02 
1260	 0.09969905442958 
1261	 9.96448684203693E-02 
1262	 9.96129677736345E-02 
1263	 9.95951754797722E-02 
1264	 9.95652183933084E-02 
1265	 9.95513241497047E-02 
1266	 9.95234309679575E-02 
1267	 9.94746300397295E-02 
1268	 9.94239309183681E-02 
1269	 9.93879266250521E-02 
1270	 9.93544228431822E-02 
1271	 9.93287131414908E-02 
1272	 9.93142611663974E-02 
1273	 9.92961863758877E-02 
1274	 0.099278873219388 
1275	 9.92667469560891E-02 
1276	 9.92563530843968E-02 
1277	 9.92530674527704E-02 
1278	 9.92571195700666E-02 
1279	 9.92617044907975E-02 
1280	 9.92749899288568E-02 
1281	 9.92824036676938E-02 
1282	 9.92843744502989E-02 
1283	 9.92934166821889E-02 
1284	 9.93064269093887E-02 
1285	 9.93127971185008E-02 
1286	 9.93312482903824E-02 
1287	 0.099366566257581 
1288	 9.93866488523864E-02 
1289	 9.94020644713547E-02 
1290	 0.099428767840868 
1291	 9.94537226246582E-02 
1292	 9.94805987019617E-02 
1293	 9.95267809154499E-02 
1294	 9.95509746379069E-02 
1295	 9.95631299600308E-02 
1296	 9.95743185107834E-02 
1297	 9.95772963183072E-02 
1298	 9.95797553136813E-02 
1299	 0.099571745522746 
1300	 9.95734062230483E-02 
1301	 9.95849716152079E-02 
1302	 9.95829565435365E-02 
1303	 9.95796698353556E-02 
1304	 9.95830361355502E-02 
1305	 0.099541170015973 
1306	 9.94955680057435E-02 
1307	 9.94576137779799E-02 
1308	 9.94183599336255E-02 
1309	 9.93848116267866E-02 
1310	 9.93618026800049E-02 
1311	 9.93432701254598E-02 
1312	 9.93269045169061E-02 
1313	 9.93038897369701E-02 
1314	 9.93036106736534E-02 
1315	 9.92706854076753E-02 
1316	 9.91973155231743E-02 
1317	 9.91594110842839E-02 
1318	 9.91364265530543E-02 
1319	 9.90947813784661E-02 
1320	 9.90574041891906E-02 
1321	 9.90216388275639E-02 
1322	 9.89843314958048E-02 
1323	 0.098918121384476 
1324	 9.88736027045932E-02 
1325	 0.098844117608425 
1326	 9.88012038643227E-02 
1327	 9.87626853840512E-02 
1328	 9.87234290683627E-02 
1329	 9.86714820880924E-02 
1330	 9.86292988446339E-02 
1331	 9.85823110098187E-02 
1332	 0.098544317869886 
1333	 9.85135222214642E-02 
1334	 0.098487589979266 
1335	 9.84684207273542E-02 
1336	 9.84404248205404E-02 
1337	 9.84170481701947E-02 
1338	 9.83884729302066E-02 
1339	 9.83443424978928E-02 
1340	 9.83145165185005E-02 
1341	 9.83010286337904E-02 
1342	 9.82730510229903E-02 
1343	 0.098241528128671 
1344	 0.098209930014504 
1345	 9.81693749583376E-02 
1346	 9.81370570911352E-02 
1347	 9.81172961823592E-02 
1348	 9.81059997764003E-02 
1349	 9.81032601382608E-02 
1350	 9.80853148021104E-02 
1351	 9.80658866038973E-02 
1352	 9.80420039362117E-02 
1353	 9.80222365749967E-02 
1354	 0.097997638153899 
1355	 9.79787862832418E-02 
1356	 9.79677903004862E-02 
1357	 9.79472905121137E-02 
1358	 9.79173029887441E-02 
1359	 9.78997316483531E-02 
1360	 9.78933088828241E-02 
1361	 9.78719455175919E-02 
1362	 9.78485871157256E-02 
1363	 9.78272733243575E-02 
1364	 9.77992812238987E-02 
1365	 9.77639702666805E-02 
1366	 9.77307487437662E-02 
1367	 9.76960474765667E-02 
1368	 9.76403157023574E-02 
1369	 9.75978308263101E-02 
1370	 9.75498352393172E-02 
1371	 9.74866678256954E-02 
1372	 9.74384457870619E-02 
1373	 0.097394463490934 
1374	 9.73498052497637E-02 
1375	 9.73165070826499E-02 
1376	 9.72765026111132E-02 
1377	 9.72320080252997E-02 
1378	 9.71828741714759E-02 
1379	 9.71389339537272E-02 
1380	 9.70838090934913E-02 
1381	 9.70185972054018E-02 
1382	 0.096950377984287 
1383	 9.68761103831028E-02 
1384	 9.67974287695921E-02 
1385	 9.67067683065666E-02 
1386	 0.096627031435419 
1387	 9.65556727683273E-02 
1388	 9.64759496358671E-02 
1389	 9.64055034119191E-02 
1390	 9.63161339404546E-02 
1391	 9.62080954025447E-02 
1392	 9.61122619083655E-02 
1393	 9.60039575590734E-02 
1394	 9.58735062451503E-02 
1395	 9.57435818319721E-02 
1396	 9.56039068609124E-02 
1397	 9.54691897841861E-02 
1398	 9.53319281440158E-02 
1399	 9.51979323745702E-02 
1400	 9.50667117206111E-02 
1401	 9.49319188489238E-02 
1402	 9.48029747768742E-02 
1403	 9.46594785625078E-02 
1404	 9.45002978778959E-02 
1405	 9.43596596936944E-02 
1406	 9.42113349621995E-02 
1407	 9.40752447688431E-02 
1408	 9.39661915840575E-02 
1409	 9.38381129347109E-02 
1410	 0.093695641797148 
1411	 9.35708101606765E-02 
1412	 9.34465195386998E-02 
1413	 0.093326416179322 
1414	 9.32349652053506E-02 
1415	 9.31493593386375E-02 
1416	 9.30532029771209E-02 
1417	 0.09295877411676 
1418	 0.092864045354744 
1419	 9.27671444558861E-02 
1420	 9.27039292744218E-02 
1421	 9.26641872622786E-02 
1422	 9.26123192443376E-02 
1423	 9.25539997572689E-02 
1424	 9.24944599105566E-02 
1425	 9.24192643817246E-02 
1426	 0.092357614282381 
1427	 0.092301794052623 
1428	 9.22539816128877E-02 
1429	 9.22087262653021E-02 
1430	 9.21666515102044E-02 
1431	 9.21380369545411E-02 
1432	 9.21033153776513E-02 
1433	 9.20656838490491E-02 
1434	 9.20300426207308E-02 
1435	 9.19941757538889E-02 
1436	 9.19595411409765E-02 
1437	 9.19206386847193E-02 
1438	 9.18935472433065E-02 
1439	 9.18768841640291E-02 
1440	 0.091855997659261 
1441	 9.18371288568435E-02 
1442	 9.18227456593421E-02 
1443	 9.17906308113201E-02 
1444	 9.17650694423192E-02 
1445	 9.17517022868658E-02 
1446	 9.17341958594829E-02 
1447	 9.17219339320888E-02 
1448	 9.16942656071528E-02 
1449	 9.16609417092216E-02 
1450	 9.16444564160708E-02 
1451	 9.16321608514072E-02 
1452	 9.16348060577795E-02 
1453	 9.16298444863628E-02 
1454	 9.16293216845979E-02 
1455	 0.091615742267989 
1456	 9.15921290189568E-02 
1457	 9.15784300324939E-02 
1458	 0.091564843586084 
1459	 9.15467657726443E-02 
1460	 9.15285821408886E-02 
1461	 9.15147225333065E-02 
1462	 0.091494814078352 
1463	 9.14834187365488E-02 
1464	 9.14824478398982E-02 
1465	 9.14826191988631E-02 
1466	 9.14837066401063E-02 
1467	 9.14877700897404E-02 
1468	 9.14970371157958E-02 
1469	 9.15055095068844E-02 
1470	 9.15176245477435E-02 
1471	 9.15234383167567E-02 
1472	 9.15288204877247E-02 
1473	 9.15510189592666E-02 
1474	 9.15727157208438E-02 
1475	 9.15928995901636E-02 
1476	 9.16147581038835E-02 
1477	 9.16283457308327E-02 
1478	 9.16364259682677E-02 
1479	 9.16505153794658E-02 
1480	 9.16790754366824E-02 
1481	 9.17019792690422E-02 
1482	 9.17104524796449E-02 
1483	 9.17106046030967E-02 
1484	 9.17217783389749E-02 
1485	 9.17206649646362E-02 
1486	 0.091730450284092 
1487	 9.17583183209862E-02 
1488	 9.17787431142493E-02 
1489	 9.17937304203876E-02 
1490	 9.18077424369738E-02 
1491	 9.18228500449886E-02 
1492	 9.18412807185673E-02 
1493	 9.18586021101383E-02 
1494	 0.091873449853338 
1495	 9.18935085033393E-02 
1496	 9.19097430949216E-02 
1497	 0.091920148101008 
1498	 9.19299009202692E-02 
1499	 9.19428829805721E-02 
1500	 9.19534766366043E-02 
1501	 9.19563372902202E-02 
1502	 0.091959319806374 
1503	 9.19628539819966E-02 
1504	 9.19635119110941E-02 
1505	 9.19741355837123E-02 
1506	 9.19952147561443E-02 
1507	 9.20118026402379E-02 
1508	 9.20309749706704E-02 
1509	 9.20459944370792E-02 
1510	 9.20401367076154E-02 
1511	 9.20343843853298E-02 
1512	 9.20395596824481E-02 
1513	 9.20256463913655E-02 
1514	 9.20219642657787E-02 
1515	 9.20365557303727E-02 
1516	 9.20294027192699E-02 
1517	 9.20308192193341E-02 
1518	 9.20397988985215E-02 
1519	 9.20396172952634E-02 
1520	 0.092032299222636 
1521	 9.20323231673097E-02 
1522	 9.20304741171581E-02 
1523	 9.20316325804948E-02 
1524	 9.20422396509055E-02 
1525	 9.20400924311622E-02 
1526	 9.20308695636848E-02 
1527	 9.20283215748698E-02 
1528	 9.20204652641138E-02 
1529	 9.20164518212916E-02 
1530	 9.20189774254139E-02 
1531	 9.20204582471125E-02 
1532	 0.092017308997237 
1533	 9.20211712890053E-02 
1534	 9.20349970771021E-02 
1535	 9.20408255350888E-02 
1536	 9.20466923697722E-02 
1537	 9.20495947686393E-02 
1538	 9.20480977561723E-02 
1539	 9.20465715909387E-02 
1540	 0.092044684978318 
1541	 9.20413207095539E-02 
1542	 9.20305449504243E-02 
1543	 9.20267819758024E-02 
1544	 9.20289530461359E-02 
1545	 9.20254611863465E-02 
1546	 9.20187993683452E-02 
1547	 9.20248149159292E-02 
1548	 9.20131109825841E-02 
1549	 9.20034296864491E-02 
1550	 9.20048758062136E-02 
1551	 9.20032225760341E-02 
1552	 9.20162736001601E-02 
1553	 9.20208459172521E-02 
1554	 9.19939528104923E-02 
1555	 9.19747943530673E-02 
1556	 9.19647125473061E-02 
1557	 9.19407479264035E-02 
1558	 9.19338877928021E-02 
1559	 9.19342895097873E-02 
1560	 9.19318770676605E-02 
1561	 9.19222991634682E-02 
1562	 9.19188689937261E-02 
1563	 9.19266728876876E-02 
1564	 9.19220520970826E-02 
1565	 9.19089648519704E-02 
1566	 9.18995642287254E-02 
1567	 9.18892285185789E-02 
1568	 9.18765238471208E-02 
1569	 9.18605029037104E-02 
1570	 9.18500243818569E-02 
1571	 9.18439497687211E-02 
1572	 9.18322724837551E-02 
1573	 9.18218644812178E-02 
1574	 0.091804077582728 
1575	 9.17762102794793E-02 
1576	 9.17566291902632E-02 
1577	 0.091730573344161 
1578	 9.17219936064251E-02 
1579	 9.17341792278697E-02 
1580	 9.17267654835217E-02 
1581	 9.17236439936832E-02 
1582	 9.17123542066718E-02 
1583	 9.16756989066111E-02 
1584	 9.16578394868981E-02 
1585	 9.16513488279128E-02 
1586	 9.16409058982045E-02 
1587	 9.16367931922748E-02 
1588	 9.16269930090669E-02 
1589	 9.16163092180924E-02 
1590	 0.091600374059028 
1591	 9.15745540474033E-02 
1592	 0.091559636941299 
1593	 9.15445768112932E-02 
1594	 9.15320469544146E-02 
1595	 9.15269054417333E-02 
1596	 9.15232011110377E-02 
1597	 9.15234525349192E-02 
1598	 9.15180687063542E-02 
1599	 9.15255548905915E-02 
1600	 9.15112361725398E-02 
1601	 9.14630197991137E-02 
1602	 9.14425943974571E-02 
1603	 9.14280012144288E-02 
1604	 9.14109992532662E-02 
1605	 9.14259711254462E-02 
1606	 9.14133210172894E-02 
1607	 9.13775639202353E-02 
1608	 9.13366081251821E-02 
1609	 9.12959390684429E-02 
1610	 9.12597555375742E-02 
1611	 9.12473065906973E-02 
1612	 9.12290017540369E-02 
1613	 9.12066642665395E-02 
1614	 9.11831116315474E-02 
1615	 9.11554095036046E-02 
1616	 9.11453918081638E-02 
1617	 0.091128815803987 
1618	 9.11086961118399E-02 
1619	 9.11034075802997E-02 
1620	 0.091086712079302 
1621	 9.10814890182117E-02 
1622	 9.10967067677853E-02 
1623	 9.10841255389803E-02 
1624	 9.10646715748776E-02 
1625	 9.10281342649232E-02 
1626	 9.09671708668076E-02 
1627	 9.09301837705461E-02 
1628	 9.08837170003446E-02 
1629	 9.08649996027774E-02 
1630	 9.08733239772136E-02 
1631	 9.08634326387254E-02 
1632	 9.08613252519275E-02 
1633	 9.08458696323577E-02 
1634	 9.08178176066412E-02 
1635	 9.07994924264161E-02 
1636	 9.07713527998856E-02 
1637	 9.07712957814819E-02 
1638	 9.07997265290429E-02 
1639	 9.07872122506087E-02 
1640	 9.07780613847545E-02 
1641	 9.07501442471836E-02 
1642	 9.06784829389249E-02 
1643	 9.06442800964311E-02 
1644	 0.090628256054926 
1645	 9.06003438860553E-02 
1646	 9.05722803452276E-02 
1647	 9.05488222570652E-02 
1648	 9.05199642455823E-02 
1649	 9.05027705187204E-02 
1650	 9.05000755291415E-02 
1651	 9.04870807741751E-02 
1652	 9.04793778205784E-02 
1653	 9.04574955180076E-02 
1654	 9.04265439692337E-02 
1655	 9.03943882895781E-02 
1656	 9.03501445988228E-02 
1657	 9.03152892039751E-02 
1658	 9.02772912826258E-02 
1659	 9.02521108923052E-02 
1660	 9.02363521195681E-02 
1661	 0.090219578201407 
1662	 9.02167094610004E-02 
1663	 9.01975376305622E-02 
1664	 9.01726398042794E-02 
1665	 9.01435056974072E-02 
1666	 9.00964675942038E-02 
1667	 9.00716300181956E-02 
1668	 9.00591912268956E-02 
1669	 9.00354014886884E-02 
1670	 9.00256473946787E-02 
1671	 8.99933358965476E-02 
1672	 8.99332325489612E-02 
1673	 8.98950859811634E-02 
1674	 8.98518776374647E-02 
1675	 8.98273112111927E-02 
1676	 8.98257855823167E-02 
1677	 8.98108517399674E-02 
1678	 8.98035854215483E-02 
1679	 8.97847134979361E-02 
1680	 0.089748478296035 
1681	 8.97295590938463E-02 
1682	 0.089712773010204 
1683	 8.97026394792012E-02 
1684	 8.97148327539287E-02 
1685	 8.97006610663434E-02 
1686	 8.96738334104047E-02 
1687	 8.96516108834468E-02 
1688	 8.96107886408054E-02 
1689	 8.95921109063236E-02 
1690	 8.95953843282255E-02 
1691	 8.95795185703429E-02 
1692	 0.089570773004703 
1693	 8.95391719775578E-02 
1694	 8.94812844716093E-02 
1695	 8.94396890771733E-02 
1696	 8.93869229296377E-02 
1697	 8.93526430387682E-02 
1698	 0.089337767028392 
1699	 8.93108670640796E-02 
1700	 0.089292436309374 
1701	 8.92585551112827E-02 
1702	 8.92003706590312E-02 
1703	 8.91731585504053E-02 
1704	 8.91561355571665E-02 
1705	 8.91342808432792E-02 
1706	 8.91349371347816E-02 
1707	 8.91152068016482E-02 
1708	 8.90804363061885E-02 
1709	 8.90459459234707E-02 
1710	 8.90013571056971E-02 
1711	 8.89683862514873E-02 
1712	 8.89429157216952E-02 
1713	 8.89022916471558E-02 
1714	 8.88549352501271E-02 
1715	 8.88244353205815E-02 
1716	 8.87902012117923E-02 
1717	 8.87523132346451E-02 
1718	 8.87225218359522E-02 
1719	 8.87066835653636E-02 
1720	 8.86917180557539E-02 
1721	 8.86732631323404E-02 
1722	 8.86849562192038E-02 
1723	 8.86587752884065E-02 
1724	 8.85932037621446E-02 
1725	 8.85500346517468E-02 
1726	 8.85079659716016E-02 
1727	 8.84647394295728E-02 
1728	 8.84217985766221E-02 
1729	 8.83880652435012E-02 
1730	 8.83526113104573E-02 
1731	 8.83309999350866E-02 
1732	 8.83371113107937E-02 
1733	 8.83040002315736E-02 
1734	 8.82577620649631E-02 
1735	 8.82109513532767E-02 
1736	 8.81381716941139E-02 
1737	 8.80894155912063E-02 
1738	 8.80497119208804E-02 
1739	 0.088022933026403 
1740	 8.80140135763513E-02 
1741	 0.087976522248355 
1742	 8.79360491777703E-02 
1743	 8.78982861677334E-02 
1744	 0.087843775129847 
1745	 0.087801356098913 
1746	 8.77762274385551E-02 
1747	 8.77344657260731E-02 
1748	 8.76797796638577E-02 
1749	 8.76238093602515E-02 
1750	 8.75988575067702E-02 
1751	 8.75881106755081E-02 
1752	 8.75633548926767E-02 
1753	 8.75294879773712E-02 
1754	 8.74666193373049E-02 
1755	 8.74186460899525E-02 
1756	 8.73863429867631E-02 
1757	 8.73420206523253E-02 
1758	 8.73299302703457E-02 
1759	 8.73125250485243E-02 
1760	 8.72646525690153E-02 
1761	 8.72272324248274E-02 
1762	 8.71913185202162E-02 
1763	 8.71265700433278E-02 
1764	 8.70596308519742E-02 
1765	 8.70252370419194E-02 
1766	 8.69985570387696E-02 
1767	 8.69546647671143E-02 
1768	 8.69271489445341E-02 
1769	 8.68936674101539E-02 
1770	 8.68416544428455E-02 
1771	 8.68232193762473E-02 
1772	 8.67985609523882E-02 
1773	 8.67594498798892E-02 
1774	 8.67167639135173E-02 
1775	 8.66759469365797E-02 
1776	 8.66434232044675E-02 
1777	 8.66175670490665E-02 
1778	 0.086613287396823 
1779	 8.65762708906396E-02 
1780	 8.65333928482295E-02 
1781	 8.65024665612291E-02 
1782	 8.64572274626878E-02 
1783	 8.64489576664987E-02 
1784	 8.64111398631887E-02 
1785	 8.63247822324729E-02 
1786	 8.62919583081359E-02 
1787	 8.62984570443337E-02 
1788	 8.62728508755383E-02 
1789	 8.62659384575821E-02 
1790	 8.62451296798458E-02 
1791	 8.61645368526022E-02 
1792	 8.61346186483478E-02 
1793	 8.61395884716835E-02 
1794	 8.61277391618692E-02 
1795	 8.61403225661379E-02 
1796	 8.61308158293536E-02 
1797	 8.61103059030081E-02 
1798	 8.60945252521276E-02 
1799	 8.60623833881602E-02 
1800	 8.60417925989204E-02 
1801	 8.26817397004007E-02 
1802	 8.26985511287294E-02 
1803	 8.26872255823924E-02 
1804	 8.26691855649891E-02 
1805	 8.27138760289377E-02 
1806	 8.27200816457949E-02 
1807	 8.27222244198808E-02 
1808	 8.27440599616903E-02 
1809	 8.27873889803011E-02 
1810	 8.27907884814179E-02 
1811	 8.27809667434423E-02 
1812	 8.27893177773156E-02 
1813	 8.27762799897266E-02 
1814	 8.27827823745161E-02 
1815	 8.27984712470928E-02 
1816	 8.28002410658093E-02 
1817	 8.28045008554464E-02 
1818	 8.27964533464109E-02 
1819	 8.27907399011625E-02 
1820	 8.27864454427179E-02 
1821	 8.27993278377639E-02 
1822	 8.27647177965939E-02 
1823	 8.27304779928691E-02 
1824	 0.082705766804561 
1825	 8.26656843610108E-02 
1826	 8.26655147236487E-02 
1827	 8.26619724199604E-02 
1828	 8.26588501726728E-02 
1829	 0.082662713012519 
1830	 8.26712403640798E-02 
1831	 8.26872610726606E-02 
1832	 8.26928288732887E-02 
1833	 8.26896395637869E-02 
1834	 0.082662676754395 
1835	 0.082622984594458 
1836	 8.25893559193123E-02 
1837	 8.25582412785255E-02 
1838	 8.25237101993235E-02 
1839	 8.25006994906325E-02 
1840	 8.24881008759835E-02 
1841	 8.24648409827776E-02 
1842	 8.24271844998977E-02 
1843	 8.24016516524381E-02 
1844	 8.23710424030575E-02 
1845	 8.23281389597005E-02 
1846	 8.22870142379531E-02 
1847	 8.22741073100631E-02 
1848	 8.22568471593312E-02 
1849	 8.22145082524677E-02 
1850	 0.082187298964691 
1851	 8.21862382130828E-02 
1852	 8.21525882918822E-02 
1853	 8.20892486282762E-02 
1854	 8.20638528771841E-02 
1855	 8.20258711790562E-02 
1856	 8.19778552255689E-02 
1857	 8.19542047890351E-02 
1858	 8.19173349710676E-02 
1859	 0.081892205053876 
1860	 8.18571539622716E-02 
1861	 8.18332992735933E-02 
1862	 8.17506792388965E-02 
1863	 8.16798007382412E-02 
1864	 8.16208174543203E-02 
1865	 8.15374166762657E-02 
1866	 8.14870450879021E-02 
1867	 8.14395107863947E-02 
1868	 8.13663950508522E-02 
1869	 8.12868747462666E-02 
1870	 8.11962826537336E-02 
1871	 8.10879415002171E-02 
1872	 8.09631100036783E-02 
1873	 8.08281539618426E-02 
1874	 8.06851856364618E-02 
1875	 8.05412385239791E-02 
1876	 8.03988548198722E-02 
1877	 8.02493607590198E-02 
1878	 8.00850981429125E-02 
1879	 7.98902203410156E-02 
1880	 7.96895974720416E-02 
1881	 7.94793526412437E-02 
1882	 7.92542125158089E-02 
1883	 7.90064890568181E-02 
1884	 7.87655533852702E-02 
1885	 7.85321236583031E-02 
1886	 7.82382524677215E-02 
1887	 0.077925854813389 
1888	 7.76169998757137E-02 
1889	 7.72564744329369E-02 
1890	 7.68995726192456E-02 
1891	 7.65499368279828E-02 
1892	 7.62007014266448E-02 
1893	 7.58401626093303E-02 
1894	 7.54849806397275E-02 
1895	 7.51167994849111E-02 
1896	 7.47143839650201E-02 
1897	 7.43202174649543E-02 
1898	 7.39247566659011E-02 
1899	 7.35212284777604E-02 
1900	 7.31413433087027E-02 
1901	 7.27703828200611E-02 
1902	 7.23970814854573E-02 
1903	 7.20210250874886E-02 
1904	 7.16605361261267E-02 
1905	 7.13063819233108E-02 
1906	 7.09569600281727E-02 
1907	 7.06288987389349E-02 
1908	 7.03371114431332E-02 
1909	 0.070062170882806 
1910	 6.97844452874723E-02 
1911	 0.069507993448817 
1912	 6.92387387856582E-02 
1913	 6.89921424167463E-02 
1914	 6.87635869283671E-02 
1915	 6.85374723906262E-02 
1916	 6.83170510185437E-02 
1917	 6.81296040072034E-02 
1918	 6.79513053814567E-02 
1919	 6.77807952625454E-02 
1920	 6.76529954477127E-02 
1921	 6.75228387194154E-02 
1922	 6.73818546317593E-02 
1923	 6.72406782880572E-02 
1924	 6.71298100171559E-02 
1925	 6.70462375660583E-02 
1926	 6.69563909071952E-02 
1927	 0.066873762745559 
1928	 6.68146292939187E-02 
1929	 6.67497825868797E-02 
1930	 6.66810871863961E-02 
1931	 6.66324190042144E-02 
1932	 6.65922901372178E-02 
1933	 6.65579339789123E-02 
1934	 6.65189929510833E-02 
1935	 6.64885136072653E-02 
1936	 6.64612322212952E-02 
1937	 6.64475666827868E-02 
1938	 6.64382793417559E-02 
1939	 6.64404084581678E-02 
1940	 6.64575523386401E-02 
1941	 6.64846324437769E-02 
1942	 6.64972333379377E-02 
1943	 6.65056620292031E-02 
1944	 6.65231837178984E-02 
1945	 6.65512580203065E-02 
1946	 6.65819729045951E-02 
1947	 6.66338870164242E-02 
1948	 6.66698382423836E-02 
1949	 6.67018259155865E-02 
1950	 6.67288748794386E-02 
1951	 6.67379531535975E-02 
1952	 6.67692373217355E-02 
1953	 6.68212064623823E-02 
1954	 6.68587271675621E-02 
1955	 6.69222266223887E-02 
1956	 6.69965632238673E-02 
1957	 6.70554682445074E-02 
1958	 6.71011373901263E-02 
1959	 6.71659113922551E-02 
1960	 6.72279432640617E-02 
1961	 6.73008087642158E-02 
1962	 6.73973685356209E-02 
1963	 6.74827264378667E-02 
1964	 6.75645448220207E-02 
1965	 6.76483066805934E-02 
1966	 6.77448792942294E-02 
1967	 6.78206415864779E-02 
1968	 6.79142299955968E-02 
1969	 6.80248766752015E-02 
1970	 6.81236659271799E-02 
1971	 6.82248858417588E-02 
1972	 6.83201082623532E-02 
1973	 6.83954709153883E-02 
1974	 6.84901034377907E-02 
1975	 6.85934193551298E-02 
1976	 6.86971987012427E-02 
1977	 6.88106905488485E-02 
1978	 6.89337101639683E-02 
1979	 6.90059439017025E-02 
1980	 6.90770237722486E-02 
1981	 6.91644402207465E-02 
1982	 6.92444050951821E-02 
1983	 6.93264888023386E-02 
1984	 6.94271881163713E-02 
1985	 6.95198987877874E-02 
1986	 6.96044966165035E-02 
1987	 6.96887634098034E-02 
1988	 6.97759043078367E-02 
1989	 6.98645932109813E-02 
1990	 6.99436218607348E-02 
1991	 7.00213694166755E-02 
1992	 7.01207136290388E-02 
1993	 7.02407866374412E-02 
1994	 7.03497858071748E-02 
1995	 0.07047806842348 
1996	 7.05768019351855E-02 
1997	 7.06520262058404E-02 
1998	 0.070741848210687 
1999	 7.08107064912885E-02 
2000	 7.09028046087962E-02 
2001	 0.07101094990103 
2002	 7.11316244366323E-02 
2003	 7.12436490916202E-02 
2004	 7.13718848258093E-02 
2005	 7.14736971310379E-02 
2006	 7.15665523599932E-02 
2007	 7.16474026191712E-02 
2008	 7.16938186668355E-02 
2009	 7.17734311779958E-02 
2010	 0.071867078035351 
2011	 7.19468799455418E-02 
2012	 7.20298918353011E-02 
2013	 7.21244199489343E-02 
2014	 7.22138400301414E-02 
2015	 7.23072719367829E-02 
2016	 7.24099729994116E-02 
2017	 7.25000755944535E-02 
2018	 7.25984745376462E-02 
2019	 0.072688377090593 
2020	 7.27779668893819E-02 
2021	 7.28860033645029E-02 
2022	 7.29737670232423E-02 
2023	 7.30337439072631E-02 
2024	 7.31125461689098E-02 
2025	 7.31942303130297E-02 
2026	 7.32761744646833E-02 
2027	 0.073379479614244 
2028	 0.073460632037105 
2029	 7.35227852433573E-02 
2030	 7.35649028410215E-02 
2031	 7.36283828376502E-02 
2032	 7.36764403301136E-02 
2033	 7.37437126903955E-02 
2034	 7.38409803738346E-02 
2035	 7.39136609451617E-02 
2036	 7.39781654187424E-02 
2037	 7.40382373487835E-02 
2038	 7.40836852908144E-02 
2039	 7.41430147612983E-02 
2040	 7.42085328553151E-02 
2041	 7.42711718216367E-02 
2042	 7.43209293145564E-02 
2043	 7.43667420620261E-02 
2044	 7.44103234877636E-02 
2045	 7.44252979845846E-02 
2046	 7.44704395816607E-02 
2047	 7.45405372592412E-02 
2048	 7.45917527855656E-02 
2049	 7.46392435787831E-02 
2050	 7.46961202790818E-02 
2051	 7.47552272894656E-02 
2052	 0.074805582471834 
2053	 7.48635944891042E-02 
2054	 7.49118988300077E-02 
2055	 7.49337082685437E-02 
2056	 7.49784730109563E-02 
2057	 7.50184919856295E-02 
2058	 7.50591959014568E-02 
2059	 7.51058970382138E-02 
2060	 7.51555937333908E-02 
2061	 7.52064946596413E-02 
2062	 7.52724322298602E-02 
2063	 7.53175662660532E-02 
2064	 7.53458982925746E-02 
2065	 7.53906672709084E-02 
2066	 7.54390396024993E-02 
2067	 7.54778393357454E-02 
2068	 7.55218429425598E-02 
2069	 7.55617953045952E-02 
2070	 7.56035782386239E-02 
2071	 0.075639740209452 
2072	 7.56641231280773E-02 
2073	 7.56883131347271E-02 
2074	 7.57121016136606E-02 
2075	 7.57016337875591E-02 
2076	 7.57338242532121E-02 
2077	 7.57991601752351E-02 
2078	 7.58513893413654E-02 
2079	 7.59189335142859E-02 
2080	 7.59774001252031E-02 
2081	 7.60350594558745E-02 
2082	 0.076081635929017 
2083	 7.61108221605181E-02 
2084	 7.61596017288802E-02 
2085	 7.61962225868416E-02 
2086	 7.62227889697927E-02 
2087	 7.62543553213268E-02 
2088	 7.62842606828426E-02 
2089	 7.63202868168726E-02 
2090	 0.076367980851657 
2091	 7.63941535267698E-02 
2092	 7.64039212429961E-02 
2093	 7.64361254293453E-02 
2094	 7.64646130786855E-02 
2095	 7.64935550893084E-02 
2096	 7.65481812701849E-02 
2097	 0.076588803946765 
2098	 7.66049679607115E-02 
2099	 7.66329495952673E-02 
2100	 7.66760787216453E-02 
2101	 7.67350504696367E-02 
2102	 7.67830871854907E-02 
2103	 7.68489542380585E-02 
2104	 7.68844076788443E-02 
2105	 7.69008581859821E-02 
2106	 7.69184311257623E-02 
2107	 7.69052029602298E-02 
2108	 7.69276331224391E-02 
2109	 7.69592739024279E-02 
2110	 7.70022689020085E-02 
2111	 7.70859910447348E-02 
2112	 7.71429899157006E-02 
2113	 0.077198901598709 
2114	 0.077241848022576 
2115	 7.72792992501396E-02 
2116	 0.077303664466906 
2117	 7.73243175831317E-02 
2118	 7.73295410610147E-02 
2119	 7.73561738995254E-02 
2120	 7.73843240819392E-02 
2121	 7.74126141409333E-02 
2122	 7.74512843545478E-02 
2123	 0.077493392331415 
2124	 7.75411802550454E-02 
2125	 7.75753772620809E-02 
2126	 0.07764009452477 
2127	 7.76548695587105E-02 
2128	 7.76088613843065E-02 
2129	 7.75904791351518E-02 
2130	 7.75579015929375E-02 
2131	 7.75164343098404E-02 
2132	 7.75226524325506E-02 
2133	 7.75762376908828E-02 
2134	 7.75907883272407E-02 
2135	 7.76235870954677E-02 
2136	 0.077623551685125 
2137	 7.75872525270541E-02 
2138	 7.75704886082726E-02 
2139	 7.75533967161931E-02 
2140	 7.75322285444825E-02 
2141	 7.75140338683948E-02 
2142	 7.74890269716701E-02 
2143	 7.74534302458009E-02 
2144	 7.74207877526394E-02 
2145	 7.73941422726071E-02 
2146	 7.73567602775502E-02 
2147	 7.73074985878228E-02 
2148	 0.077269656572572 
2149	 7.72162247288353E-02 
2150	 7.71447443680197E-02 
2151	 7.70928467861478E-02 
2152	 7.70431058955319E-02 
2153	 7.69953218312416E-02 
2154	 7.69673960019379E-02 
2155	 7.69155620888388E-02 
2156	 0.076843305007126 
2157	 7.67879413112252E-02 
2158	 7.67308724012188E-02 
2159	 7.66730991451591E-02 
2160	 7.66154348324677E-02 
2161	 7.65721931648813E-02 
2162	 7.65537928564173E-02 
2163	 7.65043842299105E-02 
2164	 7.64551631253999E-02 
2165	 7.64002486078238E-02 
2166	 7.63192603203289E-02 
2167	 7.61896065985756E-02 
2168	 7.61022022115327E-02 
2169	 7.60169905140861E-02 
2170	 7.59452118491038E-02 
2171	 0.075900454423448 
2172	 7.58291407058095E-02 
2173	 7.57520889427354E-02 
2174	 7.56757562515437E-02 
2175	 7.55819039509706E-02 
2176	 7.55016102673436E-02 
2177	 7.54188631993875E-02 
2178	 7.53589057058696E-02 
2179	 7.53266010327485E-02 
2180	 7.52759475604524E-02 
2181	 7.52464196446217E-02 
2182	 7.51931099419861E-02 
2183	 7.51149983988633E-02 
2184	 7.50202632501819E-02 
2185	 7.49520531367363E-02 
2186	 7.48933087256913E-02 
2187	 7.48162970215357E-02 
2188	 7.47412904507365E-02 
2189	 7.46698580581668E-02 
2190	 7.45739041978586E-02 
2191	 7.45073927017353E-02 
2192	 7.44633143491443E-02 
2193	 7.44210636721915E-02 
2194	 0.074394762019719 
2195	 7.43555367693268E-02 
2196	 7.43238686206588E-02 
2197	 7.42852296283813E-02 
2198	 0.074228726542946 
2199	 0.074183149556637 
2200	 7.41413089191293E-02 
2201	 7.41008428370597E-02 
2202	 7.40558620179807E-02 
2203	 7.40282732943931E-02 
2204	 7.40001197859236E-02 
2205	 7.39817759513231E-02 
2206	 7.39510604028285E-02 
2207	 0.073919029214757 
2208	 7.38901689300618E-02 
2209	 7.38397694933169E-02 
2210	 7.38315643236048E-02 
2211	 7.38651162960082E-02 
2212	 0.073857721563858 
2213	 7.38488895253224E-02 
2214	 7.38449994145671E-02 
2215	 7.38143041315858E-02 
2216	 7.38022067051144E-02 
2217	 7.38265073097752E-02 
2218	 7.38242375872632E-02 
2219	 7.38076995837723E-02 
2220	 0.073787895279522 
2221	 7.37494637467131E-02 
2222	 7.37156407163972E-02 
2223	 7.37308467198428E-02 
2224	 7.37323902706745E-02 
2225	 7.37275404959232E-02 
2226	 0.073742395834598 
2227	 7.37415890604023E-02 
2228	 7.37049826753853E-02 
2229	 7.37108741561213E-02 
2230	 7.37482134961253E-02 
2231	 7.37663353993553E-02 
2232	 7.37962440611202E-02 
2233	 7.38043123656232E-02 
2234	 7.38026326505844E-02 
2235	 7.37933671034472E-02 
2236	 7.37611893926865E-02 
2237	 7.37408348862275E-02 
2238	 7.37169628456753E-02 
2239	 7.36975660757651E-02 
2240	 7.36960181089688E-02 
2241	 7.36775377812928E-02 
2242	 7.36405545725963E-02 
2243	 7.36181041175339E-02 
2244	 7.36017112197431E-02 
2245	 7.35674924789317E-02 
2246	 7.35463943158293E-02 
2247	 7.35477837018363E-02 
2248	 7.35384108345847E-02 
2249	 7.35348496057931E-02 
2250	 0.073499067843525 
2251	 7.34473325895912E-02 
2252	 7.34118400209657E-02 
2253	 7.33570661245269E-02 
2254	 7.33194374626535E-02 
2255	 7.32995406645022E-02 
2256	 7.32814918133632E-02 
2257	 7.32548872226899E-02 
2258	 7.32440552278554E-02 
2259	 0.073256464068573 
2260	 0.073264387456117 
2261	 7.32856554556237E-02 
2262	 7.32888748934439E-02 
2263	 7.32819614313204E-02 
2264	 7.32844482326486E-02 
2265	 7.32587440456908E-02 
2266	 0.073267130074375 
2267	 7.33274326643023E-02 
2268	 7.33494221262341E-02 
2269	 7.33651548661437E-02 
2270	 7.33866882357566E-02 
2271	 7.33563966357069E-02 
2272	 7.33396488531698E-02 
2273	 7.33456959342395E-02 
2274	 7.33556376841609E-02 
2275	 7.33650856547439E-02 
2276	 7.33899825543089E-02 
2277	 7.33978356653657E-02 
2278	 7.33984818886379E-02 
2279	 7.33951272361436E-02 
2280	 7.33856142143589E-02 
2281	 7.33811981666174E-02 
2282	 7.33567032502265E-02 
2283	 7.33711986029123E-02 
2284	 7.34189484573243E-02 
2285	 0.073447540134811 
2286	 0.073497975490243 
2287	 7.35177509313612E-02 
2288	 7.35068375404332E-02 
2289	 7.34993746392524E-02 
2290	 7.34789148430869E-02 
2291	 7.34808004526394E-02 
2292	 7.34871564386155E-02 
2293	 7.34997274138174E-02 
2294	 7.35428105615081E-02 
2295	 7.35497190319614E-02 
2296	 7.35356790019452E-02 
2297	 7.35231146288053E-02 
2298	 7.34971552436439E-02 
2299	 7.35064076412251E-02 
2300	 7.35120031807798E-02 
2301	 7.35315821367837E-02 
2302	 7.35482366311189E-02 
2303	 7.35015165891061E-02 
2304	 7.34844262976846E-02 
2305	 7.34902306238118E-02 
2306	 7.34645542785811E-02 
2307	 7.34458949263319E-02 
2308	 7.33935632111515E-02 
2309	 7.32775353389733E-02 
2310	 7.32478987515576E-02 
2311	 7.32442704293458E-02 
2312	 7.32298798889482E-02 
2313	 7.32716267212058E-02 
2314	 7.32602949734132E-02 
2315	 7.32003482315315E-02 
2316	 7.31792320344682E-02 
2317	 7.31634304601357E-02 
2318	 7.31532238376524E-02 
2319	 7.31666090496573E-02 
2320	 7.31425007228367E-02 
2321	 0.073105735961475 
2322	 7.30809649435256E-02 
2323	 0.073020643254954 
2324	 7.30079788355111E-02 
2325	 0.073044579949744 
2326	 0.073039708735565 
2327	 0.073020376372811 
2328	 7.30343811543269E-02 
2329	 7.30062016386663E-02 
2330	 7.29863828044579E-02 
2331	 7.29978521704899E-02 
2332	 7.29755197024629E-02 
2333	 7.29333874052856E-02 
2334	 7.29077996246096E-02 
2335	 7.28989783200326E-02 
2336	 0.072878385565058 
2337	 7.28647959567957E-02 
2338	 7.28649071850353E-02 
2339	 0.072845977036177 
2340	 7.28479417578838E-02 
2341	 7.28724997067866E-02 
2342	 7.29080784174702E-02 
2343	 7.29466538250433E-02 
2344	 7.29442114365476E-02 
2345	 7.29332374208129E-02 
2346	 7.29052317107209E-02 
2347	 7.28511134290259E-02 
2348	 7.27616406050786E-02 
2349	 7.27247344221272E-02 
2350	 7.26720198206249E-02 
2351	 7.26568232767922E-02 
2352	 7.27213183470749E-02 
2353	 7.26857119899841E-02 
2354	 7.26077881609952E-02 
2355	 7.25456165409267E-02 
2356	 7.24299678091912E-02 
2357	 7.23566535030344E-02 
2358	 7.23488581690474E-02 
2359	 7.22861758835277E-02 
2360	 7.21628405663742E-02 
2361	 7.21012054076096E-02 
2362	 7.20713409434303E-02 
2363	 7.19912282975888E-02 
2364	 7.19072179101649E-02 
2365	 7.18446443129249E-02 
2366	 7.17353338391414E-02 
2367	 7.16712364869031E-02 
2368	 7.17084551946096E-02 
2369	 7.16712635298591E-02 
2370	 0.071618310027147 
2371	 0.071513649788337 
2372	 0.071352623550128 
2373	 7.12761296163561E-02 
2374	 7.12858094168514E-02 
2375	 7.12432903702975E-02 
2376	 7.11863274879166E-02 
2377	 7.11643005740877E-02 
2378	 7.10607363512258E-02 
2379	 7.08922935981212E-02 
2380	 7.08542788791305E-02 
2381	 7.07702968892016E-02 
2382	 7.05790290976843E-02 
2383	 7.05835445550226E-02 
2384	 7.06194134846838E-02 
2385	 7.05711796425271E-02 
2386	 7.05809291988891E-02 
2387	 0.07052422971373 
2388	 7.03631714119744E-02 
2389	 7.02222954458678E-02 
2390	 7.01558736877034E-02 
2391	 7.01366535654551E-02 
2392	 7.00652011077387E-02 
2393	 6.99686298071686E-02 
2394	 6.98914252124747E-02 
2395	 6.97235934598635E-02 
2396	 0.06966790162494 
2397	 6.98021538128647E-02 
2398	 6.99250742338717E-02 
2399	 0.070012454167282 
2400	 6.99855503496947E-02 
2401	 6.98427287362911E-02 
2402	 6.96183600833711E-02 
2403	 6.94364114472325E-02 
2404	 6.93756022703525E-02 
2405	 6.92320246126841E-02 
2406	 6.91329324791765E-02 
2407	 6.91852584004267E-02 
2408	 6.90970645444499E-02 
2409	 6.90462325532455E-02 
2410	 6.90540361313149E-02 
2411	 6.88582074482732E-02 
2412	 6.87111817511224E-02 
2413	 0.068652724600534 
2414	 6.85475922926997E-02 
2415	 0.068464560646058 
2416	 0.068391259756804 
2417	 0.068336581839601 
2418	 6.82457145845025E-02 
2419	 6.81499248857228E-02 
2420	 6.81250647634941E-02 
2421	 6.81300461485615E-02 
2422	 6.80920421391003E-02 
2423	 6.80623364188542E-02 
2424	 6.79886985151209E-02 
2425	 6.78462945142393E-02 
2426	 6.77805949701485E-02 
2427	 6.78039755610385E-02 
2428	 6.77224271299084E-02 
2429	 6.76006448529401E-02 
2430	 6.74921094585497E-02 
2431	 0.067276484530893 
2432	 6.71813303980568E-02 
2433	 6.71693950135746E-02 
2434	 6.71533065915597E-02 
2435	 6.72880045732876E-02 
2436	 6.72091429370016E-02 
2437	 6.69499164335772E-02 
2438	 0.066816683384657 
2439	 6.66153312452574E-02 
2440	 0.066435511838229 
2441	 6.63761742639535E-02 
2442	 6.63485485529909E-02 
2443	 0.06626435346899 
2444	 6.61935821322391E-02 
2445	 6.62485984074462E-02 
2446	 6.61903450965246E-02 
2447	 6.60669234576178E-02 
2448	 6.59499105417499E-02 
2449	 6.57951525597677E-02 
2450	 6.56315438532272E-02 
2451	 6.53286137127127E-02 
2452	 6.52236230434628E-02 
2453	 6.53416483192522E-02 
2454	 6.53162034948501E-02 
2455	 6.52978925198937E-02 
2456	 6.52576270564314E-02 
2457	 6.50983738059336E-02 
2458	 6.49286236600332E-02 
2459	 6.48330585834658E-02 
2460	 6.47301311350431E-02 
2461	 6.45388818538474E-02 
2462	 6.44416626198845E-02 
2463	 6.43752931370629E-02 
2464	 6.42708610481373E-02 
2465	 6.42032424409329E-02 
2466	 6.41521574423062E-02 
2467	 6.40535874934644E-02 
2468	 6.40685033412806E-02 
2469	 6.42350048565748E-02 
2470	 6.40089624130848E-02 
2471	 6.40573566651272E-02 
2472	 6.40370326760935E-02 
2473	 6.38132242893909E-02 
2474	 0.063835646954688 
2475	 6.36241497818837E-02 
2476	 6.32899651156769E-02 
2477	 6.32870721866454E-02 
2478	 6.30924840979532E-02 
2479	 6.28717166870494E-02 
2480	 6.28402856169109E-02 
2481	 6.27126715648924E-02 
2482	 6.25515416371342E-02 
2483	 6.24924155444735E-02 
2484	 6.26091502304116E-02 
2485	 6.24029742223882E-02 
2486	 6.22744123896331E-02 
2487	 6.24988644812897E-02 
2488	 6.23391806499102E-02 
2489	 0.062221507525003 
2490	 6.22410932770436E-02 
2491	 6.20646304497092E-02 
2492	 6.19164085230717E-02 
2493	 6.19575757983666E-02 
2494	 6.20044966291184E-02 
2495	 6.18604653611128E-02 
2496	 6.16524339158464E-02 
2497	 6.15706348880041E-02 
2498	 6.14923457438254E-02 
2499	 0.061429724173126 
2500	 0.061618213156314 
