Wavelength	LMW_13_a00005.asd
350	 6.43583818332527E-02 
351	 5.72722405656423E-02 
352	 4.77551982755279E-02 
353	 4.13900671912217E-02 
354	 4.99860316241876E-02 
355	 5.23575170042572E-02 
356	 4.92679377658081E-02 
357	 4.70831076060861E-02 
358	 4.93982678333664E-02 
359	 4.95199158095358E-02 
360	 4.74786688953689E-02 
361	 4.72391084244686E-02 
362	 4.20103817056538E-02 
363	 4.19422037449196E-02 
364	 4.81094893866264E-02 
365	 4.44910957971399E-02 
366	 4.32266698440866E-02 
367	 4.32369696891654E-02 
368	 4.21127989334781E-02 
369	 4.74343239448227E-02 
370	 4.88401459908228E-02 
371	 4.58558763006058E-02 
372	 4.48821926463058E-02 
373	 4.59250574176423E-02 
374	 4.65637055355091E-02 
375	 4.59792351106876E-02 
376	 4.68161489463949E-02 
377	 4.58261395119444E-02 
378	 4.53644085532737E-02 
379	 4.77978741288811E-02 
380	 4.86221928222866E-02 
381	 4.74280044403516E-02 
382	 0.046167463735675 
383	 4.79847278824177E-02 
384	 4.88941392867605E-02 
385	 4.87944948383244E-02 
386	 4.82801942430411E-02 
387	 4.80387631011975E-02 
388	 4.83999837054253E-02 
389	 4.90865243076385E-02 
390	 4.94319720301065E-02 
391	 4.78119556259805E-02 
392	 4.85095292588704E-02 
393	 5.15901979407276E-02 
394	 5.35110690252168E-02 
395	 5.49780046223639E-02 
396	 0.055564775915796 
397	 5.57964025988031E-02 
398	 5.88347295027433E-02 
399	 5.94379960916262E-02 
400	 5.94263893270197E-02 
401	 6.19149109168181E-02 
402	 6.14577094425003E-02 
403	 6.17409402356332E-02 
404	 6.33689933989793E-02 
405	 6.34227718652142E-02 
406	 6.27611357072715E-02 
407	 6.31395487807499E-02 
408	 6.47494542711157E-02 
409	 6.31602869488721E-02 
410	 6.32363071023998E-02 
411	 6.48127922860883E-02 
412	 6.54898074287632E-02 
413	 6.54749731530587E-02 
414	 0.065401799647595 
415	 6.53602473678338E-02 
416	 6.46993824689075E-02 
417	 6.34727116521882E-02 
418	 6.29072850087131E-02 
419	 6.35729613676012E-02 
420	 6.31008576462424E-02 
421	 0.061767572185568 
422	 6.07703348360304E-02 
423	 6.15022815241181E-02 
424	 6.11189049068318E-02 
425	 0.060049721155309 
426	 5.90514295549715E-02 
427	 5.86454852434684E-02 
428	 5.82033426703967E-02 
429	 5.78937082111752E-02 
430	 5.79635659526689E-02 
431	 5.77702528714644E-02 
432	 5.73590215937518E-02 
433	 5.72142729864403E-02 
434	 5.81248306611489E-02 
435	 5.87500839884753E-02 
436	 5.93893783653384E-02 
437	 6.02575659820282E-02 
438	 6.03309280932412E-02 
439	 0.061256682128174 
440	 6.27043012007685E-02 
441	 6.35007514914833E-02 
442	 6.44834369974162E-02 
443	 6.53895340420747E-02 
444	 6.61575147196172E-02 
445	 6.71786127196196E-02 
446	 6.82310149001865E-02 
447	 6.92139104095427E-02 
448	 7.01369931444672E-02 
449	 7.13605463717186E-02 
450	 0.072385249501844 
451	 7.32711007573689E-02 
452	 7.45421808812091E-02 
453	 7.58992999985567E-02 
454	 7.67803665391733E-02 
455	 7.71186406476645E-02 
456	 7.81391441360584E-02 
457	 7.91309554625791E-02 
458	 0.0800041644647 
459	 8.09415194155523E-02 
460	 8.20592384163834E-02 
461	 8.27976096959422E-02 
462	 0.083248810618569 
463	 8.44824192199716E-02 
464	 8.56091669120556E-02 
465	 8.65184435267892E-02 
466	 8.73018597953011E-02 
467	 8.78924154808353E-02 
468	 0.088827804136435 
469	 8.99254714031417E-02 
470	 9.04821092213604E-02 
471	 9.13586357995458E-02 
472	 9.23221799137498E-02 
473	 9.31498747371722E-02 
474	 9.41169378177232E-02 
475	 9.48163523873715E-02 
476	 9.52869170448442E-02 
477	 9.57906971304593E-02 
478	 9.65781874065305E-02 
479	 9.74363389408553E-02 
480	 9.81782040196163E-02 
481	 9.87145587990274E-02 
482	 9.92481311283456E-02 
483	 9.98578702291083E-02 
484	 0.1005129612205 
485	 0.100909629466163 
486	 0.101355086054814 
487	 0.10189564139451 
488	 0.10235521677337 
489	 0.102792434556101 
490	 0.103283552781971 
491	 0.103809608306641 
492	 0.104111540431865 
493	 0.104315266933636 
494	 0.104579264481093 
495	 0.10502076892215 
496	 0.105296930164612 
497	 0.105496777839873 
498	 0.105720985610327 
499	 0.106024358226354 
500	 0.106292447893592 
501	 0.106475382188292 
502	 0.106574342578465 
503	 0.106685072970401 
504	 0.106927817199139 
505	 0.10722417609217 
506	 0.107333406638141 
507	 0.107491201838154 
508	 0.107622354417006 
509	 0.107655777272662 
510	 0.10767268922895 
511	 0.107801596461091 
512	 0.107976674795605 
513	 0.108046476963754 
514	 0.108142053858253 
515	 0.108278048769009 
516	 0.108414379655826 
517	 0.10843641922955 
518	 0.108496798701981 
519	 0.10852670417896 
520	 0.108449715830461 
521	 0.108540335557755 
522	 0.108633490323093 
523	 0.108693242041543 
524	 0.108839712435383 
525	 0.108771829347776 
526	 0.108683760800634 
527	 0.108769232310656 
528	 0.108852395070322 
529	 0.109013959100965 
530	 0.109160301376158 
531	 0.109112095957435 
532	 0.109087861119489 
533	 0.109173270111257 
534	 0.109337913041386 
535	 0.109354547779688 
536	 0.109382435275227 
537	 0.109457833572387 
538	 0.109565205782249 
539	 0.109664461482065 
540	 0.109797986953668 
541	 0.109962751724185 
542	 0.110087683579704 
543	 0.110193136471691 
544	 0.110318085788284 
545	 0.110484419300424 
546	 0.110620721742373 
547	 0.110770095961947 
548	 0.110958569270148 
549	 0.11118481644489 
550	 0.111235826886304 
551	 0.111241599238643 
552	 0.11135446077355 
553	 0.111627580334875 
554	 0.111866321724659 
555	 0.112022210438979 
556	 0.112145215781382 
557	 0.112377087857309 
558	 0.112659263216747 
559	 0.112930329484184 
560	 0.11316405255769 
561	 0.113441000715156 
562	 0.113717488776299 
563	 0.113934049314142 
564	 0.114196345977213 
565	 0.114474919782324 
566	 0.114776999402738 
567	 0.115158140319682 
568	 0.115635170680366 
569	 0.116034596244058 
570	 0.116235529925835 
571	 0.116419458579444 
572	 0.116696747194359 
573	 0.117089370774868 
574	 0.117542110044582 
575	 0.117923959049913 
576	 0.118377168949724 
577	 0.118953336159344 
578	 0.11940555316873 
579	 0.119851588695917 
580	 0.120360111150066 
581	 0.120962712314561 
582	 0.12156825308514 
583	 0.122037815740233 
584	 0.122368143403118 
585	 0.12274686531655 
586	 0.123166032707725 
587	 0.123623169933905 
588	 0.124130652648823 
589	 0.124815649514577 
590	 0.125405385582691 
591	 0.125865673934945 
592	 0.126389166381304 
593	 0.126887271311525 
594	 0.127470923347199 
595	 0.1282074739808 
596	 0.128988988365954 
597	 0.129636330980587 
598	 0.13016922350895 
599	 0.130713065466064 
600	 0.131182044935677 
601	 0.131579938297274 
602	 0.131955736098461 
603	 0.132424575242871 
604	 0.132947975200196 
605	 0.133455118459217 
606	 0.133903041085758 
607	 0.134488355740202 
608	 0.135046480366797 
609	 0.135517375400962 
610	 0.135984381364679 
611	 0.136327108461506 
612	 0.136648556282391 
613	 0.137037732295216 
614	 0.137355769466392 
615	 0.137631257300733 
616	 0.13793013964329 
617	 0.138324843524031 
618	 0.138655813547262 
619	 0.138935146603044 
620	 0.139183598236604 
621	 0.139366485826362 
622	 0.139603517345024 
623	 0.139882602730606 
624	 0.140141899051252 
625	 0.140402270239072 
626	 0.14063959068225 
627	 0.140860110819841 
628	 0.141112336384731 
629	 0.141370382256973 
630	 0.141576698694402 
631	 0.141707325749547 
632	 0.141886002404804 
633	 0.142146639106385 
634	 0.142398229644583 
635	 0.14247517192365 
636	 0.142695858519991 
637	 0.142983715814108 
638	 0.143220344335921 
639	 0.143355408998018 
640	 0.143521141418511 
641	 0.143725872484071 
642	 0.14392307581799 
643	 0.144146540203747 
644	 0.144357822280187 
645	 0.14453864689132 
646	 0.144706935043603 
647	 0.144915535374319 
648	 0.145096167556241 
649	 0.145194401945025 
650	 0.145365553125307 
651	 0.14558760678278 
652	 0.145820751184035 
653	 0.146018358274965 
654	 0.146216742720652 
655	 0.146418314563916 
656	 0.146616406055878 
657	 0.146793261332734 
658	 0.146981604860921 
659	 0.147193084087008 
660	 0.147417871611721 
661	 0.147572007207761 
662	 0.147754830016132 
663	 0.147999095273635 
664	 0.148215724683333 
665	 0.148477003952259 
666	 0.148685409256861 
667	 0.148776456952346 
668	 0.149014686152188 
669	 0.149258333344737 
670	 0.149465282975443 
671	 0.149681692036684 
672	 0.149837978698908 
673	 0.150058376013266 
674	 0.150380116168729 
675	 0.150557167202704 
676	 0.150731800562891 
677	 0.150956427404339 
678	 0.151231644677408 
679	 0.151471346568882 
680	 0.151674660069842 
681	 0.151850591032545 
682	 0.152008525039282 
683	 0.152261841855109 
684	 0.152546974355326 
685	 0.152782389996555 
686	 0.153008750983303 
687	 0.153240240214377 
688	 0.153469456407351 
689	 0.153676835745814 
690	 0.153895214700484 
691	 0.154140354892492 
692	 0.154403361868113 
693	 0.154635847999154 
694	 0.15482452212508 
695	 0.155049606048965 
696	 0.155376263926972 
697	 0.155582513701137 
698	 0.155789315264373 
699	 0.156050363767735 
700	 0.15632507102607 
701	 0.156536522459893 
702	 0.156720821432017 
703	 0.156925957524501 
704	 0.157156126771992 
705	 0.157389537400018 
706	 0.157619090225034 
707	 0.157844256510728 
708	 0.158047055091572 
709	 0.158276617018407 
710	 0.158526566688344 
711	 0.158701756984609 
712	 0.15890843395286 
713	 0.159110055038046 
714	 0.159259814167488 
715	 0.159419210524248 
716	 0.159641868768887 
717	 0.159863026800853 
718	 0.159952600523342 
719	 0.16009334526875 
720	 0.16027349029676 
721	 0.160447648387512 
722	 0.160560485094227 
723	 0.160701165815767 
724	 0.160845550561561 
725	 0.160942480912515 
726	 0.161012878827593 
727	 0.1611141967749 
728	 0.161214465442324 
729	 0.161208598793046 
730	 0.161246830890064 
731	 0.161348084578624 
732	 0.161458521307451 
733	 0.161401697701327 
734	 0.161419862695013 
735	 0.161445395022475 
736	 0.161334362490181 
737	 0.161324161959755 
738	 0.161319130787036 
739	 0.161277363505839 
740	 0.161240682681299 
741	 0.161149850093995 
742	 0.161046219191936 
743	 0.160956126446285 
744	 0.160804165519286 
745	 0.160632705852165 
746	 0.160485966590182 
747	 0.160383996560951 
748	 0.160174650885098 
749	 0.159969598296353 
750	 0.159811549446509 
751	 0.159631654566233 
752	 0.159434639012008 
753	 0.15921306743806 
754	 0.158968835814976 
755	 0.158732020655777 
756	 0.158491664579903 
757	 0.158247682763663 
758	 0.158003422234648 
759	 0.157757103512396 
760	 0.157423313035068 
761	 0.1570379342834 
762	 0.15678962710618 
763	 0.156501619605951 
764	 0.156201462857332 
765	 0.155931480002206 
766	 0.15563718409115 
767	 0.155298875145684 
768	 0.154943245677143 
769	 0.154617225357441 
770	 0.154322370558963 
771	 0.154001496318699 
772	 0.153651128548489 
773	 0.153335841160357 
774	 0.152971853471468 
775	 0.15262075153199 
776	 0.152322024293358 
777	 0.151964668554953 
778	 0.151622539513421 
779	 0.151324810421614 
780	 0.151059443799026 
781	 0.15071087629334 
782	 0.150306324860266 
783	 0.149899236550113 
784	 0.149553890429407 
785	 0.149245766062929 
786	 0.148933310841882 
787	 0.148601064942119 
788	 0.148310847612758 
789	 0.147957242258997 
790	 0.147586707422066 
791	 0.147275862234421 
792	 0.146923849056477 
793	 0.146622181127147 
794	 0.146366497443505 
795	 0.14606601217575 
796	 0.145722125858763 
797	 0.145380314038221 
798	 0.145071523300345 
799	 0.144787829881865 
800	 0.144459378069009 
801	 0.144119462691783 
802	 0.143830227196096 
803	 0.143632824725656 
804	 0.143396845344943 
805	 0.143089802330669 
806	 0.142758839664534 
807	 0.142504908778598 
808	 0.142208664873088 
809	 0.141871556706544 
810	 0.141676199918922 
811	 0.14151514281798 
812	 0.141274941470404 
813	 0.140927852569052 
814	 0.140668415527976 
815	 0.140441071059125 
816	 0.140227720741478 
817	 0.140021252136492 
818	 0.139813697028227 
819	 0.139612164401534 
820	 0.1393925099859 
821	 0.139116123026704 
822	 0.13889794585607 
823	 0.138711077148109 
824	 0.138528843228362 
825	 0.138364939517258 
826	 0.13814094992312 
827	 0.137890608753205 
828	 0.137689680478604 
829	 0.137654327930079 
830	 0.137486143921444 
831	 0.137225428204097 
832	 0.137062866133364 
833	 0.136949624731066 
834	 0.136831527003339 
835	 0.136690275673092 
836	 0.136543963839016 
837	 0.136378195148375 
838	 0.136252138044566 
839	 0.136165868317678 
840	 0.136001057971222 
841	 0.135875939075606 
842	 0.135768705222922 
843	 0.135645052649276 
844	 0.135562263560221 
845	 0.135459247917273 
846	 0.135341992959502 
847	 0.135241297596213 
848	 0.135122902892179 
849	 0.135049924987386 
850	 0.135002959942756 
851	 0.134900966696158 
852	 0.134847862065655 
853	 0.134787517110043 
854	 0.134703882552835 
855	 0.134669282065223 
856	 0.134661415457029 
857	 0.134654056131258 
858	 0.134619595315023 
859	 0.134523324240113 
860	 0.134485285555783 
861	 0.134470173164023 
862	 0.134415615244777 
863	 0.134412425541012 
864	 0.134421768557761 
865	 0.134424251030751 
866	 0.134412795477385 
867	 0.134353304257864 
868	 0.134340282466812 
869	 0.134378987448354 
870	 0.13438155729362 
871	 0.134434415393503 
872	 0.134543449657083 
873	 0.134660368953695 
874	 0.134678569212393 
875	 0.134604626242286 
876	 0.134542826627963 
877	 0.134567113557429 
878	 0.134599204240923 
879	 0.134716017480821 
880	 0.134864277336561 
881	 0.134969276655829 
882	 0.135076710938427 
883	 0.135144565936231 
884	 0.135199100666871 
885	 0.135301610701493 
886	 0.135476811208058 
887	 0.13559022158351 
888	 0.135645252013936 
889	 0.13576432958985 
890	 0.13592148315528 
891	 0.136007809093067 
892	 0.136035303670139 
893	 0.136168760391965 
894	 0.13631118168983 
895	 0.136500211871173 
896	 0.13672027115172 
897	 0.136821948631302 
898	 0.137012705845041 
899	 0.137228505979717 
900	 0.137382896527123 
901	 0.137525649901994 
902	 0.137682673264269 
903	 0.137841977991418 
904	 0.137994405874017 
905	 0.138199546446133 
906	 0.138426952138771 
907	 0.138635840429189 
908	 0.138806364701102 
909	 0.139037085164702 
910	 0.139259473235141 
911	 0.13947390472156 
912	 0.139719569866305 
913	 0.139927170059036 
914	 0.140150029242817 
915	 0.1404346409429 
916	 0.140792885813028 
917	 0.141095988894801 
918	 0.141333684087883 
919	 0.141531096319117 
920	 0.141735357889341 
921	 0.142019769367474 
922	 0.142346322466811 
923	 0.14265740273147 
924	 0.142907961861374 
925	 0.143164003225175 
926	 0.14347939766363 
927	 0.143860315264021 
928	 0.144236643865375 
929	 0.144519785260458 
930	 0.144782753450704 
931	 0.145104805019548 
932	 0.145472148952581 
933	 0.145827691058394 
934	 0.146188570257004 
935	 0.146572879804538 
936	 0.146937199376374 
937	 0.147256380202181 
938	 0.147609480911676 
939	 0.148048834506069 
940	 0.148413751236903 
941	 0.148781095778984 
942	 0.149170684672552 
943	 0.149579515112582 
944	 0.150010289611315 
945	 0.150423262627 
946	 0.150814152754487 
947	 0.151190887792593 
948	 0.151514142714509 
949	 0.151968208133838 
950	 0.152518870399117 
951	 0.15302324995098 
952	 0.153459215104131 
953	 0.1538691386171 
954	 0.15425624976871 
955	 0.154628762250987 
956	 0.155159840870384 
957	 0.155669788002501 
958	 0.156104769157495 
959	 0.156513694973127 
960	 0.156940501004153 
961	 0.1574645316419 
962	 0.158064211556065 
963	 0.158631661182695 
964	 0.158992355856606 
965	 0.15946954745557 
966	 0.160042494105054 
967	 0.160493336345419 
968	 0.161078901871287 
969	 0.161604016270755 
970	 0.16203761778279 
971	 0.162495230064596 
972	 0.163114138430914 
973	 0.163611672886084 
974	 0.164026676115089 
975	 0.164589098082846 
976	 0.165141625107653 
977	 0.165667070719139 
978	 0.166194289680412 
979	 0.166753216913214 
980	 0.16722984427589 
981	 0.16776803179289 
982	 0.168367849925975 
983	 0.168943749755692 
984	 0.169534989327432 
985	 0.170090384492738 
986	 0.170542338310959 
987	 0.170899503404096 
988	 0.171526809940945 
989	 0.17215485689002 
990	 0.172710916716858 
991	 0.173263683220309 
992	 0.17392268821352 
993	 0.174454085693701 
994	 0.175017617554784 
995	 0.17576536185017 
996	 0.176023196499043 
997	 0.176671325336576 
998	 0.177530480987388 
999	 0.178132349026906 
1000	 0.178708657414575 
1001	 0.177856938066413 
1002	 0.178420479426727 
1003	 0.178956864155363 
1004	 0.179481517491599 
1005	 0.180013606135683 
1006	 0.180548886259301 
1007	 0.181077014987512 
1008	 0.181572166474118 
1009	 0.182108505006183 
1010	 0.182606726410457 
1011	 0.183090359166662 
1012	 0.183586969097569 
1013	 0.183998442242835 
1014	 0.184503674742271 
1015	 0.185020746325921 
1016	 0.185462470952634 
1017	 0.185970716541863 
1018	 0.186534624054217 
1019	 0.187098765615571 
1020	 0.187611098384221 
1021	 0.188118372473515 
1022	 0.188559258863933 
1023	 0.188916274754303 
1024	 0.189295402135283 
1025	 0.189711358920277 
1026	 0.190120388020944 
1027	 0.190503532786236 
1028	 0.190834141173136 
1029	 0.191159011194227 
1030	 0.191547255957202 
1031	 0.191925728004783 
1032	 0.192326726835705 
1033	 0.192736189110685 
1034	 0.193126160642162 
1035	 0.193438103788711 
1036	 0.193761213948537 
1037	 0.194095457800161 
1038	 0.194400260676605 
1039	 0.194724717115731 
1040	 0.195018072302381 
1041	 0.195298101025004 
1042	 0.195602985666359 
1043	 0.195836186568923 
1044	 0.196098520435365 
1045	 0.196368266027477 
1046	 0.196661216743119 
1047	 0.196904669558658 
1048	 0.197198703414233 
1049	 0.19749559812613 
1050	 0.197794147463395 
1051	 0.198140386189336 
1052	 0.198438776517808 
1053	 0.198709976181414 
1054	 0.198986824685769 
1055	 0.199249082301556 
1056	 0.19956804906868 
1057	 0.199885318124071 
1058	 0.200214524143381 
1059	 0.200565210786607 
1060	 0.200936091171201 
1061	 0.201294981827137 
1062	 0.201665482749011 
1063	 0.202091282719134 
1064	 0.202446469000116 
1065	 0.202777119989737 
1066	 0.203137344793519 
1067	 0.203496435453118 
1068	 0.203906061269353 
1069	 0.204352251227589 
1070	 0.204794751970584 
1071	 0.205297020256108 
1072	 0.205736356213118 
1073	 0.206110547530732 
1074	 0.206535584359672 
1075	 0.206979427304218 
1076	 0.207383990138295 
1077	 0.207787095305452 
1078	 0.208257963839124 
1079	 0.208712820382629 
1080	 0.209128615600577 
1081	 0.209598320889119 
1082	 0.21009338076957 
1083	 0.21053353432635 
1084	 0.210941992561019 
1085	 0.21136472329237 
1086	 0.211745666076997 
1087	 0.212159637655267 
1088	 0.212585725073533 
1089	 0.21302397583932 
1090	 0.213474294956333 
1091	 0.213897501393734 
1092	 0.214294265160513 
1093	 0.214646950475542 
1094	 0.215003515113015 
1095	 0.215370249546295 
1096	 0.215694512836383 
1097	 0.216048738928923 
1098	 0.216346763293234 
1099	 0.216567660878617 
1100	 0.216832387726468 
1101	 0.217094791688089 
1102	 0.217364446427563 
1103	 0.21765412330833 
1104	 0.217957665698478 
1105	 0.218196831088774 
1106	 0.218388380278184 
1107	 0.218528568216112 
1108	 0.218657662167304 
1109	 0.218816541612235 
1110	 0.218952307692395 
1111	 0.219101946286757 
1112	 0.219265705632673 
1113	 0.219418701116756 
1114	 0.219575545927798 
1115	 0.21972538390958 
1116	 0.219916757991908 
1117	 0.220014323454865 
1118	 0.220061421452484 
1119	 0.220086900489932 
1120	 0.220094304739891 
1121	 0.220100327206709 
1122	 0.220181281776723 
1123	 0.22027699887911 
1124	 0.220341488639056 
1125	 0.220411194824768 
1126	 0.220451563160531 
1127	 0.220456551374665 
1128	 0.22048883992526 
1129	 0.220520058367775 
1130	 0.220546106743123 
1131	 0.22057033717449 
1132	 0.22060734146831 
1133	 0.220653278320323 
1134	 0.220685111715695 
1135	 0.22072279991219 
1136	 0.220763839835869 
1137	 0.220783821078422 
1138	 0.220802377149407 
1139	 0.220802093459189 
1140	 0.220787117496828 
1141	 0.220793680203101 
1142	 0.22078960110202 
1143	 0.220791611367179 
1144	 0.220823783950212 
1145	 0.220831004916886 
1146	 0.220805015300845 
1147	 0.220802990517022 
1148	 0.220820881901986 
1149	 0.220820875587478 
1150	 0.220802150880807 
1151	 0.220817665091704 
1152	 0.220827089936022 
1153	 0.220836296497886 
1154	 0.220847285884977 
1155	 0.22086834928139 
1156	 0.220894833859721 
1157	 0.22091584770885 
1158	 0.220942956320388 
1159	 0.220983143959342 
1160	 0.221027251190913 
1161	 0.221061041019795 
1162	 0.221117226952641 
1163	 0.221197939377478 
1164	 0.221272529653393 
1165	 0.221348988403473 
1166	 0.221433986209247 
1167	 0.221524946575458 
1168	 0.221617943551361 
1169	 0.221710988457239 
1170	 0.221809029178161 
1171	 0.221909304777351 
1172	 0.222006673093379 
1173	 0.222111525713302 
1174	 0.222222074790231 
1175	 0.22233902654195 
1176	 0.222465968085319 
1177	 0.222584587910637 
1178	 0.222707380210075 
1179	 0.222828186232674 
1180	 0.222937566293722 
1181	 0.223055927079896 
1182	 0.223186085870428 
1183	 0.223304556963185 
1184	 0.223434587195832 
1185	 0.223565643368604 
1186	 0.22370889808328 
1187	 0.223873656948262 
1188	 0.224008430304324 
1189	 0.224142807128301 
1190	 0.224264908200953 
1191	 0.224361842364945 
1192	 0.224466683688804 
1193	 0.224564099521563 
1194	 0.22467455140086 
1195	 0.224789097032069 
1196	 0.224903315646092 
1197	 0.225028335003823 
1198	 0.225150339201141 
1199	 0.225270997282262 
1200	 0.225388122478559 
1201	 0.225503081799632 
1202	 0.225621096041735 
1203	 0.225731967574355 
1204	 0.225832045305393 
1205	 0.225940965529325 
1206	 0.226056352251854 
1207	 0.226161939251658 
1208	 0.226270152926367 
1209	 0.226367990098906 
1210	 0.226437909466661 
1211	 0.22653761306595 
1212	 0.226658301690527 
1213	 0.226763120648937 
1214	 0.226884467690402 
1215	 0.22699100443399 
1216	 0.227086198441281 
1217	 0.227160413429979 
1218	 0.227239394405458 
1219	 0.227309841050092 
1220	 0.227391992873303 
1221	 0.227474701927288 
1222	 0.227555224362421 
1223	 0.227648120497696 
1224	 0.227726747407123 
1225	 0.227788172794801 
1226	 0.227861104759024 
1227	 0.227940209846352 
1228	 0.228011622529229 
1229	 0.22808282748557 
1230	 0.22815317927108 
1231	 0.228213309407831 
1232	 0.228279732547168 
1233	 0.228349161843683 
1234	 0.228426784529026 
1235	 0.228493775118895 
1236	 0.228563618362483 
1237	 0.228620381922694 
1238	 0.228660026591116 
1239	 0.228715229978903 
1240	 0.228773619847648 
1241	 0.228826365760618 
1242	 0.228881378469735 
1243	 0.228938776022566 
1244	 0.228982434959074 
1245	 0.229044005942395 
1246	 0.229131857352774 
1247	 0.229201795371068 
1248	 0.229269106643209 
1249	 0.22933547393721 
1250	 0.229400091943587 
1251	 0.229459098652217 
1252	 0.229506268195911 
1253	 0.229551495392864 
1254	 0.229589979198438 
1255	 0.229597318615551 
1256	 0.22964420358987 
1257	 0.229720536041381 
1258	 0.229770202133433 
1259	 0.229828846430732 
1260	 0.229872572976031 
1261	 0.2298883145055 
1262	 0.229918516518399 
1263	 0.229955627535228 
1264	 0.229988849878818 
1265	 0.23003302799806 
1266	 0.230055636348438 
1267	 0.230053461006193 
1268	 0.23006370238484 
1269	 0.230086411234093 
1270	 0.230101372610733 
1271	 0.230133609006912 
1272	 0.230198551668598 
1273	 0.230236147540021 
1274	 0.230270126235216 
1275	 0.230289239703641 
1276	 0.230290722584521 
1277	 0.230303362634048 
1278	 0.230308728666979 
1279	 0.230317599382299 
1280	 0.230335628309887 
1281	 0.230347677424383 
1282	 0.230332764228497 
1283	 0.230353477581989 
1284	 0.230380848995374 
1285	 0.230435542871056 
1286	 0.230521160395688 
1287	 0.230616308799148 
1288	 0.230722489249112 
1289	 0.230844934064659 
1290	 0.230973404052661 
1291	 0.231112140951414 
1292	 0.231266352228461 
1293	 0.231422080560781 
1294	 0.23160831833987 
1295	 0.231814734473188 
1296	 0.232040587192372 
1297	 0.232316949764534 
1298	 0.23255874063753 
1299	 0.232790084409637 
1300	 0.23303654519094 
1301	 0.233264450536875 
1302	 0.233517459329322 
1303	 0.233797241263173 
1304	 0.23408763117766 
1305	 0.234374198108684 
1306	 0.234639655663502 
1307	 0.234890780508558 
1308	 0.235144980917692 
1309	 0.235387161086451 
1310	 0.235620062673835 
1311	 0.235839950293014 
1312	 0.236057650095325 
1313	 0.23624649237469 
1314	 0.236421215442699 
1315	 0.236569442187961 
1316	 0.236685589353251 
1317	 0.236801427453819 
1318	 0.236911074095905 
1319	 0.236988647796845 
1320	 0.237063976065073 
1321	 0.237098124028784 
1322	 0.237097049178732 
1323	 0.237063296823788 
1324	 0.237008234878389 
1325	 0.236949039612937 
1326	 0.236872269747914 
1327	 0.23675815795242 
1328	 0.236629841898486 
1329	 0.236495337769347 
1330	 0.236341719182875 
1331	 0.236176760251146 
1332	 0.235987069342074 
1333	 0.23578622935129 
1334	 0.235549608444986 
1335	 0.235282322589007 
1336	 0.235008611397367 
1337	 0.234702148173288 
1338	 0.234399231617073 
1339	 0.234096832046879 
1340	 0.233774319793634 
1341	 0.233435609415972 
1342	 0.233099485515321 
1343	 0.232750252539644 
1344	 0.232396144341444 
1345	 0.23206509556294 
1346	 0.231735795504138 
1347	 0.231373935396668 
1348	 0.231005706306417 
1349	 0.230626472555022 
1350	 0.230210402509381 
1351	 0.229828042994607 
1352	 0.229467442205624 
1353	 0.229083598768287 
1354	 0.228702354403836 
1355	 0.228310347336349 
1356	 0.227879986702924 
1357	 0.227502035544234 
1358	 0.227123509921019 
1359	 0.226786399936744 
1360	 0.226503491127986 
1361	 0.226208552536127 
1362	 0.225917867986569 
1363	 0.225656850941277 
1364	 0.225406006037543 
1365	 0.225173141208808 
1366	 0.22497509434911 
1367	 0.224784373672093 
1368	 0.224586332836069 
1369	 0.224398696620131 
1370	 0.224190849462723 
1371	 0.22397436509194 
1372	 0.22373764673077 
1373	 0.22347445646334 
1374	 0.223182561591424 
1375	 0.222868596829635 
1376	 0.222517814193173 
1377	 0.222126174120848 
1378	 0.221722525769606 
1379	 0.221272320028263 
1380	 0.220855777742749 
1381	 0.220423252914696 
1382	 0.220018444472687 
1383	 0.219647256711636 
1384	 0.219255785589414 
1385	 0.21888933321729 
1386	 0.218484898057901 
1387	 0.218068121091409 
1388	 0.217627748262777 
1389	 0.217178651749453 
1390	 0.216688724583715 
1391	 0.216135641213642 
1392	 0.215534958128842 
1393	 0.214871533587227 
1394	 0.214183149978528 
1395	 0.213491049333742 
1396	 0.212789294744073 
1397	 0.212059293534812 
1398	 0.211305284585667 
1399	 0.210530788404869 
1400	 0.209732000722262 
1401	 0.208920542091263 
1402	 0.208087918737836 
1403	 0.207251848344906 
1404	 0.206400348130387 
1405	 0.205547617351458 
1406	 0.204687300518096 
1407	 0.203816025740488 
1408	 0.20291960042639 
1409	 0.202053614509031 
1410	 0.201172568655817 
1411	 0.200337772950106 
1412	 0.199535464112768 
1413	 0.198753129696125 
1414	 0.197997809319433 
1415	 0.197264428023308 
1416	 0.196537210170861 
1417	 0.195820600624264 
1418	 0.195108042679432 
1419	 0.194427556408888 
1420	 0.193810228529942 
1421	 0.193229737061883 
1422	 0.192686567128071 
1423	 0.192165383219499 
1424	 0.191644853708453 
1425	 0.191120407171413 
1426	 0.190634574557764 
1427	 0.190165438927627 
1428	 0.189729743924852 
1429	 0.189337983427745 
1430	 0.188939096959377 
1431	 0.188564293195154 
1432	 0.188178427432747 
1433	 0.187779485206197 
1434	 0.187408488878653 
1435	 0.187051447324291 
1436	 0.186700548610998 
1437	 0.186369759733075 
1438	 0.186040223450384 
1439	 0.185717930227705 
1440	 0.185389332347145 
1441	 0.185065213422105 
1442	 0.184745471650058 
1443	 0.184432028891979 
1444	 0.1841436008511 
1445	 0.183869544642883 
1446	 0.183621422679402 
1447	 0.183393323553965 
1448	 0.183187507572439 
1449	 0.183031075210595 
1450	 0.18291136523729 
1451	 0.182846104565888 
1452	 0.182826476610116 
1453	 0.182855452531594 
1454	 0.182944668469743 
1455	 0.183051497364 
1456	 0.183215763097975 
1457	 0.183364686150346 
1458	 0.183537638047725 
1459	 0.183709256826529 
1460	 0.183884864818272 
1461	 0.1840604773684 
1462	 0.18426139333859 
1463	 0.184421008036933 
1464	 0.184571767931192 
1465	 0.184701836191628 
1466	 0.184793071653856 
1467	 0.184888386026101 
1468	 0.184967611109973 
1469	 0.185049509576153 
1470	 0.185124615341175 
1471	 0.185214760655742 
1472	 0.185285875588793 
1473	 0.185350258351433 
1474	 0.185389834751155 
1475	 0.185419900740193 
1476	 0.18545770741609 
1477	 0.185501546724042 
1478	 0.185577052274657 
1479	 0.18567224656435 
1480	 0.185776766606789 
1481	 0.185882143828254 
1482	 0.185977015617054 
1483	 0.186064918499738 
1484	 0.186154722598036 
1485	 0.186232442587467 
1486	 0.18633234760441 
1487	 0.18644863742358 
1488	 0.186547429672467 
1489	 0.186652984368702 
1490	 0.186751123211737 
1491	 0.186833978276964 
1492	 0.186921392217152 
1493	 0.187006938262 
1494	 0.18710157993694 
1495	 0.187198848247976 
1496	 0.187292197825121 
1497	 0.187400909038593 
1498	 0.187491386724974 
1499	 0.187567472748465 
1500	 0.187644506992901 
1501	 0.187703096751593 
1502	 0.187783500223162 
1503	 0.18787364773363 
1504	 0.187966290553021 
1505	 0.188066731724412 
1506	 0.188132208666875 
1507	 0.188184593659839 
1508	 0.188233646355515 
1509	 0.188277109571654 
1510	 0.188351685840418 
1511	 0.188430130596222 
1512	 0.18849091945659 
1513	 0.188560537324824 
1514	 0.18863049218632 
1515	 0.188698451132853 
1516	 0.188772570680593 
1517	 0.188838880207243 
1518	 0.18890303659918 
1519	 0.188967270295359 
1520	 0.18903046192895 
1521	 0.189087334050435 
1522	 0.189139190396223 
1523	 0.189197035205243 
1524	 0.189247949104478 
1525	 0.189306853067954 
1526	 0.189383839141155 
1527	 0.189437178607234 
1528	 0.189476621210525 
1529	 0.189527237793246 
1530	 0.189572913887975 
1531	 0.189619199604831 
1532	 0.189672748476918 
1533	 0.189720346095065 
1534	 0.189761378315791 
1535	 0.189801272185485 
1536	 0.189847655840661 
1537	 0.189884600279398 
1538	 0.189901512057463 
1539	 0.189933504187563 
1540	 0.189970886786745 
1541	 0.190008202267651 
1542	 0.190057715793651 
1543	 0.190101167227147 
1544	 0.190134083641569 
1545	 0.190174663916017 
1546	 0.190221240485116 
1547	 0.190265416154799 
1548	 0.190299438326752 
1549	 0.190325651874683 
1550	 0.190352669026328 
1551	 0.190375171604243 
1552	 0.19040456717473 
1553	 0.190441222943611 
1554	 0.190461087069165 
1555	 0.190473607662037 
1556	 0.190484749136257 
1557	 0.190493882713054 
1558	 0.190497697274567 
1559	 0.19050964328251 
1560	 0.190523468859891 
1561	 0.190539003750906 
1562	 0.190558676492488 
1563	 0.190581413517802 
1564	 0.190605494663511 
1565	 0.190633604077236 
1566	 0.190662259143855 
1567	 0.190706154344093 
1568	 0.190717792066195 
1569	 0.190710652996817 
1570	 0.190712606341952 
1571	 0.190696611749067 
1572	 0.190694221715933 
1573	 0.190707912660617 
1574	 0.190710733409033 
1575	 0.190707450145368 
1576	 0.190702977405296 
1577	 0.190699873966477 
1578	 0.190692731542275 
1579	 0.190669123459405 
1580	 0.190668716427844 
1581	 0.190687180537575 
1582	 0.190687912213993 
1583	 0.190700186536866 
1584	 0.190693409042644 
1585	 0.190654396984267 
1586	 0.190638093514904 
1587	 0.190632234034123 
1588	 0.190618533367429 
1589	 0.190607455024604 
1590	 0.190595972362302 
1591	 0.190590349913633 
1592	 0.190563307447107 
1593	 0.190521933822584 
1594	 0.190489982561703 
1595	 0.1904448630749 
1596	 0.190400966282038 
1597	 0.190368029010334 
1598	 0.190329783041898 
1599	 0.190286739582519 
1600	 0.19023891892653 
1601	 0.190182814812725 
1602	 0.190140622835075 
1603	 0.19010062914516 
1604	 0.19005310265205 
1605	 0.190014276056374 
1606	 0.189974598168239 
1607	 0.189923125062465 
1608	 0.18987912403814 
1609	 0.189846159134422 
1610	 0.189799758056429 
1611	 0.189735822100621 
1612	 0.189668296257622 
1613	 0.189609581967449 
1614	 0.189545751171962 
1615	 0.189498432117158 
1616	 0.189458912802937 
1617	 0.189381655359422 
1618	 0.189310937520511 
1619	 0.189223377271481 
1620	 0.189107680096952 
1621	 0.189028071749914 
1622	 0.188960007824118 
1623	 0.188886960272639 
1624	 0.188834220145654 
1625	 0.188755130146913 
1626	 0.188657982136776 
1627	 0.188572507588075 
1628	 0.188485272738969 
1629	 0.188390021351914 
1630	 0.18829416506628 
1631	 0.188201566335538 
1632	 0.188089894806545 
1633	 0.188019217069878 
1634	 0.187979146197867 
1635	 0.187912062680742 
1636	 0.187863677050278 
1637	 0.18778042042576 
1638	 0.187661859029165 
1639	 0.187567883532958 
1640	 0.187469111130065 
1641	 0.187379885055321 
1642	 0.187305932988665 
1643	 0.187216028118529 
1644	 0.187120079584048 
1645	 0.187028429848836 
1646	 0.186937973312865 
1647	 0.186834664860922 
1648	 0.186726212111734 
1649	 0.186621416789202 
1650	 0.186501845402048 
1651	 0.186398715461282 
1652	 0.186306350464882 
1653	 0.18621819878396 
1654	 0.186139802085406 
1655	 0.186050499325376 
1656	 0.185973919186367 
1657	 0.185869475709924 
1658	 0.185728274363056 
1659	 0.185628499771153 
1660	 0.185536398234497 
1661	 0.185443480210602 
1662	 0.185380177293675 
1663	 0.185291903557984 
1664	 0.185180792649736 
1665	 0.185083538652038 
1666	 0.184989614697102 
1667	 0.184895414318147 
1668	 0.184798456377497 
1669	 0.184711709933104 
1670	 0.184627317395451 
1671	 0.184552491987168 
1672	 0.184489702189111 
1673	 0.18442550684243 
1674	 0.18437811034532 
1675	 0.184304229512638 
1676	 0.184222570460254 
1677	 0.184133172056077 
1678	 0.184022354046648 
1679	 0.183918927934161 
1680	 0.183812816940929 
1681	 0.183710166872118 
1682	 0.183602158618885 
1683	 0.183504739432397 
1684	 0.183417847838119 
1685	 0.183326822317662 
1686	 0.183245944316563 
1687	 0.183148115023103 
1688	 0.183036535467922 
1689	 0.182933252235909 
1690	 0.182821207146083 
1691	 0.182720435034206 
1692	 0.182637941171248 
1693	 0.182536412905463 
1694	 0.182415568851312 
1695	 0.182322732290266 
1696	 0.182229017921992 
1697	 0.182154453953101 
1698	 0.182121916739707 
1699	 0.182055343919306 
1700	 0.181981948284451 
1701	 0.181899730821767 
1702	 0.18179922015534 
1703	 0.181704562710508 
1704	 0.1816111298294 
1705	 0.181511193511747 
1706	 0.18139821307976 
1707	 0.181302043386647 
1708	 0.181207306632184 
1709	 0.181120429595735 
1710	 0.181052014104734 
1711	 0.180971001177598 
1712	 0.1808907577982 
1713	 0.180802659339282 
1714	 0.180707641678709 
1715	 0.180612249186686 
1716	 0.18050559893189 
1717	 0.180411082012691 
1718	 0.180322325137914 
1719	 0.180234231497449 
1720	 0.180152929540051 
1721	 0.180067113504893 
1722	 0.179981988934148 
1723	 0.179889324751864 
1724	 0.17980775698632 
1725	 0.17969069013035 
1726	 0.179534513735616 
1727	 0.179420960712574 
1728	 0.179293514085749 
1729	 0.179198299070776 
1730	 0.179159772119738 
1731	 0.179077648125925 
1732	 0.178978887953217 
1733	 0.17889264635159 
1734	 0.178799728557487 
1735	 0.178707465010452 
1736	 0.178632907451556 
1737	 0.178531059448024 
1738	 0.178403186871718 
1739	 0.178302461340053 
1740	 0.178196597291055 
1741	 0.178111467534143 
1742	 0.178040032986535 
1743	 0.177986780513927 
1744	 0.177955159592923 
1745	 0.177904804980467 
1746	 0.177881272231421 
1747	 0.177803043428804 
1748	 0.177704727767541 
1749	 0.177608538220977 
1750	 0.177512372237256 
1751	 0.177417030453984 
1752	 0.177321482087475 
1753	 0.177250268592202 
1754	 0.177168058557425 
1755	 0.177077547888528 
1756	 0.17701123533594 
1757	 0.176944371746439 
1758	 0.176866632476913 
1759	 0.176779454002032 
1760	 0.176679869486171 
1761	 0.176578348574727 
1762	 0.176490354065749 
1763	 0.17644283012659 
1764	 0.176416507177201 
1765	 0.176374777288843 
1766	 0.17630913338683 
1767	 0.176228424060663 
1768	 0.176145838363998 
1769	 0.176068320177182 
1770	 0.175995274963902 
1771	 0.175930459481884 
1772	 0.175878653304406 
1773	 0.17583409284223 
1774	 0.175787778320712 
1775	 0.175722660201242 
1776	 0.175638717126841 
1777	 0.175526601940768 
1778	 0.175413674661335 
1779	 0.175338730386416 
1780	 0.175282496263743 
1781	 0.175250296900319 
1782	 0.175234890998946 
1783	 0.175208995417634 
1784	 0.175188355132441 
1785	 0.175184642351204 
1786	 0.175146284172934 
1787	 0.175090987647681 
1788	 0.17502873758232 
1789	 0.174933312596549 
1790	 0.174865726474223 
1791	 0.174810517363618 
1792	 0.174759228719084 
1793	 0.174715985880804 
1794	 0.17467517703684 
1795	 0.17464344074671 
1796	 0.174613920383925 
1797	 0.174587313841078 
1798	 0.174549739944052 
1799	 0.174502757976257 
1800	 0.174466858309688 
1801	 0.170360731067442 
1802	 0.170508132884738 
1803	 0.170644596930736 
1804	 0.170812345477485 
1805	 0.170979451161922 
1806	 0.171095418871807 
1807	 0.171212346569752 
1808	 0.17131507486083 
1809	 0.171395640387601 
1810	 0.171471029334021 
1811	 0.171538793820609 
1812	 0.171604522825702 
1813	 0.171651719214249 
1814	 0.171696893722198 
1815	 0.171740693211004 
1816	 0.171773272584889 
1817	 0.171800379088955 
1818	 0.171823781259844 
1819	 0.171834931876148 
1820	 0.171834507515217 
1821	 0.17183386240976 
1822	 0.171818864016979 
1823	 0.171801605938577 
1824	 0.171822201943584 
1825	 0.171843078483752 
1826	 0.171870469841764 
1827	 0.171896323578609 
1828	 0.171901111361073 
1829	 0.171892550193703 
1830	 0.171874656261704 
1831	 0.171843439019626 
1832	 0.171803334030618 
1833	 0.171759739856969 
1834	 0.171668020420894 
1835	 0.171588868608548 
1836	 0.171536177971912 
1837	 0.171496384876321 
1838	 0.171485684500478 
1839	 0.171469260551293 
1840	 0.171464215058915 
1841	 0.171457881448367 
1842	 0.171461120988296 
1843	 0.171456511423159 
1844	 0.171455419661529 
1845	 0.171461272735224 
1846	 0.17146947944215 
1847	 0.171472181456261 
1848	 0.171476933989389 
1849	 0.17148151119386 
1850	 0.171466166895453 
1851	 0.171429817421688 
1852	 0.171388688175809 
1853	 0.171355250533337 
1854	 0.171299027238146 
1855	 0.171241164323712 
1856	 0.171173140638128 
1857	 0.171081741000952 
1858	 0.170998935576089 
1859	 0.170904537146749 
1860	 0.170785395740122 
1861	 0.170656826040315 
1862	 0.170507471228234 
1863	 0.170318715944899 
1864	 0.170096709271704 
1865	 0.169829413086738 
1866	 0.169514997928442 
1867	 0.169190428213341 
1868	 0.168840495362981 
1869	 0.168510626020581 
1870	 0.16820474667934 
1871	 0.167887560836799 
1872	 0.167563031199728 
1873	 0.167269053554222 
1874	 0.166968673804098 
1875	 0.166672749321073 
1876	 0.166375274961415 
1877	 0.166051332862325 
1878	 0.165690557266749 
1879	 0.165273367184167 
1880	 0.164810765756984 
1881	 0.164306310670989 
1882	 0.163746809931582 
1883	 0.163136831302272 
1884	 0.162475323086784 
1885	 0.161767700559637 
1886	 0.161020430412118 
1887	 0.160234437212461 
1888	 0.159400188647945 
1889	 0.158511915647886 
1890	 0.15759605858551 
1891	 0.156649042392213 
1892	 0.155659286028437 
1893	 0.154641933445686 
1894	 0.153603145820571 
1895	 0.152517010200454 
1896	 0.151381711423479 
1897	 0.150205930612321 
1898	 0.148985481215511 
1899	 0.147768355960234 
1900	 0.1465799791839 
1901	 0.145394156467171 
1902	 0.144260714188612 
1903	 0.143187383599167 
1904	 0.142120684778676 
1905	 0.141068646467051 
1906	 0.140072012684659 
1907	 0.139094344815677 
1908	 0.138146005426234 
1909	 0.13724223261766 
1910	 0.136345809744923 
1911	 0.135490260920094 
1912	 0.134650628394894 
1913	 0.133832032620688 
1914	 0.1330204391639 
1915	 0.132265532421758 
1916	 0.131532611959683 
1917	 0.130846942999554 
1918	 0.130229273161916 
1919	 0.129637802456838 
1920	 0.129097778065407 
1921	 0.128608900503358 
1922	 0.128141921174943 
1923	 0.127716307327418 
1924	 0.127306171971159 
1925	 0.126921591689548 
1926	 0.126557981303054 
1927	 0.1262133771927 
1928	 0.125895374414499 
1929	 0.125612149608176 
1930	 0.125348338291784 
1931	 0.125097424578977 
1932	 0.124877454786219 
1933	 0.124668451636386 
1934	 0.124464697226598 
1935	 0.124285462303941 
1936	 0.124116646426035 
1937	 0.123978964442066 
1938	 0.123876014819964 
1939	 0.123777456361201 
1940	 0.123692073866187 
1941	 0.123633026598523 
1942	 0.123588982967433 
1943	 0.123571218068872 
1944	 0.123598208026679 
1945	 0.123661539204738 
1946	 0.123741189958189 
1947	 0.123853241497592 
1948	 0.123974418755287 
1949	 0.12411896840364 
1950	 0.124269676302971 
1951	 0.124434783374351 
1952	 0.124612059253787 
1953	 0.124799186447631 
1954	 0.124999239435364 
1955	 0.125175186086131 
1956	 0.125333953514779 
1957	 0.125505833525184 
1958	 0.125655535971251 
1959	 0.125833444387787 
1960	 0.126049773826177 
1961	 0.126237455537188 
1962	 0.126423335148002 
1963	 0.1266028144049 
1964	 0.126770912582848 
1965	 0.126926628993017 
1966	 0.127101202442701 
1967	 0.127277678809661 
1968	 0.127441931607215 
1969	 0.127599304667878 
1970	 0.127765162443862 
1971	 0.127926547587882 
1972	 0.128088876793399 
1973	 0.128264466232566 
1974	 0.128429037782922 
1975	 0.128582068184211 
1976	 0.12873073269656 
1977	 0.128898844126463 
1978	 0.129083714593639 
1979	 0.129277505423599 
1980	 0.129473957064677 
1981	 0.129665221190208 
1982	 0.129843644081136 
1983	 0.13004275714845 
1984	 0.130250096008118 
1985	 0.130459097755915 
1986	 0.130701322774689 
1987	 0.130912561937687 
1988	 0.131099187710366 
1989	 0.131297615843381 
1990	 0.131512497164753 
1991	 0.131677603552347 
1992	 0.131873292536543 
1993	 0.132092307667727 
1994	 0.13229009209431 
1995	 0.132475426133657 
1996	 0.132673470533999 
1997	 0.132864996072047 
1998	 0.13306584784103 
1999	 0.133285264459592 
2000	 0.133490854848081 
2001	 0.133692992044527 
2002	 0.133899559564549 
2003	 0.134091586875946 
2004	 0.134272988127727 
2005	 0.134465942858665 
2006	 0.134653304809009 
2007	 0.134859094211681 
2008	 0.135087306022344 
2009	 0.135295565793002 
2010	 0.135505982072689 
2011	 0.135709366808598 
2012	 0.135885491241201 
2013	 0.136087198407538 
2014	 0.136288023590322 
2015	 0.136521815257045 
2016	 0.136769287719185 
2017	 0.136994371854658 
2018	 0.137217404679132 
2019	 0.137436495986835 
2020	 0.137651925153137 
2021	 0.137864344968913 
2022	 0.138066903748372 
2023	 0.138248186546409 
2024	 0.13845436337407 
2025	 0.13866824399215 
2026	 0.138874284963312 
2027	 0.139085247529808 
2028	 0.139317745081385 
2029	 0.139522472945457 
2030	 0.139697469450555 
2031	 0.139906248555789 
2032	 0.140121253918084 
2033	 0.140339846644809 
2034	 0.140589747108252 
2035	 0.140802320737017 
2036	 0.141000184818498 
2037	 0.141196612594334 
2038	 0.141381285942097 
2039	 0.141552711848885 
2040	 0.141706718757853 
2041	 0.141872673347673 
2042	 0.142022622556692 
2043	 0.142180651889423 
2044	 0.142362168517679 
2045	 0.142570885970739 
2046	 0.142768675804819 
2047	 0.142985533777443 
2048	 0.143182265381446 
2049	 0.143372077684671 
2050	 0.14355723350019 
2051	 0.143740619477116 
2052	 0.14390873535134 
2053	 0.144044638855776 
2054	 0.144210810820022 
2055	 0.144380965760255 
2056	 0.14455465849405 
2057	 0.144736168693491 
2058	 0.144953425681077 
2059	 0.145132668279852 
2060	 0.145300110292564 
2061	 0.145452694769917 
2062	 0.145578398881693 
2063	 0.145723820753145 
2064	 0.145856875409562 
2065	 0.146006745787257 
2066	 0.146183538407792 
2067	 0.146343882186122 
2068	 0.146495619179879 
2069	 0.146657152681717 
2070	 0.146813013679521 
2071	 0.146960000048038 
2072	 0.147115311796888 
2073	 0.147278472435588 
2074	 0.14743265662575 
2075	 0.1475916836516 
2076	 0.147736409373518 
2077	 0.14786239447868 
2078	 0.14800326850827 
2079	 0.148137427524142 
2080	 0.148281118615292 
2081	 0.14845046446093 
2082	 0.148599882675408 
2083	 0.148737620286908 
2084	 0.148879613938007 
2085	 0.149019158930829 
2086	 0.149148883535033 
2087	 0.149284915149744 
2088	 0.149430155131125 
2089	 0.14956235591448 
2090	 0.149681260639518 
2091	 0.149812098527617 
2092	 0.149938045700149 
2093	 0.150077062486295 
2094	 0.150227189118764 
2095	 0.150379778062714 
2096	 0.150550501233274 
2097	 0.150704839326389 
2098	 0.150869178300863 
2099	 0.15101094901277 
2100	 0.151131219110436 
2101	 0.151222180648572 
2102	 0.151332401247471 
2103	 0.151418492037951 
2104	 0.151538202840577 
2105	 0.151681501005229 
2106	 0.1518193838013 
2107	 0.151968904169857 
2108	 0.1521137553997 
2109	 0.152255185067988 
2110	 0.152405179254471 
2111	 0.152554582633269 
2112	 0.152714916007142 
2113	 0.15289732377644 
2114	 0.15306321609802 
2115	 0.153230923764146 
2116	 0.153413289979002 
2117	 0.153555641199525 
2118	 0.153681756510681 
2119	 0.15379564916252 
2120	 0.153867150871882 
2121	 0.153975349532827 
2122	 0.154084978313268 
2123	 0.154204314249327 
2124	 0.154354773736186 
2125	 0.154480559640678 
2126	 0.154600370660409 
2127	 0.154715099807355 
2128	 0.15481784038106 
2129	 0.154917923489333 
2130	 0.155022077694556 
2131	 0.155110438723263 
2132	 0.155191278223238 
2133	 0.155262043117743 
2134	 0.155332005535854 
2135	 0.155390207488925 
2136	 0.15545133918976 
2137	 0.155517255328388 
2138	 0.155569983933615 
2139	 0.155627781698719 
2140	 0.155656980087663 
2141	 0.155665275460444 
2142	 0.155666107552308 
2143	 0.155633819297455 
2144	 0.155617328102689 
2145	 0.155608788618991 
2146	 0.155589455521113 
2147	 0.155558912663153 
2148	 0.155539798265078 
2149	 0.155523526063709 
2150	 0.155502500575272 
2151	 0.155489576771052 
2152	 0.155503310053572 
2153	 0.155477200985355 
2154	 0.15543975728044 
2155	 0.155385412271236 
2156	 0.155303284194449 
2157	 0.155225138172519 
2158	 0.155112998757557 
2159	 0.155042938794082 
2160	 0.15499453853821 
2161	 0.15494064444581 
2162	 0.154932025812824 
2163	 0.154884049231068 
2164	 0.154809825891543 
2165	 0.154725209218048 
2166	 0.154643028189417 
2167	 0.154544242321523 
2168	 0.154453515171927 
2169	 0.154374196984846 
2170	 0.154273878709714 
2171	 0.154156644815304 
2172	 0.154048490644236 
2173	 0.153921825283311 
2174	 0.153822535075697 
2175	 0.153743588407094 
2176	 0.15365750423687 
2177	 0.153595564233935 
2178	 0.153507419051892 
2179	 0.153399684341835 
2180	 0.153297304267723 
2181	 0.15318185896142 
2182	 0.153069780401482 
2183	 0.15295749327545 
2184	 0.152854146475452 
2185	 0.15274419219122 
2186	 0.152639017981427 
2187	 0.152516321679726 
2188	 0.152378199664092 
2189	 0.152257447361155 
2190	 0.15212277734556 
2191	 0.152008797545772 
2192	 0.151919587391562 
2193	 0.151821920087974 
2194	 0.151717421414352 
2195	 0.15163573104472 
2196	 0.15157301672806 
2197	 0.151501104501989 
2198	 0.151444605346981 
2199	 0.151378004835416 
2200	 0.151282758745822 
2201	 0.151216451526078 
2202	 0.151162813610165 
2203	 0.151116789647488 
2204	 0.15108446028949 
2205	 0.151073008321026 
2206	 0.151065509107449 
2207	 0.15107394450794 
2208	 0.151065242527614 
2209	 0.151061014548652 
2210	 0.151052958783147 
2211	 0.151028921651968 
2212	 0.151019158600563 
2213	 0.151026004552917 
2214	 0.151018707319592 
2215	 0.151001167957911 
2216	 0.15099350763478 
2217	 0.150980507976313 
2218	 0.1509772184408 
2219	 0.150988847388296 
2220	 0.150995393371748 
2221	 0.150993984850569 
2222	 0.151006959835219 
2223	 0.151037844616683 
2224	 0.151075402979579 
2225	 0.151113582588088 
2226	 0.151182981542276 
2227	 0.151202337141665 
2228	 0.151188145427883 
2229	 0.151202836913901 
2230	 0.151215382430147 
2231	 0.151215286682295 
2232	 0.151223917107478 
2233	 0.151225607746402 
2234	 0.151200443763851 
2235	 0.151193312775938 
2236	 0.151209567455575 
2237	 0.151207926763625 
2238	 0.151199966731442 
2239	 0.151182611145158 
2240	 0.151150656353162 
2241	 0.15112578354074 
2242	 0.15109601830904 
2243	 0.151068703607172 
2244	 0.151046666524037 
2245	 0.151026748517464 
2246	 0.150990732888369 
2247	 0.150957348283339 
2248	 0.150931463239092 
2249	 0.150909813444166 
2250	 0.150874593113678 
2251	 0.150848842424233 
2252	 0.150796245278182 
2253	 0.150710469860705 
2254	 0.150661191651161 
2255	 0.150620549780703 
2256	 0.150570097873219 
2257	 0.150538326519569 
2258	 0.150480016487713 
2259	 0.150380754172044 
2260	 0.150323270165948 
2261	 0.150280809750237 
2262	 0.150241763248903 
2263	 0.15024091329165 
2264	 0.150201731564044 
2265	 0.150124626090472 
2266	 0.15007851312205 
2267	 0.150024805971826 
2268	 0.149993080414884 
2269	 0.15001228718453 
2270	 0.149998860822873 
2271	 0.14997290152403 
2272	 0.149933761841627 
2273	 0.149860655279862 
2274	 0.149810807402357 
2275	 0.149766666902939 
2276	 0.149736359013732 
2277	 0.149682068613765 
2278	 0.149617982925231 
2279	 0.149576384354387 
2280	 0.14952737190811 
2281	 0.149485785359067 
2282	 0.149490779983367 
2283	 0.14943571692096 
2284	 0.149351412925642 
2285	 0.149259679464554 
2286	 0.149120101505991 
2287	 0.14902144148636 
2288	 0.148926908067301 
2289	 0.148843972303589 
2290	 0.148784197829 
2291	 0.148718980428953 
2292	 0.148665159654946 
2293	 0.148597135616404 
2294	 0.148525373469453 
2295	 0.148457750760277 
2296	 0.148409402231919 
2297	 0.148308689903933 
2298	 0.148173020841442 
2299	 0.148059565801584 
2300	 0.147919220737028 
2301	 0.147796891688891 
2302	 0.147735644460803 
2303	 0.147655130146535 
2304	 0.147545318119708 
2305	 0.147458351091591 
2306	 0.147351110595914 
2307	 0.147245795217576 
2308	 0.147090191993037 
2309	 0.146890746994838 
2310	 0.146717148110093 
2311	 0.146511293430994 
2312	 0.146341951806555 
2313	 0.146206902997089 
2314	 0.146065261140464 
2315	 0.145925555729696 
2316	 0.145772805551862 
2317	 0.145629500491171 
2318	 0.145482105039506 
2319	 0.145291170449305 
2320	 0.145161806546805 
2321	 0.145094313554869 
2322	 0.144982957163144 
2323	 0.144894119223958 
2324	 0.144777227174284 
2325	 0.144607248942727 
2326	 0.144453235540197 
2327	 0.14429433923609 
2328	 0.14414709848519 
2329	 0.144029192531632 
2330	 0.143893267147944 
2331	 0.143738873135489 
2332	 0.143585659231071 
2333	 0.143418530440099 
2334	 0.143270824226946 
2335	 0.143136938688095 
2336	 0.142948453838765 
2337	 0.142750873372157 
2338	 0.142574516939208 
2339	 0.142345154521518 
2340	 0.142155076459248 
2341	 0.142023835856258 
2342	 0.141802445688575 
2343	 0.141651690608048 
2344	 0.141559787646458 
2345	 0.141366187486697 
2346	 0.141114766887809 
2347	 0.140894011390607 
2348	 0.140597263357577 
2349	 0.140395749721545 
2350	 0.140279963545162 
2351	 0.140084583610356 
2352	 0.139910415970368 
2353	 0.139662785632942 
2354	 0.139307889698176 
2355	 0.139054721043358 
2356	 0.138827399238494 
2357	 0.13859261415051 
2358	 0.138402428840523 
2359	 0.138183540519083 
2360	 0.137945040137998 
2361	 0.137680626479679 
2362	 0.13742152432787 
2363	 0.137146201004804 
2364	 0.136796250220266 
2365	 0.136510932503756 
2366	 0.13626965243854 
2367	 0.136005179464656 
2368	 0.135750459105237 
2369	 0.135502250970362 
2370	 0.135268661772401 
2371	 0.13499412383947 
2372	 0.134707512884901 
2373	 0.13443636419029 
2374	 0.134155694907038 
2375	 0.133867967924304 
2376	 0.133533266753623 
2377	 0.133229375495043 
2378	 0.133006840364296 
2379	 0.132773135784721 
2380	 0.132580628359707 
2381	 0.132362409456572 
2382	 0.132088965245628 
2383	 0.131817543981294 
2384	 0.131543158614792 
2385	 0.131332226429107 
2386	 0.131048214869442 
2387	 0.130737620968704 
2388	 0.130544061772059 
2389	 0.130338089395547 
2390	 0.130150411855206 
2391	 0.130003848076988 
2392	 0.129762038144875 
2393	 0.129485588643657 
2394	 0.129226293387376 
2395	 0.128932643610732 
2396	 0.128711057901351 
2397	 0.128523816103438 
2398	 0.128356245846773 
2399	 0.12813919418334 
2400	 0.127781085863014 
2401	 0.127529676639187 
2402	 0.127306718360508 
2403	 0.127119945000987 
2404	 0.126973428479653 
2405	 0.126758548350451 
2406	 0.126581137800167 
2407	 0.126358807357179 
2408	 0.126244936448349 
2409	 0.126155700153622 
2410	 0.125923299701821 
2411	 0.125691616215459 
2412	 0.125461245918417 
2413	 0.125241981308578 
2414	 0.12508117274491 
2415	 0.124898110734125 
2416	 0.124695065924763 
2417	 0.124442764943067 
2418	 0.124272208667621 
2419	 0.124157130078472 
2420	 0.123982687067659 
2421	 0.123823747091793 
2422	 0.123633955555555 
2423	 0.123334160010805 
2424	 0.123116344272899 
2425	 0.122960509959124 
2426	 0.12275674852583 
2427	 0.122555510004813 
2428	 0.122418555991932 
2429	 0.122320224621235 
2430	 0.122172565913475 
2431	 0.122064025098046 
2432	 0.121847162340848 
2433	 0.121495397766689 
2434	 0.121271436812351 
2435	 0.121054347046541 
2436	 0.120889389720295 
2437	 0.120813606167029 
2438	 0.120688360926102 
2439	 0.120610470586628 
2440	 0.120388501760395 
2441	 0.120079218172922 
2442	 0.11981883421564 
2443	 0.119479696386769 
2444	 0.119230221106708 
2445	 0.118997392281701 
2446	 0.118835122832504 
2447	 0.118735447614202 
2448	 0.118597792870607 
2449	 0.118606001982068 
2450	 0.118474358681764 
2451	 0.118151439110643 
2452	 0.117984228767922 
2453	 0.117900113907071 
2454	 0.117725564546904 
2455	 0.117602153637628 
2456	 0.117406044809255 
2457	 0.117039394622418 
2458	 0.1167527086185 
2459	 0.116494795673214 
2460	 0.116347322347691 
2461	 0.11627487312047 
2462	 0.116117887591175 
2463	 0.115991531268426 
2464	 0.115910907749427 
2465	 0.115806944113497 
2466	 0.1156434913369 
2467	 0.115529853420999 
2468	 0.115422072759346 
2469	 0.115189161259057 
2470	 0.115250900492244 
2471	 0.115252889932208 
2472	 0.115037737945383 
2473	 0.114791001185329 
2474	 0.114505510673149 
2475	 0.114198391978821 
2476	 0.114034243589828 
2477	 0.113951841594492 
2478	 0.113998257001155 
2479	 0.114066393709585 
2480	 0.113844760752448 
2481	 0.113533609214857 
2482	 0.113280319425163 
2483	 0.113093028255023 
2484	 0.113121844925745 
2485	 0.113218595733143 
2486	 0.113210865227913 
2487	 0.112993278926119 
2488	 0.112655417889153 
2489	 0.112502618054421 
2490	 0.112422114396141 
2491	 0.112170866617794 
2492	 0.111943041628337 
2493	 0.111792895422063 
2494	 0.111485363585284 
2495	 0.111232775075075 
2496	 0.111075457457916 
2497	 0.110727045360908 
2498	 0.11050502378117 
2499	 0.110361612849021 
2500	 0.110114223784167 
