Wavelength	LMW_1000005.asd
350	 4.23832173160837E-02 
351	 4.96803763932097E-02 
352	 4.97593626655234E-02 
353	 4.46166072923115E-02 
354	 5.29079024138778E-02 
355	 5.01956750218266E-02 
356	 4.43958751563583E-02 
357	 4.68924201589398E-02 
358	 4.94808461710711E-02 
359	 4.88075693591427E-02 
360	 4.79099184484117E-02 
361	 0.052300887243216 
362	 4.83317011055325E-02 
363	 4.25995730745646E-02 
364	 4.21481077591255E-02 
365	 5.15545242783164E-02 
366	 5.10528019213963E-02 
367	 4.55921770341662E-02 
368	 4.47175168281795E-02 
369	 4.63753000128894E-02 
370	 4.45821071160167E-02 
371	 4.21357054874288E-02 
372	 4.67362595011301E-02 
373	 4.80606297809321E-02 
374	 4.81421549266326E-02 
375	 4.85321269696144E-02 
376	 4.69633893159264E-02 
377	 0.045265935966332 
378	 4.57569476615951E-02 
379	 4.90460619916903E-02 
380	 4.87337589745153E-02 
381	 4.73437758887304E-02 
382	 0.046620438754866 
383	 4.73748681854821E-02 
384	 5.00779961447566E-02 
385	 4.99704680626383E-02 
386	 4.62537842581006E-02 
387	 4.67046151102516E-02 
388	 4.86149184938621E-02 
389	 4.96558087568202E-02 
390	 4.82905171785208E-02 
391	 4.63007971440586E-02 
392	 0.04654285220453 
393	 4.89802906603471E-02 
394	 5.11056271354574E-02 
395	 5.13200514930906E-02 
396	 5.01869971935133E-02 
397	 4.92836272506068E-02 
398	 5.18444320590881E-02 
399	 5.13568181685762E-02 
400	 5.01539753506533E-02 
401	 0.052485941929262 
402	 5.37499733566812E-02 
403	 5.32092899571081E-02 
404	 5.14475596718558E-02 
405	 5.00706215685952E-02 
406	 5.15156722010372E-02 
407	 5.35034467006356E-02 
408	 5.38624189140344E-02 
409	 5.30813805276536E-02 
410	 5.21448161739889E-02 
411	 0.052002693862349 
412	 5.31689352297789E-02 
413	 5.37752388096076E-02 
414	 5.39486754620826E-02 
415	 5.37707058615775E-02 
416	 5.29651254120337E-02 
417	 5.28235137949255E-02 
418	 5.34648418583773E-02 
419	 5.43298253702953E-02 
420	 5.37908562063059E-02 
421	 5.29664038372278E-02 
422	 5.27036318320511E-02 
423	 5.34443085079926E-02 
424	 5.38231259989065E-02 
425	 5.38314118289579E-02 
426	 5.35955597452561E-02 
427	 5.30261428332784E-02 
428	 5.30080117781014E-02 
429	 5.31359477812436E-02 
430	 0.052838453320581 
431	 5.30834299763928E-02 
432	 5.29981584038628E-02 
433	 5.26184962115965E-02 
434	 0.052873213272084 
435	 5.28871670859962E-02 
436	 5.28367390275839E-02 
437	 5.28304965120709E-02 
438	 5.21388436818273E-02 
439	 5.21312186383356E-02 
440	 5.25277059786621E-02 
441	 5.23376555365807E-02 
442	 5.21281494684044E-02 
443	 5.23950816546888E-02 
444	 5.28459952443023E-02 
445	 5.19873383527701E-02 
446	 5.20863521034582E-02 
447	 5.26797667768055E-02 
448	 5.27102892497776E-02 
449	 5.21431809170669E-02 
450	 5.22393408410357E-02 
451	 5.28363032865197E-02 
452	 5.26192077950427E-02 
453	 5.26635841355429E-02 
454	 5.25174017863717E-02 
455	 5.20445622953607E-02 
456	 5.25774634142643E-02 
457	 5.27772593375227E-02 
458	 5.26877052860611E-02 
459	 5.28632606084966E-02 
460	 5.25912416041511E-02 
461	 5.22894158634596E-02 
462	 5.22282085132566E-02 
463	 5.23412398120087E-02 
464	 5.22971129820256E-02 
465	 5.21789205339562E-02 
466	 5.21618143800613E-02 
467	 5.22687250761208E-02 
468	 5.22620555932652E-02 
469	 5.21617206173229E-02 
470	 5.21844883986593E-02 
471	 5.21074420926228E-02 
472	 5.21020309758485E-02 
473	 5.22195179565366E-02 
474	 5.20583688246256E-02 
475	 5.20451084694404E-02 
476	 5.19966174905557E-02 
477	 5.16029511723944E-02 
478	 0.051673561831635 
479	 5.18523916584328E-02 
480	 5.19126368207136E-02 
481	 5.19473618356291E-02 
482	 5.21721427754739E-02 
483	 5.22777155932196E-02 
484	 0.052008443447104 
485	 0.051932105855071 
486	 0.051842044894506 
487	 5.17055268254951E-02 
488	 5.16484729559997E-02 
489	 5.17314528619032E-02 
490	 5.18008458224711E-02 
491	 5.17815747425412E-02 
492	 5.19179738843654E-02 
493	 5.17957112140465E-02 
494	 5.14922970961299E-02 
495	 5.13286007513322E-02 
496	 5.14920765504851E-02 
497	 5.17141394871316E-02 
498	 5.18054568750696E-02 
499	 0.051761336833976 
500	 5.16814056302072E-02 
501	 5.16002716711709E-02 
502	 5.15505181242586E-02 
503	 5.16690899675356E-02 
504	 5.17269764230314E-02 
505	 5.16326976798123E-02 
506	 5.14453359308795E-02 
507	 5.14860736584544E-02 
508	 5.15608809735154E-02 
509	 5.15131082876468E-02 
510	 5.15893161547507E-02 
511	 5.15534039980924E-02 
512	 5.14886433672472E-02 
513	 5.15976214722441E-02 
514	 5.14894533010561E-02 
515	 0.051467293288159 
516	 5.16209463627821E-02 
517	 5.15429025178711E-02 
518	 5.15420463770189E-02 
519	 5.15756702875094E-02 
520	 0.051532089824447 
521	 5.15513516978039E-02 
522	 5.16071568646875E-02 
523	 5.16267636111934E-02 
524	 5.15049158545725E-02 
525	 5.15073966171115E-02 
526	 0.05155425708523 
527	 5.15405499081896E-02 
528	 5.15428098942445E-02 
529	 5.15804891688182E-02 
530	 5.16304554188363E-02 
531	 5.16444830989964E-02 
532	 5.16352324086097E-02 
533	 5.16443170662985E-02 
534	 5.16901929646168E-02 
535	 5.17428545430967E-02 
536	 5.17535998674232E-02 
537	 5.17552875755486E-02 
538	 5.18027136352211E-02 
539	 5.18515867600966E-02 
540	 5.18452279250349E-02 
541	 5.18036974053503E-02 
542	 5.18464194098102E-02 
543	 5.19215724836935E-02 
544	 5.20124024866902E-02 
545	 5.21048482099616E-02 
546	 5.21730027415323E-02 
547	 5.21810520649393E-02 
548	 5.22014724440147E-02 
549	 5.23792751786984E-02 
550	 5.24276723823495E-02 
551	 5.24168641600986E-02 
552	 5.24657693500435E-02 
553	 5.26579774201089E-02 
554	 5.27564317712126E-02 
555	 5.27614357235796E-02 
556	 5.28099048952381E-02 
557	 5.30124429776488E-02 
558	 5.31876146837916E-02 
559	 5.32730467878349E-02 
560	 5.34746221445029E-02 
561	 5.36646309473632E-02 
562	 5.38094374614685E-02 
563	 5.39317165202197E-02 
564	 5.41913110814225E-02 
565	 5.43740114453246E-02 
566	 0.054490753699022 
567	 0.05482078598289 
568	 5.51279193343098E-02 
569	 5.54155970953206E-02 
570	 5.57236420166073E-02 
571	 5.60151468386108E-02 
572	 5.63188683078926E-02 
573	 0.056676182045434 
574	 0.057119705335091 
575	 5.74759701059409E-02 
576	 5.77966858789334E-02 
577	 5.81362829907343E-02 
578	 0.058457901261396 
579	 5.88818367983286E-02 
580	 5.94062156952545E-02 
581	 5.99726661609066E-02 
582	 6.05728114914184E-02 
583	 6.11164486693955E-02 
584	 6.15996993712557E-02 
585	 0.062150045594858 
586	 6.26843130395106E-02 
587	 6.31923408880262E-02 
588	 6.37014598291167E-02 
589	 6.43160458322111E-02 
590	 6.49199866844901E-02 
591	 6.54879417178599E-02 
592	 6.60849179866779E-02 
593	 6.66725789988918E-02 
594	 6.72622179122852E-02 
595	 0.067877931243789 
596	 6.85587446292899E-02 
597	 6.92505584174321E-02 
598	 6.99137334490169E-02 
599	 7.05255909910721E-02 
600	 0.07110251493693 
601	 7.16990901411605E-02 
602	 7.23257657310354E-02 
603	 7.29188321027993E-02 
604	 7.34290661288941E-02 
605	 7.39316361797337E-02 
606	 7.45160158983879E-02 
607	 7.50690072113514E-02 
608	 7.55872859079476E-02 
609	 7.60918152987874E-02 
610	 7.66233197944886E-02 
611	 7.70649728150656E-02 
612	 7.74618718387726E-02 
613	 7.78756220970542E-02 
614	 7.82908889940671E-02 
615	 7.86492561950025E-02 
616	 7.89478882484474E-02 
617	 7.92296691600638E-02 
618	 7.96026620071594E-02 
619	 7.99276672906127E-02 
620	 0.080132442195864 
621	 8.03643816166011E-02 
622	 8.05876019150389E-02 
623	 0.080823909452585 
624	 8.10970902391683E-02 
625	 0.081314717755031 
626	 8.15250259498977E-02 
627	 8.17519250949511E-02 
628	 8.19720071141224E-02 
629	 8.21499546638248E-02 
630	 8.23299567129835E-02 
631	 8.25401736393449E-02 
632	 8.26430202298458E-02 
633	 8.28030089721498E-02 
634	 8.30256643410841E-02 
635	 8.31898307377766E-02 
636	 8.34141991810829E-02 
637	 8.36312385900958E-02 
638	 8.37757215791833E-02 
639	 8.38492482842007E-02 
640	 8.40157533969098E-02 
641	 8.42449411612625E-02 
642	 8.44213638968041E-02 
643	 0.084582276319999 
644	 8.47551119937224E-02 
645	 8.49466698314095E-02 
646	 8.51342871029535E-02 
647	 8.53130468348229E-02 
648	 8.54954242016076E-02 
649	 8.56968621330986E-02 
650	 8.59235885507959E-02 
651	 8.61249885529324E-02 
652	 8.62974270692249E-02 
653	 8.64822401543082E-02 
654	 8.67379912032865E-02 
655	 8.69756364856228E-02 
656	 8.71541522456579E-02 
657	 0.08742355351989 
658	 8.76991498847199E-02 
659	 8.79401483528017E-02 
660	 0.088140326893577 
661	 8.83971687408913E-02 
662	 8.86794016838127E-02 
663	 8.89622691366761E-02 
664	 8.92495791581122E-02 
665	 8.95621292903201E-02 
666	 8.98517328682931E-02 
667	 9.00853139239571E-02 
668	 0.090362100479488 
669	 9.07264695533349E-02 
670	 9.11224671257669E-02 
671	 9.14231901933955E-02 
672	 9.17538583871692E-02 
673	 9.21262186458959E-02 
674	 9.25165681392479E-02 
675	 9.28677624578828E-02 
676	 0.09319840503331 
677	 0.093549170541006 
678	 9.39589814753815E-02 
679	 9.43684314920768E-02 
680	 9.47760924554995E-02 
681	 9.51854513606777E-02 
682	 9.55995947137377E-02 
683	 9.60436137810852E-02 
684	 9.65017782485103E-02 
685	 9.69540471726295E-02 
686	 9.74039621589098E-02 
687	 9.78920940593488E-02 
688	 9.83880610428036E-02 
689	 9.88197903148265E-02 
690	 9.92616318137269E-02 
691	 9.97605930978429E-02 
692	 0.100313005176599 
693	 0.100829823460386 
694	 0.101310637045072 
695	 0.10181367706262 
696	 0.102395103993622 
697	 0.102960196154283 
698	 0.103496414800689 
699	 0.104022434215162 
700	 0.104583048627352 
701	 0.105149453308504 
702	 0.105731167413741 
703	 0.106323896190479 
704	 0.106858479002944 
705	 0.107407912095249 
706	 0.108000546625459 
707	 0.108629298935374 
708	 0.109234585539655 
709	 0.109787585523536 
710	 0.110310062935904 
711	 0.11089040173629 
712	 0.111510499506694 
713	 0.112124847152287 
714	 0.112694546436032 
715	 0.113232791200526 
716	 0.113797430165325 
717	 0.114380710584262 
718	 0.114927552265377 
719	 0.115451901703573 
720	 0.115981974448885 
721	 0.116520882839113 
722	 0.117018054259111 
723	 0.117523995391223 
724	 0.118027170282523 
725	 0.118504920141209 
726	 0.118997028567268 
727	 0.119428705146529 
728	 0.119809523236133 
729	 0.12022541367362 
730	 0.120601021089511 
731	 0.120967748091932 
732	 0.121339546332096 
733	 0.121641305652468 
734	 0.121933936128544 
735	 0.122202128357094 
736	 0.122414274563029 
737	 0.122635795908234 
738	 0.122862733478606 
739	 0.12307876411548 
740	 0.12326060490816 
741	 0.123406393627451 
742	 0.123500020554561 
743	 0.1235377657624 
744	 0.123548634978195 
745	 0.123559955273217 
746	 0.123575399469267 
747	 0.123580464460358 
748	 0.123544754237794 
749	 0.12345059905655 
750	 0.123323659978572 
751	 0.123236608909865 
752	 0.123117928508419 
753	 0.1229860080989 
754	 0.122854383474697 
755	 0.12266435675928 
756	 0.122412897408969 
757	 0.122153846888548 
758	 0.121950324234576 
759	 0.121699227844809 
760	 0.121394256096888 
761	 0.121074397748394 
762	 0.120819084515869 
763	 0.120538804341653 
764	 0.120221484396205 
765	 0.119882272662268 
766	 0.119560586102837 
767	 0.119194681731108 
768	 0.118810958058138 
769	 0.118466926815051 
770	 0.118099969913163 
771	 0.117708664005313 
772	 0.117310011037523 
773	 0.116934536683142 
774	 0.116548811723994 
775	 0.116152345596326 
776	 0.115751537699003 
777	 0.115351838741864 
778	 0.114955405269817 
779	 0.11454526566903 
780	 0.114108297836735 
781	 0.113712066139146 
782	 0.113322867230445 
783	 0.11292583368145 
784	 0.112535175251726 
785	 0.112148406300416 
786	 0.111769731074557 
787	 0.111395096427117 
788	 0.110992994570896 
789	 0.110633694801041 
790	 0.110278315011252 
791	 0.109861608740725 
792	 0.1094112781618 
793	 0.109040044883974 
794	 0.108732795336183 
795	 0.108368398748099 
796	 0.107995319306911 
797	 0.10762547306815 
798	 0.107269058800689 
799	 0.10694082343153 
800	 0.106632564706977 
801	 0.106302683571232 
802	 0.105934547164764 
803	 0.105646815783647 
804	 0.1053380052828 
805	 0.10500649839187 
806	 0.10471016947215 
807	 0.104407728803815 
808	 0.104098671987985 
809	 0.103800046682749 
810	 0.103542551371926 
811	 0.103265352637755 
812	 0.102969972986378 
813	 0.102682625913436 
814	 0.102456739194042 
815	 0.102212421890682 
816	 0.10195539268179 
817	 0.101719044593507 
818	 0.101470562725634 
819	 0.10123113728656 
820	 0.101010698803184 
821	 0.100804003047016 
822	 0.100573583967533 
823	 0.100354057744852 
824	 0.100171191876929 
825	 0.100018836311608 
826	 9.98325702761304E-02 
827	 9.96089360916649E-02 
828	 9.93775174787638E-02 
829	 9.92032491462101E-02 
830	 9.90429656848468E-02 
831	 9.88963527071003E-02 
832	 9.87781986138294E-02 
833	 9.86679688574588E-02 
834	 9.85272621474604E-02 
835	 9.83599936584505E-02 
836	 9.82107938616703E-02 
837	 9.80968364993775E-02 
838	 9.80040892220123E-02 
839	 9.79064177218703E-02 
840	 9.77685817413523E-02 
841	 9.76509749507341E-02 
842	 9.75533213752679E-02 
843	 9.74596268945498E-02 
844	 0.097362107222498 
845	 9.72935097461618E-02 
846	 9.72135399111607E-02 
847	 9.70815596735303E-02 
848	 9.70552704567668E-02 
849	 9.70353561809881E-02 
850	 0.096987013985942 
851	 9.69439908407921E-02 
852	 9.69003577971694E-02 
853	 9.68397682161856E-02 
854	 9.67764473959186E-02 
855	 9.67681939403766E-02 
856	 9.67712510187615E-02 
857	 9.67598793576655E-02 
858	 9.67295356060469E-02 
859	 9.67169614300437E-02 
860	 9.67020346582786E-02 
861	 9.66991136863708E-02 
862	 9.67246819656949E-02 
863	 9.67529550242028E-02 
864	 0.096783815142825 
865	 9.68289579294966E-02 
866	 9.68953190214248E-02 
867	 9.69088694945313E-02 
868	 9.69092057529158E-02 
869	 9.69337703694779E-02 
870	 9.70017332439814E-02 
871	 9.70871517683821E-02 
872	 9.71810615201404E-02 
873	 9.72748710873037E-02 
874	 9.73564342001963E-02 
875	 9.74424628385353E-02 
876	 9.75042864854113E-02 
877	 9.75455012316125E-02 
878	 9.76863850798956E-02 
879	 9.77940825389138E-02 
880	 0.097881079662384 
881	 9.80011999633272E-02 
882	 9.81475466470285E-02 
883	 9.82929163531369E-02 
884	 0.098428754776099 
885	 9.85594606435543E-02 
886	 9.86847798456266E-02 
887	 9.88479817043912E-02 
888	 9.90534373542182E-02 
889	 9.92656843890576E-02 
890	 9.94372671713088E-02 
891	 9.95920776815473E-02 
892	 9.97548691032454E-02 
893	 9.99346743760184E-02 
894	 0.100094961594939 
895	 0.100304737493041 
896	 0.10056779421152 
897	 0.100739616692833 
898	 0.100933889549813 
899	 0.101198307871792 
900	 0.101515135712573 
901	 0.101747621688398 
902	 0.101955607660858 
903	 0.102181599995313 
904	 0.102446688024661 
905	 0.102711388266777 
906	 0.102978653396124 
907	 0.103229064205084 
908	 0.103468511483797 
909	 0.103880491089018 
910	 0.104223331739117 
911	 0.104492848405628 
912	 0.104835885813731 
913	 0.105152143674343 
914	 0.105501381104838 
915	 0.105870948759955 
916	 0.106187879379837 
917	 0.106536297452185 
918	 0.106906541069042 
919	 0.10727108391615 
920	 0.107606118443324 
921	 0.108044090471337 
922	 0.108477800671144 
923	 0.108852403084536 
924	 0.109251455757841 
925	 0.109661123791733 
926	 0.110078598529931 
927	 0.110509771466545 
928	 0.110972402034877 
929	 0.111460958540254 
930	 0.111959515139837 
931	 0.112440100267651 
932	 0.112851810096874 
933	 0.113358597205076 
934	 0.113900276892434 
935	 0.114398230481095 
936	 0.114927532330855 
937	 0.115521903191035 
938	 0.116116464447028 
939	 0.116655325638893 
940	 0.117245679892191 
941	 0.117756897429947 
942	 0.118315195992144 
943	 0.119039815340557 
944	 0.119614252124824 
945	 0.120150019643265 
946	 0.12074023072832 
947	 0.121414382878456 
948	 0.121981415237517 
949	 0.122660853493278 
950	 0.123415408673332 
951	 0.124091287243031 
952	 0.124702202068588 
953	 0.125426397165362 
954	 0.126235186589425 
955	 0.126982097930695 
956	 0.127629876706149 
957	 0.128381105902989 
958	 0.129125418492455 
959	 0.129675698122475 
960	 0.130607137658038 
961	 0.131457645690813 
962	 0.132229526737489 
963	 0.133185396757909 
964	 0.133965439111999 
965	 0.134760803587551 
966	 0.135614655771205 
967	 0.136462388222948 
968	 0.137386374326686 
969	 0.138345391560735 
970	 0.139244464966405 
971	 0.140023758448293 
972	 0.140992670837134 
973	 0.141975918718076 
974	 0.142898008856419 
975	 0.143817793318164 
976	 0.144986916397918 
977	 0.145967360280867 
978	 0.146742383449046 
979	 0.147596603678091 
980	 0.148611666249149 
981	 0.1495767726792 
982	 0.150485911705868 
983	 0.15146346568754 
984	 0.152469132919686 
985	 0.153667722562539 
986	 0.154831821458536 
987	 0.155681467685344 
988	 0.156816869791551 
989	 0.158089443080384 
990	 0.159248452688033 
991	 0.160165047853479 
992	 0.161380874753304 
993	 0.162420547932847 
994	 0.163451972545229 
995	 0.16475255884346 
996	 0.165740959477332 
997	 0.166696348883609 
998	 0.16782678663258 
999	 0.169142150013729 
1000	 0.170111675423773 
1001	 0.167815821166644 
1002	 0.168876269418017 
1003	 0.169896172004429 
1004	 0.170926667639398 
1005	 0.1719732990994 
1006	 0.173019368258912 
1007	 0.174054075495252 
1008	 0.175118035202064 
1009	 0.176144042560926 
1010	 0.177200844239742 
1011	 0.178252469089445 
1012	 0.179226679720105 
1013	 0.180273636228007 
1014	 0.181329654885148 
1015	 0.18231499494153 
1016	 0.183347227294687 
1017	 0.184367279980367 
1018	 0.185361592758516 
1019	 0.186330249022399 
1020	 0.187336408300516 
1021	 0.18832222425097 
1022	 0.189302839428892 
1023	 0.190259610523285 
1024	 0.191255060154251 
1025	 0.192265455589021 
1026	 0.193202900134883 
1027	 0.194155782618959 
1028	 0.195116971489619 
1029	 0.196065460690267 
1030	 0.197051629692309 
1031	 0.198008120040753 
1032	 0.198980288046532 
1033	 0.199893932480538 
1034	 0.200779379932831 
1035	 0.201663171939743 
1036	 0.202551736880617 
1037	 0.203438960891138 
1038	 0.204328140210892 
1039	 0.20521657950511 
1040	 0.206082063950365 
1041	 0.206967787790479 
1042	 0.207889093903752 
1043	 0.20880987214978 
1044	 0.209707378977338 
1045	 0.210598881096059 
1046	 0.211480300573464 
1047	 0.212393781386703 
1048	 0.21331348191309 
1049	 0.214194227140724 
1050	 0.215103118161651 
1051	 0.216010547912623 
1052	 0.216865488236012 
1053	 0.217737905775792 
1054	 0.218635902396599 
1055	 0.219508688236907 
1056	 0.220375305014259 
1057	 0.221258953910729 
1058	 0.222182959561755 
1059	 0.223075491382584 
1060	 0.223964218573183 
1061	 0.224813702755667 
1062	 0.225692570206192 
1063	 0.226563712028959 
1064	 0.227403557112395 
1065	 0.22829841076594 
1066	 0.229165123791992 
1067	 0.230023292599309 
1068	 0.23091398907728 
1069	 0.231785067695895 
1070	 0.232664389387829 
1071	 0.233523800311706 
1072	 0.234414881332101 
1073	 0.235346959590906 
1074	 0.236234427936534 
1075	 0.237092466451099 
1076	 0.237999674934404 
1077	 0.238874630791247 
1078	 0.239710299623695 
1079	 0.24061389154537 
1080	 0.241546325177917 
1081	 0.242448938308987 
1082	 0.243358422744401 
1083	 0.244284389777337 
1084	 0.245221484051864 
1085	 0.246131768462999 
1086	 0.247042872266753 
1087	 0.247952070343734 
1088	 0.248835902050212 
1089	 0.249723981009548 
1090	 0.250659074572621 
1091	 0.25161332684125 
1092	 0.252540348808966 
1093	 0.2534333667361 
1094	 0.254353645709753 
1095	 0.255262700617234 
1096	 0.256186228004657 
1097	 0.257196969835398 
1098	 0.258169123445849 
1099	 0.259121632050279 
1100	 0.260101174910297 
1101	 0.261108462903597 
1102	 0.262075220455966 
1103	 0.26300972735495 
1104	 0.264002476177428 
1105	 0.265008214434095 
1106	 0.266030367421776 
1107	 0.267123555259054 
1108	 0.26822317234213 
1109	 0.26925309471119 
1110	 0.27026029295921 
1111	 0.27127515309274 
1112	 0.272234371418028 
1113	 0.273272475136603 
1114	 0.274365140541575 
1115	 0.27543780259478 
1116	 0.27653218278908 
1117	 0.277627990539533 
1118	 0.278732038638835 
1119	 0.279795059862607 
1120	 0.280895187475752 
1121	 0.282015904582089 
1122	 0.283100414274018 
1123	 0.284231894828303 
1124	 0.285367865654914 
1125	 0.286523360712727 
1126	 0.287665441509031 
1127	 0.288819615560211 
1128	 0.289955655882198 
1129	 0.291072613024051 
1130	 0.292202452871679 
1131	 0.293330434812661 
1132	 0.294469792787726 
1133	 0.295608565122939 
1134	 0.296767140249284 
1135	 0.297962667378019 
1136	 0.299106577011564 
1137	 0.300280845739279 
1138	 0.301452897733461 
1139	 0.302605200712185 
1140	 0.303748113381747 
1141	 0.304880592879185 
1142	 0.305997194606568 
1143	 0.307119968058265 
1144	 0.308231635691591 
1145	 0.309347054402606 
1146	 0.310461671355208 
1147	 0.311572370595775 
1148	 0.312690066187922 
1149	 0.313799131355413 
1150	 0.314890837032844 
1151	 0.316008867875682 
1152	 0.317132596032275 
1153	 0.318194368876535 
1154	 0.319284326506524 
1155	 0.32037154283675 
1156	 0.321472961836458 
1157	 0.322582616858779 
1158	 0.323693739852745 
1159	 0.324840588039107 
1160	 0.325934596809915 
1161	 0.326996031920483 
1162	 0.328067322160934 
1163	 0.329114754892128 
1164	 0.330168848822086 
1165	 0.331238210925028 
1166	 0.332302782908142 
1167	 0.333321959165025 
1168	 0.334380924143053 
1169	 0.335430378252641 
1170	 0.336487730043097 
1171	 0.337517814089297 
1172	 0.338544364117338 
1173	 0.339567288809713 
1174	 0.340585329683367 
1175	 0.341577653316492 
1176	 0.342568264781369 
1177	 0.343540862407624 
1178	 0.344473925312117 
1179	 0.345416917475446 
1180	 0.346368335669154 
1181	 0.347305964607155 
1182	 0.348239381593354 
1183	 0.349161516313707 
1184	 0.350061832791458 
1185	 0.350945805054734 
1186	 0.351832550845047 
1187	 0.352705222152348 
1188	 0.353571224010009 
1189	 0.354460175501187 
1190	 0.355288894278859 
1191	 0.356058698850549 
1192	 0.356866024307753 
1193	 0.357667161727431 
1194	 0.35845591222026 
1195	 0.359275883004909 
1196	 0.360055915711687 
1197	 0.360789454268864 
1198	 0.361528116670822 
1199	 0.362259264255661 
1200	 0.362987170253114 
1201	 0.36369137877601 
1202	 0.364384910307723 
1203	 0.365066956627693 
1204	 0.365728333986484 
1205	 0.366387061304646 
1206	 0.367049953592956 
1207	 0.367683768201294 
1208	 0.368290502539491 
1209	 0.368903105889531 
1210	 0.369503726835367 
1211	 0.370098303834909 
1212	 0.370699142653512 
1213	 0.371281814532635 
1214	 0.371852150580149 
1215	 0.372408893172928 
1216	 0.372953474466413 
1217	 0.373487275436152 
1218	 0.374009187160394 
1219	 0.374511921769246 
1220	 0.375020675469702 
1221	 0.375524708592479 
1222	 0.376023542848726 
1223	 0.376528656702307 
1224	 0.37701230830897 
1225	 0.377481488657672 
1226	 0.37794657153822 
1227	 0.378410454024594 
1228	 0.378849705704289 
1229	 0.379272563266429 
1230	 0.379690695685653 
1231	 0.380072623527575 
1232	 0.380473908932979 
1233	 0.380881097021135 
1234	 0.381299515671238 
1235	 0.381702247881772 
1236	 0.382119881829633 
1237	 0.382501239214447 
1238	 0.382853686306388 
1239	 0.383219009595619 
1240	 0.383581287380845 
1241	 0.383926795862313 
1242	 0.384267992482103 
1243	 0.384602861978955 
1244	 0.384922048846505 
1245	 0.385233204277766 
1246	 0.385543308489819 
1247	 0.385847508841917 
1248	 0.386146699861401 
1249	 0.386421558838191 
1250	 0.386701218803496 
1251	 0.386979069297739 
1252	 0.387261582624287 
1253	 0.387545457224342 
1254	 0.387817205002269 
1255	 0.388091402995897 
1256	 0.388355394888116 
1257	 0.388606802539832 
1258	 0.388852610403515 
1259	 0.389096378588887 
1260	 0.389333329931958 
1261	 0.389550244988786 
1262	 0.389777452443141 
1263	 0.390008858526655 
1264	 0.390239754388459 
1265	 0.390478774254144 
1266	 0.390706365780161 
1267	 0.390935291634218 
1268	 0.391149526035569 
1269	 0.391354442932425 
1270	 0.391546720647024 
1271	 0.391738348372154 
1272	 0.391919624469063 
1273	 0.392101831729097 
1274	 0.392272909978223 
1275	 0.392461203141613 
1276	 0.392658882748176 
1277	 0.392846751057638 
1278	 0.393038821804873 
1279	 0.393229137549402 
1280	 0.393421526240505 
1281	 0.393596658739006 
1282	 0.393764964359317 
1283	 0.393934383689597 
1284	 0.394100880912743 
1285	 0.394236093720332 
1286	 0.394392449239816 
1287	 0.394559602582612 
1288	 0.394706970405104 
1289	 0.394845374844156 
1290	 0.394981717757789 
1291	 0.395100515311943 
1292	 0.395239549353679 
1293	 0.395406072963319 
1294	 0.395516440242995 
1295	 0.395614869102641 
1296	 0.395701551020684 
1297	 0.395723102536746 
1298	 0.395797229172482 
1299	 0.395918510538247 
1300	 0.39599507136806 
1301	 0.39606804846374 
1302	 0.396126472937527 
1303	 0.396159957528454 
1304	 0.396175113365312 
1305	 0.396198190124708 
1306	 0.396234002185696 
1307	 0.396272290642825 
1308	 0.396297252160147 
1309	 0.396307144962417 
1310	 0.396309884316148 
1311	 0.396310129412096 
1312	 0.396300167977505 
1313	 0.396277764261616 
1314	 0.396256134863274 
1315	 0.396213068648193 
1316	 0.39613090530672 
1317	 0.396072932443281 
1318	 0.396014432072647 
1319	 0.395970228795652 
1320	 0.395957972682208 
1321	 0.395910551454108 
1322	 0.395851943036769 
1323	 0.395783936485593 
1324	 0.395726178995434 
1325	 0.39566416566819 
1326	 0.395614007757688 
1327	 0.395571548586031 
1328	 0.395491630699591 
1329	 0.395413993897058 
1330	 0.395358587822192 
1331	 0.39531624989567 
1332	 0.395271303135738 
1333	 0.395241767639709 
1334	 0.39520105069764 
1335	 0.395155190560776 
1336	 0.395112190981776 
1337	 0.395068835267841 
1338	 0.395026174350571 
1339	 0.394995704965407 
1340	 0.394942378861236 
1341	 0.394882885006569 
1342	 0.394814753227222 
1343	 0.394734715203905 
1344	 0.394638237408012 
1345	 0.394550131946637 
1346	 0.394451378966132 
1347	 0.394331947418713 
1348	 0.39419922501457 
1349	 0.394038018565573 
1350	 0.393854670788302 
1351	 0.393682198052 
1352	 0.393504677652037 
1353	 0.393315632096139 
1354	 0.393132850245099 
1355	 0.392927575393375 
1356	 0.392681675956386 
1357	 0.392479044993995 
1358	 0.392249845349565 
1359	 0.392092087575102 
1360	 0.391975442069145 
1361	 0.391890366775984 
1362	 0.391874055053273 
1363	 0.391842151249495 
1364	 0.391820336419055 
1365	 0.391815825100546 
1366	 0.391819784031146 
1367	 0.391832055481893 
1368	 0.391899260671479 
1369	 0.391939591795384 
1370	 0.391905171233136 
1371	 0.391842482556641 
1372	 0.39169282795184 
1373	 0.391471183136608 
1374	 0.391202497956168 
1375	 0.390910735613817 
1376	 0.390489587531524 
1377	 0.389989222726334 
1378	 0.389402050868851 
1379	 0.388659892097502 
1380	 0.387969826061623 
1381	 0.387202724902722 
1382	 0.386487883382813 
1383	 0.385841223573531 
1384	 0.385111198848119 
1385	 0.384411291727765 
1386	 0.383595910777379 
1387	 0.382712578957534 
1388	 0.381752936937033 
1389	 0.380733797044279 
1390	 0.379612939478364 
1391	 0.378398821302919 
1392	 0.377091908333008 
1393	 0.375654465635686 
1394	 0.374180397035152 
1395	 0.372663574959112 
1396	 0.371125440921736 
1397	 0.369602120911573 
1398	 0.368078531295768 
1399	 0.366536046198487 
1400	 0.364984763417927 
1401	 0.363423741525314 
1402	 0.361819064333736 
1403	 0.360289020294861 
1404	 0.358743262356892 
1405	 0.357302823267358 
1406	 0.355948792371624 
1407	 0.354595929775431 
1408	 0.353279129629788 
1409	 0.352020852751255 
1410	 0.350762006044777 
1411	 0.349611053959138 
1412	 0.348546112628614 
1413	 0.347538896543114 
1414	 0.346604005938836 
1415	 0.345708624392146 
1416	 0.344845082011703 
1417	 0.344044530294124 
1418	 0.343277995442796 
1419	 0.342561465257954 
1420	 0.341935527587453 
1421	 0.341358446393362 
1422	 0.340831738004802 
1423	 0.340333573184478 
1424	 0.339831610352862 
1425	 0.339328700524383 
1426	 0.33887033941637 
1427	 0.338409702681504 
1428	 0.338031095653687 
1429	 0.337710904863134 
1430	 0.337415342007369 
1431	 0.337196846327927 
1432	 0.336947187157987 
1433	 0.336692670075324 
1434	 0.336477924266571 
1435	 0.336256032869029 
1436	 0.336089723758481 
1437	 0.335990860751674 
1438	 0.335881084071666 
1439	 0.33579274395309 
1440	 0.335723082037449 
1441	 0.335620585685324 
1442	 0.335520156444155 
1443	 0.335447036895339 
1444	 0.335392113154014 
1445	 0.335395425895063 
1446	 0.335411324629218 
1447	 0.335404655119983 
1448	 0.335390749943647 
1449	 0.335345849417425 
1450	 0.335313886695243 
1451	 0.335319683369974 
1452	 0.335339198335528 
1453	 0.335391302964855 
1454	 0.335498154156266 
1455	 0.335571157555257 
1456	 0.335661210434305 
1457	 0.33572509615632 
1458	 0.335747588638081 
1459	 0.335820325322108 
1460	 0.335880212443707 
1461	 0.336000364482777 
1462	 0.33617857375824 
1463	 0.336352309255657 
1464	 0.336565576000973 
1465	 0.336772316427079 
1466	 0.336964272374417 
1467	 0.3371961450843 
1468	 0.337423504190246 
1469	 0.337706977484885 
1470	 0.338044910226667 
1471	 0.3384028931573 
1472	 0.338769965379139 
1473	 0.339160148226053 
1474	 0.339517701159789 
1475	 0.339893656429596 
1476	 0.340283397700145 
1477	 0.340684376025586 
1478	 0.341155322806163 
1479	 0.341620788503343 
1480	 0.342089286123982 
1481	 0.342596051079691 
1482	 0.343076440629705 
1483	 0.34353587052662 
1484	 0.344014221183496 
1485	 0.344488311736192 
1486	 0.344988721332493 
1487	 0.345512986940482 
1488	 0.346013182999468 
1489	 0.346539765252005 
1490	 0.347028784813189 
1491	 0.347480355929954 
1492	 0.347943873961982 
1493	 0.348392967766518 
1494	 0.348854492353435 
1495	 0.349315030158702 
1496	 0.34977852083125 
1497	 0.3502652620171 
1498	 0.350728599424904 
1499	 0.351193314120437 
1500	 0.351634104184963 
1501	 0.352038681463524 
1502	 0.352455351067363 
1503	 0.352857488497641 
1504	 0.353269038216267 
1505	 0.35369912956634 
1506	 0.35412972276874 
1507	 0.354554132073912 
1508	 0.354976613962643 
1509	 0.355381328053107 
1510	 0.355766472842223 
1511	 0.356147665734408 
1512	 0.356528207983523 
1513	 0.356924126670841 
1514	 0.357320051383246 
1515	 0.357699198818257 
1516	 0.358061292363508 
1517	 0.35841276661214 
1518	 0.358741832057655 
1519	 0.359070878289585 
1520	 0.359386648173266 
1521	 0.359720525473966 
1522	 0.360049937238378 
1523	 0.360388216865771 
1524	 0.360747486147751 
1525	 0.361082962867135 
1526	 0.361412259752585 
1527	 0.361732273866107 
1528	 0.362041592617897 
1529	 0.362352314408457 
1530	 0.362656414346629 
1531	 0.362956852148509 
1532	 0.363258943892785 
1533	 0.363548533440415 
1534	 0.363823971645796 
1535	 0.364105398389254 
1536	 0.364381013488475 
1537	 0.364656368122843 
1538	 0.364935264617506 
1539	 0.365207981670069 
1540	 0.36547372307664 
1541	 0.365744206657784 
1542	 0.366024567558961 
1543	 0.366285548988887 
1544	 0.366538625690341 
1545	 0.366786814938058 
1546	 0.367015302610867 
1547	 0.367255674326708 
1548	 0.367476235276541 
1549	 0.367685712300004 
1550	 0.36792924739031 
1551	 0.368146821102261 
1552	 0.36836514219084 
1553	 0.368597458243333 
1554	 0.368796529361024 
1555	 0.369005428814211 
1556	 0.369213938178854 
1557	 0.369417133605688 
1558	 0.369612888948835 
1559	 0.369780640423855 
1560	 0.369967602994874 
1561	 0.370161920042793 
1562	 0.370351773884385 
1563	 0.370541167988909 
1564	 0.370732660493081 
1565	 0.37091906296146 
1566	 0.371117426404549 
1567	 0.37133556000907 
1568	 0.371517047230496 
1569	 0.371696403867472 
1570	 0.371853634220158 
1571	 0.371973202901303 
1572	 0.37211561178491 
1573	 0.372255161121433 
1574	 0.372400075367338 
1575	 0.372551717128567 
1576	 0.372694586714104 
1577	 0.372847022790475 
1578	 0.372975282090498 
1579	 0.373075240814236 
1580	 0.373204324732808 
1581	 0.3733368373456 
1582	 0.373465477124183 
1583	 0.373600751419048 
1584	 0.373743486762024 
1585	 0.373881722966035 
1586	 0.374022933361651 
1587	 0.374200021471031 
1588	 0.37434241314836 
1589	 0.374461635255995 
1590	 0.374576762893896 
1591	 0.374677742246983 
1592	 0.374771102788492 
1593	 0.37485204352135 
1594	 0.374935621864019 
1595	 0.375018857244405 
1596	 0.375084463218786 
1597	 0.375133290766748 
1598	 0.375194471522865 
1599	 0.375245878552384 
1600	 0.375304362761973 
1601	 0.375367718006688 
1602	 0.37544421342865 
1603	 0.375523589375422 
1604	 0.375612169259439 
1605	 0.375725048162981 
1606	 0.375833172902323 
1607	 0.375945499964469 
1608	 0.376053036812978 
1609	 0.376168349239389 
1610	 0.37624495222873 
1611	 0.376309790127717 
1612	 0.37637465907056 
1613	 0.376401975864869 
1614	 0.376443204993873 
1615	 0.376485702525468 
1616	 0.376518817392812 
1617	 0.376570553533279 
1618	 0.376619667247431 
1619	 0.376669544796158 
1620	 0.376710814573864 
1621	 0.376749332996979 
1622	 0.37678467381451 
1623	 0.376823694174946 
1624	 0.376847634363278 
1625	 0.376911369289606 
1626	 0.376999527288217 
1627	 0.377069938568098 
1628	 0.377166107442883 
1629	 0.377218213395155 
1630	 0.377238264988663 
1631	 0.377276930574252 
1632	 0.377307620577675 
1633	 0.377338929962808 
1634	 0.377376271486932 
1635	 0.377403543749426 
1636	 0.377425016392032 
1637	 0.377437175354336 
1638	 0.377438980969692 
1639	 0.377451073752295 
1640	 0.377451685441568 
1641	 0.377471350328917 
1642	 0.377516341463152 
1643	 0.377533566123089 
1644	 0.377538247562959 
1645	 0.377559258736965 
1646	 0.377577177383664 
1647	 0.377593638065367 
1648	 0.377635877036836 
1649	 0.377636282062236 
1650	 0.377601136205746 
1651	 0.377588905602506 
1652	 0.377558153855876 
1653	 0.377559723617407 
1654	 0.377591893347162 
1655	 0.377603895642119 
1656	 0.377623802722429 
1657	 0.377632225299251 
1658	 0.377633730599546 
1659	 0.377623190429252 
1660	 0.377590398656665 
1661	 0.37759139277728 
1662	 0.377601627553076 
1663	 0.377601236594936 
1664	 0.377629125863178 
1665	 0.37762523801732 
1666	 0.377594394519219 
1667	 0.377561058278024 
1668	 0.377520762086585 
1669	 0.377476545520098 
1670	 0.377411921671358 
1671	 0.377361885057072 
1672	 0.377313553659335 
1673	 0.377274273777803 
1674	 0.377238162221419 
1675	 0.377212871625297 
1676	 0.377214712013716 
1677	 0.377182388507469 
1678	 0.377142087277201 
1679	 0.377095136461411 
1680	 0.377015790850188 
1681	 0.376964338471772 
1682	 0.376921102506163 
1683	 0.376888372878883 
1684	 0.376871906050296 
1685	 0.376848722789623 
1686	 0.376827016297004 
1687	 0.376813467561128 
1688	 0.376810626662429 
1689	 0.376789231868874 
1690	 0.376776907191354 
1691	 0.376740354699444 
1692	 0.376685640086419 
1693	 0.376612899960507 
1694	 0.37652108516207 
1695	 0.376429296696936 
1696	 0.376296582478568 
1697	 0.376215544336113 
1698	 0.376168665594203 
1699	 0.376097408538857 
1700	 0.376036935122281 
1701	 0.375975357228413 
1702	 0.375899523991887 
1703	 0.375831261673412 
1704	 0.37578251887726 
1705	 0.375715169276112 
1706	 0.375626764354716 
1707	 0.375554191479984 
1708	 0.375495898174674 
1709	 0.375416143318528 
1710	 0.375331025513599 
1711	 0.37524188838358 
1712	 0.375126944764954 
1713	 0.375039945924287 
1714	 0.374965952736413 
1715	 0.374893939976799 
1716	 0.374836285324674 
1717	 0.374768516555063 
1718	 0.374731385881446 
1719	 0.374610350891197 
1720	 0.374444721950132 
1721	 0.374285557142873 
1722	 0.374061340518069 
1723	 0.373885203357537 
1724	 0.373744543455849 
1725	 0.373574687460728 
1726	 0.373389370582931 
1727	 0.373222212497622 
1728	 0.37305663305957 
1729	 0.372888493867187 
1730	 0.372720040482454 
1731	 0.372575400056293 
1732	 0.372444057960374 
1733	 0.372303822246881 
1734	 0.372194934379373 
1735	 0.372032136681145 
1736	 0.371835608982438 
1737	 0.371634117852439 
1738	 0.371408970824702 
1739	 0.371191943805011 
1740	 0.370956025622774 
1741	 0.370758207155324 
1742	 0.370573970866248 
1743	 0.370384270972416 
1744	 0.370220491417136 
1745	 0.370034778723403 
1746	 0.369833855882715 
1747	 0.369658355047928 
1748	 0.369455977075985 
1749	 0.369213042172215 
1750	 0.368989939358001 
1751	 0.368757209683431 
1752	 0.368509795600034 
1753	 0.368315137407975 
1754	 0.368118457321502 
1755	 0.367915456252136 
1756	 0.367717258930227 
1757	 0.367499104202019 
1758	 0.36726545604035 
1759	 0.367026202074952 
1760	 0.366815401527271 
1761	 0.36660984235095 
1762	 0.366405084649605 
1763	 0.366219758503778 
1764	 0.366015236875646 
1765	 0.365801666447696 
1766	 0.365602451099487 
1767	 0.365404020107651 
1768	 0.365219135241541 
1769	 0.36504290707801 
1770	 0.364870065066869 
1771	 0.364728302860531 
1772	 0.364585449235843 
1773	 0.364445389150329 
1774	 0.364309197356833 
1775	 0.364108648890859 
1776	 0.363891123659535 
1777	 0.363694054688448 
1778	 0.363502459011875 
1779	 0.363344785481026 
1780	 0.36321176950074 
1781	 0.363058981947519 
1782	 0.362905034934264 
1783	 0.36281485926419 
1784	 0.362720092555532 
1785	 0.36266019518554 
1786	 0.362595238272037 
1787	 0.362527373969477 
1788	 0.362443071522439 
1789	 0.362376555529086 
1790	 0.36227000810511 
1791	 0.362095389414894 
1792	 0.36199539903258 
1793	 0.361907314689437 
1794	 0.361832584920854 
1795	 0.361802884837857 
1796	 0.361772924782431 
1797	 0.361757013287317 
1798	 0.361719813314818 
1799	 0.361708092543482 
1800	 0.361656608556081 
1801	 0.352342932045062 
1802	 0.352719836698734 
1803	 0.353132528439298 
1804	 0.353616710545678 
1805	 0.354073971863581 
1806	 0.354456653430141 
1807	 0.354844556595115 
1808	 0.355150459558218 
1809	 0.355379222801669 
1810	 0.355567699890568 
1811	 0.355714995657777 
1812	 0.355825590054909 
1813	 0.355858149793746 
1814	 0.355863150432148 
1815	 0.355888865243397 
1816	 0.355896489549072 
1817	 0.355885277937507 
1818	 0.355851806854643 
1819	 0.355833784198158 
1820	 0.35581352004941 
1821	 0.355762474549514 
1822	 0.355726242586178 
1823	 0.355734199162064 
1824	 0.355728219107152 
1825	 0.355688616783062 
1826	 0.355636139224188 
1827	 0.355557034005044 
1828	 0.355433173817584 
1829	 0.35524566419066 
1830	 0.355070509021398 
1831	 0.354871906782758 
1832	 0.354662835953023 
1833	 0.354455781479526 
1834	 0.354255025951075 
1835	 0.35406617768408 
1836	 0.353893022416064 
1837	 0.353767203351839 
1838	 0.35367173063693 
1839	 0.353578402353156 
1840	 0.353524210991079 
1841	 0.353448972843479 
1842	 0.35335228183812 
1843	 0.353250601596093 
1844	 0.353135287510194 
1845	 0.353011099699815 
1846	 0.352881944764443 
1847	 0.352719680624051 
1848	 0.352507643354863 
1849	 0.352295810954192 
1850	 0.352055898037514 
1851	 0.351788799871518 
1852	 0.351492773008496 
1853	 0.35118556716064 
1854	 0.350803162281494 
1855	 0.350375080199676 
1856	 0.349922779817332 
1857	 0.349421708108583 
1858	 0.348887358614698 
1859	 0.348300177016531 
1860	 0.347612496745109 
1861	 0.34684949258929 
1862	 0.346006307936901 
1863	 0.34502428083513 
1864	 0.343908752569637 
1865	 0.34273523764867 
1866	 0.341408654287464 
1867	 0.340034965857262 
1868	 0.33862707478355 
1869	 0.337119800871562 
1870	 0.335583836834858 
1871	 0.333988408643236 
1872	 0.332332449728773 
1873	 0.330662638262862 
1874	 0.328973199908347 
1875	 0.327220155795368 
1876	 0.325380943343325 
1877	 0.323427236952523 
1878	 0.321311415793678 
1879	 0.319026068129533 
1880	 0.31657567738476 
1881	 0.313946672276905 
1882	 0.311187609030272 
1883	 0.308267747602188 
1884	 0.305175382953104 
1885	 0.301985285549087 
1886	 0.298684102335501 
1887	 0.295239612326433 
1888	 0.291720790747502 
1889	 0.288103196789446 
1890	 0.284459310329167 
1891	 0.280857844725558 
1892	 0.277223001400285 
1893	 0.273615180753587 
1894	 0.270025204619031 
1895	 0.266455163342187 
1896	 0.262871593918766 
1897	 0.259390380755669 
1898	 0.255980038437083 
1899	 0.252720279313701 
1900	 0.249636603935164 
1901	 0.246680073265572 
1902	 0.243936744172649 
1903	 0.241437294760937 
1904	 0.239046467287533 
1905	 0.236801771071616 
1906	 0.234768382472153 
1907	 0.232855399987816 
1908	 0.231043223747513 
1909	 0.229403315764764 
1910	 0.227860285640483 
1911	 0.226442996540279 
1912	 0.225145590987942 
1913	 0.223918507602763 
1914	 0.222778913972873 
1915	 0.22173806785342 
1916	 0.220787205865843 
1917	 0.219913479986135 
1918	 0.219155952885468 
1919	 0.218497812939731 
1920	 0.217918823441046 
1921	 0.217421034019345 
1922	 0.216993523662331 
1923	 0.216628724406477 
1924	 0.216315689098443 
1925	 0.216073455898784 
1926	 0.215871920725027 
1927	 0.215740340118067 
1928	 0.215605373833201 
1929	 0.215517244983319 
1930	 0.215488949956347 
1931	 0.215474652959455 
1932	 0.215546346888157 
1933	 0.215678675214628 
1934	 0.215817253880474 
1935	 0.216007876413206 
1936	 0.216250146302547 
1937	 0.21651582481771 
1938	 0.216818592557935 
1939	 0.2171513261587 
1940	 0.2175090895136 
1941	 0.217905060348343 
1942	 0.218343424745787 
1943	 0.218818126456444 
1944	 0.219337588195916 
1945	 0.219854471068886 
1946	 0.220369302468024 
1947	 0.220880308136143 
1948	 0.221422532109132 
1949	 0.221961948335373 
1950	 0.222535748373566 
1951	 0.223142033896152 
1952	 0.223766255662061 
1953	 0.224396473596322 
1954	 0.225065620846554 
1955	 0.225743683087964 
1956	 0.226410516479547 
1957	 0.227117492202739 
1958	 0.2278608808948 
1959	 0.228587866350799 
1960	 0.229331151246168 
1961	 0.230081828095377 
1962	 0.230816643828218 
1963	 0.23157736047014 
1964	 0.232363401041322 
1965	 0.233164019474694 
1966	 0.233960604448496 
1967	 0.234761585913203 
1968	 0.235563000574395 
1969	 0.236374643526138 
1970	 0.237166290543449 
1971	 0.237941298107743 
1972	 0.238738867778024 
1973	 0.239526757503232 
1974	 0.240327336974324 
1975	 0.241148754350577 
1976	 0.24197820312199 
1977	 0.242796779917396 
1978	 0.243625388212323 
1979	 0.244433831829303 
1980	 0.245252300866 
1981	 0.246076240281563 
1982	 0.246877244530013 
1983	 0.247721090487051 
1984	 0.248610287035626 
1985	 0.249471700995047 
1986	 0.250369181037377 
1987	 0.251214772558611 
1988	 0.252023414403986 
1989	 0.252827148990658 
1990	 0.253609759159717 
1991	 0.254392632496875 
1992	 0.255200019287199 
1993	 0.256024691431223 
1994	 0.256846203544449 
1995	 0.257683524614052 
1996	 0.258509604851503 
1997	 0.259337643647398 
1998	 0.260162921077598 
1999	 0.260996558408404 
2000	 0.261804865367544 
2001	 0.262604609239149 
2002	 0.263386392659467 
2003	 0.264150947399872 
2004	 0.264929545060205 
2005	 0.265713466115013 
2006	 0.266503935733915 
2007	 0.267300310486618 
2008	 0.268114051888361 
2009	 0.268907084567667 
2010	 0.26970837758817 
2011	 0.270487345614625 
2012	 0.271238715509076 
2013	 0.271993904551486 
2014	 0.27273116579114 
2015	 0.27349157385086 
2016	 0.274232759173631 
2017	 0.274975824548723 
2018	 0.275705173919535 
2019	 0.276422388315594 
2020	 0.277135608829037 
2021	 0.277853318979221 
2022	 0.278542214064055 
2023	 0.279201390438768 
2024	 0.279879082781118 
2025	 0.280540089463529 
2026	 0.281209715528064 
2027	 0.281888580412634 
2028	 0.282584063158464 
2029	 0.283262716264132 
2030	 0.283936492864487 
2031	 0.284598520889813 
2032	 0.285268163292778 
2033	 0.285903022389018 
2034	 0.286503761844581 
2035	 0.287120678038973 
2036	 0.287709596159019 
2037	 0.288324181940552 
2038	 0.288973067767275 
2039	 0.289591183789069 
2040	 0.290177414316471 
2041	 0.29081310055744 
2042	 0.291432520152187 
2043	 0.292043977227873 
2044	 0.292628329678325 
2045	 0.293218134347839 
2046	 0.293772229402493 
2047	 0.294266546019805 
2048	 0.294797041532702 
2049	 0.295342764368598 
2050	 0.295867161867857 
2051	 0.296379205874916 
2052	 0.296898079177399 
2053	 0.297389267832886 
2054	 0.297909963195051 
2055	 0.298448527377789 
2056	 0.299010377968371 
2057	 0.299547567042895 
2058	 0.300098057605913 
2059	 0.300618210791542 
2060	 0.301119132664149 
2061	 0.301609695288195 
2062	 0.302073798392285 
2063	 0.302557917306543 
2064	 0.303050163319634 
2065	 0.30351888644499 
2066	 0.303975260994326 
2067	 0.304444411686399 
2068	 0.304900270650719 
2069	 0.305358075706494 
2070	 0.305816943019039 
2071	 0.306298693588286 
2072	 0.306754593753901 
2073	 0.307184619785908 
2074	 0.307635752502116 
2075	 0.308095955879422 
2076	 0.308548672778155 
2077	 0.309006518488323 
2078	 0.309454112154202 
2079	 0.309894358887609 
2080	 0.310334133859451 
2081	 0.310779226812266 
2082	 0.311205382389959 
2083	 0.311616921961843 
2084	 0.31202448273403 
2085	 0.312438877479335 
2086	 0.312843926826308 
2087	 0.313252682773962 
2088	 0.313683137774469 
2089	 0.314078054755322 
2090	 0.314437576226628 
2091	 0.314825171872418 
2092	 0.315200952594419 
2093	 0.315597675802474 
2094	 0.316025361200281 
2095	 0.316441596852734 
2096	 0.316875588505017 
2097	 0.317283150044845 
2098	 0.317688548831304 
2099	 0.318061125158232 
2100	 0.318441103827591 
2101	 0.318799330980767 
2102	 0.319173753362845 
2103	 0.319551197679113 
2104	 0.319932458996811 
2105	 0.320308768709563 
2106	 0.320701316812459 
2107	 0.321097835194486 
2108	 0.321512593136762 
2109	 0.321952005507282 
2110	 0.322383259990147 
2111	 0.322827617567837 
2112	 0.323266211056612 
2113	 0.323707091775986 
2114	 0.324139084302051 
2115	 0.324556760068644 
2116	 0.324978833766206 
2117	 0.325363936447979 
2118	 0.325725701817948 
2119	 0.326072170082654 
2120	 0.326383228561301 
2121	 0.326710810813246 
2122	 0.327024661727841 
2123	 0.327345765698199 
2124	 0.327690480265081 
2125	 0.328000897531582 
2126	 0.328284867589255 
2127	 0.328578700588754 
2128	 0.328861325905753 
2129	 0.329140142982453 
2130	 0.329421531731361 
2131	 0.329712067073627 
2132	 0.329966538662262 
2133	 0.330195894488331 
2134	 0.330427092674168 
2135	 0.330653492578168 
2136	 0.330846039631337 
2137	 0.331043215414487 
2138	 0.331185391981387 
2139	 0.331277019535819 
2140	 0.331359130595952 
2141	 0.331400329216299 
2142	 0.33143784772758 
2143	 0.331453914439063 
2144	 0.331467869249751 
2145	 0.331464850868499 
2146	 0.331464864040556 
2147	 0.331446006794329 
2148	 0.331453419315912 
2149	 0.331453923437226 
2150	 0.331463873605293 
2151	 0.331452966102661 
2152	 0.331453894937162 
2153	 0.331409168040859 
2154	 0.331334434659774 
2155	 0.331251990501444 
2156	 0.331138662062442 
2157	 0.331026946439207 
2158	 0.330907756321735 
2159	 0.330780325901602 
2160	 0.330650977462158 
2161	 0.330499605994788 
2162	 0.330332885466316 
2163	 0.330155612303667 
2164	 0.329943944421465 
2165	 0.329746716571218 
2166	 0.329553923478943 
2167	 0.32936572206032 
2168	 0.329165147332457 
2169	 0.328964691379029 
2170	 0.328763279349554 
2171	 0.32854319180758 
2172	 0.328346789413692 
2173	 0.3281638819852 
2174	 0.327983525782907 
2175	 0.327824893042218 
2176	 0.327641324667896 
2177	 0.327451564400544 
2178	 0.327257647942941 
2179	 0.327038132667411 
2180	 0.326834750339356 
2181	 0.326647884681158 
2182	 0.326449258648396 
2183	 0.326242448348042 
2184	 0.326044516347563 
2185	 0.325847063177473 
2186	 0.325655528912809 
2187	 0.32543199404751 
2188	 0.325198722448023 
2189	 0.324964970432494 
2190	 0.324702855539106 
2191	 0.324455228295062 
2192	 0.324206654168335 
2193	 0.323981982102857 
2194	 0.323740137453156 
2195	 0.323544573403326 
2196	 0.323399782939394 
2197	 0.323251687869216 
2198	 0.323114208176758 
2199	 0.323002693221074 
2200	 0.322898957381597 
2201	 0.322824955694733 
2202	 0.322813992633773 
2203	 0.322768819905484 
2204	 0.322733888985982 
2205	 0.322729092130899 
2206	 0.322668331265331 
2207	 0.322564114926206 
2208	 0.322501479611705 
2209	 0.322415849400962 
2210	 0.322373200503157 
2211	 0.322391741855155 
2212	 0.322362403368316 
2213	 0.322326241283341 
2214	 0.322285336674883 
2215	 0.322224431019488 
2216	 0.322167218532723 
2217	 0.322109027116009 
2218	 0.32205581372097 
2219	 0.322012616873847 
2220	 0.321948442661306 
2221	 0.321880462628565 
2222	 0.321793319026718 
2223	 0.321740276893162 
2224	 0.321681923031381 
2225	 0.321619419717004 
2226	 0.321588753645919 
2227	 0.321520056229379 
2228	 0.321407341509096 
2229	 0.321333126632327 
2230	 0.321280185985403 
2231	 0.321197464477257 
2232	 0.321110503092605 
2233	 0.321017285067248 
2234	 0.320915203794584 
2235	 0.320798772174479 
2236	 0.320675623873454 
2237	 0.320547318611909 
2238	 0.320389457531777 
2239	 0.320244448321959 
2240	 0.32010055402566 
2241	 0.31996732632338 
2242	 0.319841373765681 
2243	 0.319712843663192 
2244	 0.319581787715109 
2245	 0.31946921814803 
2246	 0.319364759615219 
2247	 0.319270706828765 
2248	 0.319165848500701 
2249	 0.319076456127851 
2250	 0.318976789538972 
2251	 0.318852442923712 
2252	 0.318750259995199 
2253	 0.318663710596105 
2254	 0.318569014590933 
2255	 0.318484979189897 
2256	 0.3183850966943 
2257	 0.318278390866855 
2258	 0.318167972151358 
2259	 0.318022522795938 
2260	 0.317927008604569 
2261	 0.31788302949796 
2262	 0.31778342285711 
2263	 0.317645188028325 
2264	 0.317570101875733 
2265	 0.317489566950252 
2266	 0.317427330680923 
2267	 0.317473385638547 
2268	 0.317445949467559 
2269	 0.317386953163351 
2270	 0.317282423084949 
2271	 0.317175296965761 
2272	 0.317050517541038 
2273	 0.316898843395765 
2274	 0.316794220131248 
2275	 0.31669323091165 
2276	 0.31661675304793 
2277	 0.316499075032396 
2278	 0.316378623082118 
2279	 0.316256262248656 
2280	 0.316090610394141 
2281	 0.315968886527266 
2282	 0.315896160535645 
2283	 0.315776984156046 
2284	 0.315634505734092 
2285	 0.315515365537533 
2286	 0.315386711808978 
2287	 0.315266700197342 
2288	 0.315171299490931 
2289	 0.315070291662999 
2290	 0.314956082416236 
2291	 0.314854910323028 
2292	 0.314780108256555 
2293	 0.314672355567846 
2294	 0.314543668680638 
2295	 0.314425691228859 
2296	 0.314279653013159 
2297	 0.314177592317668 
2298	 0.314073310264674 
2299	 0.313956745007946 
2300	 0.313834758237919 
2301	 0.31368607197757 
2302	 0.313556691692526 
2303	 0.313435035699516 
2304	 0.313256498394343 
2305	 0.313076602781084 
2306	 0.312890744392031 
2307	 0.312664915811636 
2308	 0.312464884963823 
2309	 0.312284417455034 
2310	 0.31209214017779 
2311	 0.311891881592816 
2312	 0.311703033995068 
2313	 0.311533842872638 
2314	 0.311324955092843 
2315	 0.311097215080897 
2316	 0.310859704221225 
2317	 0.310588970829912 
2318	 0.310352371674209 
2319	 0.310096812906876 
2320	 0.309908091022312 
2321	 0.309783341871994 
2322	 0.309605398693506 
2323	 0.309479028429671 
2324	 0.309290934917513 
2325	 0.308999868048866 
2326	 0.308786713462002 
2327	 0.308602500887279 
2328	 0.308397057585392 
2329	 0.308205571547287 
2330	 0.308055471561406 
2331	 0.307866786039898 
2332	 0.307624096603198 
2333	 0.307386650576641 
2334	 0.307153629710271 
2335	 0.306897001296899 
2336	 0.306594734541009 
2337	 0.306349326024847 
2338	 0.306076588876516 
2339	 0.305756807840915 
2340	 0.305537502971163 
2341	 0.305301742039108 
2342	 0.305036948014501 
2343	 0.304769190042272 
2344	 0.304505799951838 
2345	 0.304199261085295 
2346	 0.303841875131793 
2347	 0.303483999708117 
2348	 0.303083121483738 
2349	 0.302725115899725 
2350	 0.302398882761412 
2351	 0.302043920527865 
2352	 0.301708802143008 
2353	 0.301316526332687 
2354	 0.300841858084062 
2355	 0.300430180932451 
2356	 0.300050129932102 
2357	 0.299642029629731 
2358	 0.299250429109995 
2359	 0.298840115551619 
2360	 0.298405953461532 
2361	 0.297938634969843 
2362	 0.297413846540392 
2363	 0.296975793667053 
2364	 0.296531888401119 
2365	 0.296118602181902 
2366	 0.295833366296003 
2367	 0.295469020107069 
2368	 0.295067034803201 
2369	 0.294636386620598 
2370	 0.294164348215095 
2371	 0.293720465695976 
2372	 0.293196080676575 
2373	 0.29274908452029 
2374	 0.292421317334479 
2375	 0.291941835497495 
2376	 0.291527105291149 
2377	 0.291134486082703 
2378	 0.290637432559985 
2379	 0.290182331995662 
2380	 0.289654486907769 
2381	 0.28908192345857 
2382	 0.288490053271741 
2383	 0.287899306629293 
2384	 0.287362423006413 
2385	 0.286815116269845 
2386	 0.286312200440764 
2387	 0.285828789772847 
2388	 0.285284059596291 
2389	 0.28480278103549 
2390	 0.284345850191266 
2391	 0.283831987365933 
2392	 0.283337220416324 
2393	 0.282812848172885 
2394	 0.282276438416386 
2395	 0.281700770634355 
2396	 0.281179141888655 
2397	 0.280671129532251 
2398	 0.280035603401804 
2399	 0.279506036711643 
2400	 0.278959584247958 
2401	 0.278388411180433 
2402	 0.277905305234265 
2403	 0.277350755802759 
2404	 0.27678263980259 
2405	 0.276226814514481 
2406	 0.27569759830004 
2407	 0.27522079677314 
2408	 0.274686353610147 
2409	 0.27408398277167 
2410	 0.273536304689405 
2411	 0.272936027782686 
2412	 0.272235580685624 
2413	 0.271667651478929 
2414	 0.271054624726966 
2415	 0.270392687607624 
2416	 0.269847871143894 
2417	 0.26945647824555 
2418	 0.26889098118228 
2419	 0.26833522760203 
2420	 0.267708486596129 
2421	 0.26691519362021 
2422	 0.266368348456208 
2423	 0.265927491829334 
2424	 0.26543049259274 
2425	 0.265085414269313 
2426	 0.264505560025901 
2427	 0.263726253150403 
2428	 0.263051919235369 
2429	 0.262313229668886 
2430	 0.26167963107386 
2431	 0.261101006482222 
2432	 0.260559447692291 
2433	 0.260152501560333 
2434	 0.259612113063032 
2435	 0.259056174505187 
2436	 0.258454069230836 
2437	 0.257684983753476 
2438	 0.25705046684003 
2439	 0.256540041367349 
2440	 0.255943823661888 
2441	 0.255292548956865 
2442	 0.254736966384267 
2443	 0.254216014273773 
2444	 0.253664236080249 
2445	 0.253208096958802 
2446	 0.252660270915448 
2447	 0.251944990774887 
2448	 0.251339118915857 
2449	 0.250807797327185 
2450	 0.250215011217012 
2451	 0.249652707851498 
2452	 0.249085752196198 
2453	 0.248460867681216 
2454	 0.24787893081639 
2455	 0.247344181693456 
2456	 0.246740348877366 
2457	 0.246097491570207 
2458	 0.245482210563594 
2459	 0.244894712592024 
2460	 0.244252637393657 
2461	 0.243556747349471 
2462	 0.242942790332675 
2463	 0.242260171222366 
2464	 0.241720058893409 
2465	 0.241362862990744 
2466	 0.240861991751958 
2467	 0.240399180285713 
2468	 0.239887941535705 
2469	 0.239242797157185 
2470	 0.238736462311732 
2471	 0.23821964632614 
2472	 0.237684025152226 
2473	 0.237137810256725 
2474	 0.236545283174998 
2475	 0.23591322548949 
2476	 0.235255254102496 
2477	 0.234643391875241 
2478	 0.234089681628895 
2479	 0.233690014593589 
2480	 0.233318524060037 
2481	 0.232968693255402 
2482	 0.232597123615339 
2483	 0.232018543439892 
2484	 0.231474714750299 
2485	 0.23088366223611 
2486	 0.230375165954792 
2487	 0.230013614656279 
2488	 0.229497312929189 
2489	 0.22909900240298 
2490	 0.228659500365166 
2491	 0.228200100019013 
2492	 0.227892921240336 
2493	 0.227446962897633 
2494	 0.226987289282892 
2495	 0.226506369074501 
2496	 0.226028741877763 
2497	 0.225676758492675 
2498	 0.225432209393276 
2499	 0.22516216898631 
2500	 0.224654842877364 
