Wavelength	LMW_2200003.asd
350	 7.39978104044948E-02 
351	 7.45497804757465E-02 
352	 7.13170966231892E-02 
353	 7.32277630272543E-02 
354	 6.30900039470459E-02 
355	 6.09369990778281E-02 
356	 6.38675368795969E-02 
357	 6.42577185207047E-02 
358	 6.01466323916002E-02 
359	 5.98319986961097E-02 
360	 6.20787421887486E-02 
361	 6.01544725289768E-02 
362	 5.94109289262802E-02 
363	 6.24948139503879E-02 
364	 0.066260748824746 
365	 5.85858044650039E-02 
366	 6.05759666489853E-02 
367	 6.55273905860773E-02 
368	 6.33223953138915E-02 
369	 6.24887311697239E-02 
370	 6.32936874561962E-02 
371	 0.064051405136776 
372	 6.25493366892708E-02 
373	 6.56300982682067E-02 
374	 6.65964612709525E-02 
375	 6.38087781807482E-02 
376	 6.76449224615171E-02 
377	 6.43721126029396E-02 
378	 6.21255798398179E-02 
379	 6.95662166341281E-02 
380	 6.98098963128321E-02 
381	 6.63814324707386E-02 
382	 6.52821725937613E-02 
383	 7.22712929549447E-02 
384	 7.26969513975588E-02 
385	 7.02134094567587E-02 
386	 0.069126860409207 
387	 6.95809232808397E-02 
388	 7.09551165732835E-02 
389	 7.25419840785395E-02 
390	 7.36915180119523E-02 
391	 7.43637768445493E-02 
392	 7.42470141459197E-02 
393	 7.46087544309544E-02 
394	 7.76517922670906E-02 
395	 7.87491454202377E-02 
396	 8.02226583489184E-02 
397	 8.32767778067407E-02 
398	 8.42874642557065E-02 
399	 8.47841624898172E-02 
400	 8.51953429222914E-02 
401	 8.57300435938955E-02 
402	 8.74906507538372E-02 
403	 8.85694783110182E-02 
404	 8.89603213820551E-02 
405	 9.06303257049358E-02 
406	 9.16422160834009E-02 
407	 9.36104646746355E-02 
408	 9.67965499857917E-02 
409	 9.61722135820888E-02 
410	 9.62971953301358E-02 
411	 9.73191401250714E-02 
412	 9.75840073192658E-02 
413	 9.87566982136777E-02 
414	 9.94026939795819E-02 
415	 9.93153870029001E-02 
416	 0.100157698552738 
417	 0.100035972040284 
418	 0.099993129662829 
419	 0.100929822408364 
420	 0.100958634075125 
421	 0.099991505520963 
422	 9.91201983853895E-02 
423	 0.099817746121075 
424	 9.93291118123267E-02 
425	 9.84165899464388E-02 
426	 9.77842061977882E-02 
427	 9.71700712207618E-02 
428	 0.096562934625628 
429	 9.57587073107761E-02 
430	 9.47060407058374E-02 
431	 9.43696694986419E-02 
432	 9.39981325279698E-02 
433	 9.34681701879226E-02 
434	 9.33089085193776E-02 
435	 9.30038404687462E-02 
436	 9.28123271265214E-02 
437	 9.29371520339783E-02 
438	 9.30212131926447E-02 
439	 9.34368585895883E-02 
440	 9.41461960225155E-02 
441	 9.49039324678521E-02 
442	 9.55967202356206E-02 
443	 9.64802324469911E-02 
444	 9.75134416287262E-02 
445	 9.81546550329023E-02 
446	 9.88110104687407E-02 
447	 9.96989512732495E-02 
448	 0.100803582442437 
449	 0.101358038090278 
450	 0.102354348480932 
451	 0.10368584071496 
452	 0.104327927056404 
453	 0.104699900841143 
454	 0.10526930190934 
455	 0.10622968603502 
456	 0.107127957536654 
457	 0.10791942810653 
458	 0.108464618801255 
459	 0.108695664225842 
460	 0.109259873694474 
461	 0.109656219146323 
462	 0.10983283765176 
463	 0.110509771051225 
464	 0.110972305413703 
465	 0.11131647492889 
466	 0.111766114079515 
467	 0.112139520324248 
468	 0.112352691142775 
469	 0.112380793354531 
470	 0.112277075032473 
471	 0.112500968337553 
472	 0.112922035018696 
473	 0.113292614552504 
474	 0.113322527742545 
475	 0.113468825913413 
476	 0.113755591944305 
477	 0.113985932800753 
478	 0.113879146687922 
479	 0.113968379958138 
480	 0.114349123107879 
481	 0.114423652016049 
482	 0.114591837227898 
483	 0.114858558136431 
484	 0.115113893602252 
485	 0.115244907486013 
486	 0.115298249958564 
487	 0.115289353488733 
488	 0.115221656919163 
489	 0.115434358337268 
490	 0.115623155142524 
491	 0.115633003005199 
492	 0.11600042560871 
493	 0.1160758188833 
494	 0.115972280621997 
495	 0.116117171767957 
496	 0.11633499590479 
497	 0.116523142687811 
498	 0.116655818278051 
499	 0.116811017628926 
500	 0.116942945969904 
501	 0.117034377699124 
502	 0.117096608933512 
503	 0.117223716588547 
504	 0.117368574324698 
505	 0.117477776691871 
506	 0.117504789972188 
507	 0.117548932061396 
508	 0.117758307531736 
509	 0.118086580334447 
510	 0.117922207811852 
511	 0.117965970211711 
512	 0.118222023122688 
513	 0.118332954057565 
514	 0.118336121795851 
515	 0.11833934870284 
516	 0.118426271707597 
517	 0.118645321416149 
518	 0.118643698107957 
519	 0.118622950532184 
520	 0.118858460104298 
521	 0.118962396200169 
522	 0.119084795361698 
523	 0.119253203996093 
524	 0.119339110923875 
525	 0.119341496764378 
526	 0.119345922599959 
527	 0.119431833045773 
528	 0.119607887880275 
529	 0.11972203557406 
530	 0.119756487430017 
531	 0.119788319965718 
532	 0.119849562353381 
533	 0.120002283515965 
534	 0.120220547914551 
535	 0.12029129672952 
536	 0.120353169689011 
537	 0.120446708070269 
538	 0.120576264993639 
539	 0.120763759163294 
540	 0.120889614264175 
541	 0.12096007029745 
542	 0.121159880203867 
543	 0.121318221056755 
544	 0.12142913365844 
545	 0.121545672723947 
546	 0.12177154638799 
547	 0.121960312629693 
548	 0.122099043160892 
549	 0.122289133153726 
550	 0.122443856037361 
551	 0.122658022709329 
552	 0.122980500762853 
553	 0.123262719453163 
554	 0.123552544263211 
555	 0.123879978134221 
556	 0.124254377064945 
557	 0.124563898568004 
558	 0.1249165011508 
559	 0.125345859810303 
560	 0.125709211137144 
561	 0.126120920342384 
562	 0.126598772946339 
563	 0.127118565291655 
564	 0.127625259640603 
565	 0.128145033455839 
566	 0.128648732398046 
567	 0.129044173892164 
568	 0.129649577726833 
569	 0.130431946264132 
570	 0.131255050159457 
571	 0.13196223333178 
572	 0.132702579046514 
573	 0.133506539271017 
574	 0.134323805557081 
575	 0.135242156546292 
576	 0.136220053131218 
577	 0.137183313528914 
578	 0.138034528081198 
579	 0.138811359048685 
580	 0.139528306064852 
581	 0.140212120289525 
582	 0.140997019814479 
583	 0.141778068067976 
584	 0.142580668881996 
585	 0.143649028679202 
586	 0.144829991625716 
587	 0.146053290632054 
588	 0.147272499000624 
589	 0.148471359328474 
590	 0.149626305179741 
591	 0.150801009684571 
592	 0.152130046951099 
593	 0.153452452447838 
594	 0.154749874576469 
595	 0.155993976057857 
596	 0.157053206572081 
597	 0.158000402969995 
598	 0.158869567404319 
599	 0.159692022002613 
600	 0.160603599062298 
601	 0.161526824067133 
602	 0.162397091330923 
603	 0.163217877513703 
604	 0.164112404366977 
605	 0.165051485908836 
606	 0.165954932135902 
607	 0.166810275333845 
608	 0.167669821394148 
609	 0.168542208638474 
610	 0.16938016825007 
611	 0.170077808870291 
612	 0.170681545827962 
613	 0.171257719604997 
614	 0.171796534065685 
615	 0.172306107872571 
616	 0.172788359277733 
617	 0.173243132881548 
618	 0.173746637537064 
619	 0.174187813595198 
620	 0.174533018846995 
621	 0.174975998982619 
622	 0.175397980794426 
623	 0.175765325786546 
624	 0.176088988902735 
625	 0.176453569548265 
626	 0.176783839868792 
627	 0.177066004774144 
628	 0.177383681563702 
629	 0.177680607845947 
630	 0.177957434992383 
631	 0.178226327990824 
632	 0.178479847101761 
633	 0.178723632385935 
634	 0.178980364065387 
635	 0.179280608228266 
636	 0.179552534591592 
637	 0.179801432309611 
638	 0.180043461671987 
639	 0.180279566891953 
640	 0.180567100920279 
641	 0.180872778890752 
642	 0.181127392246247 
643	 0.18136000624684 
644	 0.181594568530204 
645	 0.18185025624029 
646	 0.182140769120395 
647	 0.182420507943769 
648	 0.182683739108736 
649	 0.182939556189797 
650	 0.183200527956157 
651	 0.183453967528221 
652	 0.183715671851836 
653	 0.184023336722593 
654	 0.184349045736931 
655	 0.184635230721592 
656	 0.184883353754831 
657	 0.185258695929891 
658	 0.185607335116956 
659	 0.185909595935709 
660	 0.186213134853559 
661	 0.186555341498248 
662	 0.186902708753796 
663	 0.18724822475593 
664	 0.187633846707073 
665	 0.188033820351512 
666	 0.188419242157278 
667	 0.188769445566321 
668	 0.189087541611416 
669	 0.189470980995056 
670	 0.189916545595122 
671	 0.190336029972407 
672	 0.190737841389702 
673	 0.191172413401684 
674	 0.19165243507056 
675	 0.192083313523203 
676	 0.192514727936135 
677	 0.192962044420114 
678	 0.193427865514138 
679	 0.193917865966736 
680	 0.194431018801199 
681	 0.194932164592387 
682	 0.195342964622721 
683	 0.195884725246464 
684	 0.19642456639786 
685	 0.196837876118721 
686	 0.19738531990195 
687	 0.197947671703285 
688	 0.198469691894402 
689	 0.198950769479186 
690	 0.199435924957307 
691	 0.199940768713433 
692	 0.200475847337269 
693	 0.201059873294703 
694	 0.20162034063183 
695	 0.20213362988325 
696	 0.202618479973313 
697	 0.203203230240944 
698	 0.203763339754858 
699	 0.204280037408715 
700	 0.204857416467208 
701	 0.20540206176084 
702	 0.20593097338716 
703	 0.20646037662063 
704	 0.206929583633099 
705	 0.207449489267011 
706	 0.208006366232199 
707	 0.208523564327422 
708	 0.209017801649259 
709	 0.20953136560745 
710	 0.210052878942022 
711	 0.210489765546852 
712	 0.210979065148622 
713	 0.211480204008724 
714	 0.211936380393977 
715	 0.212436533758647 
716	 0.212888640838109 
717	 0.213285293640661 
718	 0.213682368385658 
719	 0.214071665706753 
720	 0.214453455803399 
721	 0.214826309898597 
722	 0.215184939125516 
723	 0.215548416539082 
724	 0.215880456725066 
725	 0.216142566834164 
726	 0.216373355293877 
727	 0.216650113619362 
728	 0.216964299867722 
729	 0.217227852950578 
730	 0.217455280526798 
731	 0.217652409331278 
732	 0.217831368770966 
733	 0.21802724252932 
734	 0.218142698879457 
735	 0.218198185891567 
736	 0.218265180886625 
737	 0.218388031589033 
738	 0.218457491714466 
739	 0.218451569631767 
740	 0.218455182227736 
741	 0.218469138084149 
742	 0.218458636268566 
743	 0.218398134791904 
744	 0.21831276441837 
745	 0.218187035283861 
746	 0.218060788542448 
747	 0.217978085240075 
748	 0.217820338679445 
749	 0.217652053996198 
750	 0.217478064166294 
751	 0.217214539232238 
752	 0.216991508238019 
753	 0.216765312160137 
754	 0.21648767230879 
755	 0.216221822397184 
756	 0.215938369027038 
757	 0.215636772345477 
758	 0.215329744124403 
759	 0.21502088530954 
760	 0.214649853982702 
761	 0.214226462923851 
762	 0.213852202164152 
763	 0.213494423624686 
764	 0.213116353655467 
765	 0.212703905603869 
766	 0.212318014034326 
767	 0.211889798829174 
768	 0.211441778251707 
769	 0.211024260042908 
770	 0.210526656554056 
771	 0.210056393897373 
772	 0.209630200449322 
773	 0.209138620839761 
774	 0.208697983258198 
775	 0.208241250474327 
776	 0.207718261807441 
777	 0.207236602478951 
778	 0.206744545213725 
779	 0.206242158698859 
780	 0.205754493602461 
781	 0.20531219709848 
782	 0.204878302008708 
783	 0.204394423951615 
784	 0.203799868119001 
785	 0.203308606989324 
786	 0.202847132108183 
787	 0.20233726851251 
788	 0.201834108863961 
789	 0.201297869182496 
790	 0.200786666848503 
791	 0.200357621592706 
792	 0.199871485201803 
793	 0.199353203686785 
794	 0.198830414327259 
795	 0.198325498926051 
796	 0.197848982898563 
797	 0.197377771428609 
798	 0.196900833005225 
799	 0.196438838223387 
800	 0.195986217105535 
801	 0.195537757163291 
802	 0.195085575647773 
803	 0.194620058463041 
804	 0.1941209253217 
805	 0.193619188501056 
806	 0.193170998520867 
807	 0.192746505653774 
808	 0.192316793172743 
809	 0.191872594579017 
810	 0.191430428050911 
811	 0.191046949508301 
812	 0.19065089798981 
813	 0.190199618886757 
814	 0.189809079004013 
815	 0.18942320175203 
816	 0.189029064852635 
817	 0.188632138466739 
818	 0.188235258333752 
819	 0.18788064181257 
820	 0.187555490260221 
821	 0.187198094868937 
822	 0.186760267410074 
823	 0.186380357052928 
824	 0.186103312719338 
825	 0.185777811805551 
826	 0.185471486653442 
827	 0.185141942867391 
828	 0.18475679976763 
829	 0.184389569194805 
830	 0.184104270070959 
831	 0.183866443696317 
832	 0.183592648545423 
833	 0.183248640591207 
834	 0.182943204264005 
835	 0.182703617592566 
836	 0.182468109510121 
837	 0.182213846709782 
838	 0.181912696671655 
839	 0.18158427034828 
840	 0.181321332333454 
841	 0.181125810562729 
842	 0.180951365373367 
843	 0.180744879096337 
844	 0.180473947487821 
845	 0.180307883614801 
846	 0.180171579166576 
847	 0.179918885437423 
848	 0.179721366783546 
849	 0.179525170354991 
850	 0.179325992890877 
851	 0.179166459423566 
852	 0.179004597242753 
853	 0.178875883225803 
854	 0.178747495702592 
855	 0.178481116630205 
856	 0.178355894291319 
857	 0.178316489119719 
858	 0.17824169280619 
859	 0.178050828973705 
860	 0.177954740228949 
861	 0.177884500268628 
862	 0.177718806652164 
863	 0.17758239184011 
864	 0.177513937792811 
865	 0.177483910693865 
866	 0.177426455399088 
867	 0.177348739553638 
868	 0.177296238479876 
869	 0.177250548517826 
870	 0.177137417280374 
871	 0.177082817779163 
872	 0.177064168903656 
873	 0.177061542081342 
874	 0.17710100346522 
875	 0.17706034187027 
876	 0.177036811388106 
877	 0.177089780437442 
878	 0.177024467337828 
879	 0.177000603992245 
880	 0.177051933686535 
881	 0.177138606410626 
882	 0.177123982342849 
883	 0.177157807719425 
884	 0.177209911084076 
885	 0.177184404821312 
886	 0.177269810401137 
887	 0.177348914574074 
888	 0.177389208071619 
889	 0.177450443061023 
890	 0.177559246981144 
891	 0.177636002248039 
892	 0.177666830786381 
893	 0.177734283995365 
894	 0.177812161285223 
895	 0.177970723810047 
896	 0.178200430540024 
897	 0.178327896177608 
898	 0.178411684989832 
899	 0.178524717713756 
900	 0.178708404471481 
901	 0.178914947892228 
902	 0.17905702864739 
903	 0.179148945170634 
904	 0.179256252591938 
905	 0.179466242407438 
906	 0.179703074667695 
907	 0.179882634645078 
908	 0.179970511009184 
909	 0.180164349551285 
910	 0.180357918444207 
911	 0.180561275227108 
912	 0.180843696639041 
913	 0.181063292341918 
914	 0.181281127140032 
915	 0.181510709685184 
916	 0.181715403286772 
917	 0.181947155545007 
918	 0.182220211596472 
919	 0.182500590087454 
920	 0.182721621999313 
921	 0.183076192947252 
922	 0.18339808535855 
923	 0.18362735312096 
924	 0.183942980858833 
925	 0.184276625149275 
926	 0.184591781127151 
927	 0.184860550889203 
928	 0.185061659036479 
929	 0.185382090819775 
930	 0.185722717975428 
931	 0.186001800132225 
932	 0.186353687720102 
933	 0.186800527497219 
934	 0.187223700404064 
935	 0.187520608255892 
936	 0.187754575064267 
937	 0.188077217752504 
938	 0.188448602866154 
939	 0.188807901934082 
940	 0.189289659197576 
941	 0.189743131521715 
942	 0.190161992130583 
943	 0.190562155528284 
944	 0.190773250486562 
945	 0.19116221010718 
946	 0.191670899277318 
947	 0.192082515044815 
948	 0.192477138349797 
949	 0.192913519112418 
950	 0.193330854422167 
951	 0.193676342048251 
952	 0.194263940676988 
953	 0.194676595418446 
954	 0.194976766052583 
955	 0.195454029929897 
956	 0.19591730194635 
957	 0.19639166358106 
958	 0.196832194825297 
959	 0.197195253184861 
960	 0.197713398070706 
961	 0.198123832114622 
962	 0.198478393822198 
963	 0.198997804708863 
964	 0.199487515323025 
965	 0.19997895096543 
966	 0.200504029430857 
967	 0.201065943036923 
968	 0.201564112590327 
969	 0.201984412271016 
970	 0.202408111321199 
971	 0.202933631428971 
972	 0.20340999986377 
973	 0.20385497003817 
974	 0.204259672051998 
975	 0.204648078264428 
976	 0.205383253484661 
977	 0.205959197963369 
978	 0.206322905008535 
979	 0.206756555233828 
980	 0.207338116204728 
981	 0.20782548263624 
982	 0.208220836911657 
983	 0.208687714340621 
984	 0.209274174531288 
985	 0.209717591461096 
986	 0.210078689302057 
987	 0.210546276618921 
988	 0.210876028800411 
989	 0.211318079878008 
990	 0.211877325846711 
991	 0.212412804693605 
992	 0.212833342510115 
993	 0.213330563102283 
994	 0.213927459061334 
995	 0.214502758978161 
996	 0.21476003451454 
997	 0.215124729124329 
998	 0.215573364498249 
999	 0.215958544201616 
1000	 0.216420244039614 
1001	 0.215246195321841 
1002	 0.215570964273891 
1003	 0.215960280213188 
1004	 0.21636795056602 
1005	 0.216842079424198 
1006	 0.217231670278051 
1007	 0.217612219790314 
1008	 0.217947345229397 
1009	 0.218309848595413 
1010	 0.21869272775591 
1011	 0.219071618523917 
1012	 0.219437835910513 
1013	 0.219725362038152 
1014	 0.220015783077689 
1015	 0.220384185211949 
1016	 0.220798870672083 
1017	 0.221170612611888 
1018	 0.22157918768864 
1019	 0.22187738604926 
1020	 0.222132607027684 
1021	 0.222457285410042 
1022	 0.222796484234429 
1023	 0.223119147343499 
1024	 0.223429857528387 
1025	 0.223717708257304 
1026	 0.223993267833954 
1027	 0.224261655258234 
1028	 0.224566248939005 
1029	 0.224897742934879 
1030	 0.225190869719739 
1031	 0.225451509182706 
1032	 0.225710336866447 
1033	 0.225954414528704 
1034	 0.226154883183069 
1035	 0.226326249721356 
1036	 0.226540436464382 
1037	 0.22682425925464 
1038	 0.22708837052022 
1039	 0.227349296345495 
1040	 0.227588033165886 
1041	 0.227767069130514 
1042	 0.227928339806416 
1043	 0.228101549352531 
1044	 0.228316913955619 
1045	 0.228592573324849 
1046	 0.228816445485159 
1047	 0.22896315138005 
1048	 0.229195128760899 
1049	 0.229411226662335 
1050	 0.229579825359283 
1051	 0.22983299065408 
1052	 0.230054638397528 
1053	 0.230207876309127 
1054	 0.230411580328929 
1055	 0.230641257681899 
1056	 0.230893048478517 
1057	 0.231122146769003 
1058	 0.231335252660279 
1059	 0.231561010763938 
1060	 0.231808543998813 
1061	 0.23197869530724 
1062	 0.232185467139701 
1063	 0.232453907319774 
1064	 0.232676362166361 
1065	 0.232904730253556 
1066	 0.233112480131764 
1067	 0.233271133808951 
1068	 0.233462877546719 
1069	 0.233694620797166 
1070	 0.233910372640212 
1071	 0.234148022642163 
1072	 0.234363220231475 
1073	 0.234569883634186 
1074	 0.234756385625157 
1075	 0.234919438495775 
1076	 0.235105638944488 
1077	 0.235293784539476 
1078	 0.235464211406524 
1079	 0.235638510931068 
1080	 0.235778019741641 
1081	 0.235920062648317 
1082	 0.236105336471561 
1083	 0.236270545766589 
1084	 0.236455394263846 
1085	 0.236621956614793 
1086	 0.236748128691837 
1087	 0.236913470507749 
1088	 0.237087555287186 
1089	 0.237298913311482 
1090	 0.237483662232362 
1091	 0.237610342318403 
1092	 0.237763025849786 
1093	 0.237905801998395 
1094	 0.238050706087341 
1095	 0.238263407796858 
1096	 0.238414306505672 
1097	 0.238530258277304 
1098	 0.238662631458637 
1099	 0.238775654122174 
1100	 0.238910531664982 
1101	 0.239066967221996 
1102	 0.239211916629 
1103	 0.239375910636764 
1104	 0.239510670890632 
1105	 0.239607291618978 
1106	 0.239724406809159 
1107	 0.239830237205238 
1108	 0.239950142116792 
1109	 0.240108976402061 
1110	 0.240250741424165 
1111	 0.240381739397186 
1112	 0.240510284212295 
1113	 0.240629027732146 
1114	 0.240739502578144 
1115	 0.240846949742141 
1116	 0.240932527761713 
1117	 0.241039951744482 
1118	 0.24116119591579 
1119	 0.241259371593383 
1120	 0.241377010480253 
1121	 0.241521456561635 
1122	 0.241637476328649 
1123	 0.241751815219359 
1124	 0.24185393215522 
1125	 0.241937886425895 
1126	 0.242030904282918 
1127	 0.242123666294465 
1128	 0.242207672504109 
1129	 0.24229153005513 
1130	 0.242379933110584 
1131	 0.242459229812392 
1132	 0.242542271609892 
1133	 0.242639096196152 
1134	 0.242713694248349 
1135	 0.242775241034578 
1136	 0.24283540342854 
1137	 0.242896044669363 
1138	 0.242986837233275 
1139	 0.24305476398778 
1140	 0.243136098530354 
1141	 0.243190914242811 
1142	 0.243208251771329 
1143	 0.243262127211254 
1144	 0.243335684344195 
1145	 0.243384676858869 
1146	 0.243441889542296 
1147	 0.243483182499615 
1148	 0.243479042528034 
1149	 0.243513224774193 
1150	 0.24357611848765 
1151	 0.243629273113821 
1152	 0.243643462178006 
1153	 0.24368971043915 
1154	 0.243753498313663 
1155	 0.243819323420391 
1156	 0.243875586498727 
1157	 0.243968542295621 
1158	 0.244025947473628 
1159	 0.24404975494988 
1160	 0.244081414010047 
1161	 0.244109815091857 
1162	 0.244145989186019 
1163	 0.24415508984682 
1164	 0.244199137152838 
1165	 0.24427635805762 
1166	 0.244352422671954 
1167	 0.244424134072656 
1168	 0.244491365135834 
1169	 0.244553320980468 
1170	 0.244596464931175 
1171	 0.244658969915147 
1172	 0.244736295660397 
1173	 0.244797269905016 
1174	 0.244857011334073 
1175	 0.244911357656297 
1176	 0.244945072472308 
1177	 0.245002031825659 
1178	 0.24507196175012 
1179	 0.245135082370275 
1180	 0.24521555039968 
1181	 0.245279182546336 
1182	 0.24532393653427 
1183	 0.245370551544571 
1184	 0.245435520436165 
1185	 0.245507471148518 
1186	 0.245575084622309 
1187	 0.245649443188723 
1188	 0.245732495781745 
1189	 0.245823281249224 
1190	 0.245895898676763 
1191	 0.245977836677435 
1192	 0.246046151873082 
1193	 0.246080896854643 
1194	 0.246137836863602 
1195	 0.246221204531503 
1196	 0.246278676015118 
1197	 0.246319960999448 
1198	 0.246369224199418 
1199	 0.246415407772474 
1200	 0.246447360969682 
1201	 0.246488005737924 
1202	 0.246537373251146 
1203	 0.246585697470983 
1204	 0.246632708313482 
1205	 0.24667414315905 
1206	 0.246716626627112 
1207	 0.246761007317952 
1208	 0.246791080720239 
1209	 0.246838238477055 
1210	 0.246913710959304 
1211	 0.246963032893699 
1212	 0.24699979271148 
1213	 0.24704289030932 
1214	 0.247071027740062 
1215	 0.247107947771426 
1216	 0.247150513537876 
1217	 0.247210670793358 
1218	 0.247247481032208 
1219	 0.247273986275704 
1220	 0.247309485944298 
1221	 0.24734110428279 
1222	 0.247371623678419 
1223	 0.247415276183737 
1224	 0.247438718518027 
1225	 0.247439510794205 
1226	 0.24745556379325 
1227	 0.247472763072733 
1228	 0.247487399955396 
1229	 0.247503702347311 
1230	 0.247524479792961 
1231	 0.247537467924267 
1232	 0.247560120920828 
1233	 0.247589897446027 
1234	 0.247637791537508 
1235	 0.247664880960627 
1236	 0.247685578413961 
1237	 0.247714728303859 
1238	 0.247740688549093 
1239	 0.247763691617124 
1240	 0.247797252998401 
1241	 0.247818467922996 
1242	 0.247817146399044 
1243	 0.2478361107307 
1244	 0.247874644469867 
1245	 0.247891170567683 
1246	 0.247902826617761 
1247	 0.247915463939041 
1248	 0.247913887534004 
1249	 0.247911903738783 
1250	 0.247914109727216 
1251	 0.247933949819324 
1252	 0.247948910131515 
1253	 0.247972794921641 
1254	 0.247970995600898 
1255	 0.247952101605608 
1256	 0.247957980339765 
1257	 0.247957985405556 
1258	 0.247961647104353 
1259	 0.247996891387786 
1260	 0.248004383901564 
1261	 0.247986107272197 
1262	 0.247978078750602 
1263	 0.247967980087224 
1264	 0.247960963991156 
1265	 0.247949128344333 
1266	 0.247946607294039 
1267	 0.247956422493995 
1268	 0.247957587418829 
1269	 0.247964520531585 
1270	 0.247980095195606 
1271	 0.247983392507687 
1272	 0.247986979672577 
1273	 0.247977666252188 
1274	 0.247953403938891 
1275	 0.247941599457617 
1276	 0.247917049741717 
1277	 0.247913815388685 
1278	 0.247933068799082 
1279	 0.247939676202444 
1280	 0.247944615801675 
1281	 0.247958279725221 
1282	 0.247967846061098 
1283	 0.247985616136455 
1284	 0.248009912072645 
1285	 0.248053448533154 
1286	 0.248074957397234 
1287	 0.248097919647082 
1288	 0.248137044607293 
1289	 0.248184644825188 
1290	 0.248216254048532 
1291	 0.248257187689693 
1292	 0.248291128424005 
1293	 0.248299683427572 
1294	 0.248335789650584 
1295	 0.248398954295128 
1296	 0.248437961335813 
1297	 0.248469089774018 
1298	 0.248506203760178 
1299	 0.248538230660724 
1300	 0.248567142659759 
1301	 0.248603977506587 
1302	 0.24863416710002 
1303	 0.248656591956748 
1304	 0.248674279221197 
1305	 0.2486941713781 
1306	 0.248701295849662 
1307	 0.248702600608076 
1308	 0.248704862963045 
1309	 0.248696344657833 
1310	 0.248673926238173 
1311	 0.24866901310331 
1312	 0.24866787597345 
1313	 0.248657287691567 
1314	 0.248666507209311 
1315	 0.24864340805901 
1316	 0.248584898000897 
1317	 0.248548691502299 
1318	 0.248523097013202 
1319	 0.248470441910396 
1320	 0.248404129186561 
1321	 0.248349121947158 
1322	 0.248274838779139 
1323	 0.248205043243512 
1324	 0.248185103512734 
1325	 0.24818632801051 
1326	 0.248139418096483 
1327	 0.248081285963889 
1328	 0.248006867832887 
1329	 0.247897453332954 
1330	 0.247818989578019 
1331	 0.247755407402005 
1332	 0.247685922005771 
1333	 0.247627320654574 
1334	 0.247553593294161 
1335	 0.247464950010312 
1336	 0.247389432875679 
1337	 0.247311416770312 
1338	 0.247236874682547 
1339	 0.247160406487645 
1340	 0.24710793090955 
1341	 0.247082921163092 
1342	 0.247032035972012 
1343	 0.2469836138112 
1344	 0.246933616890908 
1345	 0.246867731786782 
1346	 0.246797683450547 
1347	 0.246739024642532 
1348	 0.246681596651511 
1349	 0.24661685579694 
1350	 0.246549980709304 
1351	 0.246501366071877 
1352	 0.246475028549117 
1353	 0.246424651217125 
1354	 0.246377242226313 
1355	 0.246317452488795 
1356	 0.246231331179985 
1357	 0.246164716349528 
1358	 0.246112105974694 
1359	 0.246044708015047 
1360	 0.245980620355901 
1361	 0.24590481458783 
1362	 0.245812617402643 
1363	 0.245721840927538 
1364	 0.245634311862758 
1365	 0.245531544176107 
1366	 0.245405841648672 
1367	 0.245305131244736 
1368	 0.245209166277616 
1369	 0.245101520961909 
1370	 0.245012976267658 
1371	 0.244918852056095 
1372	 0.244793041248915 
1373	 0.244661682167656 
1374	 0.24450806768616 
1375	 0.244331420347478 
1376	 0.244150473378222 
1377	 0.243954000684701 
1378	 0.243746125230197 
1379	 0.243531626746793 
1380	 0.243300977393256 
1381	 0.243068322152516 
1382	 0.242797856223384 
1383	 0.242496765293444 
1384	 0.242189139924824 
1385	 0.241857599308401 
1386	 0.241517153376559 
1387	 0.241191461087396 
1388	 0.240823273208451 
1389	 0.240433640527445 
1390	 0.24000205755482 
1391	 0.239542467495877 
1392	 0.239048617166234 
1393	 0.238550790496587 
1394	 0.238031110934679 
1395	 0.237475879596941 
1396	 0.236912224527852 
1397	 0.23632880145945 
1398	 0.235715724430374 
1399	 0.235091738745718 
1400	 0.234446512268563 
1401	 0.23381553440382 
1402	 0.233170595327919 
1403	 0.232533764995044 
1404	 0.231907972798324 
1405	 0.231285892071104 
1406	 0.230630044086658 
1407	 0.230034702179229 
1408	 0.229472283686729 
1409	 0.228924986843652 
1410	 0.228408539900234 
1411	 0.227921312814126 
1412	 0.227454173664555 
1413	 0.227005111401811 
1414	 0.226605364318814 
1415	 0.226210138509199 
1416	 0.225839496692951 
1417	 0.225509112167225 
1418	 0.225209708134852 
1419	 0.224931853984452 
1420	 0.224668338419884 
1421	 0.224409242713935 
1422	 0.224147506214604 
1423	 0.223901249061979 
1424	 0.223663616721939 
1425	 0.223427873296154 
1426	 0.223223015947674 
1427	 0.223038775621858 
1428	 0.222861455421437 
1429	 0.222708848171862 
1430	 0.222556049492678 
1431	 0.222407052145042 
1432	 0.22226637188946 
1433	 0.222136817005169 
1434	 0.222012426161526 
1435	 0.221882520046494 
1436	 0.221776457601254 
1437	 0.221684766365558 
1438	 0.221606694003736 
1439	 0.22154691612879 
1440	 0.221504434959009 
1441	 0.2214559039299 
1442	 0.221402271519243 
1443	 0.221338581812707 
1444	 0.221268348179036 
1445	 0.221198511742416 
1446	 0.221132248409041 
1447	 0.221078676499125 
1448	 0.221031335590076 
1449	 0.220965309786243 
1450	 0.220893695740068 
1451	 0.220822078201611 
1452	 0.220734166328752 
1453	 0.220651850266578 
1454	 0.220577966778933 
1455	 0.220497205193706 
1456	 0.220409006413826 
1457	 0.220329446120246 
1458	 0.220256951697066 
1459	 0.220171509440508 
1460	 0.220066756483879 
1461	 0.219989714789222 
1462	 0.219911744313362 
1463	 0.21985710295872 
1464	 0.219811851438673 
1465	 0.219805640417604 
1466	 0.219814901097284 
1467	 0.219859295656338 
1468	 0.21995061287903 
1469	 0.220060215003059 
1470	 0.220195030677881 
1471	 0.220348154231382 
1472	 0.220537495904861 
1473	 0.220727036774941 
1474	 0.220931774705576 
1475	 0.221163610422501 
1476	 0.221390424436701 
1477	 0.221611050691812 
1478	 0.221804902568166 
1479	 0.221979578977501 
1480	 0.222162952957554 
1481	 0.222343709519277 
1482	 0.222523332054672 
1483	 0.222717607682824 
1484	 0.22289548074288 
1485	 0.223056278430158 
1486	 0.223223597112785 
1487	 0.223398392701668 
1488	 0.223555763490253 
1489	 0.22369858068328 
1490	 0.223853283041481 
1491	 0.224007311663144 
1492	 0.224153489727386 
1493	 0.224306668594374 
1494	 0.224445072234895 
1495	 0.224565238577264 
1496	 0.224691875607122 
1497	 0.224811234415808 
1498	 0.224939993140184 
1499	 0.225074017857849 
1500	 0.225207966681719 
1501	 0.225359833118549 
1502	 0.225489479303526 
1503	 0.225609605979575 
1504	 0.225716672862921 
1505	 0.225824963309114 
1506	 0.225923622234952 
1507	 0.226024104083211 
1508	 0.226132373875798 
1509	 0.226223271354606 
1510	 0.226305507325848 
1511	 0.226384639201586 
1512	 0.226470494199043 
1513	 0.226572216607886 
1514	 0.226665919587809 
1515	 0.226759340884687 
1516	 0.226853053395667 
1517	 0.226944595639745 
1518	 0.227029398742086 
1519	 0.227119264996353 
1520	 0.227210934083113 
1521	 0.227301884673545 
1522	 0.227390893176313 
1523	 0.227479473215915 
1524	 0.227574559932011 
1525	 0.227662663012568 
1526	 0.227745909442721 
1527	 0.227825924136337 
1528	 0.22790470644519 
1529	 0.227975409310325 
1530	 0.228034610262757 
1531	 0.22810334871614 
1532	 0.228174032129425 
1533	 0.228239301962785 
1534	 0.228300995666406 
1535	 0.228370380553596 
1536	 0.228440257479712 
1537	 0.228511306803693 
1538	 0.228582649921215 
1539	 0.22866690628902 
1540	 0.228760756221313 
1541	 0.228845635048392 
1542	 0.228949590516892 
1543	 0.229032942839349 
1544	 0.229089917521472 
1545	 0.229157259831877 
1546	 0.22922253934836 
1547	 0.22928659113754 
1548	 0.229359641880396 
1549	 0.229421475532549 
1550	 0.229466398374528 
1551	 0.229508716333114 
1552	 0.229550206037968 
1553	 0.22958979402889 
1554	 0.229639739858928 
1555	 0.229702466243517 
1556	 0.229751628769391 
1557	 0.229787562781054 
1558	 0.22982680074544 
1559	 0.229863205394342 
1560	 0.229898829845352 
1561	 0.229940500512339 
1562	 0.229968454554711 
1563	 0.229981055285607 
1564	 0.230013477373568 
1565	 0.230049910784196 
1566	 0.230081833347306 
1567	 0.230127403172045 
1568	 0.23015583388121 
1569	 0.230174184273349 
1570	 0.230184732298568 
1571	 0.230183297901284 
1572	 0.230191233046689 
1573	 0.230191759592233 
1574	 0.230199652535395 
1575	 0.230214933139883 
1576	 0.230233135086572 
1577	 0.230247373443788 
1578	 0.230272329959356 
1579	 0.230321533095353 
1580	 0.230344218819464 
1581	 0.23035593985304 
1582	 0.230373140413082 
1583	 0.230378203543268 
1584	 0.230387004907686 
1585	 0.230403451597032 
1586	 0.230414907000923 
1587	 0.230422514201619 
1588	 0.230427882034499 
1589	 0.230422707725956 
1590	 0.230433647424236 
1591	 0.230450442621775 
1592	 0.230468422739854 
1593	 0.230509955852798 
1594	 0.23053220754548 
1595	 0.230539681214406 
1596	 0.230546349559434 
1597	 0.230549185468175 
1598	 0.230547251040478 
1599	 0.230534961429442 
1600	 0.230530310282667 
1601	 0.230517585688632 
1602	 0.230516511705856 
1603	 0.23054407906464 
1604	 0.230546286225558 
1605	 0.230541035451331 
1606	 0.230528148068298 
1607	 0.230495165833662 
1608	 0.230458024947106 
1609	 0.230422784498608 
1610	 0.230411214916209 
1611	 0.230404071021911 
1612	 0.230387202022767 
1613	 0.230359738677484 
1614	 0.230317834064762 
1615	 0.230275834739424 
1616	 0.23024914470778 
1617	 0.230233906441484 
1618	 0.230219412603237 
1619	 0.230220499473709 
1620	 0.230219078752362 
1621	 0.230205463768879 
1622	 0.230198400610805 
1623	 0.230174206907674 
1624	 0.230127726718431 
1625	 0.230090604093095 
1626	 0.230057279255519 
1627	 0.23001355798404 
1628	 0.229955152470175 
1629	 0.229919779908767 
1630	 0.229890832054167 
1631	 0.229855627636829 
1632	 0.229833114911951 
1633	 0.229801308922877 
1634	 0.229755296886319 
1635	 0.229720052620161 
1636	 0.229688789930901 
1637	 0.229665421502324 
1638	 0.22965627408141 
1639	 0.22961842804484 
1640	 0.229571751297092 
1641	 0.229532704462459 
1642	 0.229465363942502 
1643	 0.229437175762939 
1644	 0.229448562791584 
1645	 0.22942861630972 
1646	 0.229411632493778 
1647	 0.22937751943756 
1648	 0.229326690123615 
1649	 0.22927314723683 
1650	 0.229213972652829 
1651	 0.229145935831112 
1652	 0.229056780220797 
1653	 0.228992633736302 
1654	 0.228928566634149 
1655	 0.228876805291601 
1656	 0.22884209543699 
1657	 0.228809713118699 
1658	 0.228786275320655 
1659	 0.228756483460616 
1660	 0.228741377458381 
1661	 0.228702542617752 
1662	 0.22863752626293 
1663	 0.228598089925073 
1664	 0.228557942664396 
1665	 0.228525819834628 
1666	 0.228520667378308 
1667	 0.228488287168542 
1668	 0.228448517634594 
1669	 0.228397324715659 
1670	 0.228330967560891 
1671	 0.228263982750821 
1672	 0.228187478134372 
1673	 0.228111330524552 
1674	 0.228023652880705 
1675	 0.227954338166519 
1676	 0.227880898455037 
1677	 0.227832926642773 
1678	 0.227824380696827 
1679	 0.227777844978887 
1680	 0.227728259763236 
1681	 0.227673407110415 
1682	 0.227595866580541 
1683	 0.227526384842633 
1684	 0.227467303739612 
1685	 0.227395710179476 
1686	 0.227293238293008 
1687	 0.227233567792254 
1688	 0.227202080790059 
1689	 0.22715121984333 
1690	 0.22711555050895 
1691	 0.227070707461591 
1692	 0.227010813253499 
1693	 0.226949243652582 
1694	 0.226904208768181 
1695	 0.226829238347258 
1696	 0.226716364499156 
1697	 0.226630750127579 
1698	 0.226550861531354 
1699	 0.226461938261189 
1700	 0.226366491209726 
1701	 0.226298743379894 
1702	 0.226239080962082 
1703	 0.226172174398408 
1704	 0.226134628657207 
1705	 0.226071240352787 
1706	 0.225977306915683 
1707	 0.22590061687078 
1708	 0.225837991236904 
1709	 0.225756325987769 
1710	 0.225660249367105 
1711	 0.225577015329016 
1712	 0.225488984519878 
1713	 0.225407395937244 
1714	 0.225328363432725 
1715	 0.225263937934058 
1716	 0.225219258355462 
1717	 0.22514686544677 
1718	 0.225078932899627 
1719	 0.224999462876085 
1720	 0.224886160870517 
1721	 0.224797866803098 
1722	 0.224733706359085 
1723	 0.224640035539174 
1724	 0.224542953519258 
1725	 0.224423429327605 
1726	 0.224271749002747 
1727	 0.224136436192053 
1728	 0.223981230081063 
1729	 0.223870640626945 
1730	 0.223795019366455 
1731	 0.223694767086847 
1732	 0.223612591292513 
1733	 0.223506444701899 
1734	 0.223373403029751 
1735	 0.223248692045018 
1736	 0.22312895886944 
1737	 0.222999242755034 
1738	 0.22284918706333 
1739	 0.222731029890833 
1740	 0.222634074008013 
1741	 0.222505433518491 
1742	 0.222381438100319 
1743	 0.222241883596347 
1744	 0.222065915671396 
1745	 0.221918237470893 
1746	 0.22178485740474 
1747	 0.221651985629362 
1748	 0.221527722407659 
1749	 0.221399267680855 
1750	 0.221269631228871 
1751	 0.221157755458698 
1752	 0.221050318269029 
1753	 0.220965943453846 
1754	 0.220880856575232 
1755	 0.220778861122758 
1756	 0.220652167287484 
1757	 0.220486853590607 
1758	 0.220327534281355 
1759	 0.220154860370311 
1760	 0.219992998514585 
1761	 0.219865872547955 
1762	 0.219719071472536 
1763	 0.219594480142158 
1764	 0.219463247889666 
1765	 0.219297443463303 
1766	 0.219164435154537 
1767	 0.219052597698277 
1768	 0.218944240107037 
1769	 0.218832138326447 
1770	 0.218696826425445 
1771	 0.218556211088337 
1772	 0.218406739132499 
1773	 0.218272149173959 
1774	 0.218176507882218 
1775	 0.218064108126668 
1776	 0.217930499061462 
1777	 0.217801579854604 
1778	 0.217678601500585 
1779	 0.217564413780237 
1780	 0.21746586707116 
1781	 0.217379497840301 
1782	 0.21729510303209 
1783	 0.217204969224728 
1784	 0.217100856463582 
1785	 0.216984175583103 
1786	 0.216893729501981 
1787	 0.216807051892287 
1788	 0.21672242298432 
1789	 0.216657204887472 
1790	 0.216586647202819 
1791	 0.216497439679627 
1792	 0.216431043533124 
1793	 0.216401460610179 
1794	 0.216337661283559 
1795	 0.216272644279354 
1796	 0.216181231957782 
1797	 0.216039809527406 
1798	 0.215954359724393 
1799	 0.215887835131972 
1800	 0.215813550354634 
1801	 0.209325982629629 
1802	 0.209315042059914 
1803	 0.209293760048747 
1804	 0.2092333631883 
1805	 0.209169364498394 
1806	 0.209095993088144 
1807	 0.209032794380134 
1808	 0.208989005906288 
1809	 0.20896292458776 
1810	 0.208926205721948 
1811	 0.208896017116683 
1812	 0.208881792927681 
1813	 0.20885587225204 
1814	 0.208791159937448 
1815	 0.208740108212619 
1816	 0.208686588749728 
1817	 0.208621983312224 
1818	 0.208539348985812 
1819	 0.208478512978491 
1820	 0.208427588972361 
1821	 0.208357538699147 
1822	 0.208292831137447 
1823	 0.208236698237874 
1824	 0.208180583853597 
1825	 0.20812993776158 
1826	 0.208076686901805 
1827	 0.208004073559877 
1828	 0.207905533752297 
1829	 0.207772220896654 
1830	 0.207638954362024 
1831	 0.207489860722232 
1832	 0.207327885267087 
1833	 0.207180144926035 
1834	 0.207044150192958 
1835	 0.206856858767267 
1836	 0.206673659511645 
1837	 0.206500691658078 
1838	 0.206291203699941 
1839	 0.206093783104093 
1840	 0.205906099762272 
1841	 0.205736127740091 
1842	 0.20554112482969 
1843	 0.205344286262846 
1844	 0.205144020780681 
1845	 0.204908136070908 
1846	 0.204688210547268 
1847	 0.20450832936146 
1848	 0.204341563655968 
1849	 0.204195790536275 
1850	 0.204044049384795 
1851	 0.203904680299912 
1852	 0.203726663860129 
1853	 0.203539416915091 
1854	 0.203365399307717 
1855	 0.203183802265273 
1856	 0.202996529750902 
1857	 0.202790727301885 
1858	 0.202562277345785 
1859	 0.202352389019075 
1860	 0.202125661287616 
1861	 0.201891654687096 
1862	 0.201638321135264 
1863	 0.201379456243919 
1864	 0.2010651845614 
1865	 0.200709538355855 
1866	 0.200354575863441 
1867	 0.19997794384392 
1868	 0.199582208545698 
1869	 0.19916110933752 
1870	 0.198730642663374 
1871	 0.198218004406851 
1872	 0.197658784376578 
1873	 0.197029219734017 
1874	 0.196380930332074 
1875	 0.1956228076475 
1876	 0.194827946882515 
1877	 0.194019586727586 
1878	 0.19312221482123 
1879	 0.192179846511165 
1880	 0.191169770165055 
1881	 0.190094613440637 
1882	 0.188967733966754 
1883	 0.18777766081068 
1884	 0.186516812766231 
1885	 0.185212206798373 
1886	 0.183867553940754 
1887	 0.182447142453895 
1888	 0.180976827601789 
1889	 0.179463594457968 
1890	 0.177899032333116 
1891	 0.176324175141138 
1892	 0.174687652913833 
1893	 0.173073502448278 
1894	 0.171445463010613 
1895	 0.169829068825416 
1896	 0.16819243497304 
1897	 0.166573750386018 
1898	 0.16498548963047 
1899	 0.163439512816089 
1900	 0.161945413472641 
1901	 0.160533433658013 
1902	 0.159177101417748 
1903	 0.157878870696655 
1904	 0.156642790469126 
1905	 0.155469114196394 
1906	 0.154368656092485 
1907	 0.153338074525729 
1908	 0.152391122338331 
1909	 0.151513207576987 
1910	 0.150701895485678 
1911	 0.149929860688596 
1912	 0.149195161625461 
1913	 0.148511624808545 
1914	 0.147872019922829 
1915	 0.147273159874009 
1916	 0.146714091639613 
1917	 0.146216271207695 
1918	 0.1457691726247 
1919	 0.145348499795453 
1920	 0.144995120879681 
1921	 0.144683499761183 
1922	 0.14435916253953 
1923	 0.144087974280941 
1924	 0.143843473317517 
1925	 0.143615447612622 
1926	 0.143422501394262 
1927	 0.143267398929667 
1928	 0.143148782577732 
1929	 0.143047559790745 
1930	 0.142974128017413 
1931	 0.142942375573911 
1932	 0.142921526339709 
1933	 0.142904103009848 
1934	 0.142918334628087 
1935	 0.142958473619658 
1936	 0.143021625631188 
1937	 0.143098817437288 
1938	 0.143224363458225 
1939	 0.143331739511002 
1940	 0.143433319412914 
1941	 0.143549207045106 
1942	 0.143676017943604 
1943	 0.143802165427035 
1944	 0.143971067137569 
1945	 0.14417026289174 
1946	 0.144367837437024 
1947	 0.144589973467016 
1948	 0.144806370082526 
1949	 0.145029442705106 
1950	 0.145244659161306 
1951	 0.145447315176265 
1952	 0.145679173707505 
1953	 0.145906473685418 
1954	 0.146152786224729 
1955	 0.146458904478871 
1956	 0.146748229231935 
1957	 0.147014179730197 
1958	 0.147267015454563 
1959	 0.147536269406758 
1960	 0.147775647600868 
1961	 0.148049035970215 
1962	 0.148358791286653 
1963	 0.148666949979557 
1964	 0.148975497484223 
1965	 0.149295273800673 
1966	 0.149635031347773 
1967	 0.149972118963663 
1968	 0.150318499973843 
1969	 0.150675373198887 
1970	 0.151029582713453 
1971	 0.151393847322895 
1972	 0.151748596939617 
1973	 0.152103426115916 
1974	 0.152456697697445 
1975	 0.152801950913684 
1976	 0.153151414593977 
1977	 0.153522072546259 
1978	 0.153859863948101 
1979	 0.154211573085736 
1980	 0.154563540759907 
1981	 0.154911465926656 
1982	 0.155243777598837 
1983	 0.155599989349416 
1984	 0.155984410160756 
1985	 0.156337772764185 
1986	 0.156679370666524 
1987	 0.157028301437432 
1988	 0.157372821832376 
1989	 0.157700662568675 
1990	 0.158026630823086 
1991	 0.158363134720497 
1992	 0.158695790095239 
1993	 0.159008517414654 
1994	 0.159340117631921 
1995	 0.159686486126886 
1996	 0.160035780298908 
1997	 0.160389907352114 
1998	 0.160739317543749 
1999	 0.161104568288062 
2000	 0.161453807716 
2001	 0.161788169047184 
2002	 0.162124332998439 
2003	 0.162470530852823 
2004	 0.162797777987257 
2005	 0.163130202904188 
2006	 0.163468693761263 
2007	 0.163797077057703 
2008	 0.164119266730637 
2009	 0.164435222484817 
2010	 0.164740442386974 
2011	 0.165054120545529 
2012	 0.16536372617219 
2013	 0.165674807445393 
2014	 0.166019638477867 
2015	 0.166310781298993 
2016	 0.166578181804561 
2017	 0.166869700522397 
2018	 0.167153364285289 
2019	 0.167416328404737 
2020	 0.167706354335764 
2021	 0.168024384490992 
2022	 0.168317043396388 
2023	 0.168619531312632 
2024	 0.168896681458931 
2025	 0.169126400691266 
2026	 0.169395540232411 
2027	 0.16968998073216 
2028	 0.169952674214009 
2029	 0.170224395319735 
2030	 0.170526516453049 
2031	 0.17078783900871 
2032	 0.17101855443611 
2033	 0.171257807868011 
2034	 0.171485485140449 
2035	 0.171721430887942 
2036	 0.171955487742682 
2037	 0.172188486360064 
2038	 0.172441789250486 
2039	 0.172664369225854 
2040	 0.172865454799246 
2041	 0.173067380243746 
2042	 0.173264882149498 
2043	 0.173436349386768 
2044	 0.173604107626462 
2045	 0.173754443400594 
2046	 0.17392645035296 
2047	 0.174080981157699 
2048	 0.174270997438885 
2049	 0.174505499925232 
2050	 0.174711037064949 
2051	 0.174923620574979 
2052	 0.175120583584041 
2053	 0.175304854187338 
2054	 0.175484214325567 
2055	 0.175654248980745 
2056	 0.17581601553935 
2057	 0.175988307760362 
2058	 0.176152896818084 
2059	 0.176329105441116 
2060	 0.17653739982853 
2061	 0.176695354115137 
2062	 0.176836279821812 
2063	 0.176968474877693 
2064	 0.177042094415413 
2065	 0.177170221782897 
2066	 0.17732128163199 
2067	 0.177472906914599 
2068	 0.177657012665342 
2069	 0.177829645608429 
2070	 0.17798704703418 
2071	 0.178137643769296 
2072	 0.178273329397412 
2073	 0.178392857532369 
2074	 0.178514210383981 
2075	 0.178616973547366 
2076	 0.178737767294727 
2077	 0.178854622752122 
2078	 0.178990579018648 
2079	 0.179148235632144 
2080	 0.179296680455567 
2081	 0.179464639252773 
2082	 0.179613320867136 
2083	 0.179746314607911 
2084	 0.179879165230446 
2085	 0.180009791641664 
2086	 0.180131012663924 
2087	 0.180255399969822 
2088	 0.180381799912857 
2089	 0.180504380336989 
2090	 0.180611349307297 
2091	 0.180744750028144 
2092	 0.180894389017378 
2093	 0.181035684855186 
2094	 0.181212051872725 
2095	 0.181343322093809 
2096	 0.18142772847852 
2097	 0.181537939191935 
2098	 0.181626346868098 
2099	 0.181737465934583 
2100	 0.181862054105066 
2101	 0.182017732081898 
2102	 0.18215433717978 
2103	 0.182295159896453 
2104	 0.182428286709528 
2105	 0.182561878753242 
2106	 0.182685720840421 
2107	 0.182805123905916 
2108	 0.182915151974492 
2109	 0.183006142119419 
2110	 0.183109907753418 
2111	 0.183206683812471 
2112	 0.183315578847962 
2113	 0.183432130076095 
2114	 0.183562262803422 
2115	 0.183683239037651 
2116	 0.183808904446944 
2117	 0.183926716117021 
2118	 0.184035180377272 
2119	 0.184154373481359 
2120	 0.184282403113911 
2121	 0.184396474036433 
2122	 0.18451011981599 
2123	 0.184620815169753 
2124	 0.184723200147172 
2125	 0.184820529666213 
2126	 0.18492001438908 
2127	 0.185011629523504 
2128	 0.185111406609187 
2129	 0.185175153957866 
2130	 0.185207514302648 
2131	 0.185243540805265 
2132	 0.185280006524507 
2133	 0.18529766730783 
2134	 0.18531320718676 
2135	 0.185340313144121 
2136	 0.18535055729107 
2137	 0.18532529985872 
2138	 0.185327065633107 
2139	 0.18536416007302 
2140	 0.185354763319348 
2141	 0.185317639369003 
2142	 0.185295017796892 
2143	 0.185272405516294 
2144	 0.185220911190233 
2145	 0.185178135296218 
2146	 0.185106420462095 
2147	 0.184983299019881 
2148	 0.184850977509079 
2149	 0.184748535585133 
2150	 0.184656091299163 
2151	 0.184553645552182 
2152	 0.184475359187955 
2153	 0.184357149844463 
2154	 0.184204265528794 
2155	 0.184071891593779 
2156	 0.183936492080395 
2157	 0.18379508840449 
2158	 0.183659757788259 
2159	 0.183513846453619 
2160	 0.183360900862671 
2161	 0.183194815643731 
2162	 0.183029492419733 
2163	 0.182846179375659 
2164	 0.182633928174259 
2165	 0.182421484622022 
2166	 0.18222095164419 
2167	 0.182012524662994 
2168	 0.18182129275372 
2169	 0.181652459843296 
2170	 0.181464396032732 
2171	 0.181269951084539 
2172	 0.181083154961666 
2173	 0.180901261785198 
2174	 0.180704507772077 
2175	 0.180502234553611 
2176	 0.180304868870107 
2177	 0.180103818642328 
2178	 0.179892734680306 
2179	 0.179677105484947 
2180	 0.17946953502897 
2181	 0.179254700477318 
2182	 0.179039269728416 
2183	 0.178838013589092 
2184	 0.178628515478246 
2185	 0.178413873258541 
2186	 0.178185637813583 
2187	 0.177963816189739 
2188	 0.177740433914315 
2189	 0.177522012802774 
2190	 0.177293356397462 
2191	 0.177088717266592 
2192	 0.176895847365629 
2193	 0.176712369680616 
2194	 0.176547629651014 
2195	 0.1763835627904 
2196	 0.176223428106543 
2197	 0.176072731344189 
2198	 0.175922549139009 
2199	 0.175790218866852 
2200	 0.17569766277598 
2201	 0.175574730950166 
2202	 0.175440373979089 
2203	 0.17531181508539 
2204	 0.175192401323133 
2205	 0.17505366294526 
2206	 0.17494228656807 
2207	 0.174857110981889 
2208	 0.174772116849568 
2209	 0.174688289131486 
2210	 0.174614483322262 
2211	 0.174562409495763 
2212	 0.174503714049863 
2213	 0.174430756440955 
2214	 0.17438727033843 
2215	 0.174365001777199 
2216	 0.174337208688987 
2217	 0.174340225672369 
2218	 0.174315544039514 
2219	 0.174263397583244 
2220	 0.174230211342384 
2221	 0.174193891229118 
2222	 0.174165617637117 
2223	 0.174132985804372 
2224	 0.174095501886674 
2225	 0.17407462995382 
2226	 0.174049048341573 
2227	 0.174027769490012 
2228	 0.174028554380228 
2229	 0.174018733522923 
2230	 0.174005521510737 
2231	 0.173977582397756 
2232	 0.173953641855594 
2233	 0.173909006681593 
2234	 0.173846207708861 
2235	 0.17377082416067 
2236	 0.17369156405615 
2237	 0.173588775278966 
2238	 0.173453563268931 
2239	 0.173319869724236 
2240	 0.173186780319685 
2241	 0.173027142398374 
2242	 0.172834060517422 
2243	 0.172655725130967 
2244	 0.172486474226961 
2245	 0.172281166673919 
2246	 0.172065908229854 
2247	 0.171839421831652 
2248	 0.171559590783825 
2249	 0.17121340441936 
2250	 0.170890561180675 
2251	 0.170526943885611 
2252	 0.170222466513535 
2253	 0.169934625573136 
2254	 0.169654507115617 
2255	 0.169410102219256 
2256	 0.169154275142581 
2257	 0.168880077155197 
2258	 0.168644817103188 
2259	 0.168404548798833 
2260	 0.1682364979533 
2261	 0.168102442743206 
2262	 0.168013628401644 
2263	 0.168018697087875 
2264	 0.167997461027043 
2265	 0.167991248720831 
2266	 0.168009263611158 
2267	 0.168022589896151 
2268	 0.168069281958318 
2269	 0.168163785759264 
2270	 0.168258225101417 
2271	 0.168345161482499 
2272	 0.168446519826202 
2273	 0.168570104178884 
2274	 0.16869244479363 
2275	 0.168844577751205 
2276	 0.169043798797323 
2277	 0.169208622294969 
2278	 0.169358421729506 
2279	 0.169551726963557 
2280	 0.169766943395737 
2281	 0.169964101170832 
2282	 0.170189633611456 
2283	 0.170390903634022 
2284	 0.170570538571601 
2285	 0.17073951920131 
2286	 0.170924175397976 
2287	 0.171064230666885 
2288	 0.171157786416448 
2289	 0.171256578850587 
2290	 0.171359044729436 
2291	 0.171408519253232 
2292	 0.171417874033714 
2293	 0.171427099131654 
2294	 0.171370142908469 
2295	 0.171359661410841 
2296	 0.171367740374863 
2297	 0.171393252624069 
2298	 0.171420578062807 
2299	 0.171456587351833 
2300	 0.171485109207668 
2301	 0.171518248346627 
2302	 0.171571909890615 
2303	 0.171591913350563 
2304	 0.171613408725097 
2305	 0.171620860084985 
2306	 0.171616023846008 
2307	 0.171578668557239 
2308	 0.171592485113519 
2309	 0.171620241249884 
2310	 0.171643369434366 
2311	 0.171702078433442 
2312	 0.171715123216449 
2313	 0.171709317039736 
2314	 0.171698695803064 
2315	 0.171663570827022 
2316	 0.171633005738095 
2317	 0.171615418874682 
2318	 0.171543136221296 
2319	 0.171456110443771 
2320	 0.17134334257196 
2321	 0.171123119392941 
2322	 0.171005871400199 
2323	 0.170933863711388 
2324	 0.170857112373894 
2325	 0.17082617043343 
2326	 0.170805769685471 
2327	 0.170788746228818 
2328	 0.170766194504441 
2329	 0.170801536722548 
2330	 0.170808486116853 
2331	 0.17071583314099 
2332	 0.170608870194113 
2333	 0.170443345863039 
2334	 0.170288480440258 
2335	 0.170204876198974 
2336	 0.170115489276369 
2337	 0.170046265898129 
2338	 0.169971264696449 
2339	 0.169882045873555 
2340	 0.169786359685888 
2341	 0.16966715883417 
2342	 0.169575753527905 
2343	 0.169501789230062 
2344	 0.169378970817828 
2345	 0.169236219203066 
2346	 0.169073625944619 
2347	 0.168924140775395 
2348	 0.168727436980731 
2349	 0.16857572710714 
2350	 0.168471992079249 
2351	 0.168350026236103 
2352	 0.168254496643503 
2353	 0.168097603650683 
2354	 0.167897490137694 
2355	 0.167712166809579 
2356	 0.167481664656001 
2357	 0.167282108362223 
2358	 0.167127710532513 
2359	 0.166938780397017 
2360	 0.16673114236386 
2361	 0.166531280117776 
2362	 0.166330550897829 
2363	 0.166113933777483 
2364	 0.165895096626637 
2365	 0.16566743983869 
2366	 0.165376047180415 
2367	 0.165162389124115 
2368	 0.165026182079531 
2369	 0.164809587667239 
2370	 0.164561173590317 
2371	 0.164408296684436 
2372	 0.164151654448052 
2373	 0.163828739449676 
2374	 0.163561676046676 
2375	 0.163280284029973 
2376	 0.162965669573648 
2377	 0.162690914983771 
2378	 0.162382813485613 
2379	 0.162110037480999 
2380	 0.161937273741943 
2381	 0.161641494694543 
2382	 0.161364126690531 
2383	 0.161171445764928 
2384	 0.160837241877662 
2385	 0.160568670033715 
2386	 0.160389327053653 
2387	 0.160084369214748 
2388	 0.159780663979697 
2389	 0.159496668239601 
2390	 0.159153845873458 
2391	 0.158785173911649 
2392	 0.158388789414791 
2393	 0.158065347406195 
2394	 0.157774878190592 
2395	 0.157445731104962 
2396	 0.157199034971174 
2397	 0.156928644996845 
2398	 0.156601081114685 
2399	 0.156297980111339 
2400	 0.155969859180754 
2401	 0.155699670528115 
2402	 0.155437741572644 
2403	 0.155169915579379 
2404	 0.155012098105426 
2405	 0.154781073809822 
2406	 0.154494637478959 
2407	 0.154250760799191 
2408	 0.153905227781756 
2409	 0.153607014439703 
2410	 0.153443098013813 
2411	 0.153282002084927 
2412	 0.153111794591508 
2413	 0.152900171598746 
2414	 0.152614486308658 
2415	 0.152341092369283 
2416	 0.152108390470928 
2417	 0.151932896027672 
2418	 0.15169492898906 
2419	 0.15145163157183 
2420	 0.151207798925525 
2421	 0.150913818191186 
2422	 0.150689346040154 
2423	 0.150539067057111 
2424	 0.150275305640398 
2425	 0.149998037136084 
2426	 0.149728426731476 
2427	 0.149371557540178 
2428	 0.149099600856505 
2429	 0.148875017047797 
2430	 0.148565377511747 
2431	 0.148285701319805 
2432	 0.14793233658518 
2433	 0.147474196701079 
2434	 0.147150142437456 
2435	 0.146845077076972 
2436	 0.146532110927159 
2437	 0.146305370666351 
2438	 0.146001270858978 
2439	 0.145619246229102 
2440	 0.145266564600863 
2441	 0.144908345944952 
2442	 0.144618938835668 
2443	 0.144370775041979 
2444	 0.144042257759336 
2445	 0.143771237586838 
2446	 0.143409595310674 
2447	 0.1428627010013 
2448	 0.142558872178768 
2449	 0.142451009513362 
2450	 0.142074422895912 
2451	 0.141651137576701 
2452	 0.141197831639705 
2453	 0.140461487014807 
2454	 0.140022355878606 
2455	 0.139798036782963 
2456	 0.139551502037689 
2457	 0.139428770026288 
2458	 0.139155554454177 
2459	 0.138804570688531 
2460	 0.138534439911221 
2461	 0.138253581839637 
2462	 0.138025446974655 
2463	 0.137905538456337 
2464	 0.137706867204322 
2465	 0.137458123333545 
2466	 0.137157601675665 
2467	 0.136812279245095 
2468	 0.136432674070506 
2469	 0.135961428237859 
2470	 0.135704811848943 
2471	 0.135430887948067 
2472	 0.135153425736363 
2473	 0.134982512543529 
2474	 0.134798055209206 
2475	 0.134640567854598 
2476	 0.13450733383075 
2477	 0.134098605752542 
2478	 0.133519076315488 
2479	 0.133120147345636 
2480	 0.132795919129971 
2481	 0.132511026797388 
2482	 0.132325118084268 
2483	 0.131969156060116 
2484	 0.131753084032013 
2485	 0.131756746273436 
2486	 0.131585686380409 
2487	 0.131343873654477 
2488	 0.130886765549144 
2489	 0.13022403343333 
2490	 0.129844154223812 
2491	 0.129721516569245 
2492	 0.129698825505097 
2493	 0.129777792301543 
2494	 0.129767452156444 
2495	 0.129570434384399 
2496	 0.129336896028628 
2497	 0.128982709494907 
2498	 0.12869014335143 
2499	 0.128669558340727 
2500	 0.128297092428706 
