Wavelength	LMW_12_00007.asd
350	 0.125264068607867 
351	 0.128506680607813 
352	 0.121789356926684 
353	 0.111411351019739 
354	 0.115589063591545 
355	 0.120136403547694 
356	 0.119725828795843 
357	 0.113995661747376 
358	 0.109832338879082 
359	 0.113898304170516 
360	 0.12178211229696 
361	 0.122710609187657 
362	 0.118763697379368 
363	 0.11443225325286 
364	 0.113147211968075 
365	 0.116274959724833 
366	 0.120291053400237 
367	 0.120354231512124 
368	 0.115325769110276 
369	 0.118559977413626 
370	 0.120155178294227 
371	 0.120063801144237 
372	 0.124438508264619 
373	 0.125302035938316 
374	 0.126084007387723 
375	 0.128475465375258 
376	 0.128632459576875 
377	 0.12819103079836 
378	 0.127765003652376 
379	 0.127723040421111 
380	 0.128131297084844 
381	 0.13153344892066 
382	 0.135616328841625 
383	 0.135095127119061 
384	 0.136504714396803 
385	 0.137325281990216 
386	 0.136842634439162 
387	 0.140476283713452 
388	 0.142349624347198 
389	 0.142254532387859 
390	 0.142198600162164 
391	 0.145136029815859 
392	 0.148136860487185 
393	 0.150605892768729 
394	 0.154036872340009 
395	 0.156558764979373 
396	 0.157277342266696 
397	 0.156881774331451 
398	 0.158980539686558 
399	 0.161266490685209 
400	 0.163165422984586 
401	 0.164700672890792 
402	 0.165729909217357 
403	 0.1667927478884 
404	 0.168126205089927 
405	 0.169652051780561 
406	 0.172225421609124 
407	 0.174073609608797 
408	 0.174200496454853 
409	 0.174514471359039 
410	 0.176137022691464 
411	 0.178114731703626 
412	 0.178763840034016 
413	 0.179045172817765 
414	 0.179578980486007 
415	 0.180517294421303 
416	 0.181507488820123 
417	 0.181290801741356 
418	 0.181303764368171 
419	 0.182519734042682 
420	 0.181997501679481 
421	 0.181859303397397 
422	 0.182593665766333 
423	 0.183475239442898 
424	 0.183377402879523 
425	 0.182983027324528 
426	 0.182862228500616 
427	 0.182973561909769 
428	 0.182671833276697 
429	 0.182500467295705 
430	 0.18297688145379 
431	 0.18246869267959 
432	 0.181772216777162 
433	 0.181417503614178 
434	 0.181535537454287 
435	 0.181827221435045 
436	 0.18240378942772 
437	 0.1831923878302 
438	 0.183344840368807 
439	 0.184042252140628 
440	 0.185125395245321 
441	 0.185871769135097 
442	 0.186990389967878 
443	 0.187960810511644 
444	 0.188593918576966 
445	 0.189340958635328 
446	 0.190431596369546 
447	 0.191493900935815 
448	 0.192194482263588 
449	 0.193158638743634 
450	 0.194437061664731 
451	 0.195776679426308 
452	 0.196724113413827 
453	 0.197614856999719 
454	 0.198471282232463 
455	 0.19928509046471 
456	 0.200105757224631 
457	 0.201012343632972 
458	 0.201748320048328 
459	 0.202059526486103 
460	 0.202889306948662 
461	 0.20377904208835 
462	 0.20437979966846 
463	 0.204663985146176 
464	 0.205315039693508 
465	 0.206105217393816 
466	 0.20668292642321 
467	 0.207378048174991 
468	 0.207839636326917 
469	 0.20811600397991 
470	 0.208572106717447 
471	 0.209079152618741 
472	 0.20962143149733 
473	 0.210132440264371 
474	 0.210362972221172 
475	 0.210675173555388 
476	 0.211123360259597 
477	 0.211623445333862 
478	 0.212224305837571 
479	 0.212581482895952 
480	 0.212805401907191 
481	 0.213679292032395 
482	 0.214094044426966 
483	 0.214325648135391 
484	 0.214873097851338 
485	 0.21550443062704 
486	 0.21590313035643 
487	 0.216154437154098 
488	 0.21665567956575 
489	 0.217117705316814 
490	 0.21762457583567 
491	 0.218208382230855 
492	 0.218623737014481 
493	 0.218977504911477 
494	 0.219343212454742 
495	 0.219789949557304 
496	 0.220480613715415 
497	 0.220884172591852 
498	 0.221025596689936 
499	 0.22184852148984 
500	 0.222473190664364 
501	 0.222889222518216 
502	 0.223328576412968 
503	 0.223911259625017 
504	 0.224334010336048 
505	 0.224656658741379 
506	 0.225256976758688 
507	 0.225785025605314 
508	 0.226215419671905 
509	 0.226577530762347 
510	 0.226822665346919 
511	 0.227389816244248 
512	 0.228090475736436 
513	 0.228468626405136 
514	 0.229011376134292 
515	 0.229563422662312 
516	 0.230024414256184 
517	 0.230510903672324 
518	 0.230973941991712 
519	 0.231342431718916 
520	 0.231620025563669 
521	 0.232236849963868 
522	 0.232779774274802 
523	 0.233146775120781 
524	 0.233604722747568 
525	 0.233974466537734 
526	 0.23432780572815 
527	 0.234766374885075 
528	 0.235323561998395 
529	 0.235865188441459 
530	 0.236342687702693 
531	 0.236778186809209 
532	 0.237277529248535 
533	 0.23783196551087 
534	 0.238387217590642 
535	 0.238832108952841 
536	 0.239223993782557 
537	 0.239673657105635 
538	 0.240260896814044 
539	 0.240692734772341 
540	 0.241141397527501 
541	 0.241678589793808 
542	 0.242194001407268 
543	 0.242667743340904 
544	 0.243140957576356 
545	 0.243661380800337 
546	 0.244220822990308 
547	 0.244786698373319 
548	 0.245382583539485 
549	 0.246070472113394 
550	 0.246672599082242 
551	 0.247236865266661 
552	 0.247831790453408 
553	 0.248464273766064 
554	 0.249099995161688 
555	 0.249705399502724 
556	 0.250254768565599 
557	 0.250778885278755 
558	 0.251320408836436 
559	 0.251899708585732 
560	 0.25249424085637 
561	 0.253174377112983 
562	 0.253916653423895 
563	 0.254679801669099 
564	 0.255518662336143 
565	 0.256441816882936 
566	 0.257498705518466 
567	 0.258781419815471 
568	 0.259947558670003 
569	 0.260820847482948 
570	 0.261380505290619 
571	 0.261888911972367 
572	 0.262524576188839 
573	 0.263356390448523 
574	 0.26433897056023 
575	 0.265149551532444 
576	 0.265933483254792 
577	 0.266802370400237 
578	 0.267579166101048 
579	 0.268653508521678 
580	 0.270025559435152 
581	 0.271511887313479 
582	 0.273048645233852 
583	 0.274388748388931 
584	 0.275392951670009 
585	 0.276078689936765 
586	 0.276871322092329 
587	 0.277706648267318 
588	 0.278420870649507 
589	 0.279155204236222 
590	 0.27985556903341 
591	 0.280518711114104 
592	 0.281191524173372 
593	 0.281765977386601 
594	 0.282373876926019 
595	 0.283199985282527 
596	 0.28446091509282 
597	 0.285933381092984 
598	 0.287439268296559 
599	 0.288847187477013 
600	 0.290211977850567 
601	 0.291373890922624 
602	 0.292277861200727 
603	 0.293088805120292 
604	 0.293863038541238 
605	 0.294672843394824 
606	 0.295567702708781 
607	 0.296510466258018 
608	 0.297351398697209 
609	 0.298070290146916 
610	 0.298803157552306 
611	 0.299699957188517 
612	 0.300699278296218 
613	 0.301675323914655 
614	 0.302515605459573 
615	 0.303325229273816 
616	 0.304112765087616 
617	 0.30482682499039 
618	 0.305630645403323 
619	 0.306410319593712 
620	 0.307091101577222 
621	 0.307759049395399 
622	 0.308478675075592 
623	 0.309236680832385 
624	 0.309974363061738 
625	 0.310597032793283 
626	 0.311260654106789 
627	 0.31200435589663 
628	 0.312687709851905 
629	 0.313282937734284 
630	 0.313865062367484 
631	 0.314520472914496 
632	 0.315248958473105 
633	 0.315946109035384 
634	 0.316575006241595 
635	 0.317168649749419 
636	 0.317872978108381 
637	 0.318601422790964 
638	 0.319250973327918 
639	 0.319767669740269 
640	 0.320411560093766 
641	 0.321135866458745 
642	 0.321768015335601 
643	 0.322427512353533 
644	 0.323066502911713 
645	 0.323685650309801 
646	 0.324377796052235 
647	 0.324997175105067 
648	 0.325593282767533 
649	 0.326261574726249 
650	 0.32703944179875 
651	 0.327763304102245 
652	 0.32840272255378 
653	 0.329052874609389 
654	 0.329778191520045 
655	 0.330481418126587 
656	 0.331107764996099 
657	 0.331781906683706 
658	 0.332475066434549 
659	 0.333212802257222 
660	 0.334012162213631 
661	 0.334664518455167 
662	 0.335288399148257 
663	 0.335986034615182 
664	 0.336788289929846 
665	 0.337626904799137 
666	 0.338363104251745 
667	 0.338939068012195 
668	 0.339676979476374 
669	 0.340506455886565 
670	 0.341317896732728 
671	 0.341993291106245 
672	 0.342711878113556 
673	 0.343479945719458 
674	 0.344274735111007 
675	 0.345096483941925 
676	 0.345826403580777 
677	 0.346523737650689 
678	 0.347315241210324 
679	 0.34816538513537 
680	 0.34900178977894 
681	 0.349789231432673 
682	 0.350546392059212 
683	 0.351298040832955 
684	 0.352081059811615 
685	 0.352915261157118 
686	 0.353764189763117 
687	 0.354576741186913 
688	 0.355349181959323 
689	 0.356120912639257 
690	 0.357019934580351 
691	 0.357865055962318 
692	 0.358591193578495 
693	 0.359461971246597 
694	 0.360283056967492 
695	 0.361056124508538 
696	 0.36185656718499 
697	 0.362759528436418 
698	 0.363618143863126 
699	 0.364422947893219 
700	 0.365315638000074 
701	 0.366070190318859 
702	 0.366840867198374 
703	 0.36774363479611 
704	 0.368556013610295 
705	 0.369378485859375 
706	 0.3701675244559 
707	 0.370844545342191 
708	 0.371674781194866 
709	 0.372559286969452 
710	 0.37340057888864 
711	 0.3741669841615 
712	 0.374904415621623 
713	 0.375623314533655 
714	 0.376337891361442 
715	 0.377109637794712 
716	 0.377864997838457 
717	 0.378635160888456 
718	 0.37949794976112 
719	 0.380116693472572 
720	 0.380708844035325 
721	 0.381407903079323 
722	 0.382017764067913 
723	 0.382730620013733 
724	 0.383515663440232 
725	 0.38427292878883 
726	 0.38500084591992 
727	 0.385542698443617 
728	 0.385972767936018 
729	 0.386566779590017 
730	 0.387166246230912 
731	 0.387785316710853 
732	 0.388403184938518 
733	 0.388831687807994 
734	 0.389312321992589 
735	 0.38983546408592 
736	 0.390302179118194 
737	 0.390764468957702 
738	 0.391239954711141 
739	 0.391721932456816 
740	 0.392179665023003 
741	 0.392599867092177 
742	 0.392977472207692 
743	 0.393319453587587 
744	 0.393651160890783 
745	 0.3939967125017 
746	 0.394350085105414 
747	 0.394680367874796 
748	 0.394913560723155 
749	 0.395127301134522 
750	 0.395363412137758 
751	 0.395602750472125 
752	 0.395902698133596 
753	 0.396199243398873 
754	 0.396429769333486 
755	 0.396620279625031 
756	 0.396787512359348 
757	 0.396949098262446 
758	 0.39711521680013 
759	 0.397265021772391 
760	 0.397292028360337 
761	 0.397261010136007 
762	 0.397448442774796 
763	 0.39758604504066 
764	 0.397684573102783 
765	 0.397793689099929 
766	 0.397883684617463 
767	 0.397891872303335 
768	 0.397890300898827 
769	 0.397986375073028 
770	 0.398004496985492 
771	 0.398000933512259 
772	 0.397999921665449 
773	 0.397963511304395 
774	 0.397934739500883 
775	 0.397944826511466 
776	 0.397987041616555 
777	 0.397964431211348 
778	 0.397925859614744 
779	 0.397875424855942 
780	 0.397813228356819 
781	 0.397848683061188 
782	 0.397805836086653 
783	 0.397687111045469 
784	 0.397693480103958 
785	 0.397623679726052 
786	 0.397497058796023 
787	 0.397383535686187 
788	 0.397367077655791 
789	 0.397396863108595 
790	 0.39738503135674 
791	 0.397256364830117 
792	 0.397064177488194 
793	 0.396992086010215 
794	 0.397044522750061 
795	 0.397059810957731 
796	 0.396931482492785 
797	 0.39678273014935 
798	 0.39670135779559 
799	 0.396636418200218 
800	 0.396581161271841 
801	 0.396472126405454 
802	 0.396296575796433 
803	 0.396286226836803 
804	 0.396292191562137 
805	 0.396254667263197 
806	 0.396183446708975 
807	 0.39611378883343 
808	 0.396021043805419 
809	 0.395908159827761 
810	 0.395821153798854 
811	 0.395799618483905 
812	 0.395745822382042 
813	 0.395605682730167 
814	 0.395523343761259 
815	 0.395468747882465 
816	 0.395455288827503 
817	 0.395481510661117 
818	 0.395400636330624 
819	 0.395305582156689 
820	 0.39522708768074 
821	 0.395139428262986 
822	 0.395163296280273 
823	 0.39516858370491 
824	 0.395081918791331 
825	 0.394984679204082 
826	 0.394908166488448 
827	 0.394855350033897 
828	 0.394837193432772 
829	 0.394955670495434 
830	 0.394855258654819 
831	 0.39469415764044 
832	 0.394812445435167 
833	 0.39496807331493 
834	 0.394922112769712 
835	 0.394729286097086 
836	 0.394708070417957 
837	 0.394847601733974 
838	 0.394933050784112 
839	 0.394873955068457 
840	 0.394853191234743 
841	 0.39485202108135 
842	 0.394836260132296 
843	 0.394786617847022 
844	 0.394746560347029 
845	 0.394817655553929 
846	 0.394867522666631 
847	 0.394735299415538 
848	 0.39475122861395 
849	 0.394900689964744 
850	 0.395092165813071 
851	 0.395194429030713 
852	 0.395186083603856 
853	 0.395154962854048 
854	 0.395184703073793 
855	 0.395319622219502 
856	 0.395424675325951 
857	 0.395525354565165 
858	 0.395622095574572 
859	 0.395527369500851 
860	 0.39556799996565 
861	 0.395744370052446 
862	 0.395930456189747 
863	 0.396051246396207 
864	 0.39613546560301 
865	 0.396234607509347 
866	 0.396394244318353 
867	 0.396551117026112 
868	 0.396587084331809 
869	 0.396579405464835 
870	 0.396776942272366 
871	 0.396943628707291 
872	 0.397159866649008 
873	 0.397427788801422 
874	 0.397550090433012 
875	 0.397564736384772 
876	 0.397563048748417 
877	 0.39765354463597 
878	 0.397958142367697 
879	 0.398219196402588 
880	 0.398369708526524 
881	 0.398468294064232 
882	 0.398741013523416 
883	 0.399015305523335 
884	 0.399222169117502 
885	 0.399393607987829 
886	 0.399744471965242 
887	 0.400002562364608 
888	 0.400157053140791 
889	 0.400429165544844 
890	 0.400697611261915 
891	 0.400960262687071 
892	 0.401200824298502 
893	 0.401374745924826 
894	 0.401543996750527 
895	 0.401753257623612 
896	 0.402047582952277 
897	 0.402481438195601 
898	 0.40277910427604 
899	 0.403031255512145 
900	 0.403329933513427 
901	 0.403472878162631 
902	 0.403738150503598 
903	 0.40407145468041 
904	 0.40436358546625 
905	 0.404774855002118 
906	 0.405193417630179 
907	 0.405506801460298 
908	 0.405684009334481 
909	 0.406035345836003 
910	 0.406479625807156 
911	 0.406945805744883 
912	 0.407369431306175 
913	 0.40759676015545 
914	 0.407839259026922 
915	 0.408211326947808 
916	 0.408693100259268 
917	 0.40922539214152 
918	 0.40963340662203 
919	 0.409900536329662 
920	 0.410204267284549 
921	 0.410636882419651 
922	 0.41104865670177 
923	 0.411420530582355 
924	 0.411974219302206 
925	 0.412404451339468 
926	 0.412820835935593 
927	 0.413292122816046 
928	 0.41364708904449 
929	 0.414114714430993 
930	 0.414643727347657 
931	 0.415127259492315 
932	 0.415500719478049 
933	 0.416108903721825 
934	 0.416671209188282 
935	 0.416955190753583 
936	 0.417409430170994 
937	 0.417990801349297 
938	 0.41858693063578 
939	 0.419132408264985 
940	 0.419861587025826 
941	 0.420418912706146 
942	 0.420813564536778 
943	 0.421207088895439 
944	 0.421666468095302 
945	 0.422262241469984 
946	 0.422928692816342 
947	 0.423527782556582 
948	 0.423928867047697 
949	 0.424329301470548 
950	 0.424863765161227 
951	 0.425552933970306 
952	 0.426145594750363 
953	 0.42665432955509 
954	 0.427170017353265 
955	 0.42777155816574 
956	 0.428267985427434 
957	 0.428807358678648 
958	 0.429395846954738 
959	 0.429941070685695 
960	 0.430397036207501 
961	 0.430923835688637 
962	 0.431664933870784 
963	 0.432613932024483 
964	 0.433141911164408 
965	 0.433608332035436 
966	 0.434208730506214 
967	 0.43494292866973 
968	 0.435718049227408 
969	 0.436434330019837 
970	 0.437077524046006 
971	 0.437699385801636 
972	 0.438341766514792 
973	 0.439021776934984 
974	 0.439703485887161 
975	 0.440352871235115 
976	 0.441156456491155 
977	 0.441826987363546 
978	 0.442335086757034 
979	 0.442854118937709 
980	 0.443520074436111 
981	 0.444063496681949 
982	 0.444557620158017 
983	 0.44524990511416 
984	 0.446007477699883 
985	 0.44667798066223 
986	 0.447290098419245 
987	 0.447956759237752 
988	 0.448619238963039 
989	 0.44926921186192 
990	 0.44997625626013 
991	 0.450765774877608 
992	 0.451302881726901 
993	 0.451914194993046 
994	 0.452582303529738 
995	 0.45315131220884 
996	 0.453654311400938 
997	 0.454188607215909 
998	 0.454918968044603 
999	 0.455838968277587 
1000	 0.456341364056013 
1001	 0.460238314349889 
1002	 0.460708531972623 
1003	 0.461186208690551 
1004	 0.461688217607792 
1005	 0.462271053473661 
1006	 0.462831402693085 
1007	 0.463406095754882 
1008	 0.463913160995746 
1009	 0.464397262438537 
1010	 0.464886308393767 
1011	 0.465355916093061 
1012	 0.465801726258454 
1013	 0.466256457928652 
1014	 0.466752328662327 
1015	 0.467252514905121 
1016	 0.467683229720082 
1017	 0.468145824093344 
1018	 0.468625135818931 
1019	 0.469121630044547 
1020	 0.469565324391417 
1021	 0.469991437117885 
1022	 0.470390330793254 
1023	 0.470750319645358 
1024	 0.471113587087932 
1025	 0.471541971482387 
1026	 0.471984511721996 
1027	 0.47238811286667 
1028	 0.472813970053784 
1029	 0.47326365926294 
1030	 0.473692787050266 
1031	 0.474094682569373 
1032	 0.4744877214096 
1033	 0.474867145378159 
1034	 0.47525852383049 
1035	 0.475657139037585 
1036	 0.476068654596302 
1037	 0.476465923061841 
1038	 0.47679315376825 
1039	 0.477101185830253 
1040	 0.477445470791512 
1041	 0.47780368924227 
1042	 0.478185290157668 
1043	 0.478586692066733 
1044	 0.47894005516945 
1045	 0.479281946167017 
1046	 0.479574925152612 
1047	 0.479869271495339 
1048	 0.480180594505733 
1049	 0.480520682021364 
1050	 0.480901031891743 
1051	 0.481240383455114 
1052	 0.481541405045667 
1053	 0.481883160127929 
1054	 0.48225783383895 
1055	 0.482616638301679 
1056	 0.482988960974594 
1057	 0.483351601399463 
1058	 0.483666817927943 
1059	 0.484007043095986 
1060	 0.484382766532723 
1061	 0.484735581400964 
1062	 0.485010353950351 
1063	 0.485296610409888 
1064	 0.485553338217798 
1065	 0.485806138193515 
1066	 0.486120883036358 
1067	 0.486451223499014 
1068	 0.486738968502836 
1069	 0.487029958408852 
1070	 0.487323383249852 
1071	 0.487600597325136 
1072	 0.487858783669466 
1073	 0.488113331603887 
1074	 0.488398254094261 
1075	 0.488670382929088 
1076	 0.488964083892944 
1077	 0.489267881309395 
1078	 0.489519561934713 
1079	 0.489756563007441 
1080	 0.489990360356511 
1081	 0.490257787820919 
1082	 0.490476941845211 
1083	 0.490686982077519 
1084	 0.49088037579043 
1085	 0.491070602018759 
1086	 0.491232973756497 
1087	 0.491419990487438 
1088	 0.491614402550518 
1089	 0.491793776827759 
1090	 0.491980917464194 
1091	 0.492167779421209 
1092	 0.492374408582045 
1093	 0.492574490272065 
1094	 0.492786963091546 
1095	 0.493006148968351 
1096	 0.493173523507511 
1097	 0.493333709111026 
1098	 0.49350527772426 
1099	 0.493656242204559 
1100	 0.493836107780446 
1101	 0.49404414076055 
1102	 0.494242026200001 
1103	 0.494448537787507 
1104	 0.494628219043009 
1105	 0.494852744000573 
1106	 0.495077515890366 
1107	 0.495284074579288 
1108	 0.495509708508063 
1109	 0.495717709756859 
1110	 0.495919270614392 
1111	 0.496122073569512 
1112	 0.4963231186908 
1113	 0.496542219245195 
1114	 0.496746905601123 
1115	 0.496984507987669 
1116	 0.497281937680381 
1117	 0.497525579810377 
1118	 0.497752191520179 
1119	 0.497987351684077 
1120	 0.498208439039701 
1121	 0.498412692808181 
1122	 0.498663772230534 
1123	 0.498928066008794 
1124	 0.49917770128496 
1125	 0.499422975421026 
1126	 0.499677839064636 
1127	 0.499945887228571 
1128	 0.500185725043848 
1129	 0.500406042407383 
1130	 0.500653822210869 
1131	 0.500893213695929 
1132	 0.501135090939685 
1133	 0.501433788430855 
1134	 0.501675841775382 
1135	 0.501870340299786 
1136	 0.50207043075158 
1137	 0.502302305915295 
1138	 0.5024860332623 
1139	 0.502679400882908 
1140	 0.502900100268544 
1141	 0.503079721266283 
1142	 0.503202558271086 
1143	 0.503378942416166 
1144	 0.503573171089803 
1145	 0.503753721888962 
1146	 0.503983554100556 
1147	 0.504145499042911 
1148	 0.504247694841878 
1149	 0.504373454082509 
1150	 0.504478321265009 
1151	 0.504572490709615 
1152	 0.504716398376052 
1153	 0.504884787108636 
1154	 0.505028181693785 
1155	 0.505171809959603 
1156	 0.505321924453858 
1157	 0.505467008199756 
1158	 0.505607508660327 
1159	 0.505779355604816 
1160	 0.505898550902245 
1161	 0.505967980038443 
1162	 0.506068499480565 
1163	 0.50614641781184 
1164	 0.506247224796859 
1165	 0.506384125498254 
1166	 0.506500871731049 
1167	 0.506607179451263 
1168	 0.50674928232761 
1169	 0.506887251167819 
1170	 0.507035794814374 
1171	 0.507174502343574 
1172	 0.507325184537986 
1173	 0.507456058069018 
1174	 0.507573644271423 
1175	 0.507692150416717 
1176	 0.507799638996256 
1177	 0.507912050948691 
1178	 0.508016284783218 
1179	 0.508134897630261 
1180	 0.508271438151234 
1181	 0.508395588588089 
1182	 0.508530292059915 
1183	 0.50865119686663 
1184	 0.508752607898628 
1185	 0.508830393616861 
1186	 0.508923252264656 
1187	 0.509008284763916 
1188	 0.509094056869411 
1189	 0.509195219161591 
1190	 0.509270857117482 
1191	 0.509310093064829 
1192	 0.509387170529523 
1193	 0.509457377939406 
1194	 0.509556222323698 
1195	 0.509713683432134 
1196	 0.509831472613109 
1197	 0.509951615049768 
1198	 0.510054093191537 
1199	 0.51014065417057 
1200	 0.510191736234106 
1201	 0.510278016899476 
1202	 0.510366310464697 
1203	 0.510459704137786 
1204	 0.510572347969865 
1205	 0.510666785285037 
1206	 0.51075379633813 
1207	 0.510842393089616 
1208	 0.510928835553698 
1209	 0.511011712144243 
1210	 0.511084547427709 
1211	 0.511170066879137 
1212	 0.511259763031008 
1213	 0.511348362698367 
1214	 0.511449291292309 
1215	 0.511543546137745 
1216	 0.511634325090735 
1217	 0.511728204124514 
1218	 0.511793235638365 
1219	 0.511840714360182 
1220	 0.511898382375245 
1221	 0.5119233297299 
1222	 0.511992379936645 
1223	 0.512104941810708 
1224	 0.512180531903135 
1225	 0.51224426148383 
1226	 0.512327031253379 
1227	 0.512406253318995 
1228	 0.512483089948276 
1229	 0.512584911390876 
1230	 0.512670666004673 
1231	 0.512721112247824 
1232	 0.512796162252989 
1233	 0.51288058891205 
1234	 0.512984178158145 
1235	 0.513059494384769 
1236	 0.513141764222435 
1237	 0.513204290184939 
1238	 0.513241233960665 
1239	 0.513282897931017 
1240	 0.513321965437241 
1241	 0.513358616955619 
1242	 0.513377470365505 
1243	 0.513414636142053 
1244	 0.513464612157929 
1245	 0.513504027290418 
1246	 0.513551658288622 
1247	 0.513592406549876 
1248	 0.513608523903595 
1249	 0.513643780488951 
1250	 0.513709477755923 
1251	 0.51378029044807 
1252	 0.513865092955928 
1253	 0.51399558637251 
1254	 0.514073804074635 
1255	 0.514132287773224 
1256	 0.514192787556207 
1257	 0.514230386071866 
1258	 0.514285451186806 
1259	 0.514357657024269 
1260	 0.5144114580068 
1261	 0.514459459792678 
1262	 0.514501901988662 
1263	 0.514524276993788 
1264	 0.514560423360638 
1265	 0.514590512283941 
1266	 0.514638971682133 
1267	 0.514705893921458 
1268	 0.514769939227789 
1269	 0.514841440454 
1270	 0.51493049093172 
1271	 0.515005414965091 
1272	 0.515084588547868 
1273	 0.515147007637031 
1274	 0.515189668959261 
1275	 0.515251491507652 
1276	 0.515308495474376 
1277	 0.515370849164115 
1278	 0.515461933272745 
1279	 0.51552465043556 
1280	 0.515574568425509 
1281	 0.515617720486439 
1282	 0.515637197125596 
1283	 0.515668576840527 
1284	 0.515694886630523 
1285	 0.515723886366829 
1286	 0.51576597072654 
1287	 0.515835566667445 
1288	 0.515923089545607 
1289	 0.516042239360352 
1290	 0.516141811681775 
1291	 0.516263807229115 
1292	 0.516353321125575 
1293	 0.516430661920157 
1294	 0.516487360600882 
1295	 0.516521936001393 
1296	 0.516558391113373 
1297	 0.516567319735845 
1298	 0.516599026622815 
1299	 0.516654804035214 
1300	 0.516681093867942 
1301	 0.516710328252017 
1302	 0.516718586497544 
1303	 0.516696459303494 
1304	 0.516669400993015 
1305	 0.516663865558003 
1306	 0.516623012593712 
1307	 0.51660434175604 
1308	 0.516593819421995 
1309	 0.516553595832927 
1310	 0.516506581396438 
1311	 0.516439010680416 
1312	 0.51634831010339 
1313	 0.516253255399106 
1314	 0.51612165388049 
1315	 0.516034746087215 
1316	 0.515946981782971 
1317	 0.515881506819324 
1318	 0.515865400825502 
1319	 0.515826392093607 
1320	 0.515794234772986 
1321	 0.515747208004128 
1322	 0.515687496222946 
1323	 0.515623819874654 
1324	 0.515571119632126 
1325	 0.515516110965337 
1326	 0.515466582931077 
1327	 0.515411291803525 
1328	 0.515342073418093 
1329	 0.515291734994876 
1330	 0.515258436160151 
1331	 0.515239636539733 
1332	 0.515228935382637 
1333	 0.515231374683925 
1334	 0.515243017443656 
1335	 0.515265872010652 
1336	 0.515296642878562 
1337	 0.515341381191913 
1338	 0.51538692269265 
1339	 0.515450752535354 
1340	 0.515492553648967 
1341	 0.515526022790855 
1342	 0.515561169884479 
1343	 0.515587922093623 
1344	 0.515611030214765 
1345	 0.515636468837003 
1346	 0.515660913091986 
1347	 0.51566542470239 
1348	 0.515647435945367 
1349	 0.515657713040578 
1350	 0.515659655865059 
1351	 0.515644953346793 
1352	 0.515643174477344 
1353	 0.515604373449869 
1354	 0.515531307340242 
1355	 0.515458657015674 
1356	 0.515353416020858 
1357	 0.515284554214277 
1358	 0.515203916649718 
1359	 0.515162383163858 
1360	 0.515160571472139 
1361	 0.515157523669089 
1362	 0.515175287580283 
1363	 0.515191912257942 
1364	 0.515206088785884 
1365	 0.515236955567863 
1366	 0.515282597241146 
1367	 0.515331579955541 
1368	 0.51539265753051 
1369	 0.515436794134066 
1370	 0.51542299083594 
1371	 0.515392931950376 
1372	 0.515340342259685 
1373	 0.515231131310958 
1374	 0.515080934780927 
1375	 0.514915740899702 
1376	 0.514661403627288 
1377	 0.514338850018523 
1378	 0.513974526045903 
1379	 0.513520202978536 
1380	 0.513093341349736 
1381	 0.512624897171742 
1382	 0.512163556492681 
1383	 0.511754296788049 
1384	 0.511247255716951 
1385	 0.510756157141484 
1386	 0.510121622498081 
1387	 0.509424843027322 
1388	 0.508591912169634 
1389	 0.507660098899397 
1390	 0.506595708007431 
1391	 0.505368391590939 
1392	 0.503985812172405 
1393	 0.502444512912908 
1394	 0.500823226984422 
1395	 0.499103707021693 
1396	 0.497334094379714 
1397	 0.495606746342356 
1398	 0.493825156970554 
1399	 0.492108511485095 
1400	 0.490405741848337 
1401	 0.48879131752097 
1402	 0.4871613827126 
1403	 0.485705428574543 
1404	 0.484345125439268 
1405	 0.483109740965127 
1406	 0.481991829981782 
1407	 0.48098224204098 
1408	 0.479990969096951 
1409	 0.479292361527696 
1410	 0.478655143769662 
1411	 0.478410723462554 
1412	 0.47845731383851 
1413	 0.478783450041406 
1414	 0.479431493191851 
1415	 0.480334178934206 
1416	 0.481477689701772 
1417	 0.482789725335138 
1418	 0.48420198739135 
1419	 0.485625983697566 
1420	 0.487018631605765 
1421	 0.488340708569087 
1422	 0.489505407713942 
1423	 0.490567776425985 
1424	 0.491472839629308 
1425	 0.492204718463935 
1426	 0.492868534369962 
1427	 0.493389967300213 
1428	 0.493882001532181 
1429	 0.494293845125939 
1430	 0.494639273877677 
1431	 0.494912896630182 
1432	 0.495145126399194 
1433	 0.495281951272512 
1434	 0.495423380249239 
1435	 0.495523830110018 
1436	 0.495625321986185 
1437	 0.495716952078354 
1438	 0.495788084869266 
1439	 0.495843409689858 
1440	 0.495892138258535 
1441	 0.495909150644753 
1442	 0.495912557810789 
1443	 0.495930757542817 
1444	 0.495938615371308 
1445	 0.49595814872383 
1446	 0.495974542874827 
1447	 0.495963511616689 
1448	 0.495937932035871 
1449	 0.495897136204744 
1450	 0.495856820089133 
1451	 0.495826347682744 
1452	 0.495800455533131 
1453	 0.495779242246244 
1454	 0.495779955297726 
1455	 0.495741465488742 
1456	 0.495693783920451 
1457	 0.495626048508637 
1458	 0.495505446572969 
1459	 0.495439407952109 
1460	 0.495363466314001 
1461	 0.495343011384217 
1462	 0.495392139239121 
1463	 0.495405563101343 
1464	 0.495443759920198 
1465	 0.49546539039737 
1466	 0.4954403550819 
1467	 0.495459223037688 
1468	 0.495490339021107 
1469	 0.495541908737085 
1470	 0.495619931090847 
1471	 0.495719018546221 
1472	 0.495821870224619 
1473	 0.495932413930245 
1474	 0.49602037608461 
1475	 0.496138565608181 
1476	 0.496280295075536 
1477	 0.496418049319747 
1478	 0.496605229621335 
1479	 0.496795850407336 
1480	 0.496957647953402 
1481	 0.497119993979694 
1482	 0.497265825089089 
1483	 0.497382247659769 
1484	 0.497521303462345 
1485	 0.497660420939587 
1486	 0.49780769175368 
1487	 0.497967917201198 
1488	 0.49811372104721 
1489	 0.498261403109061 
1490	 0.498403267410691 
1491	 0.498535848469274 
1492	 0.498669221424306 
1493	 0.498794444408761 
1494	 0.498931429295841 
1495	 0.499079929067477 
1496	 0.49921127940847 
1497	 0.499357962452919 
1498	 0.499472380475745 
1499	 0.499560597190523 
1500	 0.499638448883472 
1501	 0.499678827968123 
1502	 0.499744943688087 
1503	 0.499799363099342 
1504	 0.499880155270845 
1505	 0.499998116449608 
1506	 0.500099397877244 
1507	 0.500195513318113 
1508	 0.500278091384057 
1509	 0.500340633176765 
1510	 0.500410619497207 
1511	 0.500501371056797 
1512	 0.500586789333293 
1513	 0.50064472319701 
1514	 0.500712621518137 
1515	 0.500789253311224 
1516	 0.500864173524119 
1517	 0.500943797560302 
1518	 0.501052816566431 
1519	 0.501134706486034 
1520	 0.50119163331578 
1521	 0.501269108626613 
1522	 0.501359000583454 
1523	 0.501430236979459 
1524	 0.501499016293494 
1525	 0.501558371479031 
1526	 0.501601312191191 
1527	 0.501651770705356 
1528	 0.501701873502806 
1529	 0.501753618347164 
1530	 0.501816761145331 
1531	 0.501857562309108 
1532	 0.501883790625592 
1533	 0.501916056398781 
1534	 0.501925652320966 
1535	 0.501953691023676 
1536	 0.501985480425555 
1537	 0.502042264010308 
1538	 0.502126007287671 
1539	 0.502198281942529 
1540	 0.50229100637141 
1541	 0.502366931964017 
1542	 0.502431437520467 
1543	 0.502491068956874 
1544	 0.502540948424583 
1545	 0.502594745310891 
1546	 0.502643944403676 
1547	 0.502684122645951 
1548	 0.502745651568931 
1549	 0.502808269602975 
1550	 0.502873411087899 
1551	 0.502947097906251 
1552	 0.503002450842372 
1553	 0.503052165639845 
1554	 0.503079335308951 
1555	 0.503092244493385 
1556	 0.50311518047092 
1557	 0.503136712544292 
1558	 0.50317809400159 
1559	 0.503233155704795 
1560	 0.503269384823056 
1561	 0.503300424134533 
1562	 0.503339093112461 
1563	 0.503361509780969 
1564	 0.503410797603313 
1565	 0.50348596474407 
1566	 0.503547142401749 
1567	 0.50361543619299 
1568	 0.50367479749076 
1569	 0.503731171636294 
1570	 0.503775692096943 
1571	 0.503822026336798 
1572	 0.503847916165571 
1573	 0.503851850773287 
1574	 0.503854557262512 
1575	 0.503834463639721 
1576	 0.503839894278135 
1577	 0.503853995149749 
1578	 0.503868070438943 
1579	 0.503889356252883 
1580	 0.503916779558285 
1581	 0.503952698341546 
1582	 0.503974416224108 
1583	 0.504004952726492 
1584	 0.504021305680729 
1585	 0.504014113882971 
1586	 0.504016864464524 
1587	 0.504024493898014 
1588	 0.504029304860182 
1589	 0.504031328681049 
1590	 0.504030433525504 
1591	 0.504029814452314 
1592	 0.50402250570175 
1593	 0.504010559831082 
1594	 0.503996380510408 
1595	 0.503976448071833 
1596	 0.503955535089768 
1597	 0.503935010498893 
1598	 0.503906711805526 
1599	 0.503868011528457 
1600	 0.503839320474166 
1601	 0.503796363770843 
1602	 0.503778268015262 
1603	 0.50377761774239 
1604	 0.503784685996866 
1605	 0.503819796994645 
1606	 0.50384350456234 
1607	 0.503875602959494 
1608	 0.503894458601878 
1609	 0.503905648842347 
1610	 0.503883122594878 
1611	 0.50386748117311 
1612	 0.503860742943166 
1613	 0.503838826808553 
1614	 0.503826830469444 
1615	 0.5038032894565 
1616	 0.503772280990143 
1617	 0.503764312371192 
1618	 0.503768928470902 
1619	 0.503748544364952 
1620	 0.503708931998778 
1621	 0.503679049313195 
1622	 0.503629126378088 
1623	 0.503598860470926 
1624	 0.503590724675439 
1625	 0.503557284646384 
1626	 0.503513157566272 
1627	 0.503473910524217 
1628	 0.503427791318246 
1629	 0.503383409254985 
1630	 0.503336103959588 
1631	 0.503303360933377 
1632	 0.503269586535677 
1633	 0.503253614562858 
1634	 0.503260212202847 
1635	 0.503251603953777 
1636	 0.503254576420882 
1637	 0.503227679840796 
1638	 0.503179589751501 
1639	 0.503147888602991 
1640	 0.503103969899102 
1641	 0.503069272649486 
1642	 0.503059174023903 
1643	 0.503013914271415 
1644	 0.502948639445896 
1645	 0.502889791738627 
1646	 0.502808193925995 
1647	 0.502756240501535 
1648	 0.502715236120239 
1649	 0.502682932459589 
1650	 0.502675884462111 
1651	 0.502645645333343 
1652	 0.502611161935591 
1653	 0.502577987985371 
1654	 0.502531683739921 
1655	 0.502499182223899 
1656	 0.502493407659974 
1657	 0.502442537573488 
1658	 0.502369449257525 
1659	 0.502303521061148 
1660	 0.502214203086528 
1661	 0.50213323612109 
1662	 0.502056425756346 
1663	 0.501988934324202 
1664	 0.501918720053492 
1665	 0.501851148648337 
1666	 0.501812034624768 
1667	 0.501736139482633 
1668	 0.501623430666072 
1669	 0.501545592628722 
1670	 0.501461734661871 
1671	 0.50140094892836 
1672	 0.501364128476132 
1673	 0.501335629586211 
1674	 0.501321456987359 
1675	 0.501307587164703 
1676	 0.501331346674444 
1677	 0.501300747174474 
1678	 0.501259145012556 
1679	 0.50118048215167 
1680	 0.501032698564008 
1681	 0.500940048608506 
1682	 0.500843342180948 
1683	 0.500764206985458 
1684	 0.500721215558911 
1685	 0.500664501370574 
1686	 0.500609626472358 
1687	 0.500542387774765 
1688	 0.500475789139277 
1689	 0.50040416000237 
1690	 0.500314036506875 
1691	 0.500237279493911 
1692	 0.500164364597495 
1693	 0.500097459712006 
1694	 0.500038257082726 
1695	 0.499973819015791 
1696	 0.499915262487573 
1697	 0.499850022624761 
1698	 0.49976671601562 
1699	 0.499712091130535 
1700	 0.499672314828655 
1701	 0.499630172113476 
1702	 0.49961269076514 
1703	 0.499569348020141 
1704	 0.499522652351458 
1705	 0.49944874241425 
1706	 0.499343104065715 
1707	 0.499255743990163 
1708	 0.499149155438629 
1709	 0.499066046768487 
1710	 0.499003981803226 
1711	 0.498940234554164 
1712	 0.498879224626513 
1713	 0.498822614763203 
1714	 0.498787548072329 
1715	 0.498728124312658 
1716	 0.498654292059404 
1717	 0.498586808728837 
1718	 0.498528669802136 
1719	 0.498417342541247 
1720	 0.498280103564115 
1721	 0.498159393491297 
1722	 0.497997548683048 
1723	 0.497865192498272 
1724	 0.497770894123428 
1725	 0.497647651214166 
1726	 0.49750056434897 
1727	 0.4973810246622 
1728	 0.497279277223454 
1729	 0.497149787034043 
1730	 0.497014966299547 
1731	 0.49689157022702 
1732	 0.496745244408165 
1733	 0.496630107608356 
1734	 0.496562874280158 
1735	 0.496435718184891 
1736	 0.49628537447786 
1737	 0.496145848123049 
1738	 0.495985100974368 
1739	 0.495826521258839 
1740	 0.495669674204656 
1741	 0.49552898886691 
1742	 0.495374815925683 
1743	 0.495256494854455 
1744	 0.495185470648858 
1745	 0.495075353527008 
1746	 0.494958880391356 
1747	 0.494829166981529 
1748	 0.494690502266536 
1749	 0.494494691046481 
1750	 0.494326309452132 
1751	 0.494159327981348 
1752	 0.493949222429308 
1753	 0.493779615078851 
1754	 0.493654316646684 
1755	 0.493511362236224 
1756	 0.493383185688614 
1757	 0.493304175536714 
1758	 0.493198755493017 
1759	 0.49307800891141 
1760	 0.492976637399313 
1761	 0.492815224386959 
1762	 0.492644501937303 
1763	 0.492522911977464 
1764	 0.492395579094305 
1765	 0.492278398290566 
1766	 0.492167231653314 
1767	 0.492028673729144 
1768	 0.491884153584091 
1769	 0.491761061311956 
1770	 0.491641355654653 
1771	 0.49150914524286 
1772	 0.491398573737644 
1773	 0.491331987122805 
1774	 0.491268711253344 
1775	 0.491187813319038 
1776	 0.491096493926537 
1777	 0.49095407080277 
1778	 0.490797592238279 
1779	 0.490679800119902 
1780	 0.490558236138901 
1781	 0.490449212456356 
1782	 0.490384836770706 
1783	 0.490349196332651 
1784	 0.49030397976971 
1785	 0.4902904003243 
1786	 0.490239285976261 
1787	 0.490150533009319 
1788	 0.490077321011866 
1789	 0.489996476365874 
1790	 0.489918107391098 
1791	 0.489855900125219 
1792	 0.489797697601786 
1793	 0.489735855351587 
1794	 0.489653065343486 
1795	 0.489565133678069 
1796	 0.489478340796371 
1797	 0.489363451670741 
1798	 0.489301266940723 
1799	 0.489273871921152 
1800	 0.48922369472465 
1801	 0.488888835457063 
1802	 0.489097030267157 
1803	 0.489325042559577 
1804	 0.489579232012805 
1805	 0.489793113650401 
1806	 0.489982277714719 
1807	 0.490190836513962 
1808	 0.490328281974743 
1809	 0.490389869122354 
1810	 0.490452539426304 
1811	 0.490506979295564 
1812	 0.490507158821573 
1813	 0.490477479146737 
1814	 0.490498223672941 
1815	 0.490465941528494 
1816	 0.490394743027892 
1817	 0.49034339713326 
1818	 0.490263247710028 
1819	 0.490206761390988 
1820	 0.490172414132837 
1821	 0.490133758080006 
1822	 0.490044201813123 
1823	 0.48998075667665 
1824	 0.489926228742744 
1825	 0.489829376459493 
1826	 0.489763535609609 
1827	 0.4896649106611 
1828	 0.489526711362927 
1829	 0.489325500394702 
1830	 0.489165277483414 
1831	 0.488998135508325 
1832	 0.488821379500464 
1833	 0.488653423036782 
1834	 0.488473894642858 
1835	 0.488321161556554 
1836	 0.488202004335948 
1837	 0.488091440152438 
1838	 0.487995721557328 
1839	 0.487899191809382 
1840	 0.487804997335238 
1841	 0.487691604614922 
1842	 0.487606820860719 
1843	 0.487568429654586 
1844	 0.487566137694596 
1845	 0.487561078692129 
1846	 0.487591365285627 
1847	 0.487625021939969 
1848	 0.487589390152082 
1849	 0.48756409464724 
1850	 0.487521966506943 
1851	 0.487453012281927 
1852	 0.487356141760714 
1853	 0.487279165319351 
1854	 0.487202889553594 
1855	 0.487167347439691 
1856	 0.48711860993274 
1857	 0.487051050124895 
1858	 0.486956880091647 
1859	 0.486800310312633 
1860	 0.486613312352003 
1861	 0.486383597839049 
1862	 0.486143021328134 
1863	 0.485845743075065 
1864	 0.485470666296361 
1865	 0.485074542650096 
1866	 0.484608685544004 
1867	 0.484144920364756 
1868	 0.483697393497528 
1869	 0.483218951362223 
1870	 0.482743039868232 
1871	 0.48226034085776 
1872	 0.481760379049408 
1873	 0.481286150499196 
1874	 0.480806921574289 
1875	 0.480339938838287 
1876	 0.479852684996606 
1877	 0.479282920356513 
1878	 0.478628657843936 
1879	 0.477854717900901 
1880	 0.476954316725012 
1881	 0.475931613741312 
1882	 0.47480076895018 
1883	 0.473555432362848 
1884	 0.472179214068591 
1885	 0.470719219473193 
1886	 0.469148813213379 
1887	 0.467441140693994 
1888	 0.465638706991085 
1889	 0.463729898507131 
1890	 0.461726408599138 
1891	 0.459684298286128 
1892	 0.457546863461324 
1893	 0.455401029402498 
1894	 0.453200762604586 
1895	 0.450975421347921 
1896	 0.448734290980077 
1897	 0.446510600245139 
1898	 0.444278393661971 
1899	 0.442118359196405 
1900	 0.440096094186761 
1901	 0.43817484013127 
1902	 0.436394713167416 
1903	 0.434804714228661 
1904	 0.433274842978452 
1905	 0.431826471953076 
1906	 0.430526906770767 
1907	 0.429345889030611 
1908	 0.428210522837359 
1909	 0.427153588297544 
1910	 0.426142323525544 
1911	 0.425168943131965 
1912	 0.42424278417339 
1913	 0.423389042013305 
1914	 0.422602968823242 
1915	 0.42187129079676 
1916	 0.42119035942105 
1917	 0.420593460359111 
1918	 0.420049087577674 
1919	 0.419546947634692 
1920	 0.419110441924878 
1921	 0.418702732565003 
1922	 0.418350176302315 
1923	 0.418075376746472 
1924	 0.417827934896898 
1925	 0.417631695703152 
1926	 0.417471588114675 
1927	 0.417356730922341 
1928	 0.417272761080163 
1929	 0.417196842297049 
1930	 0.417157472075534 
1931	 0.417132857089173 
1932	 0.417105470312762 
1933	 0.417134485986985 
1934	 0.417189374166105 
1935	 0.417260100113468 
1936	 0.417356646119275 
1937	 0.417473649666828 
1938	 0.417594003428782 
1939	 0.417756156878642 
1940	 0.417952952404683 
1941	 0.418173667205994 
1942	 0.418412426026986 
1943	 0.418682879866152 
1944	 0.418961718634133 
1945	 0.419247936681622 
1946	 0.419529551427071 
1947	 0.419814360506592 
1948	 0.420107539445523 
1949	 0.420395045544758 
1950	 0.420693089659729 
1951	 0.420997824789199 
1952	 0.421324419184406 
1953	 0.421645061785958 
1954	 0.421974466683783 
1955	 0.422283542547585 
1956	 0.422598836505713 
1957	 0.422956196716255 
1958	 0.423332357482454 
1959	 0.42372077326948 
1960	 0.424167142809651 
1961	 0.424573606907043 
1962	 0.424957818724911 
1963	 0.425361282126129 
1964	 0.425749905700949 
1965	 0.426175257131306 
1966	 0.426628132568826 
1967	 0.427064556421501 
1968	 0.427499432493843 
1969	 0.427942648546106 
1970	 0.428374900474998 
1971	 0.428800636623585 
1972	 0.429219127303666 
1973	 0.429615154396005 
1974	 0.430041243458319 
1975	 0.430479520497462 
1976	 0.430899997077749 
1977	 0.43135258665477 
1978	 0.431843290056388 
1979	 0.432305854564869 
1980	 0.432788797307186 
1981	 0.433263802699364 
1982	 0.433741703404797 
1983	 0.434212452951547 
1984	 0.434687992765481 
1985	 0.435147958452307 
1986	 0.435610545691108 
1987	 0.436054088949086 
1988	 0.43646614996458 
1989	 0.436894770635131 
1990	 0.437324380155301 
1991	 0.43772392994194 
1992	 0.438148945181548 
1993	 0.43858541508323 
1994	 0.439011611026464 
1995	 0.439440186902963 
1996	 0.439870994057347 
1997	 0.440280536816661 
1998	 0.44073150196913 
1999	 0.441214825905823 
2000	 0.441683414388726 
2001	 0.442180473701573 
2002	 0.442654958979614 
2003	 0.443094645756323 
2004	 0.44357340757159 
2005	 0.444038164696386 
2006	 0.444504486770482 
2007	 0.44496675693787 
2008	 0.445422906706886 
2009	 0.445883280311367 
2010	 0.446362281854256 
2011	 0.446810023289995 
2012	 0.447235991873362 
2013	 0.447674693167633 
2014	 0.448089462704059 
2015	 0.448516942001246 
2016	 0.448990698230035 
2017	 0.449456737112054 
2018	 0.449882746544327 
2019	 0.450299724247401 
2020	 0.450690599567474 
2021	 0.451025866498326 
2022	 0.451392129334236 
2023	 0.451754340469519 
2024	 0.452125291949529 
2025	 0.45250803250311 
2026	 0.452882755965562 
2027	 0.453257694993658 
2028	 0.453637403659343 
2029	 0.454001772368613 
2030	 0.454365204624849 
2031	 0.454700830442259 
2032	 0.455020578851688 
2033	 0.455330019368447 
2034	 0.45560797383237 
2035	 0.455905123336647 
2036	 0.456197217558819 
2037	 0.456494764084699 
2038	 0.456801491065586 
2039	 0.457101876457629 
2040	 0.457383031052798 
2041	 0.45771199188766 
2042	 0.458005738998662 
2043	 0.458270076412654 
2044	 0.45853710328091 
2045	 0.45878789735569 
2046	 0.45903190528455 
2047	 0.459279077588849 
2048	 0.459505340902298 
2049	 0.459710434632931 
2050	 0.459913549582405 
2051	 0.460097344666845 
2052	 0.460285843319416 
2053	 0.460443760849608 
2054	 0.460646435695301 
2055	 0.460868401605616 
2056	 0.461113895280422 
2057	 0.46134754459162 
2058	 0.461629973300323 
2059	 0.461835354202023 
2060	 0.462010278436002 
2061	 0.46216142508811 
2062	 0.462256623791403 
2063	 0.462378191103841 
2064	 0.462477844653395 
2065	 0.462596740414569 
2066	 0.462735677172376 
2067	 0.462865239014444 
2068	 0.462978135826342 
2069	 0.463130475700919 
2070	 0.463254896573131 
2071	 0.46336387675767 
2072	 0.463497014965009 
2073	 0.463638697241434 
2074	 0.463769146917271 
2075	 0.46390930067103 
2076	 0.464043800403374 
2077	 0.464169178479319 
2078	 0.464293928461214 
2079	 0.464417939567558 
2080	 0.464546406233272 
2081	 0.464664904367201 
2082	 0.464791921335652 
2083	 0.464922800717016 
2084	 0.465084001059007 
2085	 0.465197344888682 
2086	 0.465308548956411 
2087	 0.465381471100712 
2088	 0.465396603431795 
2089	 0.465458293001046 
2090	 0.465515526757996 
2091	 0.465580778855403 
2092	 0.465669913451344 
2093	 0.465751206383773 
2094	 0.465822569259366 
2095	 0.465900566807362 
2096	 0.465998819338308 
2097	 0.46607898532784 
2098	 0.466138498004045 
2099	 0.466217341812523 
2100	 0.466284551193983 
2101	 0.4663386669724 
2102	 0.466407709631385 
2103	 0.466461142910041 
2104	 0.466566518848615 
2105	 0.466703074320066 
2106	 0.466836749600876 
2107	 0.467011162524315 
2108	 0.467166891752769 
2109	 0.467302644679783 
2110	 0.467459505841377 
2111	 0.467628508546593 
2112	 0.467804725285318 
2113	 0.468000117678434 
2114	 0.468193289154811 
2115	 0.46836340940594 
2116	 0.468529284470305 
2117	 0.468684448165241 
2118	 0.468806784030358 
2119	 0.468963280868538 
2120	 0.469143659111534 
2121	 0.469296676338277 
2122	 0.469442892561746 
2123	 0.46959712609821 
2124	 0.469735722041852 
2125	 0.469883402478804 
2126	 0.470059571718923 
2127	 0.47020879863271 
2128	 0.470356343892653 
2129	 0.470479501405249 
2130	 0.47058337197759 
2131	 0.470684343914564 
2132	 0.470735186075745 
2133	 0.470748899343034 
2134	 0.4707521837562 
2135	 0.470713735835008 
2136	 0.47068335401768 
2137	 0.470665482325201 
2138	 0.470593561088658 
2139	 0.470506716006454 
2140	 0.470375964140049 
2141	 0.470202376360003 
2142	 0.469994223184832 
2143	 0.469736576840504 
2144	 0.469471256646878 
2145	 0.469177399234873 
2146	 0.468859342078481 
2147	 0.468512537657505 
2148	 0.468171872842184 
2149	 0.467790010336915 
2150	 0.467384750454635 
2151	 0.466933423201796 
2152	 0.466467230399242 
2153	 0.465930477937946 
2154	 0.465327779310898 
2155	 0.464704872666812 
2156	 0.464010873681714 
2157	 0.463337640695335 
2158	 0.462652560856071 
2159	 0.46194915358376 
2160	 0.461271640962915 
2161	 0.460523908337764 
2162	 0.459746064133803 
2163	 0.458911876383118 
2164	 0.458016577383505 
2165	 0.457078128670673 
2166	 0.456116234406489 
2167	 0.455111054657247 
2168	 0.45407922860906 
2169	 0.45302355207953 
2170	 0.451922849715574 
2171	 0.45078270492401 
2172	 0.449605693864527 
2173	 0.448380139668427 
2174	 0.447137543800263 
2175	 0.44587652096126 
2176	 0.444557262940415 
2177	 0.443215689330834 
2178	 0.4418062648099 
2179	 0.440302963182258 
2180	 0.438801679550444 
2181	 0.437251766714627 
2182	 0.43569357520281 
2183	 0.43412307657634 
2184	 0.432534041395619 
2185	 0.430922373907216 
2186	 0.429248938663643 
2187	 0.427666078254935 
2188	 0.42606725351644 
2189	 0.424560552289078 
2190	 0.42308766324629 
2191	 0.421735203974478 
2192	 0.420431636459656 
2193	 0.419259608197144 
2194	 0.418183427904319 
2195	 0.417254507873422 
2196	 0.416405190959746 
2197	 0.415754154594135 
2198	 0.415320078865249 
2199	 0.414958318269975 
2200	 0.414731934682472 
2201	 0.414635483008535 
2202	 0.414657174428989 
2203	 0.414785225781665 
2204	 0.415049784244457 
2205	 0.415468922953756 
2206	 0.415996005530322 
2207	 0.416639319656116 
2208	 0.417398809994201 
2209	 0.418309347091923 
2210	 0.419291489011694 
2211	 0.420410345693135 
2212	 0.421549678188201 
2213	 0.4228278928247 
2214	 0.424048199323806 
2215	 0.425338863997447 
2216	 0.426528010069503 
2217	 0.427692720150771 
2218	 0.428792179576396 
2219	 0.429832311179648 
2220	 0.430814350230747 
2221	 0.431748213945091 
2222	 0.43261886705872 
2223	 0.433445157311841 
2224	 0.434150161954808 
2225	 0.43482263340908 
2226	 0.435441077462969 
2227	 0.435980835000353 
2228	 0.43643709221796 
2229	 0.43686607175785 
2230	 0.437208983314334 
2231	 0.437558121220195 
2232	 0.437883644386195 
2233	 0.43817689620536 
2234	 0.438453253847684 
2235	 0.438678217053973 
2236	 0.438863830444308 
2237	 0.439010847102312 
2238	 0.43910745192581 
2239	 0.439178307732768 
2240	 0.439213099388026 
2241	 0.439216008475224 
2242	 0.439149420318638 
2243	 0.439111436978307 
2244	 0.439068304826251 
2245	 0.439012982746948 
2246	 0.438961118251439 
2247	 0.438882793360836 
2248	 0.438784121799972 
2249	 0.438649632050792 
2250	 0.438512815258799 
2251	 0.438359982547661 
2252	 0.4382077806025 
2253	 0.438013958276124 
2254	 0.437884444303148 
2255	 0.437791379543979 
2256	 0.437683146734255 
2257	 0.437599140186497 
2258	 0.437511686016832 
2259	 0.437384947563701 
2260	 0.437322891420659 
2261	 0.437294614065763 
2262	 0.437290820658048 
2263	 0.437314663038416 
2264	 0.43738025945326 
2265	 0.43750609562717 
2266	 0.437616955988076 
2267	 0.437767902353453 
2268	 0.437904510352601 
2269	 0.438049111865762 
2270	 0.438151285737505 
2271	 0.438264737385474 
2272	 0.438367144447382 
2273	 0.438450993269821 
2274	 0.438552170798639 
2275	 0.438643879707209 
2276	 0.438759436467501 
2277	 0.438802163882993 
2278	 0.43877580525449 
2279	 0.438837167853548 
2280	 0.438880001560496 
2281	 0.438966579571953 
2282	 0.439165820860268 
2283	 0.439269797876366 
2284	 0.439344328789826 
2285	 0.439389833747408 
2286	 0.439410233130224 
2287	 0.439398024413421 
2288	 0.439302545029451 
2289	 0.439284900928502 
2290	 0.439307754038443 
2291	 0.439275664410575 
2292	 0.439270989760796 
2293	 0.439222886860507 
2294	 0.43909901078922 
2295	 0.438986389579813 
2296	 0.438865063247297 
2297	 0.438754169555858 
2298	 0.438627124365762 
2299	 0.438495242094069 
2300	 0.438334144986887 
2301	 0.438154767212409 
2302	 0.437937572004202 
2303	 0.437671394326243 
2304	 0.437446165591272 
2305	 0.437228739361994 
2306	 0.436985159283421 
2307	 0.436746779551497 
2308	 0.436492954165303 
2309	 0.436187207220942 
2310	 0.435945961951386 
2311	 0.43576203716145 
2312	 0.435505877321446 
2313	 0.435264593797959 
2314	 0.434951286941031 
2315	 0.434550635803746 
2316	 0.434169184646297 
2317	 0.433751724394812 
2318	 0.43337547288898 
2319	 0.432987128825984 
2320	 0.432637332281417 
2321	 0.432351705523322 
2322	 0.432013263130647 
2323	 0.431661666969001 
2324	 0.431320608379093 
2325	 0.43096731980335 
2326	 0.430610211212667 
2327	 0.430252175386478 
2328	 0.429913581591858 
2329	 0.429575755871373 
2330	 0.429174034342561 
2331	 0.428842437881248 
2332	 0.428510000761238 
2333	 0.428044204045374 
2334	 0.427654329903054 
2335	 0.42721682612321 
2336	 0.426671642543161 
2337	 0.426250342463175 
2338	 0.425810284948814 
2339	 0.425350905421737 
2340	 0.425002390529784 
2341	 0.424599145345511 
2342	 0.424159328227018 
2343	 0.423852582398139 
2344	 0.423556088884572 
2345	 0.423276193479441 
2346	 0.423102052205312 
2347	 0.422885524060161 
2348	 0.422616722092202 
2349	 0.422403181207347 
2350	 0.422213888153305 
2351	 0.422059572908143 
2352	 0.421903530827127 
2353	 0.421838794215426 
2354	 0.421877852325358 
2355	 0.421886132890772 
2356	 0.421945036896565 
2357	 0.421979021080346 
2358	 0.422005252128055 
2359	 0.42203429696254 
2360	 0.422079771669307 
2361	 0.422103130051583 
2362	 0.422124050875228 
2363	 0.422112413276299 
2364	 0.422075763420515 
2365	 0.42200991846868 
2366	 0.421919015786071 
2367	 0.421799718581105 
2368	 0.421645590026493 
2369	 0.421493979758904 
2370	 0.421340105280573 
2371	 0.421120233739712 
2372	 0.420915315242111 
2373	 0.42069696499306 
2374	 0.420431624546674 
2375	 0.420143753030154 
2376	 0.419832196336428 
2377	 0.419479305592393 
2378	 0.41917095003851 
2379	 0.418976924253603 
2380	 0.41868447606146 
2381	 0.41836463850756 
2382	 0.418012573833669 
2383	 0.417559368149615 
2384	 0.417162632138224 
2385	 0.416780716682239 
2386	 0.416430852201039 
2387	 0.416019770181705 
2388	 0.415652112953581 
2389	 0.415453331411461 
2390	 0.415217383227582 
2391	 0.415015934886989 
2392	 0.414795948132242 
2393	 0.414421033199154 
2394	 0.413959090995399 
2395	 0.413542839384774 
2396	 0.413198601974186 
2397	 0.412878300287587 
2398	 0.412563770406674 
2399	 0.412132878279516 
2400	 0.411592674773751 
2401	 0.41100331211504 
2402	 0.410465106831429 
2403	 0.409917480531323 
2404	 0.40937700527078 
2405	 0.408849496040005 
2406	 0.408133470648947 
2407	 0.40750514378553 
2408	 0.406944393426591 
2409	 0.406267106924921 
2410	 0.405700900982566 
2411	 0.405109200868123 
2412	 0.404413753910614 
2413	 0.403756978022279 
2414	 0.403064910739908 
2415	 0.402316641121042 
2416	 0.401588406204117 
2417	 0.400798030129576 
2418	 0.400124152597255 
2419	 0.399541254530203 
2420	 0.398903332782248 
2421	 0.398316884591732 
2422	 0.397677856623683 
2423	 0.396958130949046 
2424	 0.396333999037387 
2425	 0.395778843023916 
2426	 0.395168463603915 
2427	 0.394598604013763 
2428	 0.393864587615043 
2429	 0.39293821175274 
2430	 0.392246989951119 
2431	 0.391587441983494 
2432	 0.390989894839593 
2433	 0.390588846585359 
2434	 0.390090059640653 
2435	 0.38953936178918 
2436	 0.388980609439665 
2437	 0.388443089928825 
2438	 0.387907164826231 
2439	 0.387282262487614 
2440	 0.386754512229051 
2441	 0.386269710729886 
2442	 0.38588497416696 
2443	 0.385644960464641 
2444	 0.385341437663883 
2445	 0.385082424466074 
2446	 0.384716099962181 
2447	 0.384301965055247 
2448	 0.383832146415101 
2449	 0.383294476103643 
2450	 0.382826001799398 
2451	 0.382267393408865 
2452	 0.381855677604024 
2453	 0.381546945723476 
2454	 0.38126214997425 
2455	 0.381095136127371 
2456	 0.380832045468499 
2457	 0.380522484872749 
2458	 0.380272730103166 
2459	 0.380008285251249 
2460	 0.379768664578695 
2461	 0.3796419252607 
2462	 0.379430993939487 
2463	 0.37921113793654 
2464	 0.378924181953367 
2465	 0.378506578054259 
2466	 0.378204278771045 
2467	 0.377844809911474 
2468	 0.377639383686177 
2469	 0.377728575973269 
2470	 0.377370521110411 
2471	 0.377107604872056 
2472	 0.376695443017331 
2473	 0.376059407391238 
2474	 0.375561231705119 
2475	 0.375052906631193 
2476	 0.374612656013397 
2477	 0.374243949545119 
2478	 0.373934474588326 
2479	 0.373584079835085 
2480	 0.373049341662524 
2481	 0.372704459616868 
2482	 0.372653677021713 
2483	 0.372555279570505 
2484	 0.37245199351473 
2485	 0.372190531081588 
2486	 0.371602452724749 
2487	 0.371217136181208 
2488	 0.370893222344822 
2489	 0.370511308462057 
2490	 0.370411448312061 
2491	 0.370322311567726 
2492	 0.370153058327508 
2493	 0.369959905586959 
2494	 0.369700565580467 
2495	 0.369496616149219 
2496	 0.369336413295715 
2497	 0.369084039798657 
2498	 0.368821018906155 
2499	 0.368502425940811 
2500	 0.368068815093069 
