Wavelength	LMW_2200002.asd
350	 6.27697061892311E-02 
351	 6.44973546062282E-02 
352	 6.27642048024468E-02 
353	 5.67821495632437E-02 
354	 0.057341271586324 
355	 6.17431931251152E-02 
356	 6.46682538113925E-02 
357	 6.32934823599454E-02 
358	 6.74430846308167E-02 
359	 6.42725905182956E-02 
360	 5.69418342579874E-02 
361	 5.76915755306567E-02 
362	 5.34937349781812E-02 
363	 0.054495260982062 
364	 6.21277218913884E-02 
365	 6.02684678936658E-02 
366	 5.94287973876641E-02 
367	 5.81587400820939E-02 
368	 0.05527962386179 
369	 6.43700369684221E-02 
370	 6.50872564948754E-02 
371	 5.95245102017371E-02 
372	 6.38908396256617E-02 
373	 6.33855395608627E-02 
374	 6.02954110723608E-02 
375	 5.93114275980118E-02 
376	 6.60126567585403E-02 
377	 0.066033248341688 
378	 0.063620982340712 
379	 6.56712548999982E-02 
380	 6.42148654679429E-02 
381	 6.32710991519534E-02 
382	 6.44661648261936E-02 
383	 6.70159475733562E-02 
384	 6.80296313840947E-02 
385	 6.84145067822551E-02 
386	 6.90111929612585E-02 
387	 6.92632325770417E-02 
388	 7.11062395994303E-02 
389	 7.28874014281959E-02 
390	 7.27072099233775E-02 
391	 0.073341186889221 
392	 7.47510612351317E-02 
393	 7.63770093398522E-02 
394	 7.74331661584859E-02 
395	 7.87057023784814E-02 
396	 7.92455498017457E-02 
397	 7.89553292900333E-02 
398	 7.99972236918848E-02 
399	 8.21399167812591E-02 
400	 0.085084145081267 
401	 8.81049885215889E-02 
402	 8.88537140733055E-02 
403	 8.93463122022195E-02 
404	 9.06099258305178E-02 
405	 9.23410485486151E-02 
406	 9.28321667415741E-02 
407	 9.34721259737804E-02 
408	 0.094935671084331 
409	 9.43413072582019E-02 
410	 0.094210359392739 
411	 9.58094031796277E-02 
412	 9.90169959556139E-02 
413	 9.88505790732175E-02 
414	 9.82712508421802E-02 
415	 9.88957982993992E-02 
416	 9.97195977523533E-02 
417	 9.98152205128893E-02 
418	 9.96338195154325E-02 
419	 9.97916996169139E-02 
420	 0.100302358703807 
421	 9.94087408142074E-02 
422	 9.83584247879309E-02 
423	 9.98116609160468E-02 
424	 9.94978414267222E-02 
425	 9.85177524866992E-02 
426	 9.78973373859333E-02 
427	 9.72191622109338E-02 
428	 0.096390864050816 
429	 9.56585955086552E-02 
430	 0.095216480656162 
431	 0.094458078225155 
432	 9.34267012959358E-02 
433	 9.24381326440765E-02 
434	 9.19964889597336E-02 
435	 9.18409518423151E-02 
436	 9.19312266893507E-02 
437	 9.22326953938128E-02 
438	 9.26444737917677E-02 
439	 9.30651647899403E-02 
440	 9.35983736705994E-02 
441	 9.44197696858791E-02 
442	 9.54186253033823E-02 
443	 9.61496403897802E-02 
444	 9.66085383544242E-02 
445	 9.74718977027725E-02 
446	 9.83820056960687E-02 
447	 9.92804684698313E-02 
448	 0.100195468121907 
449	 0.101178111058654 
450	 0.102319839755179 
451	 0.103338089504161 
452	 0.103709572047734 
453	 0.104344707427729 
454	 0.105047623487324 
455	 0.105590854357605 
456	 0.106141031191735 
457	 0.106943674222302 
458	 0.107778057760788 
459	 0.108282692538207 
460	 0.108883830298079 
461	 0.109396259578399 
462	 0.10970022069696 
463	 0.109823286908399 
464	 0.110446462917368 
465	 0.110981521250712 
466	 0.110880499308829 
467	 0.111286072548 
468	 0.111618853571739 
469	 0.111750800884252 
470	 0.111950849234648 
471	 0.112268231152698 
472	 0.112580338466892 
473	 0.112788967804998 
474	 0.112916074042328 
475	 0.113080422760675 
476	 0.113204879881842 
477	 0.113169105892058 
478	 0.113192378044289 
479	 0.113463253594614 
480	 0.113889897576365 
481	 0.114007830759848 
482	 0.114320754340225 
483	 0.114613608793929 
484	 0.114613507205641 
485	 0.114631696469713 
486	 0.114638894204271 
487	 0.114675875721334 
488	 0.114828107457141 
489	 0.114803013139349 
490	 0.1149332896309 
491	 0.115340239401462 
492	 0.115342933574925 
493	 0.115522878475313 
494	 0.115754493577341 
495	 0.115665516166244 
496	 0.115672435713808 
497	 0.115833128181698 
498	 0.116108319774287 
499	 0.116378750957654 
500	 0.116632388350785 
501	 0.116768996185187 
502	 0.116731070642934 
503	 0.116709657847988 
504	 0.116714505725879 
505	 0.116814790174095 
506	 0.117116442644118 
507	 0.11715554199475 
508	 0.117190599391093 
509	 0.117415355615798 
510	 0.117455454064502 
511	 0.117493965207046 
512	 0.11759218952532 
513	 0.11773904610685 
514	 0.117884744176104 
515	 0.117961547767489 
516	 0.117979513238003 
517	 0.118085171407845 
518	 0.118088643839459 
519	 0.118140941907135 
520	 0.118397857737937 
521	 0.118432723132151 
522	 0.118536211263496 
523	 0.118743847249206 
524	 0.118789965315063 
525	 0.1188208821461 
526	 0.118842013043834 
527	 0.118862061745817 
528	 0.118997514725568 
529	 0.119144172442467 
530	 0.119259906611981 
531	 0.119348935535534 
532	 0.119429328809882 
533	 0.119512629713751 
534	 0.119620082658341 
535	 0.119817462884436 
536	 0.119878981993336 
537	 0.119929781481599 
538	 0.120165666516403 
539	 0.120222873891996 
540	 0.120289308526071 
541	 0.120452498475083 
542	 0.120611666731594 
543	 0.120719952959798 
544	 0.120854441808407 
545	 0.121083409283202 
546	 0.121306110420211 
547	 0.121395951514778 
548	 0.121473181768151 
549	 0.121838043179823 
550	 0.122094421306339 
551	 0.122253779226948 
552	 0.122426496650369 
553	 0.122782516850502 
554	 0.123100489376487 
555	 0.123360140275241 
556	 0.123652096604068 
557	 0.124026691638562 
558	 0.124426766573195 
559	 0.124822246338651 
560	 0.125255870227575 
561	 0.125668459193821 
562	 0.126122905083438 
563	 0.126680466438572 
564	 0.127156969000482 
565	 0.127640100100864 
566	 0.128136688701276 
567	 0.128549064059051 
568	 0.129184123572673 
569	 0.129970718685683 
570	 0.130758577554939 
571	 0.131475394076688 
572	 0.132215092032185 
573	 0.133006959573167 
574	 0.133833066098725 
575	 0.134698874477347 
576	 0.135701848828417 
577	 0.136801548322831 
578	 0.137623316253926 
579	 0.138397913549986 
580	 0.139114166801483 
581	 0.13971283054926 
582	 0.14047456590227 
583	 0.141322789753552 
584	 0.142224048383711 
585	 0.143258052831703 
586	 0.144392392764943 
587	 0.145579153201977 
588	 0.14677411543804 
589	 0.147997698529557 
590	 0.149190624238776 
591	 0.150402865900924 
592	 0.151774189229508 
593	 0.153034307092889 
594	 0.154284648123058 
595	 0.155578316134887 
596	 0.156641340265127 
597	 0.157589494023936 
598	 0.158472532175731 
599	 0.159317350846106 
600	 0.160187941288856 
601	 0.16109396756719 
602	 0.162011328391898 
603	 0.162875506435167 
604	 0.16374647246206 
605	 0.164623245152489 
606	 0.165487452299806 
607	 0.16634899712494 
608	 0.167195011852683 
609	 0.16803024895586 
610	 0.168878076443381 
611	 0.169598046220905 
612	 0.170225264403741 
613	 0.17081905560637 
614	 0.17136151934446 
615	 0.171859579618905 
616	 0.172352413305216 
617	 0.172887321787674 
618	 0.173371411238916 
619	 0.173755355962308 
620	 0.174072552045955 
621	 0.174519803775211 
622	 0.174949878025773 
623	 0.175299967541656 
624	 0.175567725484529 
625	 0.175920934537106 
626	 0.176264321871696 
627	 0.176561053344272 
628	 0.176879748177123 
629	 0.177199178837192 
630	 0.177494376393798 
631	 0.177752128797799 
632	 0.178004017800824 
633	 0.178277432295636 
634	 0.178557248473426 
635	 0.178800200910533 
636	 0.179100927133553 
637	 0.179358922495695 
638	 0.179529511783058 
639	 0.179788162637766 
640	 0.180032880889155 
641	 0.180270382536026 
642	 0.180545106176363 
643	 0.180802430003041 
644	 0.181066501511501 
645	 0.18133931333859 
646	 0.181579155374207 
647	 0.181857290199125 
648	 0.18214571940495 
649	 0.18239993321951 
650	 0.18263550567503 
651	 0.182881590129041 
652	 0.183162836899057 
653	 0.183493687582026 
654	 0.183796209745407 
655	 0.184110230852377 
656	 0.184452520717229 
657	 0.184716020154112 
658	 0.185026231751134 
659	 0.185369948872897 
660	 0.185680239806038 
661	 0.186033714271328 
662	 0.186399967552482 
663	 0.186768306157608 
664	 0.187172293166711 
665	 0.187544639548513 
666	 0.187883222779865 
667	 0.188215390493613 
668	 0.188588649130046 
669	 0.189019580892714 
670	 0.189468823968612 
671	 0.189856764068556 
672	 0.190230766026097 
673	 0.190661109766726 
674	 0.191163523073049 
675	 0.191626243459368 
676	 0.192045240406463 
677	 0.192452653426025 
678	 0.192900274357711 
679	 0.193416673728959 
680	 0.193910567563731 
681	 0.194352936556678 
682	 0.194807777116029 
683	 0.195370732643757 
684	 0.195901321357434 
685	 0.196298323292055 
686	 0.19683768879899 
687	 0.197402905667439 
688	 0.197942532326584 
689	 0.198454684372015 
690	 0.198917165994407 
691	 0.199387148597814 
692	 0.199918065143023 
693	 0.200546618481571 
694	 0.201124013968706 
695	 0.201623029646089 
696	 0.20209058972255 
697	 0.202682267597479 
698	 0.203278950376932 
699	 0.203814737610101 
700	 0.204301998363906 
701	 0.204832807711908 
702	 0.205388544713439 
703	 0.205930530942481 
704	 0.206438870449691 
705	 0.206963901638029 
706	 0.207481944577723 
707	 0.20794598509806 
708	 0.208471517895771 
709	 0.209016136507013 
710	 0.209525073001606 
711	 0.209949827557027 
712	 0.210467005569598 
713	 0.21098765130479 
714	 0.211413171349089 
715	 0.211916165048175 
716	 0.21239750358246 
717	 0.212821536218588 
718	 0.213206373798518 
719	 0.213571758649411 
720	 0.213954594059894 
721	 0.214349699540585 
722	 0.214666969796582 
723	 0.21500221553321 
724	 0.215327556944161 
725	 0.215592428690511 
726	 0.215846359662445 
727	 0.216153767552015 
728	 0.216480993332236 
729	 0.216711397872571 
730	 0.216964313156526 
731	 0.217193094312058 
732	 0.21735653892753 
733	 0.217494694574347 
734	 0.217629578691664 
735	 0.217714785311143 
736	 0.217712906595475 
737	 0.217827781703979 
738	 0.21794164127664 
739	 0.217977293128227 
740	 0.217933595235125 
741	 0.217937587991458 
742	 0.217938901361625 
743	 0.217880357169399 
744	 0.217799629202255 
745	 0.217682641440085 
746	 0.217560292388169 
747	 0.217465433453436 
748	 0.21728679155201 
749	 0.2171250917459 
750	 0.216976632053971 
751	 0.216694404965196 
752	 0.216463844465791 
753	 0.216251758919868 
754	 0.215993450604965 
755	 0.215684031957412 
756	 0.215393948772685 
757	 0.215116269374813 
758	 0.214808094769043 
759	 0.214503614099314 
760	 0.214141772481576 
761	 0.213733465802287 
762	 0.213386103906198 
763	 0.21300201370469 
764	 0.212604665908177 
765	 0.212225388848081 
766	 0.211836705089444 
767	 0.211403924916323 
768	 0.210947798379243 
769	 0.210505941186666 
770	 0.210005804060028 
771	 0.209539987967685 
772	 0.209120160101499 
773	 0.208648750068579 
774	 0.208215548268747 
775	 0.20775312736972 
776	 0.207216066913751 
777	 0.206707863807583 
778	 0.206216265297761 
779	 0.205741033526328 
780	 0.205280446984478 
781	 0.204811822438747 
782	 0.20435425202446 
783	 0.203863210690052 
784	 0.203240175636885 
785	 0.202747153620667 
786	 0.202288329794967 
787	 0.201772328710264 
788	 0.201296909762699 
789	 0.20080109809132 
790	 0.200291415151428 
791	 0.199796461870141 
792	 0.199322412757559 
793	 0.198834485544381 
794	 0.198320308900295 
795	 0.197793479600563 
796	 0.197298411653488 
797	 0.196832517257253 
798	 0.196386636780856 
799	 0.195959478424499 
800	 0.195469925711218 
801	 0.194972913693877 
802	 0.19453194977809 
803	 0.194072137332086 
804	 0.193576128582306 
805	 0.19308274123212 
806	 0.192654231352018 
807	 0.192225182980444 
808	 0.191796191915586 
809	 0.191367916532924 
810	 0.190931884543436 
811	 0.190508248835318 
812	 0.190080090050688 
813	 0.189647820998906 
814	 0.189288874108365 
815	 0.188886775080916 
816	 0.188453020159046 
817	 0.188051365458174 
818	 0.187699535430878 
819	 0.187367902743603 
820	 0.187028032552006 
821	 0.186659080011697 
822	 0.186264502800131 
823	 0.18589295430394 
824	 0.185559722945944 
825	 0.185215657754382 
826	 0.184925705388024 
827	 0.184615148148244 
828	 0.184226760950121 
829	 0.183871080695778 
830	 0.183574901450864 
831	 0.183318714289361 
832	 0.183052832456612 
833	 0.182720141387708 
834	 0.182427828077759 
835	 0.182189637424277 
836	 0.181923456737343 
837	 0.181653089374945 
838	 0.181375796494588 
839	 0.181082683071757 
840	 0.180754925925102 
841	 0.18057700684915 
842	 0.180429112399442 
843	 0.180178976135697 
844	 0.179933130219818 
845	 0.179791406913076 
846	 0.179661497666354 
847	 0.179405724198656 
848	 0.179201309619015 
849	 0.178992297033243 
850	 0.178775475944834 
851	 0.178601157240623 
852	 0.178478658874287 
853	 0.17834193856609 
854	 0.178164070666048 
855	 0.177990837822001 
856	 0.177830963003346 
857	 0.177732752130701 
858	 0.177689994777289 
859	 0.177536242226023 
860	 0.177448820570676 
861	 0.177352024328012 
862	 0.177149725012435 
863	 0.177063485629353 
864	 0.176986190177272 
865	 0.176908743196322 
866	 0.176873115327682 
867	 0.17679039357973 
868	 0.176712466773363 
869	 0.176662434802191 
870	 0.176620637241945 
871	 0.176590716660829 
872	 0.176558531531401 
873	 0.17652954914677 
874	 0.176542926322941 
875	 0.176560865941719 
876	 0.176576113252477 
877	 0.176567790962508 
878	 0.176443685445204 
879	 0.176426450504592 
880	 0.176512167234943 
881	 0.176597226639279 
882	 0.176555813134665 
883	 0.176583970640706 
884	 0.176655203607094 
885	 0.176648042971141 
886	 0.176721210101478 
887	 0.176794742772986 
888	 0.176855998739366 
889	 0.176956571244867 
890	 0.177056347405501 
891	 0.177077808309362 
892	 0.177050248477194 
893	 0.177129690972185 
894	 0.177248718413388 
895	 0.17743734614204 
896	 0.177670769638169 
897	 0.17780487918421 
898	 0.177911562439882 
899	 0.178028651046027 
900	 0.178173512855815 
901	 0.178333130138889 
902	 0.178469721300693 
903	 0.178593539484604 
904	 0.178737943369662 
905	 0.178948646382232 
906	 0.179148198635847 
907	 0.17931804335271 
908	 0.17947882792948 
909	 0.17966827157066 
910	 0.179882567254272 
911	 0.180097987033133 
912	 0.180280552564386 
913	 0.180394791712097 
914	 0.180625566208723 
915	 0.180957907361776 
916	 0.18120285630382 
917	 0.181452226291952 
918	 0.181715635350504 
919	 0.181988146755947 
920	 0.182260774549882 
921	 0.182599470091236 
922	 0.182882442464269 
923	 0.183082804052421 
924	 0.183353178681862 
925	 0.183695699977252 
926	 0.184073185674758 
927	 0.184411423923522 
928	 0.184598410103619 
929	 0.184831066639062 
930	 0.185176230965459 
931	 0.185580045131884 
932	 0.185805191058101 
933	 0.186209011102474 
934	 0.186662372959592 
935	 0.186983447060661 
936	 0.187281461896219 
937	 0.187551383263746 
938	 0.187896263109478 
939	 0.188368431325963 
940	 0.188746612924744 
941	 0.189174654429105 
942	 0.18962635121135 
943	 0.190018738731552 
944	 0.190325654335223 
945	 0.190677836529347 
946	 0.191098263154061 
947	 0.191542560800507 
948	 0.191952379986014 
949	 0.192351859150323 
950	 0.192742636127021 
951	 0.193137220193378 
952	 0.193663695552521 
953	 0.19413104315543 
954	 0.194514293316927 
955	 0.194907888971627 
956	 0.19541464220205 
957	 0.195915240426826 
958	 0.196355965093162 
959	 0.196760949607446 
960	 0.197278507174791 
961	 0.197695781335294 
962	 0.198078941424695 
963	 0.198624413674601 
964	 0.199069007117584 
965	 0.199565395418009 
966	 0.200104670839433 
967	 0.200583783825307 
968	 0.20115626962158 
969	 0.201561443088814 
970	 0.201842821137762 
971	 0.202251998402902 
972	 0.202823950523497 
973	 0.203397140840241 
974	 0.203879043241366 
975	 0.204281441795876 
976	 0.20480503552799 
977	 0.205300943638098 
978	 0.205750538489607 
979	 0.20623087226568 
980	 0.206732226504371 
981	 0.207266087836221 
982	 0.207806527865746 
983	 0.208294770499483 
984	 0.208618888221313 
985	 0.208972614066561 
986	 0.209475842518058 
987	 0.210107888040729 
988	 0.210517736344473 
989	 0.210960430734715 
990	 0.211455443471893 
991	 0.21190069960838 
992	 0.212333549073913 
993	 0.21268900489421 
994	 0.213166770566446 
995	 0.213888120396934 
996	 0.21421757982656 
997	 0.214517853568865 
998	 0.214925839059297 
999	 0.215424583153284 
1000	 0.215861309049635 
1001	 0.214718210169574 
1002	 0.215150937531777 
1003	 0.215543896992601 
1004	 0.215943498357637 
1005	 0.216377475124482 
1006	 0.216746662886218 
1007	 0.217072444173712 
1008	 0.217407621547929 
1009	 0.217704190814318 
1010	 0.218063046765697 
1011	 0.21849908851171 
1012	 0.218893248201706 
1013	 0.219316034219987 
1014	 0.21972037087293 
1015	 0.220042532241287 
1016	 0.220379647662998 
1017	 0.220710571627083 
1018	 0.221028804717286 
1019	 0.221338804866698 
1020	 0.221673991757596 
1021	 0.221984248349065 
1022	 0.222282868235233 
1023	 0.222542238149654 
1024	 0.222808572558649 
1025	 0.223131786364299 
1026	 0.223471893321093 
1027	 0.22379853259238 
1028	 0.22412213957146 
1029	 0.224428036688474 
1030	 0.224691526591446 
1031	 0.224962645387885 
1032	 0.225255159873317 
1033	 0.22550214507407 
1034	 0.225705886938594 
1035	 0.225937159272194 
1036	 0.226145654491552 
1037	 0.226393545016512 
1038	 0.226672245548539 
1039	 0.226922155256213 
1040	 0.227134220776032 
1041	 0.227334396074577 
1042	 0.227542867810496 
1043	 0.227713422173178 
1044	 0.227910595996424 
1045	 0.228138083726528 
1046	 0.228360157827907 
1047	 0.228546473984163 
1048	 0.228758251555663 
1049	 0.228921979106628 
1050	 0.229097441219598 
1051	 0.229345992057955 
1052	 0.229573650732236 
1053	 0.22981208811808 
1054	 0.230035376113996 
1055	 0.230165414146561 
1056	 0.230365679132294 
1057	 0.230581874656839 
1058	 0.230819787129849 
1059	 0.231053264500179 
1060	 0.231342194946674 
1061	 0.231549165650959 
1062	 0.231706176348792 
1063	 0.231939463728503 
1064	 0.232107410522827 
1065	 0.232306149425401 
1066	 0.232568280715295 
1067	 0.232802267819838 
1068	 0.233072140783397 
1069	 0.233332383037081 
1070	 0.233549822675269 
1071	 0.233729902861425 
1072	 0.233908021799273 
1073	 0.234042300627997 
1074	 0.234199965667332 
1075	 0.234337351568604 
1076	 0.234537439460019 
1077	 0.23474334482611 
1078	 0.234918568136416 
1079	 0.23513919139611 
1080	 0.235344307484852 
1081	 0.235513017314873 
1082	 0.235719700083132 
1083	 0.235883829407263 
1084	 0.235992180626667 
1085	 0.236142142026644 
1086	 0.236295319073217 
1087	 0.236458046025913 
1088	 0.236633294161844 
1089	 0.23683140377352 
1090	 0.237001011378119 
1091	 0.237120070551786 
1092	 0.237241125745409 
1093	 0.237359929974659 
1094	 0.237535128569578 
1095	 0.237711256496295 
1096	 0.237858600161181 
1097	 0.238048483269023 
1098	 0.238209411929733 
1099	 0.238346080135425 
1100	 0.238483799635919 
1101	 0.238603740681894 
1102	 0.238742977288579 
1103	 0.238892320980734 
1104	 0.239024009517364 
1105	 0.239156682367456 
1106	 0.239301572361682 
1107	 0.239382280963204 
1108	 0.239476685953827 
1109	 0.23961754260145 
1110	 0.239748082407932 
1111	 0.239882672457216 
1112	 0.240049207840091 
1113	 0.240183752442152 
1114	 0.240296158341219 
1115	 0.240410706939669 
1116	 0.240521749084183 
1117	 0.240627591542224 
1118	 0.240705575933369 
1119	 0.240828159399612 
1120	 0.24098021276884 
1121	 0.241056243900109 
1122	 0.241130199080118 
1123	 0.241241788487228 
1124	 0.241332270801181 
1125	 0.241389074895919 
1126	 0.241492126801178 
1127	 0.24164014044665 
1128	 0.241725509028354 
1129	 0.241787475052525 
1130	 0.241874205310438 
1131	 0.241944103919432 
1132	 0.242019707260855 
1133	 0.242123276110646 
1134	 0.242205893007588 
1135	 0.242274665843545 
1136	 0.242332728156777 
1137	 0.242369476339755 
1138	 0.24242793169972 
1139	 0.242481722815132 
1140	 0.242517443628205 
1141	 0.242573674299363 
1142	 0.242659457463902 
1143	 0.242712361745754 
1144	 0.242753342950018 
1145	 0.242802435985918 
1146	 0.242837573053371 
1147	 0.242880682664953 
1148	 0.242925047021021 
1149	 0.242981178858747 
1150	 0.243046348360084 
1151	 0.243109713349823 
1152	 0.243175102033823 
1153	 0.24323340755925 
1154	 0.243276240827962 
1155	 0.243295318644121 
1156	 0.243326346927673 
1157	 0.243352215074216 
1158	 0.243385384312521 
1159	 0.243411871531958 
1160	 0.243457396052095 
1161	 0.243527842791691 
1162	 0.243575624586151 
1163	 0.243615998184546 
1164	 0.243666500037198 
1165	 0.243703575620993 
1166	 0.243753630635383 
1167	 0.243822225862366 
1168	 0.243894315928142 
1169	 0.243959252298303 
1170	 0.244025951950496 
1171	 0.244080667795041 
1172	 0.244126679601383 
1173	 0.244179123562959 
1174	 0.244218737479896 
1175	 0.244275099305907 
1176	 0.244350910694524 
1177	 0.244412959930056 
1178	 0.244471722315756 
1179	 0.244535401579311 
1180	 0.24458488731273 
1181	 0.244651690007268 
1182	 0.24472831289661 
1183	 0.244820387508604 
1184	 0.244902355771794 
1185	 0.24499835720707 
1186	 0.245067706623277 
1187	 0.245119377920694 
1188	 0.245181116424212 
1189	 0.245236145595522 
1190	 0.245292582731928 
1191	 0.24535072144867 
1192	 0.245411733661129 
1193	 0.245474925061657 
1194	 0.245529690539748 
1195	 0.245584519512165 
1196	 0.245640025022516 
1197	 0.245675960168709 
1198	 0.245730686156159 
1199	 0.245794761108451 
1200	 0.245876807697074 
1201	 0.245937513562015 
1202	 0.246002448940289 
1203	 0.246057587786319 
1204	 0.246099960513073 
1205	 0.246141787704162 
1206	 0.246180549349104 
1207	 0.246220664143022 
1208	 0.246255433289432 
1209	 0.246289607324904 
1210	 0.246325307853374 
1211	 0.246360914084677 
1212	 0.246379624216645 
1213	 0.24642025187089 
1214	 0.246493236286549 
1215	 0.246540152472191 
1216	 0.246581108875849 
1217	 0.246626265745338 
1218	 0.246660251147201 
1219	 0.246668547986605 
1220	 0.246696518593834 
1221	 0.246736638897134 
1222	 0.246766798964191 
1223	 0.246793241754275 
1224	 0.246821028155954 
1225	 0.246855719713183 
1226	 0.246873834974884 
1227	 0.24687148651849 
1228	 0.246889737963733 
1229	 0.246911289514712 
1230	 0.246928824574392 
1231	 0.24695582003853 
1232	 0.246985678389895 
1233	 0.247014771295685 
1234	 0.247034039004155 
1235	 0.247060293645759 
1236	 0.247100602142389 
1237	 0.247126345525979 
1238	 0.247137686522678 
1239	 0.247162494708113 
1240	 0.24719360398452 
1241	 0.247218614502602 
1242	 0.247250612507059 
1243	 0.247271357425106 
1244	 0.247278788838373 
1245	 0.24729298714895 
1246	 0.247304430335667 
1247	 0.247318253784396 
1248	 0.247339529550257 
1249	 0.247354846677124 
1250	 0.24736248935046 
1251	 0.247375760641498 
1252	 0.247384175656699 
1253	 0.247389735611263 
1254	 0.247391951734717 
1255	 0.247390846071572 
1256	 0.247393862658126 
1257	 0.247388698748137 
1258	 0.24739577870761 
1259	 0.24742420231655 
1260	 0.247426654301527 
1261	 0.247420203760824 
1262	 0.247417098245222 
1263	 0.247394026162892 
1264	 0.247383036242159 
1265	 0.247383060497135 
1266	 0.247382487431052 
1267	 0.247388001558683 
1268	 0.247388143757856 
1269	 0.247382581882375 
1270	 0.247375603940191 
1271	 0.247365623948704 
1272	 0.247340215583782 
1273	 0.24733551510097 
1274	 0.247340168856207 
1275	 0.24734372637526 
1276	 0.247358615763594 
1277	 0.247369251133364 
1278	 0.247384167309177 
1279	 0.247389148874983 
1280	 0.247376744864991 
1281	 0.247381857945959 
1282	 0.247389969878632 
1283	 0.247401046411065 
1284	 0.24741766840278 
1285	 0.247456309081639 
1286	 0.247483378820277 
1287	 0.247487459473306 
1288	 0.247508587293721 
1289	 0.247526191891797 
1290	 0.247569934900809 
1291	 0.247636802534096 
1292	 0.247679659356023 
1293	 0.247730326041407 
1294	 0.247769479619012 
1295	 0.24777963512155 
1296	 0.247818589224358 
1297	 0.247877798860549 
1298	 0.247926070709363 
1299	 0.247983186686622 
1300	 0.248027991769191 
1301	 0.248073051602623 
1302	 0.248098531749749 
1303	 0.248106122240763 
1304	 0.248113915710177 
1305	 0.248114456585304 
1306	 0.248111922384468 
1307	 0.248124985939081 
1308	 0.248141419763607 
1309	 0.24814059739865 
1310	 0.248123050977533 
1311	 0.248126493324964 
1312	 0.248140893280646 
1313	 0.248124340329852 
1314	 0.248117604791001 
1315	 0.248085257608604 
1316	 0.247997046772332 
1317	 0.247955924933613 
1318	 0.247936103578386 
1319	 0.247899520707582 
1320	 0.247884073854933 
1321	 0.247840830987269 
1322	 0.247768870358327 
1323	 0.247706487037326 
1324	 0.247638002138114 
1325	 0.247573293203169 
1326	 0.247521720393437 
1327	 0.247478273922537 
1328	 0.247439797903882 
1329	 0.247387064379702 
1330	 0.247325559739969 
1331	 0.247249832509382 
1332	 0.247184142993205 
1333	 0.24712264966121 
1334	 0.247045414270851 
1335	 0.246961475735161 
1336	 0.246884216550999 
1337	 0.246786495269455 
1338	 0.246710384581976 
1339	 0.246654944805263 
1340	 0.246592827433428 
1341	 0.246540736599656 
1342	 0.246476261889032 
1343	 0.246393201864189 
1344	 0.246336217983594 
1345	 0.246288167832405 
1346	 0.246231353021674 
1347	 0.246185338216439 
1348	 0.246131368051791 
1349	 0.246061531311544 
1350	 0.245990363271963 
1351	 0.245940174889463 
1352	 0.245914895813279 
1353	 0.245860336388845 
1354	 0.245806627984593 
1355	 0.245744244029022 
1356	 0.245661372123666 
1357	 0.245586651797011 
1358	 0.245515139885247 
1359	 0.245438801218112 
1360	 0.245357664830569 
1361	 0.245275652927185 
1362	 0.245199593832113 
1363	 0.245112833135833 
1364	 0.245012148717985 
1365	 0.24491762294417 
1366	 0.244823298003009 
1367	 0.244726941062919 
1368	 0.244621682564826 
1369	 0.244525387340569 
1370	 0.244413073135215 
1371	 0.244290091836961 
1372	 0.244163740559894 
1373	 0.244023284684475 
1374	 0.243881702328278 
1375	 0.243738708663633 
1376	 0.243564074370318 
1377	 0.243386126019811 
1378	 0.24317721205546 
1379	 0.242922490816828 
1380	 0.242682434599858 
1381	 0.242440629676587 
1382	 0.242173301252716 
1383	 0.24190391059182 
1384	 0.241606857109293 
1385	 0.241284420573024 
1386	 0.240953993217285 
1387	 0.240625206381587 
1388	 0.240255957138703 
1389	 0.239863703571257 
1390	 0.239443991291352 
1391	 0.238995625645589 
1392	 0.238501798595176 
1393	 0.238009420618177 
1394	 0.237490353119943 
1395	 0.236914736753107 
1396	 0.236338545543267 
1397	 0.235755210114157 
1398	 0.235147669678783 
1399	 0.234532029530444 
1400	 0.233915524553034 
1401	 0.233289437419636 
1402	 0.232634475792209 
1403	 0.23199788398207 
1404	 0.231358936999741 
1405	 0.230745517224415 
1406	 0.230126848740189 
1407	 0.229543346754883 
1408	 0.228994652192846 
1409	 0.228449861768096 
1410	 0.227906454635055 
1411	 0.227411850861297 
1412	 0.226942136473406 
1413	 0.226495503371662 
1414	 0.226104025355054 
1415	 0.225718774158263 
1416	 0.225360133416477 
1417	 0.225042254937918 
1418	 0.224737371908788 
1419	 0.224452077606549 
1420	 0.224183761101772 
1421	 0.223911499167027 
1422	 0.223654574002882 
1423	 0.223423726623884 
1424	 0.223197122041427 
1425	 0.222983545987345 
1426	 0.222773053512107 
1427	 0.222566342547174 
1428	 0.222381645908006 
1429	 0.222208763779095 
1430	 0.222044006154391 
1431	 0.221894896379091 
1432	 0.221754609003028 
1433	 0.221620083978012 
1434	 0.22150037017965 
1435	 0.221401741024652 
1436	 0.221301726101182 
1437	 0.2211976199145 
1438	 0.221113476989843 
1439	 0.221041363101539 
1440	 0.22098316081514 
1441	 0.220936373398139 
1442	 0.220883863182062 
1443	 0.220813069149259 
1444	 0.220743691020892 
1445	 0.22068086818577 
1446	 0.220627374847507 
1447	 0.220560710084853 
1448	 0.220496084211267 
1449	 0.220431469633968 
1450	 0.220344627194894 
1451	 0.220269780874957 
1452	 0.220211308598989 
1453	 0.220131175178364 
1454	 0.220033504846504 
1455	 0.219953807786525 
1456	 0.219870682556346 
1457	 0.219794812152377 
1458	 0.219745611501303 
1459	 0.219659183866898 
1460	 0.2195465740274 
1461	 0.219455197041097 
1462	 0.219322717708569 
1463	 0.219259454806133 
1464	 0.219233362464807 
1465	 0.219232310128763 
1466	 0.219277018865046 
1467	 0.21933275706054 
1468	 0.21939850252655 
1469	 0.219504550788863 
1470	 0.219647696471415 
1471	 0.219798210193399 
1472	 0.219988028028129 
1473	 0.220200659901898 
1474	 0.220408664315134 
1475	 0.220627045523441 
1476	 0.220855217553944 
1477	 0.221070211707219 
1478	 0.221277232298523 
1479	 0.22149284312862 
1480	 0.221691908372459 
1481	 0.221877995974897 
1482	 0.222057106168481 
1483	 0.222228142792138 
1484	 0.222393606962342 
1485	 0.222544922737108 
1486	 0.222704196524272 
1487	 0.222861347319921 
1488	 0.223018635558651 
1489	 0.223176965215048 
1490	 0.223334072602806 
1491	 0.223498886131286 
1492	 0.223647721861729 
1493	 0.223790258213836 
1494	 0.223924446220132 
1495	 0.224041683358363 
1496	 0.224164257312761 
1497	 0.224278365159496 
1498	 0.224404884264186 
1499	 0.224547893688096 
1500	 0.224669125857875 
1501	 0.224780006401937 
1502	 0.224899236269573 
1503	 0.225006427237707 
1504	 0.225125494300215 
1505	 0.225242374634359 
1506	 0.225358275208782 
1507	 0.2254765432779 
1508	 0.225568854242295 
1509	 0.225658008934309 
1510	 0.225751948060497 
1511	 0.225831213082634 
1512	 0.22589760499832 
1513	 0.225979860678029 
1514	 0.226088021929062 
1515	 0.226183719153278 
1516	 0.226282537761385 
1517	 0.226379507985061 
1518	 0.226476980767416 
1519	 0.226559225164755 
1520	 0.226634408161961 
1521	 0.226712473350827 
1522	 0.226778494396962 
1523	 0.226855807189851 
1524	 0.22693844047056 
1525	 0.227027450425119 
1526	 0.227123693535735 
1527	 0.227212903664361 
1528	 0.227314198380716 
1529	 0.227393995174875 
1530	 0.227454185541826 
1531	 0.227527166927207 
1532	 0.227596737466623 
1533	 0.227661254533259 
1534	 0.227723696644655 
1535	 0.227794727992159 
1536	 0.227869100553871 
1537	 0.227939125701659 
1538	 0.228007325864965 
1539	 0.228086386238123 
1540	 0.228168235350492 
1541	 0.228242629303674 
1542	 0.228331170201585 
1543	 0.228411966012327 
1544	 0.228470349612761 
1545	 0.228540429074786 
1546	 0.228619985344239 
1547	 0.22870401513356 
1548	 0.228769574283651 
1549	 0.228824896768496 
1550	 0.228864864387766 
1551	 0.228884644376855 
1552	 0.228928460757984 
1553	 0.228990496110948 
1554	 0.229050560353113 
1555	 0.22910483836092 
1556	 0.229137589046948 
1557	 0.229160423195274 
1558	 0.229178106727902 
1559	 0.229223158289277 
1560	 0.229267541285509 
1561	 0.229321355703849 
1562	 0.229361635031569 
1563	 0.229406833901785 
1564	 0.229436447677965 
1565	 0.229454007604598 
1566	 0.22947496292526 
1567	 0.229492288210013 
1568	 0.22950947130162 
1569	 0.229528451886768 
1570	 0.229531499106079 
1571	 0.229512449760272 
1572	 0.229529109782721 
1573	 0.229555838554193 
1574	 0.229572038724001 
1575	 0.229604748945945 
1576	 0.229635153670258 
1577	 0.229652994737231 
1578	 0.229674033540357 
1579	 0.229708471981832 
1580	 0.229740410826598 
1581	 0.22976588126103 
1582	 0.229786214287813 
1583	 0.229822464507735 
1584	 0.229833612071416 
1585	 0.229813481256933 
1586	 0.229807062456148 
1587	 0.229793922893304 
1588	 0.229789115173069 
1589	 0.229788164018715 
1590	 0.229793755342608 
1591	 0.229801476283955 
1592	 0.229821367589626 
1593	 0.229863674617109 
1594	 0.229885099733744 
1595	 0.22991021259334 
1596	 0.229922511355766 
1597	 0.229916779874122 
1598	 0.229908844490721 
1599	 0.2298829152195 
1600	 0.229875317025 
1601	 0.229868615980918 
1602	 0.229868071973899 
1603	 0.229906528964765 
1604	 0.229906100401123 
1605	 0.229879092222968 
1606	 0.22985862417264 
1607	 0.229820403611999 
1608	 0.229777541934369 
1609	 0.229754007018668 
1610	 0.229736541867913 
1611	 0.229730993393393 
1612	 0.229721240305492 
1613	 0.229708498695364 
1614	 0.229669429086357 
1615	 0.229619476632847 
1616	 0.22960233690121 
1617	 0.229583333639248 
1618	 0.229568890485585 
1619	 0.229560215899081 
1620	 0.229533337308775 
1621	 0.229529211405373 
1622	 0.229543434814955 
1623	 0.229532544904621 
1624	 0.229526479101825 
1625	 0.229495187805914 
1626	 0.229438393068093 
1627	 0.229389946578656 
1628	 0.229331072220456 
1629	 0.229282847659387 
1630	 0.229229155035741 
1631	 0.229197371859916 
1632	 0.229181998183961 
1633	 0.229159417130418 
1634	 0.229153784194865 
1635	 0.229122453618085 
1636	 0.229073062241411 
1637	 0.229034642333111 
1638	 0.228985741989468 
1639	 0.228954039397954 
1640	 0.228933881067997 
1641	 0.228913967667615 
1642	 0.228908590850661 
1643	 0.228881209792945 
1644	 0.228844451144718 
1645	 0.228813694340879 
1646	 0.228778771614591 
1647	 0.228732666262943 
1648	 0.228690399726966 
1649	 0.228634998504405 
1650	 0.228561443521101 
1651	 0.228486885322401 
1652	 0.228397772520271 
1653	 0.228336164880262 
1654	 0.228266977428487 
1655	 0.228228556178392 
1656	 0.228238728133651 
1657	 0.228209517797975 
1658	 0.228172682479085 
1659	 0.228140908662415 
1660	 0.228099950365035 
1661	 0.228056784542904 
1662	 0.228024496842718 
1663	 0.227974867440429 
1664	 0.2278988050498 
1665	 0.227845649086907 
1666	 0.227800109853219 
1667	 0.227751330800057 
1668	 0.227710965432593 
1669	 0.227664792327281 
1670	 0.227615407129236 
1671	 0.227562264143609 
1672	 0.22751021656705 
1673	 0.227451458226494 
1674	 0.227381955590893 
1675	 0.227319632667889 
1676	 0.227254541882966 
1677	 0.227196552710463 
1678	 0.227142621172466 
1679	 0.227091889378424 
1680	 0.227052841734049 
1681	 0.226999661882176 
1682	 0.226944971883853 
1683	 0.226883816337318 
1684	 0.226805766789476 
1685	 0.226741111461487 
1686	 0.226678429821618 
1687	 0.226621804824139 
1688	 0.226573879287801 
1689	 0.226523219410342 
1690	 0.2264847313581 
1691	 0.226422663547369 
1692	 0.226338732654984 
1693	 0.226277768839948 
1694	 0.226212452554795 
1695	 0.226154797385507 
1696	 0.226134079223956 
1697	 0.226067186546014 
1698	 0.225968792092053 
1699	 0.225886881875229 
1700	 0.225786776063207 
1701	 0.225701815444076 
1702	 0.225626299086971 
1703	 0.225561534882013 
1704	 0.225509691180914 
1705	 0.225444356129367 
1706	 0.225391388773481 
1707	 0.225321537055684 
1708	 0.225238406774734 
1709	 0.225144781137322 
1710	 0.225033889023859 
1711	 0.224941514777453 
1712	 0.224836556773893 
1713	 0.224748933953822 
1714	 0.224688850120714 
1715	 0.224619112001803 
1716	 0.224548602799551 
1717	 0.224475585717001 
1718	 0.224410812910139 
1719	 0.224324252705066 
1720	 0.224214888857962 
1721	 0.224130235701005 
1722	 0.224057635648352 
1723	 0.223959428805778 
1724	 0.223868858180903 
1725	 0.223751239697994 
1726	 0.223589619740978 
1727	 0.223457249004826 
1728	 0.223326514382111 
1729	 0.223213712052328 
1730	 0.223112606248516 
1731	 0.223021329677106 
1732	 0.222960096969893 
1733	 0.222847899973164 
1734	 0.222716793462879 
1735	 0.222594518935135 
1736	 0.222446389996251 
1737	 0.222323520599972 
1738	 0.222226209488436 
1739	 0.222095634538685 
1740	 0.221950590112317 
1741	 0.22180997280786 
1742	 0.221661317915099 
1743	 0.221528903942183 
1744	 0.221401268911937 
1745	 0.221261686138746 
1746	 0.221117233620905 
1747	 0.220962015376102 
1748	 0.220842806499956 
1749	 0.220697431098345 
1750	 0.220574644848112 
1751	 0.220473733095747 
1752	 0.220356773376969 
1753	 0.220266759518896 
1754	 0.22017007546398 
1755	 0.220044658071336 
1756	 0.219921711828752 
1757	 0.219784942577227 
1758	 0.21963403943682 
1759	 0.219482205199412 
1760	 0.219326648182134 
1761	 0.219163056677683 
1762	 0.219022202714112 
1763	 0.218889420325101 
1764	 0.218752238295732 
1765	 0.21865630107536 
1766	 0.218565999690166 
1767	 0.218474676812326 
1768	 0.218369581862998 
1769	 0.218223344311323 
1770	 0.218079031724294 
1771	 0.217931052877874 
1772	 0.217797806344906 
1773	 0.217676251845241 
1774	 0.217526941780872 
1775	 0.217395367712503 
1776	 0.217280882353224 
1777	 0.21715991489037 
1778	 0.217054823892008 
1779	 0.216952988477042 
1780	 0.21683921148377 
1781	 0.216737575550926 
1782	 0.216654678863677 
1783	 0.216549973742168 
1784	 0.216446420653823 
1785	 0.216331005814187 
1786	 0.216235745488029 
1787	 0.216158172035881 
1788	 0.216065612594096 
1789	 0.215963136037029 
1790	 0.215887075650406 
1791	 0.215838697172027 
1792	 0.215776952181517 
1793	 0.215721207467808 
1794	 0.215660214079161 
1795	 0.21557448735015 
1796	 0.215477612338965 
1797	 0.215386273866889 
1798	 0.21531943764814 
1799	 0.215244781857445 
1800	 0.21518000279325 
1801	 0.20876681454992 
1802	 0.20874821578256 
1803	 0.208706957972815 
1804	 0.208671005133855 
1805	 0.208625685435304 
1806	 0.208566253433826 
1807	 0.208477301338509 
1808	 0.20840209549655 
1809	 0.208302256536682 
1810	 0.208247864009953 
1811	 0.208210917348315 
1812	 0.20818940523549 
1813	 0.208182507007299 
1814	 0.208141439756291 
1815	 0.208087163233491 
1816	 0.208045971604651 
1817	 0.208000375766172 
1818	 0.20795731831876 
1819	 0.20790536306483 
1820	 0.207846577257217 
1821	 0.207794761507536 
1822	 0.207714926514633 
1823	 0.207656002543475 
1824	 0.207604149049447 
1825	 0.207524460839642 
1826	 0.207458799103357 
1827	 0.207375695556025 
1828	 0.207275284956334 
1829	 0.207157917154175 
1830	 0.207030399303461 
1831	 0.206887530143291 
1832	 0.206737898529112 
1833	 0.206576278460279 
1834	 0.206398908425467 
1835	 0.20623075928257 
1836	 0.206023239655418 
1837	 0.205823352396184 
1838	 0.205647127309257 
1839	 0.205446787352617 
1840	 0.205226972718642 
1841	 0.20503831992654 
1842	 0.2048393185765 
1843	 0.204612379565458 
1844	 0.204421112082377 
1845	 0.204238143293693 
1846	 0.204039378871951 
1847	 0.203858893682787 
1848	 0.203690135793635 
1849	 0.203516912375263 
1850	 0.203361917329414 
1851	 0.203236945467185 
1852	 0.203108033251592 
1853	 0.202940471994759 
1854	 0.202758110584479 
1855	 0.20257353160669 
1856	 0.202390174909444 
1857	 0.202197693087254 
1858	 0.20200801335793 
1859	 0.20180627422657 
1860	 0.201574794781903 
1861	 0.201305554560252 
1862	 0.201042651548496 
1863	 0.200767540209874 
1864	 0.20045294605062 
1865	 0.200125431019698 
1866	 0.199772555463127 
1867	 0.199404627104203 
1868	 0.199026993939774 
1869	 0.198625558018566 
1870	 0.198192413127128 
1871	 0.197692805720063 
1872	 0.197145825362414 
1873	 0.196549824688474 
1874	 0.195904705863706 
1875	 0.195169102049556 
1876	 0.194390096183082 
1877	 0.193590466205237 
1878	 0.192707625032618 
1879	 0.191767751369578 
1880	 0.190769504742145 
1881	 0.18970175133075 
1882	 0.188575922787385 
1883	 0.187386770915695 
1884	 0.186141120382272 
1885	 0.184841914540534 
1886	 0.183503089237072 
1887	 0.182091139952713 
1888	 0.180633666868528 
1889	 0.179115641986676 
1890	 0.177541980480533 
1891	 0.175978590649871 
1892	 0.174365024048171 
1893	 0.172767268153035 
1894	 0.171163934169393 
1895	 0.169591094383269 
1896	 0.167958577359815 
1897	 0.166375087033751 
1898	 0.164814664724344 
1899	 0.163235864045644 
1900	 0.16174621332706 
1901	 0.160311533649423 
1902	 0.158943861344429 
1903	 0.157651814999733 
1904	 0.156425170420614 
1905	 0.155256860986701 
1906	 0.154172223340894 
1907	 0.153150940447857 
1908	 0.152172174700424 
1909	 0.151268982488822 
1910	 0.150410742507638 
1911	 0.149630876780591 
1912	 0.148930574593008 
1913	 0.148255028271856 
1914	 0.147630091205987 
1915	 0.147051229843138 
1916	 0.146517611519553 
1917	 0.14600538236704 
1918	 0.145555665451964 
1919	 0.14515684054099 
1920	 0.144790622692449 
1921	 0.144465758978309 
1922	 0.144186658606199 
1923	 0.143939631923709 
1924	 0.143705663919196 
1925	 0.143489841236793 
1926	 0.14331074856738 
1927	 0.143156983612932 
1928	 0.143026675857931 
1929	 0.142935983863371 
1930	 0.14285226161313 
1931	 0.142780205630307 
1932	 0.142735418349907 
1933	 0.142713722334684 
1934	 0.142730369961396 
1935	 0.142767102290064 
1936	 0.142850128807644 
1937	 0.142920643121701 
1938	 0.142993139148909 
1939	 0.143094143388579 
1940	 0.143224508169346 
1941	 0.143331859051912 
1942	 0.143454251741511 
1943	 0.143600434979211 
1944	 0.143751172037922 
1945	 0.143939056828832 
1946	 0.14412556184671 
1947	 0.144353911348438 
1948	 0.1445501424748 
1949	 0.144716749127356 
1950	 0.144914844441674 
1951	 0.14511659840856 
1952	 0.145339243210158 
1953	 0.145571261730303 
1954	 0.145819464628382 
1955	 0.146071485509374 
1956	 0.146317326819381 
1957	 0.146572372539448 
1958	 0.146835891410606 
1959	 0.147102122524684 
1960	 0.147365958283853 
1961	 0.147646621702121 
1962	 0.147941317853684 
1963	 0.148240946081579 
1964	 0.148544929155146 
1965	 0.14885826308182 
1966	 0.149207521731192 
1967	 0.1495418489042 
1968	 0.149883277190178 
1969	 0.150251243484005 
1970	 0.150595006570956 
1971	 0.150919316604371 
1972	 0.151258028960286 
1973	 0.151590092875828 
1974	 0.151931616498701 
1975	 0.152282947957007 
1976	 0.152638657487876 
1977	 0.152983060335451 
1978	 0.153338355101462 
1979	 0.153657737353282 
1980	 0.154017000581476 
1981	 0.154386662839717 
1982	 0.15477004976763 
1983	 0.155148422624802 
1984	 0.155567487428603 
1985	 0.155938352737491 
1986	 0.156285503080762 
1987	 0.15663370940293 
1988	 0.156966038421673 
1989	 0.157287656627076 
1990	 0.157609332076333 
1991	 0.1579325801945 
1992	 0.158269702804416 
1993	 0.158615242114181 
1994	 0.158957452282527 
1995	 0.159311616509179 
1996	 0.15965902873175 
1997	 0.160004275558289 
1998	 0.160343719453765 
1999	 0.160675369682724 
2000	 0.161015608918333 
2001	 0.161365095951456 
2002	 0.161695808370575 
2003	 0.162027724549646 
2004	 0.162378870913292 
2005	 0.162696831544715 
2006	 0.162986976798626 
2007	 0.16329845657643 
2008	 0.163595411937652 
2009	 0.163909265008485 
2010	 0.16424281231462 
2011	 0.164565448730788 
2012	 0.164908006553472 
2013	 0.165222951657137 
2014	 0.165525471358986 
2015	 0.165811778531864 
2016	 0.166092555513718 
2017	 0.166362428791942 
2018	 0.166649336719529 
2019	 0.166944305237042 
2020	 0.16724228911468 
2021	 0.167553885076693 
2022	 0.167852163692211 
2023	 0.168155604194373 
2024	 0.168444781815868 
2025	 0.168718129527523 
2026	 0.168993741009909 
2027	 0.169262748518775 
2028	 0.169533702915192 
2029	 0.169795500813304 
2030	 0.170066211633908 
2031	 0.170301689336761 
2032	 0.170505200659696 
2033	 0.170732732564532 
2034	 0.170947177138134 
2035	 0.171170089396278 
2036	 0.171417264051352 
2037	 0.171642912723122 
2038	 0.171852443829513 
2039	 0.17206566852641 
2040	 0.172272677411515 
2041	 0.172487128547389 
2042	 0.172692058596389 
2043	 0.172882868249299 
2044	 0.173066278927102 
2045	 0.173228776440022 
2046	 0.173405941386189 
2047	 0.173581285007422 
2048	 0.173762124360974 
2049	 0.173944040290467 
2050	 0.174135201989769 
2051	 0.174337265661256 
2052	 0.174529279827635 
2053	 0.174736674933734 
2054	 0.174924488236163 
2055	 0.175095636817733 
2056	 0.175257651311707 
2057	 0.175429562137252 
2058	 0.175600251971096 
2059	 0.175764575065668 
2060	 0.175934446093399 
2061	 0.176092626384194 
2062	 0.176230459863348 
2063	 0.176384587313322 
2064	 0.176564681357675 
2065	 0.176705635247731 
2066	 0.176813378998399 
2067	 0.176944111757193 
2068	 0.177063115776749 
2069	 0.17718349595485 
2070	 0.177314097111159 
2071	 0.177477595854377 
2072	 0.177609530563155 
2073	 0.17771842978663 
2074	 0.177844120756741 
2075	 0.177973583274927 
2076	 0.178103285384071 
2077	 0.178236332733926 
2078	 0.178368179393444 
2079	 0.178482473305198 
2080	 0.178626777761608 
2081	 0.17881197743203 
2082	 0.178962920255598 
2083	 0.179111182221061 
2084	 0.179254154842807 
2085	 0.179407304138871 
2086	 0.179545116939706 
2087	 0.179675381099337 
2088	 0.179827653026307 
2089	 0.179952165709869 
2090	 0.180035511242433 
2091	 0.180141202926526 
2092	 0.180250818113508 
2093	 0.180364333336234 
2094	 0.180477148481121 
2095	 0.180591578317012 
2096	 0.180695859802008 
2097	 0.180830314427229 
2098	 0.180976609155951 
2099	 0.181139954986821 
2100	 0.181296516274379 
2101	 0.181492027008539 
2102	 0.181627637887459 
2103	 0.181722523512014 
2104	 0.181844194398767 
2105	 0.181953059635942 
2106	 0.182069024189577 
2107	 0.182202611187576 
2108	 0.182322019183851 
2109	 0.182426484349316 
2110	 0.182537693607674 
2111	 0.182643644192441 
2112	 0.182760181606986 
2113	 0.182875402564955 
2114	 0.183007081089245 
2115	 0.183137812526288 
2116	 0.183287908667747 
2117	 0.183411434067548 
2118	 0.183528154489075 
2119	 0.183637225493994 
2120	 0.183731853969305 
2121	 0.183827055361184 
2122	 0.183904080544322 
2123	 0.18400896895824 
2124	 0.184142016201138 
2125	 0.184238367187365 
2126	 0.184342237905982 
2127	 0.184426474920967 
2128	 0.18446809916725 
2129	 0.184518335972433 
2130	 0.184570945684539 
2131	 0.184617460127706 
2132	 0.184660398507808 
2133	 0.184698757860033 
2134	 0.184724830306836 
2135	 0.184746575820932 
2136	 0.184760420093072 
2137	 0.184761639941559 
2138	 0.184759822265187 
2139	 0.184751765009692 
2140	 0.184741874769138 
2141	 0.184733425573727 
2142	 0.184705672102642 
2143	 0.184685436114699 
2144	 0.184630123823169 
2145	 0.184526737824625 
2146	 0.184438574973883 
2147	 0.184345724633188 
2148	 0.184234395719558 
2149	 0.184130889381251 
2150	 0.184039233738187 
2151	 0.183932450148376 
2152	 0.18380795865071 
2153	 0.183697408686787 
2154	 0.183595408334121 
2155	 0.183481171751289 
2156	 0.183368781196877 
2157	 0.183245995050029 
2158	 0.183113214685616 
2159	 0.18297308886312 
2160	 0.18283455807983 
2161	 0.182676937659464 
2162	 0.182521989410321 
2163	 0.182331683826154 
2164	 0.182094539472122 
2165	 0.18186726344126 
2166	 0.181647478701919 
2167	 0.181397299489346 
2168	 0.181194806213672 
2169	 0.181027409377006 
2170	 0.180852483423465 
2171	 0.180707280398619 
2172	 0.180519445334754 
2173	 0.180321015442267 
2174	 0.180116340691431 
2175	 0.179876060636116 
2176	 0.179656686834182 
2177	 0.179443209561677 
2178	 0.179232679148975 
2179	 0.17903142004747 
2180	 0.178820596984526 
2181	 0.178598569965627 
2182	 0.178395148502687 
2183	 0.17820588801862 
2184	 0.178007739711603 
2185	 0.177791351813496 
2186	 0.177574408705358 
2187	 0.177359676625174 
2188	 0.177126541101213 
2189	 0.176890611188018 
2190	 0.176658110842347 
2191	 0.17644053906857 
2192	 0.176185453251972 
2193	 0.175990754887531 
2194	 0.175853765070617 
2195	 0.175700984730822 
2196	 0.175576402804308 
2197	 0.175436047367399 
2198	 0.175287543408359 
2199	 0.175144624024616 
2200	 0.174985596818861 
2201	 0.174850331880209 
2202	 0.174734103442896 
2203	 0.174624701787952 
2204	 0.174510197096486 
2205	 0.174404233780689 
2206	 0.174303799830616 
2207	 0.174195657654768 
2208	 0.174110967090937 
2209	 0.17404860769856 
2210	 0.173983163120511 
2211	 0.173916864342107 
2212	 0.173867593672764 
2213	 0.173834263265708 
2214	 0.173797686869002 
2215	 0.173785316948039 
2216	 0.173749452014417 
2217	 0.17369717139143 
2218	 0.173652636104563 
2219	 0.173586803440344 
2220	 0.173549138004011 
2221	 0.173547008321815 
2222	 0.173510879995052 
2223	 0.173516087085582 
2224	 0.173504108376287 
2225	 0.173477184369727 
2226	 0.173429897260655 
2227	 0.173412042451199 
2228	 0.173394036009036 
2229	 0.173377536671891 
2230	 0.173382404258174 
2231	 0.173372224198135 
2232	 0.173360381112266 
2233	 0.173322683214181 
2234	 0.173283173871964 
2235	 0.173221790629324 
2236	 0.173133552434693 
2237	 0.173034340458292 
2238	 0.172929844964197 
2239	 0.172797588345945 
2240	 0.172628693035847 
2241	 0.172461726724966 
2242	 0.172275940436874 
2243	 0.172091438446648 
2244	 0.171919121825447 
2245	 0.171718606623799 
2246	 0.171494499764817 
2247	 0.171245863193398 
2248	 0.170987831798868 
2249	 0.17070575503102 
2250	 0.170402033474386 
2251	 0.170073446144008 
2252	 0.169766565255672 
2253	 0.169429186528557 
2254	 0.169125543003623 
2255	 0.168847837908087 
2256	 0.168574037985509 
2257	 0.168279875578275 
2258	 0.168051938570596 
2259	 0.167861528787021 
2260	 0.167692529279299 
2261	 0.167564204918545 
2262	 0.167467834447283 
2263	 0.167396731730598 
2264	 0.167354214425835 
2265	 0.167352288751168 
2266	 0.167367264013695 
2267	 0.167434231530022 
2268	 0.167481103933617 
2269	 0.167530876750573 
2270	 0.167591942747592 
2271	 0.167661080233203 
2272	 0.167753894982618 
2273	 0.167906168425784 
2274	 0.168068777398906 
2275	 0.168235284547937 
2276	 0.168412627776634 
2277	 0.168589194124727 
2278	 0.168779017534511 
2279	 0.16896654235164 
2280	 0.169148680062165 
2281	 0.169359660401777 
2282	 0.169592911696995 
2283	 0.169803389833927 
2284	 0.17004571206622 
2285	 0.170235686376045 
2286	 0.170392052730614 
2287	 0.170536201548524 
2288	 0.170680279868294 
2289	 0.170755295542412 
2290	 0.17076674981896 
2291	 0.170788758346723 
2292	 0.170737630361273 
2293	 0.170731655856189 
2294	 0.170773864896414 
2295	 0.170784081356099 
2296	 0.170782731552215 
2297	 0.170779949258314 
2298	 0.170785822685909 
2299	 0.17081848947408 
2300	 0.170858121762265 
2301	 0.170927232407695 
2302	 0.170963406230374 
2303	 0.170936683186159 
2304	 0.170938544718085 
2305	 0.170946786052445 
2306	 0.170971378421554 
2307	 0.171020753272836 
2308	 0.171060076673223 
2309	 0.171111078259996 
2310	 0.17114826295367 
2311	 0.171189996645423 
2312	 0.171195097439346 
2313	 0.171190689359836 
2314	 0.171162861915879 
2315	 0.171085765856059 
2316	 0.171036392852108 
2317	 0.170993102578711 
2318	 0.170915848362393 
2319	 0.170824680004189 
2320	 0.170741484283049 
2321	 0.170622359171649 
2322	 0.170546200595373 
2323	 0.170522336465836 
2324	 0.170461762748259 
2325	 0.170363901639401 
2326	 0.170309531792782 
2327	 0.170286135698294 
2328	 0.170231333917179 
2329	 0.170126219902578 
2330	 0.170061714411022 
2331	 0.169950514188244 
2332	 0.169786113317516 
2333	 0.169721699391163 
2334	 0.169714039038741 
2335	 0.169632550065644 
2336	 0.169551959763698 
2337	 0.169513873627739 
2338	 0.169420182763695 
2339	 0.169333358234089 
2340	 0.169277802655015 
2341	 0.169189708700314 
2342	 0.169111785850894 
2343	 0.168957869435403 
2344	 0.168758830688824 
2345	 0.168594078161535 
2346	 0.16835613022511 
2347	 0.168213563815843 
2348	 0.168170662052275 
2349	 0.16807022060816 
2350	 0.167973305260177 
2351	 0.167848788151685 
2352	 0.167709486905894 
2353	 0.167563341069932 
2354	 0.167423272324205 
2355	 0.167263680177575 
2356	 0.167070692183715 
2357	 0.16686927489319 
2358	 0.166643416628877 
2359	 0.166401567532415 
2360	 0.166132002304478 
2361	 0.165910063465536 
2362	 0.165684801866532 
2363	 0.165480700648651 
2364	 0.165358881940781 
2365	 0.165163774613741 
2366	 0.164939804995578 
2367	 0.164715861324315 
2368	 0.164405605361406 
2369	 0.16416472428257 
2370	 0.163956974597878 
2371	 0.163765167253731 
2372	 0.163599019120109 
2373	 0.163476481588685 
2374	 0.163257759762914 
2375	 0.162936014308177 
2376	 0.162569186808525 
2377	 0.162196515274373 
2378	 0.161884200665272 
2379	 0.161667127428967 
2380	 0.161473320625985 
2381	 0.161216987309002 
2382	 0.160927444137335 
2383	 0.160627194343727 
2384	 0.160364717062203 
2385	 0.160105973533542 
2386	 0.15983174822386 
2387	 0.159572305041585 
2388	 0.159263295463376 
2389	 0.158946249578985 
2390	 0.158652586939199 
2391	 0.158364167043866 
2392	 0.158079804536953 
2393	 0.157770206048926 
2394	 0.157502140308035 
2395	 0.157210310274885 
2396	 0.156837020363898 
2397	 0.156575867259751 
2398	 0.156315267832815 
2399	 0.155988131482642 
2400	 0.155736679624461 
2401	 0.155466736429434 
2402	 0.155229883959356 
2403	 0.15498914281709 
2404	 0.154739101599873 
2405	 0.1545612452668 
2406	 0.154214709138795 
2407	 0.153870829077615 
2408	 0.153629412467726 
2409	 0.153338733231821 
2410	 0.153133612647821 
2411	 0.152896481256122 
2412	 0.152592326239046 
2413	 0.152330121425681 
2414	 0.152005497404466 
2415	 0.151666195403174 
2416	 0.151386583782196 
2417	 0.151111951328729 
2418	 0.150853867048558 
2419	 0.150693938856426 
2420	 0.150443413060829 
2421	 0.150126277157673 
2422	 0.149891766345629 
2423	 0.149674852668207 
2424	 0.14944465990598 
2425	 0.149232507102728 
2426	 0.149023096251004 
2427	 0.148792971384204 
2428	 0.148557099082127 
2429	 0.148429682062413 
2430	 0.148190805325207 
2431	 0.147793551438248 
2432	 0.147478615392905 
2433	 0.147161040461206 
2434	 0.146833004297076 
2435	 0.146588158697656 
2436	 0.146239542606483 
2437	 0.145810431753895 
2438	 0.14543413113306 
2439	 0.144980973491635 
2440	 0.144691060840312 
2441	 0.14451514940661 
2442	 0.14427052059284 
2443	 0.144093581309695 
2444	 0.143794207018969 
2445	 0.143426721828072 
2446	 0.143065037821909 
2447	 0.142623841245521 
2448	 0.142331025652436 
2449	 0.142126707365043 
2450	 0.141819836432555 
2451	 0.141555451500076 
2452	 0.14117600025434 
2453	 0.140662538907168 
2454	 0.140229456222732 
2455	 0.139786469537429 
2456	 0.139408545315815 
2457	 0.139052189937368 
2458	 0.138659547637211 
2459	 0.138260424336633 
2460	 0.137948607426792 
2461	 0.137726774294256 
2462	 0.137455740665764 
2463	 0.137236038724699 
2464	 0.137027814220567 
2465	 0.136702700781544 
2466	 0.136450106365646 
2467	 0.136333525032745 
2468	 0.13602016393432 
2469	 0.135641372353254 
2470	 0.135289668131009 
2471	 0.134938474152791 
2472	 0.134721742747807 
2473	 0.134395017797293 
2474	 0.134103395583516 
2475	 0.133848669730327 
2476	 0.133608053341096 
2477	 0.133364292874051 
2478	 0.133006849260846 
2479	 0.132801033678721 
2480	 0.13262296582549 
2481	 0.132391265217194 
2482	 0.132267019572553 
2483	 0.132130817921597 
2484	 0.13183711092577 
2485	 0.131503133059411 
2486	 0.131207521806467 
2487	 0.130900124140555 
2488	 0.130641323230372 
2489	 0.130425025526738 
2490	 0.130200670654959 
2491	 0.129860836945993 
2492	 0.129591612644627 
2493	 0.129351877947078 
2494	 0.129153194807073 
2495	 0.129110282314508 
2496	 0.128940354650985 
2497	 0.12875761204007 
2498	 0.128446468482514 
2499	 0.1280651415055 
2500	 0.127694933224483 
