Wavelength	LMW_12_00003.asd
350	 0.110983693091107 
351	 0.111254399620933 
352	 0.106798091229476 
353	 9.99149167234131E-02 
354	 0.10740610316111 
355	 0.11296301104069 
356	 0.112137758750113 
357	 0.107630597155857 
358	 0.116758603488038 
359	 0.116733476213488 
360	 0.108670326941827 
361	 0.108603537095235 
362	 0.108648819304802 
363	 0.109789744891079 
364	 0.111646454963537 
365	 0.110055467317508 
366	 0.1098486006201 
367	 0.112231760417188 
368	 0.116235864017552 
369	 0.117498445921189 
370	 0.115798084063254 
371	 0.114254271553208 
372	 0.117565022298445 
373	 0.122229004165394 
374	 0.123217651705037 
375	 0.12076394477888 
376	 0.12458058377004 
377	 0.121985402017908 
378	 0.119870300873693 
379	 0.126009135604791 
380	 0.126392378993296 
381	 0.126198719033305 
382	 0.127711753867859 
383	 0.130386461433069 
384	 0.133494116615091 
385	 0.133564779140095 
386	 0.131232083045719 
387	 0.13546959716023 
388	 0.140443920663359 
389	 0.142678761832667 
390	 0.14126316580169 
391	 0.14344050518105 
392	 0.14550398521004 
393	 0.147062734874726 
394	 0.150664154419382 
395	 0.152447462325528 
396	 0.153559432156523 
397	 0.155112766173853 
398	 0.156092558639513 
399	 0.158989219548084 
400	 0.161852435939432 
401	 0.162060474935461 
402	 0.163214215122884 
403	 0.164298979919248 
404	 0.165151308019796 
405	 0.166730853388292 
406	 0.168724712707684 
407	 0.170867406267597 
408	 0.172584281708897 
409	 0.172154428588216 
410	 0.173176635645703 
411	 0.175286585709535 
412	 0.176445143828614 
413	 0.177581425345169 
414	 0.17804938628887 
415	 0.177933726627558 
416	 0.178353831732835 
417	 0.179227114647214 
418	 0.179851181295681 
419	 0.179884754521249 
420	 0.180864498940971 
421	 0.180766163897815 
422	 0.180203476671408 
423	 0.181195524341804 
424	 0.181000921854549 
425	 0.180941289271991 
426	 0.181574945459785 
427	 0.181154287730882 
428	 0.180535166320592 
429	 0.179981530800798 
430	 0.179673344885647 
431	 0.18038831255075 
432	 0.180198275990851 
433	 0.179359607615226 
434	 0.180187396581078 
435	 0.180660363893121 
436	 0.180908802753247 
437	 0.181295533257144 
438	 0.181662537544953 
439	 0.181963993013905 
440	 0.182614323612182 
441	 0.184034696399246 
442	 0.18474483799244 
443	 0.185509314149868 
444	 0.186688378309804 
445	 0.187703867597833 
446	 0.188610241741896 
447	 0.189590353648077 
448	 0.190742202593411 
449	 0.191567059285324 
450	 0.192616228623152 
451	 0.193938424880556 
452	 0.195129789584767 
453	 0.195978430099303 
454	 0.196682623837491 
455	 0.19752349920295 
456	 0.198882274473744 
457	 0.199630000250356 
458	 0.200042648965945 
459	 0.200923862562261 
460	 0.201640177626878 
461	 0.202223226221765 
462	 0.202740219585176 
463	 0.203217835678425 
464	 0.203788272153604 
465	 0.204398665578324 
466	 0.204959982396756 
467	 0.205475002105188 
468	 0.206009370965755 
469	 0.206592039761627 
470	 0.207204934102445 
471	 0.207621710257107 
472	 0.207946781238311 
473	 0.208314359271439 
474	 0.208788770906838 
475	 0.209274358969948 
476	 0.209688962281748 
477	 0.21000862090463 
478	 0.210540404962817 
479	 0.211248403899133 
480	 0.21191535989974 
481	 0.212116983985197 
482	 0.212548254270081 
483	 0.213172117059318 
484	 0.213752478945454 
485	 0.214182617962747 
486	 0.214498056380775 
487	 0.214786898831097 
488	 0.215169613558852 
489	 0.215602245571963 
490	 0.216077245204208 
491	 0.216596444187308 
492	 0.217198710103087 
493	 0.217660271000596 
494	 0.217992523467745 
495	 0.218349294824464 
496	 0.218992669952206 
497	 0.219609142808928 
498	 0.220055324271531 
499	 0.220517726620616 
500	 0.221045327342058 
501	 0.221477858984838 
502	 0.22173530863473 
503	 0.222384308826045 
504	 0.223044840536128 
505	 0.223553632527319 
506	 0.223986541618903 
507	 0.224557375682529 
508	 0.225087816752076 
509	 0.225462252527948 
510	 0.225958925155234 
511	 0.226346894489639 
512	 0.226720236364379 
513	 0.227301790057921 
514	 0.227807230086142 
515	 0.228284881533523 
516	 0.228791294535392 
517	 0.229342451460443 
518	 0.229754321452629 
519	 0.23016386449167 
520	 0.230734559092297 
521	 0.23116884537026 
522	 0.231601811844457 
523	 0.23209862635469 
524	 0.232624988189077 
525	 0.233082999705632 
526	 0.233458876194058 
527	 0.233801047098857 
528	 0.234274803864983 
529	 0.234743012780035 
530	 0.235226110962653 
531	 0.235823414513121 
532	 0.236238801032633 
533	 0.236699011258755 
534	 0.237311116241712 
535	 0.23778306735486 
536	 0.238195525058834 
537	 0.238667039494822 
538	 0.239281519987741 
539	 0.239738480096831 
540	 0.240141153407312 
541	 0.240613603662308 
542	 0.241264167910419 
543	 0.241816044395019 
544	 0.242294837618977 
545	 0.242802567534778 
546	 0.24337109643479 
547	 0.243956729093569 
548	 0.244581297388486 
549	 0.24530873861941 
550	 0.245833171390467 
551	 0.246306020971192 
552	 0.246893631280323 
553	 0.247580950013888 
554	 0.248236204272437 
555	 0.248866229587859 
556	 0.249539956609036 
557	 0.2501534730212 
558	 0.250714425258503 
559	 0.251257007041759 
560	 0.251830903779345 
561	 0.252495113273837 
562	 0.253231175882266 
563	 0.254011448076384 
564	 0.25494390526077 
565	 0.255901695284179 
566	 0.256937261699087 
567	 0.258307440670368 
568	 0.259456212249169 
569	 0.260270788263481 
570	 0.260831759699096 
571	 0.261397516957938 
572	 0.262099646537809 
573	 0.26297037885097 
574	 0.263947278511056 
575	 0.264848417853289 
576	 0.265629578887034 
577	 0.266357725229356 
578	 0.267254666928141 
579	 0.268399695944204 
580	 0.269799954427959 
581	 0.271377829023477 
582	 0.272876402618745 
583	 0.274192542806271 
584	 0.275259190365745 
585	 0.276028317504207 
586	 0.276780656986498 
587	 0.277556453035975 
588	 0.278319268357119 
589	 0.279082866245817 
590	 0.279765111204606 
591	 0.280420799754535 
592	 0.281217385332661 
593	 0.281847867598 
594	 0.282451489490538 
595	 0.283259064234692 
596	 0.284513454951584 
597	 0.285997025764211 
598	 0.287538992978473 
599	 0.289006077844179 
600	 0.290375268362913 
601	 0.291517423461683 
602	 0.292423506038866 
603	 0.293315593353939 
604	 0.294114110810431 
605	 0.294881583576667 
606	 0.295723025767193 
607	 0.296731014174289 
608	 0.297612928806038 
609	 0.298312371296506 
610	 0.299067885388789 
611	 0.299955700393868 
612	 0.300978343198919 
613	 0.302042891393393 
614	 0.30285628041915 
615	 0.30364408976232 
616	 0.30444246798313 
617	 0.305163041718306 
618	 0.306005539657782 
619	 0.306794822026761 
620	 0.307434926668198 
621	 0.308101039137209 
622	 0.308871389210047 
623	 0.30964448514351 
624	 0.310274726678055 
625	 0.310910242653484 
626	 0.311595262886608 
627	 0.312310049657621 
628	 0.312961201836037 
629	 0.313639506245093 
630	 0.314304237506319 
631	 0.314921140556471 
632	 0.31561736083748 
633	 0.31632947294604 
634	 0.316993340781509 
635	 0.317567097125129 
636	 0.318297911925741 
637	 0.319043901362483 
638	 0.31966312259916 
639	 0.320162724308717 
640	 0.320836220095045 
641	 0.321602788475286 
642	 0.322230863449582 
643	 0.322877989084345 
644	 0.323530393849959 
645	 0.324181616288596 
646	 0.324857043810835 
647	 0.325517735298856 
648	 0.326162373203733 
649	 0.326817330194604 
650	 0.327584537390961 
651	 0.328260934473666 
652	 0.32885302196968 
653	 0.329551735996273 
654	 0.330319118151556 
655	 0.331052949841678 
656	 0.331699869858719 
657	 0.332348561494698 
658	 0.333043182841074 
659	 0.333815003496682 
660	 0.334643297235983 
661	 0.335226765194955 
662	 0.33581316792876 
663	 0.336550768555278 
664	 0.337366965614892 
665	 0.338195236890222 
666	 0.338947594271819 
667	 0.339600154392469 
668	 0.340379208658418 
669	 0.341190780292791 
670	 0.341963570165362 
671	 0.342661754382849 
672	 0.343406979939914 
673	 0.344216152188787 
674	 0.345063296406456 
675	 0.345887663950016 
676	 0.346585565904084 
677	 0.347263118369373 
678	 0.348088231669465 
679	 0.348908639087642 
680	 0.34973772205332 
681	 0.350573229435262 
682	 0.351376550353538 
683	 0.352146860358376 
684	 0.352941420952446 
685	 0.353795311430863 
686	 0.354608772902296 
687	 0.355422278195249 
688	 0.356226241358535 
689	 0.356990550852714 
690	 0.357915204694042 
691	 0.358819408969624 
692	 0.359602491185602 
693	 0.360439273767127 
694	 0.361208839298346 
695	 0.361988510571681 
696	 0.362887602948462 
697	 0.36378564997416 
698	 0.364673285053762 
699	 0.365529676756014 
700	 0.366319935731632 
701	 0.367077986112943 
702	 0.367937342361895 
703	 0.368918372803854 
704	 0.369664344061663 
705	 0.370481949903593 
706	 0.371331465008073 
707	 0.372035648072725 
708	 0.37289965810858 
709	 0.373751000902266 
710	 0.37451537579211 
711	 0.375336498381724 
712	 0.376133883489254 
713	 0.376897160702124 
714	 0.377643443810026 
715	 0.37841391001846 
716	 0.379157224554815 
717	 0.379918608691519 
718	 0.380782756253163 
719	 0.381426686194954 
720	 0.382010212448277 
721	 0.382668090973531 
722	 0.383343046990601 
723	 0.384074935514374 
724	 0.384843577556338 
725	 0.385603093382718 
726	 0.386314228304772 
727	 0.386877640348587 
728	 0.387355104267932 
729	 0.38794647455657 
730	 0.388550817009772 
731	 0.389177171340417 
732	 0.389806091905909 
733	 0.390303861802285 
734	 0.390778771277015 
735	 0.391272341761844 
736	 0.391789587965591 
737	 0.392292177271903 
738	 0.392775485103132 
739	 0.393239461488905 
740	 0.393685533939956 
741	 0.394084665290407 
742	 0.394451533261361 
743	 0.394802301787519 
744	 0.395122983830224 
745	 0.395474040762929 
746	 0.395847322566394 
747	 0.396192402528448 
748	 0.396437033594782 
749	 0.396660153701663 
750	 0.396896728341543 
751	 0.397111735644593 
752	 0.39742376875454 
753	 0.397713071127099 
754	 0.3978853170537 
755	 0.398087123056642 
756	 0.398271452405632 
757	 0.398430333003784 
758	 0.39857904021296 
759	 0.398774931253216 
760	 0.398836129052637 
761	 0.398788731037589 
762	 0.398936106357204 
763	 0.399111914729247 
764	 0.399240759699311 
765	 0.399299888092094 
766	 0.399361993150881 
767	 0.399385809398371 
768	 0.39939890354591 
769	 0.399451076636025 
770	 0.399492417961666 
771	 0.399496433130247 
772	 0.399474770477031 
773	 0.399479257885455 
774	 0.399434370321362 
775	 0.399415808782197 
776	 0.399456071282859 
777	 0.399371144403405 
778	 0.399330692535587 
779	 0.399306732301353 
780	 0.399217410798406 
781	 0.399266769176005 
782	 0.399238131420367 
783	 0.39911675264493 
784	 0.399121604716254 
785	 0.399040418590795 
786	 0.398912975356291 
787	 0.398818919691644 
788	 0.398819753037945 
789	 0.398809530352048 
790	 0.398742905081479 
791	 0.398608554374621 
792	 0.398409699766601 
793	 0.3983359500755 
794	 0.398389993152184 
795	 0.398401794911028 
796	 0.398283682624715 
797	 0.398167048933174 
798	 0.398117270120503 
799	 0.398007953657736 
800	 0.397928465938029 
801	 0.397818928548753 
802	 0.397644808530449 
803	 0.397640067754981 
804	 0.397652814761228 
805	 0.397609515538377 
806	 0.397506417858792 
807	 0.397418815370872 
808	 0.39732217171707 
809	 0.397208771835041 
810	 0.397107198916834 
811	 0.397061848708007 
812	 0.397013531033285 
813	 0.396917914200715 
814	 0.396838013229958 
815	 0.396738375053962 
816	 0.396687908912282 
817	 0.396743029921039 
818	 0.396668415415886 
819	 0.39658430700332 
820	 0.396520724920605 
821	 0.396422000701531 
822	 0.396379276205471 
823	 0.396357518437093 
824	 0.39629933242407 
825	 0.39614202018769 
826	 0.396117818604788 
827	 0.396146819501176 
828	 0.396121353282153 
829	 0.3961630158236 
830	 0.396057174595352 
831	 0.395929146092536 
832	 0.396015523791428 
833	 0.396130296657834 
834	 0.396117921048209 
835	 0.395989408070575 
836	 0.395913623805811 
837	 0.39598665601603 
838	 0.39606092277226 
839	 0.396049167068069 
840	 0.396042092720443 
841	 0.396052403015714 
842	 0.396031398436391 
843	 0.39595800519643 
844	 0.3959478183204 
845	 0.396033767619397 
846	 0.396098035853783 
847	 0.396011022931879 
848	 0.395997163093986 
849	 0.396079958649769 
850	 0.396229949667136 
851	 0.396375218046673 
852	 0.396403950950909 
853	 0.396395049783211 
854	 0.396418338334315 
855	 0.396482741225317 
856	 0.39658500967428 
857	 0.396721423509886 
858	 0.396838213982315 
859	 0.396739832666438 
860	 0.396750070942733 
861	 0.396926012680131 
862	 0.397169845125576 
863	 0.397221249096054 
864	 0.397242604586271 
865	 0.397369664504826 
866	 0.397650874978903 
867	 0.397770505077458 
868	 0.397726455449964 
869	 0.397673610464192 
870	 0.397860597243463 
871	 0.398077458152421 
872	 0.398336618127419 
873	 0.398605165072779 
874	 0.398728405522177 
875	 0.398789688729116 
876	 0.39881141397961 
877	 0.398852582445045 
878	 0.399106148686105 
879	 0.399385295124308 
880	 0.399565878957536 
881	 0.399639631669837 
882	 0.399945270531737 
883	 0.400225080058033 
884	 0.400418633696 
885	 0.400605905313915 
886	 0.400922401784727 
887	 0.401199513419803 
888	 0.401402929848178 
889	 0.401632129963104 
890	 0.401897178474542 
891	 0.402155776813816 
892	 0.402368290978627 
893	 0.402516449500509 
894	 0.402697925857947 
895	 0.402925484599189 
896	 0.403220048394653 
897	 0.403651673775898 
898	 0.403983593331523 
899	 0.404250530927225 
900	 0.404527958509273 
901	 0.40477970069577 
902	 0.405045776783241 
903	 0.405342852248952 
904	 0.405673675763608 
905	 0.406033915063829 
906	 0.40636993256253 
907	 0.406652312937927 
908	 0.406904071181951 
909	 0.407312201340386 
910	 0.407731653436344 
911	 0.408149504878654 
912	 0.408612261362811 
913	 0.408852446902845 
914	 0.409133508666258 
915	 0.40953809250223 
916	 0.409956019017062 
917	 0.41051100521041 
918	 0.410942060372125 
919	 0.41120638727215 
920	 0.41155657476808 
921	 0.412004749039753 
922	 0.412451165914344 
923	 0.412864931065419 
924	 0.413346619834253 
925	 0.413785854411287 
926	 0.414218501956141 
927	 0.414664591401858 
928	 0.415056212335029 
929	 0.415569696555175 
930	 0.416072978439875 
931	 0.41648042670677 
932	 0.416996082859092 
933	 0.417583527627093 
934	 0.418047179535828 
935	 0.418326400152095 
936	 0.418871037135635 
937	 0.419442502935978 
938	 0.420029339187402 
939	 0.420672162349613 
940	 0.421351847848736 
941	 0.421887497606561 
942	 0.422340357117483 
943	 0.422826480101153 
944	 0.423222867560831 
945	 0.42369301261395 
946	 0.424335062390406 
947	 0.42510045418601 
948	 0.425525256522875 
949	 0.425956343357006 
950	 0.426467957805802 
951	 0.426998186769137 
952	 0.42765774791253 
953	 0.42831333860664 
954	 0.428904622134265 
955	 0.429430879439296 
956	 0.429893551132758 
957	 0.430505089280799 
958	 0.431161942909638 
959	 0.43161314412981 
960	 0.431969472070298 
961	 0.432590859357779 
962	 0.433455696951679 
963	 0.434255953571606 
964	 0.434725892290738 
965	 0.435286184310354 
966	 0.435978382582883 
967	 0.436602579868519 
968	 0.437413297514096 
969	 0.43814466112516 
970	 0.438736158209116 
971	 0.439317865304782 
972	 0.44006031249877 
973	 0.440841560888499 
974	 0.441594760587106 
975	 0.442305310567092 
976	 0.442900031701793 
977	 0.443559355998996 
978	 0.44420706233141 
979	 0.444674033175439 
980	 0.445341768643124 
981	 0.445925858655174 
982	 0.446445552028259 
983	 0.447096435183519 
984	 0.447772263317402 
985	 0.448529303981385 
986	 0.449293502425707 
987	 0.449939327100412 
988	 0.450475772232925 
989	 0.451141355005948 
990	 0.451948244024569 
991	 0.452746025188329 
992	 0.453332541475428 
993	 0.453854337915248 
994	 0.454356373937567 
995	 0.454878552929677 
996	 0.455671939265132 
997	 0.456343177733552 
998	 0.456922376386725 
999	 0.457577315520593 
1000	 0.458262906059775 
1001	 0.462433521028654 
1002	 0.46293684980031 
1003	 0.46340260180419 
1004	 0.463905105180207 
1005	 0.464388621675874 
1006	 0.464897858202553 
1007	 0.465443876411194 
1008	 0.465994722210692 
1009	 0.46650253060181 
1010	 0.467081113519893 
1011	 0.467616131912428 
1012	 0.468113469271796 
1013	 0.468620158293703 
1014	 0.469099506694644 
1015	 0.469559052578017 
1016	 0.47000450050507 
1017	 0.470459837266928 
1018	 0.470919666476265 
1019	 0.471354955121383 
1020	 0.471810855648513 
1021	 0.47225395796218 
1022	 0.472607482574203 
1023	 0.472953565657833 
1024	 0.473315369333057 
1025	 0.47373992279491 
1026	 0.474225965159343 
1027	 0.474681015019725 
1028	 0.475102313546415 
1029	 0.475458144168727 
1030	 0.475846700877934 
1031	 0.476240714434275 
1032	 0.476649370333189 
1033	 0.477034644754735 
1034	 0.477470621153979 
1035	 0.477828695826443 
1036	 0.478174942523023 
1037	 0.478613566964452 
1038	 0.478967861428407 
1039	 0.479261620079988 
1040	 0.479587687229704 
1041	 0.479886202657495 
1042	 0.480206238641192 
1043	 0.480612493384516 
1044	 0.480997434580985 
1045	 0.481419940583459 
1046	 0.481780462487342 
1047	 0.482141384509847 
1048	 0.482505318113158 
1049	 0.482839200201 
1050	 0.483163343856508 
1051	 0.483481948879036 
1052	 0.483822409744346 
1053	 0.484210866326856 
1054	 0.484591778405835 
1055	 0.484950715157479 
1056	 0.485243446101806 
1057	 0.485565561222597 
1058	 0.485857645723855 
1059	 0.486203813933899 
1060	 0.486581245955936 
1061	 0.486987192990204 
1062	 0.487373332742206 
1063	 0.487623565461802 
1064	 0.487860680275401 
1065	 0.488171719357953 
1066	 0.488441957524993 
1067	 0.488751378969859 
1068	 0.489089480685509 
1069	 0.489339601878494 
1070	 0.489620569815048 
1071	 0.489884489326986 
1072	 0.490181164296689 
1073	 0.49054599707374 
1074	 0.490837673717497 
1075	 0.491103814902873 
1076	 0.49134988019106 
1077	 0.491598914471435 
1078	 0.491799026366713 
1079	 0.492027823669946 
1080	 0.492315453508015 
1081	 0.492518197671248 
1082	 0.492684644146663 
1083	 0.492896920535651 
1084	 0.493113471715023 
1085	 0.493303333797157 
1086	 0.49352626889398 
1087	 0.49372260764096 
1088	 0.493870122670663 
1089	 0.494031454534565 
1090	 0.494269579090926 
1091	 0.494492406897434 
1092	 0.494701540700593 
1093	 0.494897430129536 
1094	 0.495033161903231 
1095	 0.495167693020033 
1096	 0.495327254292065 
1097	 0.495492488133591 
1098	 0.495679610129282 
1099	 0.495899484931406 
1100	 0.4961117384062 
1101	 0.496347698644721 
1102	 0.496553260089179 
1103	 0.496755188804906 
1104	 0.496931980889975 
1105	 0.497129082696293 
1106	 0.497342015275893 
1107	 0.497552163375037 
1108	 0.497761546721996 
1109	 0.497961959390238 
1110	 0.4981573698242 
1111	 0.498366208800836 
1112	 0.498606818981014 
1113	 0.498817281715368 
1114	 0.498995133150052 
1115	 0.499214822676275 
1116	 0.499437749683193 
1117	 0.499683649195075 
1118	 0.499984378284585 
1119	 0.500232216656325 
1120	 0.500470745824916 
1121	 0.500744361476202 
1122	 0.500994200345998 
1123	 0.501252567756148 
1124	 0.501500876933179 
1125	 0.501757515008442 
1126	 0.50199704755851 
1127	 0.5022041642221 
1128	 0.502446092747834 
1129	 0.502698856561233 
1130	 0.502947623458989 
1131	 0.503232486809021 
1132	 0.503476968978911 
1133	 0.503699647712448 
1134	 0.50392348568015 
1135	 0.504122142287793 
1136	 0.504328856062282 
1137	 0.504536845036342 
1138	 0.504724501531958 
1139	 0.504929104054239 
1140	 0.505137914465176 
1141	 0.505324433166906 
1142	 0.505510701890982 
1143	 0.505700659426314 
1144	 0.505874902252835 
1145	 0.506050437259702 
1146	 0.506238447356162 
1147	 0.506413758455449 
1148	 0.506593792519422 
1149	 0.506739592569669 
1150	 0.506866002242872 
1151	 0.506989014932338 
1152	 0.507083276506026 
1153	 0.507188893437102 
1154	 0.507307348364107 
1155	 0.507442850052877 
1156	 0.507576210778429 
1157	 0.507706401448724 
1158	 0.507851554063964 
1159	 0.508021984385621 
1160	 0.508163858607762 
1161	 0.508302528970702 
1162	 0.508440156871438 
1163	 0.50856546859992 
1164	 0.508687180431482 
1165	 0.508817117831928 
1166	 0.508932838309367 
1167	 0.509019309417226 
1168	 0.509118252181889 
1169	 0.509228921483557 
1170	 0.509336477610979 
1171	 0.509462170569307 
1172	 0.509620250987501 
1173	 0.509747561952888 
1174	 0.509869307193059 
1175	 0.509989470255703 
1176	 0.510108810362855 
1177	 0.510206239211173 
1178	 0.510287817790612 
1179	 0.510380334820228 
1180	 0.510446167662616 
1181	 0.51053274994326 
1182	 0.510645534268136 
1183	 0.510753263277485 
1184	 0.510853130482032 
1185	 0.510949107317978 
1186	 0.511055035061765 
1187	 0.511163465459067 
1188	 0.511264725848602 
1189	 0.511380342256946 
1190	 0.511471035701425 
1191	 0.511527069942968 
1192	 0.511613932534952 
1193	 0.511707114572896 
1194	 0.511799249646535 
1195	 0.511910360714557 
1196	 0.512011798419592 
1197	 0.51210361917802 
1198	 0.512196602281795 
1199	 0.512289344725687 
1200	 0.512383533437165 
1201	 0.512476930959286 
1202	 0.512568784190193 
1203	 0.512660031601324 
1204	 0.512757655224776 
1205	 0.512840663946786 
1206	 0.512910404415619 
1207	 0.512991078344157 
1208	 0.513057331346569 
1209	 0.513148109063752 
1210	 0.513261639142196 
1211	 0.513366516273001 
1212	 0.513492848415027 
1213	 0.513596016002256 
1214	 0.513675639086458 
1215	 0.513766741200162 
1216	 0.513857181003636 
1217	 0.513951743822851 
1218	 0.514013677788533 
1219	 0.514061870356666 
1220	 0.514122749151462 
1221	 0.514152846140625 
1222	 0.514214450046252 
1223	 0.514313703002268 
1224	 0.514387553378996 
1225	 0.514449200675966 
1226	 0.514520183649745 
1227	 0.51460051078208 
1228	 0.51466562157792 
1229	 0.514719205281661 
1230	 0.514783558698502 
1231	 0.514829001229742 
1232	 0.514897307734415 
1233	 0.514979992774635 
1234	 0.515097567477272 
1235	 0.515167035870235 
1236	 0.515229833976642 
1237	 0.515290387770862 
1238	 0.5153284949545 
1239	 0.515368982018439 
1240	 0.51541747259129 
1241	 0.515455940127161 
1242	 0.51545654644894 
1243	 0.51549956736216 
1244	 0.51557611941813 
1245	 0.515630979456963 
1246	 0.515702534375703 
1247	 0.5157608336898 
1248	 0.515802398542741 
1249	 0.515833226640334 
1250	 0.515887478052602 
1251	 0.515936866738552 
1252	 0.515994951465857 
1253	 0.516061504443825 
1254	 0.516126550655846 
1255	 0.516191395809211 
1256	 0.516262169612143 
1257	 0.516348703892566 
1258	 0.516412513277035 
1259	 0.516475716513141 
1260	 0.516525872774841 
1261	 0.51654472171155 
1262	 0.516584133397633 
1263	 0.516623972824427 
1264	 0.51667139549779 
1265	 0.516737155435474 
1266	 0.516791660229546 
1267	 0.516833457972184 
1268	 0.516893071818141 
1269	 0.516954848596067 
1270	 0.517018734793619 
1271	 0.517073289015897 
1272	 0.517133869700938 
1273	 0.51719038976935 
1274	 0.517232739463136 
1275	 0.517290333828199 
1276	 0.517363288066623 
1277	 0.517422448423027 
1278	 0.517477073382227 
1279	 0.517529451607122 
1280	 0.517574613476858 
1281	 0.517627118086931 
1282	 0.517682682691644 
1283	 0.517733669578869 
1284	 0.517775409363132 
1285	 0.517828595854292 
1286	 0.517904498227533 
1287	 0.518000204696692 
1288	 0.518077423861482 
1289	 0.518171763036534 
1290	 0.518254153216304 
1291	 0.518312249572191 
1292	 0.518390937509075 
1293	 0.518499288977753 
1294	 0.518567276536096 
1295	 0.518614999905878 
1296	 0.518668237555973 
1297	 0.518706868217577 
1298	 0.51875073388303 
1299	 0.51882014496545 
1300	 0.518842609852744 
1301	 0.518830685159599 
1302	 0.518827409237957 
1303	 0.51879275432384 
1304	 0.518772489210597 
1305	 0.518791747264923 
1306	 0.518770175427371 
1307	 0.518752025701098 
1308	 0.518705269997273 
1309	 0.518637571334341 
1310	 0.518541498606835 
1311	 0.51844208653285 
1312	 0.518305109829348 
1313	 0.518211623671121 
1314	 0.518131416450077 
1315	 0.518042726151609 
1316	 0.517961014000402 
1317	 0.517892621719784 
1318	 0.517830699275272 
1319	 0.51775689002771 
1320	 0.517705814935619 
1321	 0.517635434908593 
1322	 0.517535272622727 
1323	 0.517434679024158 
1324	 0.517380956788049 
1325	 0.517334059494396 
1326	 0.5173054580593 
1327	 0.517288777203978 
1328	 0.517229702426115 
1329	 0.517173808613373 
1330	 0.517139434720107 
1331	 0.517099562996663 
1332	 0.517080470429382 
1333	 0.51709104376535 
1334	 0.517095897969445 
1335	 0.51709623539277 
1336	 0.51712346393086 
1337	 0.517166500529977 
1338	 0.517214053811485 
1339	 0.517288898874791 
1340	 0.517343269841986 
1341	 0.517389597733092 
1342	 0.517443449801667 
1343	 0.517501399160213 
1344	 0.517550552744062 
1345	 0.517587627809639 
1346	 0.517620855928697 
1347	 0.517624779559604 
1348	 0.517613338265652 
1349	 0.517616049023802 
1350	 0.517594935819183 
1351	 0.51756774336063 
1352	 0.517527146235712 
1353	 0.517495845319212 
1354	 0.517469000930617 
1355	 0.517417099200004 
1356	 0.517347651152913 
1357	 0.51729997302217 
1358	 0.517218634419143 
1359	 0.517185429591762 
1360	 0.517196007593048 
1361	 0.517199984629213 
1362	 0.517216972524792 
1363	 0.51724408506111 
1364	 0.517284530304799 
1365	 0.517322182593537 
1366	 0.517366582247367 
1367	 0.517419144791451 
1368	 0.51747119445746 
1369	 0.517493908972524 
1370	 0.517471508787826 
1371	 0.517423844627855 
1372	 0.517343268505761 
1373	 0.517232238153103 
1374	 0.517092626532588 
1375	 0.516961765747857 
1376	 0.516720660469837 
1377	 0.516414390448718 
1378	 0.51606923554957 
1379	 0.5156265846245 
1380	 0.515211731887106 
1381	 0.514772396945496 
1382	 0.514319465790473 
1383	 0.513892825102341 
1384	 0.513386555222547 
1385	 0.51289321554246 
1386	 0.512271276920102 
1387	 0.511607003308811 
1388	 0.510791658350781 
1389	 0.509887113977965 
1390	 0.508834117203707 
1391	 0.507588475080337 
1392	 0.506206668411794 
1393	 0.504640597589073 
1394	 0.50297173404653 
1395	 0.501245771740371 
1396	 0.499468582204426 
1397	 0.497719158759349 
1398	 0.495917462779621 
1399	 0.49419944666689 
1400	 0.49248377503388 
1401	 0.490857249212156 
1402	 0.489243249742671 
1403	 0.487794241380829 
1404	 0.486419403159369 
1405	 0.485186569477504 
1406	 0.48408905025718 
1407	 0.483088972216742 
1408	 0.482095687526098 
1409	 0.481411056649176 
1410	 0.480803030250456 
1411	 0.480577128823709 
1412	 0.480638758350968 
1413	 0.480987771464182 
1414	 0.481656390301502 
1415	 0.482592064890256 
1416	 0.48376186925559 
1417	 0.485087092466983 
1418	 0.486501136174794 
1419	 0.487918967620234 
1420	 0.489323447006916 
1421	 0.49067326491455 
1422	 0.491888908607239 
1423	 0.49299128929425 
1424	 0.49390758012284 
1425	 0.494630837403322 
1426	 0.495300706506612 
1427	 0.49580143253132 
1428	 0.496300028629371 
1429	 0.496741530934245 
1430	 0.49711110687212 
1431	 0.497426826038777 
1432	 0.497667821740935 
1433	 0.497805950286026 
1434	 0.497945214757778 
1435	 0.498004825507842 
1436	 0.498087816266358 
1437	 0.498182176194478 
1438	 0.498241426933707 
1439	 0.498275506330091 
1440	 0.498312136114899 
1441	 0.498326517789653 
1442	 0.498327725398312 
1443	 0.498334322582099 
1444	 0.498332884969615 
1445	 0.498341688872727 
1446	 0.498335591791638 
1447	 0.498311769265278 
1448	 0.498299563210795 
1449	 0.498265066394257 
1450	 0.498212070464209 
1451	 0.498177526688892 
1452	 0.498154551158383 
1453	 0.498122362399452 
1454	 0.498100147006442 
1455	 0.49804905277645 
1456	 0.497988938990987 
1457	 0.497907871327586 
1458	 0.497779148028615 
1459	 0.497706144563682 
1460	 0.497619498425078 
1461	 0.497586111226732 
1462	 0.497626614745377 
1463	 0.497625908225873 
1464	 0.497639468570307 
1465	 0.49764511813064 
1466	 0.497609617632902 
1467	 0.49762099103784 
1468	 0.497638071569401 
1469	 0.497690123342662 
1470	 0.497791170932472 
1471	 0.497890888530937 
1472	 0.497980071642251 
1473	 0.498098547433753 
1474	 0.498166331830402 
1475	 0.498256456473368 
1476	 0.498395747867573 
1477	 0.498547250157643 
1478	 0.498754092434561 
1479	 0.498947489634719 
1480	 0.499098703600206 
1481	 0.499244710905392 
1482	 0.499377159430966 
1483	 0.499472384863614 
1484	 0.499598991609722 
1485	 0.499738032918316 
1486	 0.499864643261047 
1487	 0.499987896491199 
1488	 0.500115638681768 
1489	 0.500243563501799 
1490	 0.500366939690802 
1491	 0.500498670839081 
1492	 0.50061972539339 
1493	 0.500717251900799 
1494	 0.500840089031406 
1495	 0.500979648192166 
1496	 0.501097941328943 
1497	 0.501242031487171 
1498	 0.501342383127927 
1499	 0.501404249959144 
1500	 0.501471024849157 
1501	 0.501503872045546 
1502	 0.501552913455438 
1503	 0.50160209590479 
1504	 0.501655961127013 
1505	 0.501741416856884 
1506	 0.501832355584585 
1507	 0.501913381571635 
1508	 0.501997679614921 
1509	 0.502055847212751 
1510	 0.502104472393103 
1511	 0.502165653413771 
1512	 0.502239194244447 
1513	 0.50232077963212 
1514	 0.50241006588284 
1515	 0.5025210556835 
1516	 0.502626072552757 
1517	 0.502703329268291 
1518	 0.502770830000025 
1519	 0.502833349897812 
1520	 0.502863555201497 
1521	 0.502915912728096 
1522	 0.502989161198867 
1523	 0.503033695736726 
1524	 0.503053193403813 
1525	 0.503101059621887 
1526	 0.5031501586922 
1527	 0.503199641218082 
1528	 0.503279466041058 
1529	 0.503327986162437 
1530	 0.503351193077995 
1531	 0.50337915775103 
1532	 0.503400216286421 
1533	 0.503423268726108 
1534	 0.503451764978376 
1535	 0.503468307342259 
1536	 0.503448159302006 
1537	 0.503480437246067 
1538	 0.503524963678367 
1539	 0.503585473816182 
1540	 0.503713906610912 
1541	 0.503799790192239 
1542	 0.503867911356683 
1543	 0.503938591497227 
1544	 0.50399283430638 
1545	 0.504052665328607 
1546	 0.504117609245003 
1547	 0.504172162545575 
1548	 0.504245052447002 
1549	 0.50431539810854 
1550	 0.504365684018296 
1551	 0.504427893303767 
1552	 0.504465744977066 
1553	 0.504482274127313 
1554	 0.504505236533971 
1555	 0.504512520189821 
1556	 0.504508541420342 
1557	 0.504517301618892 
1558	 0.504546972056219 
1559	 0.504585134260204 
1560	 0.504613302338807 
1561	 0.504648429169529 
1562	 0.504682427407212 
1563	 0.504698309684934 
1564	 0.504747632496861 
1565	 0.50482991934591 
1566	 0.504885179807334 
1567	 0.504943133627627 
1568	 0.504986804069399 
1569	 0.505019345242814 
1570	 0.505042548536976 
1571	 0.505059477162065 
1572	 0.505070297307971 
1573	 0.505057662623286 
1574	 0.505062984143055 
1575	 0.505069850444747 
1576	 0.505087128265467 
1577	 0.505115328227553 
1578	 0.505142839534158 
1579	 0.505174513694193 
1580	 0.5052106948739 
1581	 0.50526127248601 
1582	 0.505290824356718 
1583	 0.50531653931254 
1584	 0.505334954478674 
1585	 0.505338847634266 
1586	 0.505338066950208 
1587	 0.505333532835689 
1588	 0.505325371325591 
1589	 0.505299456052611 
1590	 0.50528683399764 
1591	 0.505289888104176 
1592	 0.505278789569599 
1593	 0.505266394376054 
1594	 0.505246407892573 
1595	 0.505203645089052 
1596	 0.505174289587358 
1597	 0.505158716306229 
1598	 0.50512804833383 
1599	 0.505089959420684 
1600	 0.505061488386626 
1601	 0.505008581101801 
1602	 0.504989537583591 
1603	 0.505011401231015 
1604	 0.505013965270806 
1605	 0.505030890536269 
1606	 0.505037146033793 
1607	 0.505026718246991 
1608	 0.505010918072287 
1609	 0.505034146850823 
1610	 0.505022243978342 
1611	 0.504999520092206 
1612	 0.504990473940932 
1613	 0.504952701618256 
1614	 0.504920938341884 
1615	 0.504887395950415 
1616	 0.50487028769399 
1617	 0.504892392719562 
1618	 0.504895690657439 
1619	 0.504909493481402 
1620	 0.504923125057063 
1621	 0.504911388665291 
1622	 0.504869672208067 
1623	 0.504839259671177 
1624	 0.504814733106589 
1625	 0.50475468005937 
1626	 0.504666312079569 
1627	 0.504605468260625 
1628	 0.504526306509731 
1629	 0.504478091700957 
1630	 0.504458643609234 
1631	 0.504433882194414 
1632	 0.504414113524534 
1633	 0.504394316416589 
1634	 0.504388447230754 
1635	 0.504367227833253 
1636	 0.504340519120632 
1637	 0.504307627530978 
1638	 0.504264116977825 
1639	 0.504230067920076 
1640	 0.50418880686458 
1641	 0.504162445653745 
1642	 0.504166471394942 
1643	 0.504118466628868 
1644	 0.504048608810151 
1645	 0.503987840669796 
1646	 0.503896276382804 
1647	 0.503824901213266 
1648	 0.503783716193403 
1649	 0.503706993462352 
1650	 0.503595796711533 
1651	 0.503524373761882 
1652	 0.503449282943455 
1653	 0.503402083576567 
1654	 0.50339626395282 
1655	 0.503367005108384 
1656	 0.503357412098692 
1657	 0.503301387220777 
1658	 0.503207169454747 
1659	 0.503143460880718 
1660	 0.503053359713999 
1661	 0.503002711301955 
1662	 0.502999282357183 
1663	 0.50296577646208 
1664	 0.502939953849765 
1665	 0.50288918273527 
1666	 0.502825198699247 
1667	 0.502748396530886 
1668	 0.502647504607154 
1669	 0.502555100755423 
1670	 0.502436484015877 
1671	 0.502364206025433 
1672	 0.502308861817822 
1673	 0.502268540430969 
1674	 0.502273164556758 
1675	 0.50224896289537 
1676	 0.502240480052318 
1677	 0.502186222454945 
1678	 0.502112965684501 
1679	 0.502013879473 
1680	 0.501852218103859 
1681	 0.501740382287781 
1682	 0.501623975568153 
1683	 0.501535674934885 
1684	 0.501480321177379 
1685	 0.501424799296418 
1686	 0.501384263985971 
1687	 0.50133660233154 
1688	 0.501302300992086 
1689	 0.501253785698694 
1690	 0.501203381939538 
1691	 0.501136527724962 
1692	 0.501054116381356 
1693	 0.500977544731705 
1694	 0.500887430652578 
1695	 0.500805546682381 
1696	 0.500720701018196 
1697	 0.500655196812008 
1698	 0.500604031982892 
1699	 0.500545167719021 
1700	 0.50049446478217 
1701	 0.500450647854775 
1702	 0.500409047720856 
1703	 0.500357521500469 
1704	 0.500322028840107 
1705	 0.500260751893683 
1706	 0.500171380608039 
1707	 0.500089032135094 
1708	 0.500011967386774 
1709	 0.499916611148564 
1710	 0.499802048886955 
1711	 0.499698961608647 
1712	 0.499580679991109 
1713	 0.499483859543284 
1714	 0.499401573990315 
1715	 0.499322003796983 
1716	 0.49924919588828 
1717	 0.499180920197854 
1718	 0.499138679953537 
1719	 0.49905366609922 
1720	 0.498964652893294 
1721	 0.498850002164224 
1722	 0.498680998228715 
1723	 0.498550906930707 
1724	 0.49844149975213 
1725	 0.498298467197056 
1726	 0.498148581478594 
1727	 0.498002813682482 
1728	 0.497812411873371 
1729	 0.497674832738524 
1730	 0.497577478843631 
1731	 0.497470862214349 
1732	 0.497397430975792 
1733	 0.497285272663981 
1734	 0.497157064361621 
1735	 0.497012561526884 
1736	 0.496838495148344 
1737	 0.496677595370706 
1738	 0.496511045214396 
1739	 0.496362489774594 
1740	 0.496219019631665 
1741	 0.496082904505493 
1742	 0.49595055720267 
1743	 0.495831509325589 
1744	 0.495725675830835 
1745	 0.495624957869069 
1746	 0.495560340431923 
1747	 0.495422772453267 
1748	 0.495249378812575 
1749	 0.495081260105331 
1750	 0.49491971155728 
1751	 0.494786742884319 
1752	 0.494646771445055 
1753	 0.494483994240298 
1754	 0.494325470747383 
1755	 0.494180565361946 
1756	 0.494057886456076 
1757	 0.493944937098642 
1758	 0.493822768363219 
1759	 0.493679699640186 
1760	 0.493559786229512 
1761	 0.493450643389828 
1762	 0.493337974280581 
1763	 0.49322216089274 
1764	 0.493067293368713 
1765	 0.492904105206858 
1766	 0.49272500586724 
1767	 0.492557363760457 
1768	 0.492442398713846 
1769	 0.492348021497081 
1770	 0.492242026112694 
1771	 0.492147194710198 
1772	 0.492047161233182 
1773	 0.491924529651018 
1774	 0.491830686662578 
1775	 0.491715978739665 
1776	 0.491593088215097 
1777	 0.491495510873538 
1778	 0.491377672565151 
1779	 0.491272986037801 
1780	 0.49117529253234 
1781	 0.491069814442285 
1782	 0.490981003377991 
1783	 0.490973396749114 
1784	 0.490916685190325 
1785	 0.490849472249797 
1786	 0.490779497150639 
1787	 0.490664851962657 
1788	 0.490563618489657 
1789	 0.490470252449659 
1790	 0.490390284480054 
1791	 0.490313743422976 
1792	 0.490255862756446 
1793	 0.490255855230815 
1794	 0.490173637507757 
1795	 0.490048385923683 
1796	 0.489942079460777 
1797	 0.489765267879268 
1798	 0.48968027745628 
1799	 0.489660125920567 
1800	 0.489608806635605 
1801	 0.489428711907199 
1802	 0.489642102552072 
1803	 0.489888842363227 
1804	 0.490187562669332 
1805	 0.49043882271349 
1806	 0.490623268616478 
1807	 0.49082599079004 
1808	 0.490946185078633 
1809	 0.490975691929468 
1810	 0.491009999406238 
1811	 0.491026181947096 
1812	 0.490993703198468 
1813	 0.490928439057341 
1814	 0.490899419123627 
1815	 0.49083805059716 
1816	 0.490730637030093 
1817	 0.490650423447387 
1818	 0.490563866155758 
1819	 0.490484420157394 
1820	 0.490412380212348 
1821	 0.490339756170741 
1822	 0.490275497216442 
1823	 0.490241244880772 
1824	 0.490199663478747 
1825	 0.490145691313926 
1826	 0.490075201975076 
1827	 0.489965601587329 
1828	 0.489853179309985 
1829	 0.489727543854803 
1830	 0.489607440357889 
1831	 0.489490063721767 
1832	 0.489336613922071 
1833	 0.489187388333558 
1834	 0.489005185584174 
1835	 0.488803288757722 
1836	 0.488625028268868 
1837	 0.488474450693867 
1838	 0.488327291370535 
1839	 0.488203137286748 
1840	 0.488102880634734 
1841	 0.488026727947433 
1842	 0.487934530928978 
1843	 0.487885605456898 
1844	 0.487904464252989 
1845	 0.487890312823913 
1846	 0.487902491962814 
1847	 0.487939029464536 
1848	 0.487874936517218 
1849	 0.487798699424132 
1850	 0.48774323925901 
1851	 0.487685188188204 
1852	 0.487602040727153 
1853	 0.487542545344796 
1854	 0.487504145215358 
1855	 0.487442777527523 
1856	 0.487343925531332 
1857	 0.487282924877651 
1858	 0.487199848436875 
1859	 0.487062761748117 
1860	 0.48689928577846 
1861	 0.486724121078014 
1862	 0.486475059041585 
1863	 0.486169255085282 
1864	 0.485845247518142 
1865	 0.485487040553064 
1866	 0.485060506538052 
1867	 0.484633180634913 
1868	 0.484183813571885 
1869	 0.483697289598525 
1870	 0.483229790722396 
1871	 0.482763942578245 
1872	 0.482288806781028 
1873	 0.481842126725605 
1874	 0.481415502710513 
1875	 0.480995471174029 
1876	 0.480543031903408 
1877	 0.480045744744477 
1878	 0.47945948039147 
1879	 0.478756048559256 
1880	 0.477920455910365 
1881	 0.476958114972341 
1882	 0.475883973966154 
1883	 0.474691829687582 
1884	 0.473365041684017 
1885	 0.471949367514589 
1886	 0.470483654212881 
1887	 0.468884914773803 
1888	 0.467188405097982 
1889	 0.465389651798669 
1890	 0.463485173845856 
1891	 0.461525709913504 
1892	 0.459431757707203 
1893	 0.457358555755617 
1894	 0.455238961403145 
1895	 0.453085282820799 
1896	 0.450938977999025 
1897	 0.448808835002649 
1898	 0.446644495615459 
1899	 0.444547129104937 
1900	 0.442564801968211 
1901	 0.440677939959075 
1902	 0.438949705263993 
1903	 0.437437003674212 
1904	 0.43595739342213 
1905	 0.434562801261233 
1906	 0.433297851727137 
1907	 0.432117436864757 
1908	 0.430983035878695 
1909	 0.429948917301359 
1910	 0.428957749230886 
1911	 0.428019456793104 
1912	 0.427113588499441 
1913	 0.426262128836953 
1914	 0.425452682261978 
1915	 0.424709581669829 
1916	 0.424006792245156 
1917	 0.423388807770533 
1918	 0.422842086775673 
1919	 0.422328166907931 
1920	 0.421896868425975 
1921	 0.421501708037736 
1922	 0.421132776610439 
1923	 0.420848356670152 
1924	 0.42060029348786 
1925	 0.420415912389653 
1926	 0.420241315590538 
1927	 0.420112544990181 
1928	 0.420000766076708 
1929	 0.419901933699918 
1930	 0.41981760591697 
1931	 0.419749697319595 
1932	 0.419689765680462 
1933	 0.419642783420429 
1934	 0.419624077683029 
1935	 0.419639184572967 
1936	 0.419682461134131 
1937	 0.419756940750972 
1938	 0.419853108866537 
1939	 0.42000013538175 
1940	 0.420190866984465 
1941	 0.420407436132705 
1942	 0.420672364795625 
1943	 0.420961894565334 
1944	 0.421227102108517 
1945	 0.421504309088578 
1946	 0.421776948848453 
1947	 0.422042572364424 
1948	 0.422309569813855 
1949	 0.422578366255932 
1950	 0.422845778645067 
1951	 0.42312032479501 
1952	 0.423376736163542 
1953	 0.423611157965169 
1954	 0.423897356620936 
1955	 0.424180821561748 
1956	 0.424473431836717 
1957	 0.424797451099179 
1958	 0.425163124207055 
1959	 0.425511601039336 
1960	 0.425879645349736 
1961	 0.426237884983296 
1962	 0.4265666395079 
1963	 0.426945810139338 
1964	 0.427357460901617 
1965	 0.427761012708631 
1966	 0.428186318558265 
1967	 0.428624002040497 
1968	 0.429037511558862 
1969	 0.429431663998111 
1970	 0.429828926799411 
1971	 0.430221521603994 
1972	 0.430611023421448 
1973	 0.430984864340189 
1974	 0.431372081059758 
1975	 0.43175677558065 
1976	 0.432158679285226 
1977	 0.432570866662747 
1978	 0.432999639233252 
1979	 0.433422893836788 
1980	 0.433875805741509 
1981	 0.434319212784546 
1982	 0.434758093612416 
1983	 0.435207242376227 
1984	 0.435678761802019 
1985	 0.436122925607273 
1986	 0.436576440391121 
1987	 0.436999294782251 
1988	 0.437383182661278 
1989	 0.437778465565876 
1990	 0.438179161531914 
1991	 0.43856498212241 
1992	 0.43897772674803 
1993	 0.439422192388052 
1994	 0.439842986558257 
1995	 0.440265212940076 
1996	 0.440679701473058 
1997	 0.44109490351576 
1998	 0.441493416932466 
1999	 0.441853136760375 
2000	 0.442255095028815 
2001	 0.442668915925507 
2002	 0.443076556022666 
2003	 0.443524328625584 
2004	 0.444009307095041 
2005	 0.444461159790511 
2006	 0.444914591467187 
2007	 0.445354092211385 
2008	 0.445770697673354 
2009	 0.44620240977033 
2010	 0.446629474353607 
2011	 0.447068926734059 
2012	 0.447520921980689 
2013	 0.447971748314352 
2014	 0.44843427432997 
2015	 0.4488942378728 
2016	 0.449342804083867 
2017	 0.449758323476564 
2018	 0.450150169612392 
2019	 0.450498783781956 
2020	 0.450862349069048 
2021	 0.451195040827856 
2022	 0.451560709394277 
2023	 0.451952594976636 
2024	 0.452323702724043 
2025	 0.452693071079285 
2026	 0.453063645057366 
2027	 0.453421243728688 
2028	 0.453796973426785 
2029	 0.454138569739598 
2030	 0.454478497827895 
2031	 0.454801486327457 
2032	 0.455097842130183 
2033	 0.455383250072539 
2034	 0.455644903788557 
2035	 0.455935039464275 
2036	 0.456215155618385 
2037	 0.456505638072096 
2038	 0.456835231761612 
2039	 0.457138422235045 
2040	 0.457429621210052 
2041	 0.457713294147236 
2042	 0.457977095067066 
2043	 0.458236506431339 
2044	 0.458477973008526 
2045	 0.458689230691837 
2046	 0.458915455877697 
2047	 0.459146123263051 
2048	 0.459357166056448 
2049	 0.459564783185864 
2050	 0.459758532621429 
2051	 0.459927498378955 
2052	 0.460103277885763 
2053	 0.460243372655209 
2054	 0.460434977723201 
2055	 0.460672955056212 
2056	 0.460887367469633 
2057	 0.461094061892464 
2058	 0.461335140887312 
2059	 0.461525823531183 
2060	 0.461667885378253 
2061	 0.461824763305651 
2062	 0.461984578680141 
2063	 0.462127471978844 
2064	 0.462251570643518 
2065	 0.462376011058128 
2066	 0.46246799395245 
2067	 0.462595385365683 
2068	 0.462725391754492 
2069	 0.462888241394759 
2070	 0.463040104508178 
2071	 0.463228608521599 
2072	 0.46336623960577 
2073	 0.463480584451254 
2074	 0.463592175807046 
2075	 0.463667464177393 
2076	 0.463780677830049 
2077	 0.463903522652811 
2078	 0.464028822313147 
2079	 0.464189125298062 
2080	 0.464319907616665 
2081	 0.464438597344983 
2082	 0.464549279938162 
2083	 0.464665225909246 
2084	 0.464741841062767 
2085	 0.464809949829807 
2086	 0.464856935539102 
2087	 0.464918736899363 
2088	 0.46496585837605 
2089	 0.465016117258932 
2090	 0.465069259692882 
2091	 0.465128314767215 
2092	 0.465177648748003 
2093	 0.465239430588377 
2094	 0.465326621461573 
2095	 0.465398295254931 
2096	 0.465460934724111 
2097	 0.465528558904379 
2098	 0.46559732428707 
2099	 0.465673962386834 
2100	 0.465713505751727 
2101	 0.46572554655694 
2102	 0.465774183536594 
2103	 0.465793830246534 
2104	 0.46586669325829 
2105	 0.465986975298674 
2106	 0.466106808802839 
2107	 0.466246714113393 
2108	 0.466387335286789 
2109	 0.466542579857878 
2110	 0.466703285229793 
2111	 0.466876236872149 
2112	 0.467042234992966 
2113	 0.467222575464921 
2114	 0.467387740978787 
2115	 0.467549762933125 
2116	 0.467698564138463 
2117	 0.467855103293369 
2118	 0.468012795864021 
2119	 0.468169107296799 
2120	 0.468317049740797 
2121	 0.468482709253582 
2122	 0.468666805332916 
2123	 0.468826648965853 
2124	 0.468991338067026 
2125	 0.469143862541688 
2126	 0.469284311531962 
2127	 0.469409112127247 
2128	 0.469519589469713 
2129	 0.469629707818352 
2130	 0.469742459679668 
2131	 0.469829068181754 
2132	 0.469872844241294 
2133	 0.469902662390731 
2134	 0.469902879193089 
2135	 0.469849965632484 
2136	 0.469791534676291 
2137	 0.469741717839941 
2138	 0.469636259465226 
2139	 0.469473820074851 
2140	 0.469311321190552 
2141	 0.469120991442849 
2142	 0.468915140700186 
2143	 0.468706659987233 
2144	 0.468462425824661 
2145	 0.468190006192929 
2146	 0.467895096891782 
2147	 0.467567717720338 
2148	 0.467237524833627 
2149	 0.466842012699603 
2150	 0.466408141826826 
2151	 0.465949952231951 
2152	 0.465452928536579 
2153	 0.464908310221851 
2154	 0.464341701703263 
2155	 0.463721399802382 
2156	 0.463002671692556 
2157	 0.462326400967239 
2158	 0.461654243828309 
2159	 0.460942714108148 
2160	 0.460238058608183 
2161	 0.459487881096321 
2162	 0.458718605605306 
2163	 0.45787792041495 
2164	 0.456994384670912 
2165	 0.456055962920712 
2166	 0.455080341921059 
2167	 0.454025686902511 
2168	 0.452981847009897 
2169	 0.451931025344521 
2170	 0.450820068949912 
2171	 0.449670432830843 
2172	 0.448486713425969 
2173	 0.447264821421357 
2174	 0.445995286943084 
2175	 0.444683599870667 
2176	 0.443337411316704 
2177	 0.441935199185811 
2178	 0.440508547145479 
2179	 0.439063697537638 
2180	 0.437568552219548 
2181	 0.436002603748459 
2182	 0.434439733344576 
2183	 0.432860273066317 
2184	 0.431223902385231 
2185	 0.429610589485784 
2186	 0.427972944020604 
2187	 0.426389607535529 
2188	 0.424781142767083 
2189	 0.423279728032027 
2190	 0.421813307750814 
2191	 0.420455292989774 
2192	 0.419135021557358 
2193	 0.417977237529247 
2194	 0.416906870960531 
2195	 0.416004250314487 
2196	 0.415279216856204 
2197	 0.414644693064936 
2198	 0.414148416670728 
2199	 0.413760670999433 
2200	 0.413436628521874 
2201	 0.413298419029037 
2202	 0.413319224532017 
2203	 0.413494836251806 
2204	 0.413767350282441 
2205	 0.414203039584462 
2206	 0.414728962834896 
2207	 0.415338155073833 
2208	 0.416108347986558 
2209	 0.41705402915438 
2210	 0.418053578829273 
2211	 0.419217228251461 
2212	 0.42036738892505 
2213	 0.421629647736859 
2214	 0.422827428655414 
2215	 0.424064049562961 
2216	 0.425229737426852 
2217	 0.426367695543752 
2218	 0.427459958341902 
2219	 0.428519656249148 
2220	 0.429524313693376 
2221	 0.430505332842508 
2222	 0.431397526792332 
2223	 0.432230333164467 
2224	 0.432965418371101 
2225	 0.43365969976154 
2226	 0.434285260258846 
2227	 0.434837947581883 
2228	 0.43532006153041 
2229	 0.435764116310335 
2230	 0.436116348731113 
2231	 0.43646467726482 
2232	 0.436797555017869 
2233	 0.437073362989649 
2234	 0.437287690857371 
2235	 0.437486969982426 
2236	 0.437650361936843 
2237	 0.437782040715896 
2238	 0.437884507435449 
2239	 0.437957899069891 
2240	 0.437986199118465 
2241	 0.438001100650341 
2242	 0.437990713409315 
2243	 0.437962381165171 
2244	 0.437917180596023 
2245	 0.437852240420797 
2246	 0.437736490384571 
2247	 0.437587635148123 
2248	 0.437423255906904 
2249	 0.437204268171768 
2250	 0.437019700020123 
2251	 0.436817577976382 
2252	 0.4366526427905 
2253	 0.436491076752514 
2254	 0.43637587210987 
2255	 0.436307835278 
2256	 0.436237805384339 
2257	 0.436221184181142 
2258	 0.436150996953953 
2259	 0.436027872916247 
2260	 0.435964624513362 
2261	 0.43589807235333 
2262	 0.435864557449721 
2263	 0.435856816303701 
2264	 0.43591072956814 
2265	 0.436024277965384 
2266	 0.436117664328719 
2267	 0.436268041344211 
2268	 0.436411273885643 
2269	 0.436556445531057 
2270	 0.436661402386159 
2271	 0.436800907539147 
2272	 0.436902457089627 
2273	 0.43695689756495 
2274	 0.437039920042311 
2275	 0.437123853595609 
2276	 0.437220669432258 
2277	 0.43729713610584 
2278	 0.437368185580681 
2279	 0.437435666207048 
2280	 0.437474066592337 
2281	 0.437549721466592 
2282	 0.437663369473454 
2283	 0.437743242257781 
2284	 0.437848359522412 
2285	 0.437892660559697 
2286	 0.437873103743293 
2287	 0.437871894958524 
2288	 0.437835096238831 
2289	 0.437837941930621 
2290	 0.437897469353538 
2291	 0.437887717840014 
2292	 0.437879745658758 
2293	 0.43780959484052 
2294	 0.437643161882198 
2295	 0.437511901453894 
2296	 0.437363641035354 
2297	 0.437215761115118 
2298	 0.437092016831535 
2299	 0.436971019914938 
2300	 0.436810666562199 
2301	 0.436667427207878 
2302	 0.436539692539672 
2303	 0.436361095096276 
2304	 0.436155588588276 
2305	 0.435896842335258 
2306	 0.4356181474445 
2307	 0.435254858169002 
2308	 0.434953530524899 
2309	 0.434645796128172 
2310	 0.434397981630287 
2311	 0.434219973142867 
2312	 0.433954346249248 
2313	 0.433721092980478 
2314	 0.433389597197926 
2315	 0.432934964050094 
2316	 0.432538936822142 
2317	 0.432100323378987 
2318	 0.431721833144936 
2319	 0.431377494508997 
2320	 0.431032038859669 
2321	 0.430708166533047 
2322	 0.430405780382544 
2323	 0.430147677531723 
2324	 0.429846621406295 
2325	 0.429555873421681 
2326	 0.429240294213905 
2327	 0.428892024239566 
2328	 0.428516352540663 
2329	 0.428143469129578 
2330	 0.427768070029394 
2331	 0.427339979467155 
2332	 0.426922230000464 
2333	 0.426519321042221 
2334	 0.426104387274931 
2335	 0.425726730469027 
2336	 0.425290122403844 
2337	 0.424881174934415 
2338	 0.424490042867933 
2339	 0.42402866714279 
2340	 0.423652294969689 
2341	 0.423272556543855 
2342	 0.422891173083844 
2343	 0.422594330382141 
2344	 0.422280687092831 
2345	 0.421991684387437 
2346	 0.421730603218537 
2347	 0.421470875961 
2348	 0.421201805523768 
2349	 0.42099466667419 
2350	 0.420791379766457 
2351	 0.420655222053187 
2352	 0.420603136378375 
2353	 0.420540949380345 
2354	 0.420520208819839 
2355	 0.420481671509354 
2356	 0.420442585646453 
2357	 0.42045494290279 
2358	 0.4205085138318 
2359	 0.420553925726637 
2360	 0.420613936118238 
2361	 0.420675498019072 
2362	 0.420780742632482 
2363	 0.420803568470055 
2364	 0.420842098992115 
2365	 0.420749621350687 
2366	 0.420475480554097 
2367	 0.420301946169045 
2368	 0.420117927838508 
2369	 0.419940840461419 
2370	 0.419831508428429 
2371	 0.419661649444181 
2372	 0.419370389463631 
2373	 0.419107348529548 
2374	 0.418924005347289 
2375	 0.418645730193476 
2376	 0.418381038823267 
2377	 0.41811720116106 
2378	 0.417754325366571 
2379	 0.417485536143365 
2380	 0.417173792886917 
2381	 0.416876085835945 
2382	 0.416660016356069 
2383	 0.416247659834563 
2384	 0.415795436234434 
2385	 0.415431715857574 
2386	 0.415033979465717 
2387	 0.414651407387537 
2388	 0.414375438690072 
2389	 0.414142266459546 
2390	 0.413870014769645 
2391	 0.413577999223864 
2392	 0.413278489434603 
2393	 0.412959211896026 
2394	 0.412567289201011 
2395	 0.412181943058266 
2396	 0.411886509788278 
2397	 0.411534028538765 
2398	 0.411078135018454 
2399	 0.410673217839777 
2400	 0.41023913140106 
2401	 0.409633125435054 
2402	 0.40905796323644 
2403	 0.4084464417677 
2404	 0.407750809754162 
2405	 0.407172897893426 
2406	 0.406611931355064 
2407	 0.406089808548703 
2408	 0.405514190663531 
2409	 0.404862323596629 
2410	 0.404315757021103 
2411	 0.403646367214448 
2412	 0.403034606443283 
2413	 0.402472427018596 
2414	 0.401685365216376 
2415	 0.400946720360541 
2416	 0.400199056920958 
2417	 0.399322736199602 
2418	 0.398646298019881 
2419	 0.398108005823935 
2420	 0.397508708719822 
2421	 0.397003626025936 
2422	 0.396378720085257 
2423	 0.395692031557205 
2424	 0.394983054874659 
2425	 0.394239835500186 
2426	 0.393553715879909 
2427	 0.392836890602801 
2428	 0.392127174666388 
2429	 0.391363994918821 
2430	 0.390704407182252 
2431	 0.390154491755501 
2432	 0.389572417960823 
2433	 0.389102998629683 
2434	 0.388596587476176 
2435	 0.387940855542414 
2436	 0.387381637194453 
2437	 0.386886848839419 
2438	 0.386419738125623 
2439	 0.386018738938591 
2440	 0.385654783949485 
2441	 0.385399973550754 
2442	 0.384996570574726 
2443	 0.384532418452224 
2444	 0.384097816112252 
2445	 0.383505957611222 
2446	 0.383142498363353 
2447	 0.382997755369025 
2448	 0.382699763131598 
2449	 0.382437479367471 
2450	 0.382048210810818 
2451	 0.381524678591799 
2452	 0.381118552999923 
2453	 0.380688224116192 
2454	 0.380352552347691 
2455	 0.380107316843588 
2456	 0.379760373747062 
2457	 0.379403205372235 
2458	 0.379167937855786 
2459	 0.378963990180209 
2460	 0.378692075214522 
2461	 0.378434623641531 
2462	 0.378223085374169 
2463	 0.378050731087259 
2464	 0.37784416538351 
2465	 0.377686872588011 
2466	 0.377428007769958 
2467	 0.377045501468441 
2468	 0.376620067523694 
2469	 0.376158824150317 
2470	 0.375635143387952 
2471	 0.375270502880928 
2472	 0.375054560886551 
2473	 0.374801025353436 
2474	 0.374567201421232 
2475	 0.374041893287304 
2476	 0.373529678796756 
2477	 0.373312394289641 
2478	 0.373036132322716 
2479	 0.372759719882387 
2480	 0.372464796607844 
2481	 0.372121272755755 
2482	 0.371952978370139 
2483	 0.371877188591105 
2484	 0.371833217707402 
2485	 0.371599298241801 
2486	 0.371026279456554 
2487	 0.370542565062238 
2488	 0.370224146876958 
2489	 0.370053737720025 
2490	 0.370040678390097 
2491	 0.369917801796442 
2492	 0.369612928178532 
2493	 0.36895708451443 
2494	 0.368333959791968 
2495	 0.368120735844318 
2496	 0.367903410317421 
2497	 0.3678098310354 
2498	 0.367823052138077 
2499	 0.367535529291841 
2500	 0.367199610723459 
