Wavelength	LMW_1300004.asd
350	 5.81315088894344E-02 
351	 0.060904169224962 
352	 5.56994032544372E-02 
353	 3.94616331058412E-02 
354	 4.32085570893212E-02 
355	 5.11582937514275E-02 
356	 5.57239633811874E-02 
357	 5.46610936588075E-02 
358	 0.057604112367036 
359	 5.55365842072972E-02 
360	 0.051790010355445 
361	 5.60426384496244E-02 
362	 5.22326568677561E-02 
363	 4.87565147435886E-02 
364	 4.93540697568858E-02 
365	 4.55559838588703E-02 
366	 4.41028144893835E-02 
367	 4.52868182597972E-02 
368	 4.74778310818541E-02 
369	 4.94569108409587E-02 
370	 4.96667472537858E-02 
371	 4.89670709616799E-02 
372	 4.95181884204694E-02 
373	 4.84424693397003E-02 
374	 4.76938344484362E-02 
375	 4.80477368865656E-02 
376	 4.70562400235143E-02 
377	 4.84585787075718E-02 
378	 5.12805080176411E-02 
379	 5.31923468564293E-02 
380	 5.33729541955424E-02 
381	 0.050523008660863 
382	 4.75751524689484E-02 
383	 4.99050189240135E-02 
384	 5.23404207914077E-02 
385	 5.22431038260688E-02 
386	 5.02248556687746E-02 
387	 0.052252373446463 
388	 5.34824908638899E-02 
389	 5.29646818387325E-02 
390	 5.15008863823785E-02 
391	 0.051652430271 
392	 5.26039274571268E-02 
393	 5.36903866988937E-02 
394	 5.45177560528829E-02 
395	 5.40884725182967E-02 
396	 5.31680024011887E-02 
397	 5.29593612450235E-02 
398	 5.51833406482847E-02 
399	 5.64647619215779E-02 
400	 0.057266968313354 
401	 0.05880472716306 
402	 5.78739484089517E-02 
403	 0.05673336155736 
404	 5.63047127755406E-02 
405	 5.58345287183744E-02 
406	 0.056495183995213 
407	 5.81952536028843E-02 
408	 5.99021003217665E-02 
409	 5.87455954329103E-02 
410	 5.77058621123823E-02 
411	 5.78496120176438E-02 
412	 5.90933302950661E-02 
413	 6.08044060375235E-02 
414	 6.07003890029691E-02 
415	 5.89398693464372E-02 
416	 5.88001131597179E-02 
417	 5.90038707935835E-02 
418	 5.90764815524462E-02 
419	 0.058945983052936 
420	 5.94267279817014E-02 
421	 5.92193800158569E-02 
422	 5.86476822812086E-02 
423	 5.89183106437834E-02 
424	 5.84609433436893E-02 
425	 5.82082325205354E-02 
426	 5.84131552254223E-02 
427	 5.74364589517001E-02 
428	 5.73176966916523E-02 
429	 5.75543695232437E-02 
430	 5.70848139327579E-02 
431	 5.63751595292015E-02 
432	 5.61258075227418E-02 
433	 5.64078951437632E-02 
434	 0.056700577663963 
435	 5.70486915830507E-02 
436	 5.72951312757888E-02 
437	 5.73149920273931E-02 
438	 5.70584234824658E-02 
439	 5.70790947527057E-02 
440	 5.74293997344122E-02 
441	 5.78368426155023E-02 
442	 0.05768533041746 
443	 5.79094244319685E-02 
444	 0.058687971118255 
445	 5.88727837321739E-02 
446	 5.87386149844355E-02 
447	 5.87643365267354E-02 
448	 5.92213426694649E-02 
449	 5.91431522977206E-02 
450	 5.93131185304716E-02 
451	 5.98240822629587E-02 
452	 6.01471604484276E-02 
453	 6.02453564700808E-02 
454	 6.02547126258646E-02 
455	 6.03614860580637E-02 
456	 6.08471567904075E-02 
457	 6.08749094993959E-02 
458	 6.06415373069593E-02 
459	 6.07704976202186E-02 
460	 6.11073434136578E-02 
461	 6.13394722036148E-02 
462	 6.14136083386957E-02 
463	 0.061659142560173 
464	 6.17557816199157E-02 
465	 6.17217149996094E-02 
466	 6.17026683127554E-02 
467	 6.19576294564625E-02 
468	 6.21384860450211E-02 
469	 0.062152154639668 
470	 6.21368821594674E-02 
471	 6.22732217134136E-02 
472	 6.24163009812803E-02 
473	 6.24747826864193E-02 
474	 6.26615375922926E-02 
475	 6.25030887965185E-02 
476	 6.23027149653378E-02 
477	 6.25959277124706E-02 
478	 6.29027052545538E-02 
479	 6.29845198301419E-02 
480	 6.29001236409563E-02 
481	 6.30775610510767E-02 
482	 0.063216714059207 
483	 6.32503651188265E-02 
484	 6.32093118355171E-02 
485	 6.32679201664452E-02 
486	 6.31598684314181E-02 
487	 6.29664931146877E-02 
488	 6.30426390440989E-02 
489	 6.31916367760717E-02 
490	 6.32342873669949E-02 
491	 6.31591599318611E-02 
492	 6.33804978106018E-02 
493	 6.34016430465127E-02 
494	 6.33059560975949E-02 
495	 6.34086517196376E-02 
496	 6.35292635412182E-02 
497	 0.063584798291925 
498	 6.36053225793669E-02 
499	 6.37856791620718E-02 
500	 6.36642717002112E-02 
501	 0.063517700941295 
502	 6.36951607552437E-02 
503	 0.063873202978174 
504	 6.38169136805465E-02 
505	 6.36579336978436E-02 
506	 6.38241985336542E-02 
507	 6.38388408456722E-02 
508	 6.37685307482147E-02 
509	 6.37451936826697E-02 
510	 6.38026810617847E-02 
511	 6.36981930950134E-02 
512	 6.36036034243996E-02 
513	 6.38369169327102E-02 
514	 6.38655356554408E-02 
515	 6.38186381855338E-02 
516	 6.38293980071274E-02 
517	 0.063914588353266 
518	 6.39116387582184E-02 
519	 6.38329318230142E-02 
520	 6.37653771408634E-02 
521	 0.063821047485405 
522	 6.39371229985211E-02 
523	 0.064010435623623 
524	 6.39150189537763E-02 
525	 6.39467620666861E-02 
526	 6.40182711148033E-02 
527	 0.064009826910427 
528	 0.06398504662761 
529	 6.39969358154221E-02 
530	 6.40151687745434E-02 
531	 6.39696337113813E-02 
532	 6.40257859261282E-02 
533	 6.41054977739033E-02 
534	 6.41468841371413E-02 
535	 6.41912581397866E-02 
536	 6.42584705179462E-02 
537	 6.43652468941689E-02 
538	 6.44992882912887E-02 
539	 6.44799678420051E-02 
540	 6.45188995586251E-02 
541	 6.46516213334699E-02 
542	 6.46406949996089E-02 
543	 6.46847451801397E-02 
544	 6.47541731356083E-02 
545	 6.47897873005762E-02 
546	 6.48745597349819E-02 
547	 6.49317143462285E-02 
548	 6.50112861821159E-02 
549	 6.52537848338391E-02 
550	 6.53207907856704E-02 
551	 6.53651944852622E-02 
552	 6.55339778041391E-02 
553	 6.57288053638906E-02 
554	 6.58349033468459E-02 
555	 6.59197004670529E-02 
556	 6.61263671481668E-02 
557	 6.62940267779527E-02 
558	 6.64485915549248E-02 
559	 6.66359126410308E-02 
560	 6.69076370873978E-02 
561	 6.71127055776117E-02 
562	 6.72939606226715E-02 
563	 6.75430577066225E-02 
564	 6.78019623940185E-02 
565	 0.068092569980195 
566	 6.84368452855682E-02 
567	 0.068850737350185 
568	 6.92390480850588E-02 
569	 6.96088606325959E-02 
570	 6.99774687179924E-02 
571	 7.02944177206613E-02 
572	 7.06473421087924E-02 
573	 7.10709356345098E-02 
574	 7.15493806334391E-02 
575	 7.19689964313974E-02 
576	 7.24021654165118E-02 
577	 7.28856904388909E-02 
578	 7.32971969673127E-02 
579	 7.37884067256771E-02 
580	 7.44091347304915E-02 
581	 7.51402851845918E-02 
582	 7.58379180050917E-02 
583	 7.64979953844244E-02 
584	 7.71281379167839E-02 
585	 7.77332474111798E-02 
586	 7.83447346281131E-02 
587	 7.89405629347028E-02 
588	 7.95105459825631E-02 
589	 8.01792255509792E-02 
590	 8.08289068367897E-02 
591	 8.14383235976619E-02 
592	 8.20802970368007E-02 
593	 8.26632846149754E-02 
594	 8.32831065443348E-02 
595	 8.40170955687388E-02 
596	 8.48113904653115E-02 
597	 8.55935304338979E-02 
598	 0.086354611013275 
599	 8.71247106142353E-02 
600	 8.78964768876828E-02 
601	 0.088590608554569 
602	 0.089182957245029 
603	 8.97630302793268E-02 
604	 0.090323802994942 
605	 9.08887434285132E-02 
606	 9.14758354482989E-02 
607	 9.20350653546364E-02 
608	 9.25525487562827E-02 
609	 9.30454975946965E-02 
610	 9.35636229032137E-02 
611	 9.40527337298152E-02 
612	 9.45440077619047E-02 
613	 9.50523343762504E-02 
614	 9.54780433655548E-02 
615	 9.58650830885963E-02 
616	 0.096216573515787 
617	 9.65156995702502E-02 
618	 9.69010311553919E-02 
619	 9.72536128464829E-02 
620	 9.75079259604367E-02 
621	 9.77969425211069E-02 
622	 9.80520525209317E-02 
623	 9.83048747548118E-02 
624	 0.098603918334067 
625	 0.098845559556267 
626	 9.90445284953579E-02 
627	 0.099238186435539 
628	 9.94785708853086E-02 
629	 9.97416106250233E-02 
630	 9.99702016942367E-02 
631	 0.100135062003811 
632	 0.100349117979074 
633	 0.100547316779048 
634	 0.100725832680324 
635	 0.100930260965165 
636	 0.101105528546712 
637	 0.101303584993296 
638	 0.101533813352276 
639	 0.101647915099703 
640	 0.101824482722147 
641	 0.102049380370504 
642	 0.102229507458566 
643	 0.102416164048332 
644	 0.102628154026351 
645	 0.102855657318966 
646	 0.103050599284012 
647	 0.103277386999555 
648	 0.103490616139559 
649	 0.103649280030107 
650	 0.103867275160773 
651	 0.104097017155673 
652	 0.104330942398122 
653	 0.104597543464288 
654	 0.104860087212471 
655	 0.105094257138462 
656	 0.105301788309093 
657	 0.1055359723876 
658	 0.105802681318267 
659	 0.106081433810027 
660	 0.106343942483541 
661	 0.106631631025559 
662	 0.106902011444888 
663	 0.107156542335147 
664	 0.107469996206841 
665	 0.107820406870563 
666	 0.108141952770057 
667	 0.108398384088672 
668	 0.108723118251975 
669	 0.109092174741242 
670	 0.109461751504134 
671	 0.109780289394524 
672	 0.110104817446224 
673	 0.110447680682075 
674	 0.110815581836152 
675	 0.111231329747677 
676	 0.111600194804226 
677	 0.11195742395088 
678	 0.112381638633597 
679	 0.11280200149303 
680	 0.113222513292745 
681	 0.113654953492847 
682	 0.114114080100281 
683	 0.11449911841403 
684	 0.114903925494103 
685	 0.11541208848972 
686	 0.115881451433999 
687	 0.116323368710599 
688	 0.116775236652928 
689	 0.117282321234702 
690	 0.117756115983668 
691	 0.118249869701871 
692	 0.118784703508095 
693	 0.119279094840815 
694	 0.11974144002544 
695	 0.120220987116019 
696	 0.120766950947935 
697	 0.121328251621726 
698	 0.121871602552012 
699	 0.122405253938793 
700	 0.122977295084239 
701	 0.123497640082514 
702	 0.124028404741001 
703	 0.124612912911741 
704	 0.125146469982816 
705	 0.125690211741539 
706	 0.126260735888505 
707	 0.126845108766606 
708	 0.127401899065509 
709	 0.127964949597498 
710	 0.12854590186395 
711	 0.129116589709641 
712	 0.129645239900154 
713	 0.130167152424427 
714	 0.130720800279761 
715	 0.131273767287747 
716	 0.131807911457665 
717	 0.132335687670867 
718	 0.132884481991755 
719	 0.133385533945889 
720	 0.133880802423217 
721	 0.134380121196471 
722	 0.13479232533533 
723	 0.135266544982672 
724	 0.135785710049153 
725	 0.136270838489713 
726	 0.136659257956965 
727	 0.137018937783661 
728	 0.137388809342019 
729	 0.13776963795361 
730	 0.138113027942878 
731	 0.138438585707159 
732	 0.138769664022578 
733	 0.139111756608094 
734	 0.139420178242423 
735	 0.139644410046513 
736	 0.139772041013936 
737	 0.140015071276751 
738	 0.140218170721074 
739	 0.14035329497045 
740	 0.140555320109717 
741	 0.140675343690043 
742	 0.140743119933153 
743	 0.140801431642229 
744	 0.140817186231053 
745	 0.14082335740843 
746	 0.140832202163444 
747	 0.1408330338321 
748	 0.140737822771486 
749	 0.140635386597135 
750	 0.140553063506769 
751	 0.140425729073098 
752	 0.140304565375595 
753	 0.140183104241802 
754	 0.140035633556092 
755	 0.139816019437298 
756	 0.139600346538685 
757	 0.139393427571197 
758	 0.139165341023562 
759	 0.138940023348874 
760	 0.138651642987157 
761	 0.138316742033989 
762	 0.138059669249862 
763	 0.137784959087016 
764	 0.137484516776671 
765	 0.13716496553777 
766	 0.136810674752837 
767	 0.13646068329719 
768	 0.136125792615908 
769	 0.135794008726977 
770	 0.135419862336504 
771	 0.135035732076788 
772	 0.134665292298945 
773	 0.134310942286175 
774	 0.133910388552921 
775	 0.133514484332826 
776	 0.133158139789652 
777	 0.132762547935775 
778	 0.132357256396823 
779	 0.131958223779995 
780	 0.131568851648885 
781	 0.131147210716825 
782	 0.130748491781681 
783	 0.130381986613792 
784	 0.130001211365642 
785	 0.129581892930862 
786	 0.129165685417023 
787	 0.128778220351407 
788	 0.128366821754568 
789	 0.128019572222924 
790	 0.127679805847032 
791	 0.127264771020123 
792	 0.12686331141914 
793	 0.126517435597971 
794	 0.126191232348976 
795	 0.125795387486431 
796	 0.125419507335956 
797	 0.125059571661905 
798	 0.124702482969645 
799	 0.124344901617491 
800	 0.1240182913678 
801	 0.123688339031392 
802	 0.123327207073339 
803	 0.123012971052618 
804	 0.122717518700376 
805	 0.122415552319976 
806	 0.122093188101624 
807	 0.121808471070553 
808	 0.121489575690045 
809	 0.121134470476139 
810	 0.120845499544013 
811	 0.120616858949682 
812	 0.120355447357511 
813	 0.120021755154867 
814	 0.119777116089312 
815	 0.11951361512203 
816	 0.119246270830077 
817	 0.119024203170043 
818	 0.118794965737781 
819	 0.118564167076181 
820	 0.118316953592555 
821	 0.118030257278367 
822	 0.117816800774124 
823	 0.117622145676913 
824	 0.117410802978247 
825	 0.117223064508231 
826	 0.117013046325524 
827	 0.116787606289759 
828	 0.116576557935401 
829	 0.11643579568062 
830	 0.116262820945673 
831	 0.116068306390335 
832	 0.115915513998699 
833	 0.115813517142572 
834	 0.115657400275356 
835	 0.115449874537584 
836	 0.115299360715313 
837	 0.115209359419795 
838	 0.115116555991842 
839	 0.114986319236882 
840	 0.11485402754488 
841	 0.114723758644577 
842	 0.114603560930194 
843	 0.114499838585373 
844	 0.11441595477174 
845	 0.114346446946818 
846	 0.114257361544072 
847	 0.114128053782317 
848	 0.114080101026205 
849	 0.114036683918768 
850	 0.113977208712819 
851	 0.113936757619457 
852	 0.113892893409337 
853	 0.113820171145856 
854	 0.113741382688201 
855	 0.113744721305413 
856	 0.113767907735045 
857	 0.113780454776565 
858	 0.11376522117299 
859	 0.113713049723117 
860	 0.113695535423972 
861	 0.113741397645265 
862	 0.113826113398245 
863	 0.11379328399661 
864	 0.113770428074013 
865	 0.113800326470755 
866	 0.113856467239214 
867	 0.113880950967101 
868	 0.113886458211532 
869	 0.113916183135889 
870	 0.114023092192108 
871	 0.114076808729708 
872	 0.114145446169795 
873	 0.114251237105934 
874	 0.114291307251183 
875	 0.114328934617731 
876	 0.11441655054242 
877	 0.114555744843821 
878	 0.114626773520586 
879	 0.114691113850566 
880	 0.114771765824327 
881	 0.114884655056931 
882	 0.11507076292076 
883	 0.115247730633829 
884	 0.115378278170133 
885	 0.115472690396475 
886	 0.115624282301719 
887	 0.115807963530308 
888	 0.115976950182047 
889	 0.116094054342006 
890	 0.116313321686946 
891	 0.116494754014767 
892	 0.116625323850411 
893	 0.11688070962522 
894	 0.117024337362339 
895	 0.11719347705808 
896	 0.117463871808438 
897	 0.117672921064596 
898	 0.117856029273179 
899	 0.118089548627031 
900	 0.118392770747149 
901	 0.118599217273456 
902	 0.118832133743163 
903	 0.119083556533292 
904	 0.119316735760087 
905	 0.119561751488907 
906	 0.119826514847129 
907	 0.12009309464767 
908	 0.120357145821287 
909	 0.120754740753606 
910	 0.121076864460034 
911	 0.121357167342515 
912	 0.12175985123659 
913	 0.122082944151567 
914	 0.122384774761402 
915	 0.122699807666389 
916	 0.123023751230279 
917	 0.123389281856382 
918	 0.123726897711194 
919	 0.124056207886482 
920	 0.124495459688732 
921	 0.124880795638273 
922	 0.125309590279476 
923	 0.125776664646091 
924	 0.12608210885997 
925	 0.126455470330031 
926	 0.126890920633705 
927	 0.127355715373557 
928	 0.127865127589501 
929	 0.128220131247133 
930	 0.128640734198347 
931	 0.129250090550265 
932	 0.129700252098929 
933	 0.130212675224806 
934	 0.130727071318521 
935	 0.131180350878404 
936	 0.131739830500622 
937	 0.132291601508917 
938	 0.13280021885409 
939	 0.133279364136952 
940	 0.133797384121366 
941	 0.13442352027954 
942	 0.135036534235258 
943	 0.135522915975911 
944	 0.136107497762515 
945	 0.136698354799523 
946	 0.137305611501579 
947	 0.137943424530891 
948	 0.138422538981364 
949	 0.139008552269112 
950	 0.1396693382082 
951	 0.140260765616243 
952	 0.14095527267119 
953	 0.141671147052701 
954	 0.142381138853651 
955	 0.143098262716019 
956	 0.143853946106421 
957	 0.144507171369846 
958	 0.145155170147834 
959	 0.145969445485669 
960	 0.146652810554908 
961	 0.147307990579017 
962	 0.148051011435984 
963	 0.148924285403495 
964	 0.149631823759541 
965	 0.150401305403616 
966	 0.151217192317482 
967	 0.151931493340354 
968	 0.152791686470224 
969	 0.153626393576428 
970	 0.154371032139534 
971	 0.155080091694946 
972	 0.155899211323734 
973	 0.156758718265131 
974	 0.157580313521753 
975	 0.158341071133645 
976	 0.159257409548762 
977	 0.160240772379002 
978	 0.161170754822252 
979	 0.161959182381774 
980	 0.162707008892391 
981	 0.16349759192784 
982	 0.164404718845943 
983	 0.165437284875997 
984	 0.166365619922303 
985	 0.167145766020457 
986	 0.167978264430625 
987	 0.169059636790955 
988	 0.169916439173079 
989	 0.170767205142637 
990	 0.17169084802157 
991	 0.172657675870682 
992	 0.173612070580719 
993	 0.174412145801327 
994	 0.175276287426101 
995	 0.176397915591748 
996	 0.177192754788513 
997	 0.178120146485379 
998	 0.179105038667795 
999	 0.179970003827206 
1000	 0.181006145596986 
1001	 0.180997247741859 
1002	 0.181887528271089 
1003	 0.182738675488575 
1004	 0.183595258712364 
1005	 0.184481570025668 
1006	 0.185302502570838 
1007	 0.186065397034039 
1008	 0.186877635022381 
1009	 0.18771429876715 
1010	 0.188538039278404 
1011	 0.189358365196952 
1012	 0.190087886091697 
1013	 0.190783348091136 
1014	 0.191544199055747 
1015	 0.192305842583846 
1016	 0.193147471173616 
1017	 0.193979284812039 
1018	 0.194853134482115 
1019	 0.19562145716536 
1020	 0.196375213432274 
1021	 0.197130683616568 
1022	 0.197826228170186 
1023	 0.198443524743597 
1024	 0.19915822996191 
1025	 0.199884402364384 
1026	 0.200576080531575 
1027	 0.201400228761112 
1028	 0.2021573300949 
1029	 0.202851710924577 
1030	 0.203568263439457 
1031	 0.204258164268822 
1032	 0.204904028364598 
1033	 0.20556860539977 
1034	 0.206236862990074 
1035	 0.206869950078198 
1036	 0.207475404380534 
1037	 0.208091425630701 
1038	 0.208755016285271 
1039	 0.209439391873726 
1040	 0.210124552338116 
1041	 0.210760827965197 
1042	 0.211371026208717 
1043	 0.212029506980573 
1044	 0.212658793182642 
1045	 0.213285222646225 
1046	 0.213933174021735 
1047	 0.214576097760386 
1048	 0.215085562757822 
1049	 0.215573741787757 
1050	 0.216141710141143 
1051	 0.216738837492005 
1052	 0.217335104737718 
1053	 0.217942689864733 
1054	 0.218552816198941 
1055	 0.219112911757478 
1056	 0.219656738342848 
1057	 0.220206512757763 
1058	 0.220765514146725 
1059	 0.22132603736257 
1060	 0.221880153373955 
1061	 0.222433343965582 
1062	 0.222948755145377 
1063	 0.223488050799507 
1064	 0.224009984587071 
1065	 0.224523785521116 
1066	 0.225077294867445 
1067	 0.225644848839385 
1068	 0.226231985988851 
1069	 0.226770506874112 
1070	 0.22728583492456 
1071	 0.227812697577369 
1072	 0.228310272088438 
1073	 0.228716625574233 
1074	 0.229191943657709 
1075	 0.229706842881087 
1076	 0.230179160066365 
1077	 0.230675401035556 
1078	 0.231174862514356 
1079	 0.231625761717116 
1080	 0.232111666012435 
1081	 0.232617310433475 
1082	 0.23309983861838 
1083	 0.233597379634677 
1084	 0.234128684052438 
1085	 0.23462241357501 
1086	 0.235089446096424 
1087	 0.235574371375912 
1088	 0.236050293581123 
1089	 0.236546919391803 
1090	 0.237044580995461 
1091	 0.237510688595357 
1092	 0.237979518614457 
1093	 0.238429562466399 
1094	 0.238884505514225 
1095	 0.239339234463974 
1096	 0.239799235868386 
1097	 0.24026326769163 
1098	 0.240718379250295 
1099	 0.241151898467683 
1100	 0.241622456196475 
1101	 0.242109502808787 
1102	 0.242589160344297 
1103	 0.243086087505174 
1104	 0.243577016719764 
1105	 0.244040704722174 
1106	 0.244529989638932 
1107	 0.245038241560189 
1108	 0.245533243807869 
1109	 0.246005320415867 
1110	 0.246470727547489 
1111	 0.246947527459252 
1112	 0.247389529308897 
1113	 0.247880265042026 
1114	 0.24842074572436 
1115	 0.248929522502643 
1116	 0.249444040711074 
1117	 0.249958244028809 
1118	 0.250463323269364 
1119	 0.250965917794102 
1120	 0.25149303708561 
1121	 0.251988820756302 
1122	 0.252497865029755 
1123	 0.253012301384005 
1124	 0.253505573813191 
1125	 0.253989049688373 
1126	 0.254475182018131 
1127	 0.254935184845051 
1128	 0.255428247320948 
1129	 0.25594848457856 
1130	 0.256444662934566 
1131	 0.256943697803461 
1132	 0.257437526717212 
1133	 0.257915623303765 
1134	 0.258394304436831 
1135	 0.258870752750667 
1136	 0.259361991398088 
1137	 0.259834141192459 
1138	 0.260301465375201 
1139	 0.260754382482271 
1140	 0.261195247874732 
1141	 0.261640123707001 
1142	 0.262075806530113 
1143	 0.262509436869274 
1144	 0.262948481057834 
1145	 0.263372456789627 
1146	 0.263790933315813 
1147	 0.264195115869728 
1148	 0.264594935979227 
1149	 0.264980811616024 
1150	 0.265333583258371 
1151	 0.265704986902829 
1152	 0.266088411148423 
1153	 0.266458046032996 
1154	 0.2668387683733 
1155	 0.267237310493063 
1156	 0.267615253446313 
1157	 0.26799035763188 
1158	 0.268354732439184 
1159	 0.268712840309788 
1160	 0.26906509726317 
1161	 0.269406363854063 
1162	 0.269745137009422 
1163	 0.270072952846005 
1164	 0.270408660919494 
1165	 0.270750114806671 
1166	 0.271086679183841 
1167	 0.271399820711853 
1168	 0.271720355885259 
1169	 0.272046673558302 
1170	 0.272370853948194 
1171	 0.272679546909852 
1172	 0.272998928121275 
1173	 0.273302262853113 
1174	 0.273575879177481 
1175	 0.273861154934763 
1176	 0.274162887126943 
1177	 0.274441962525048 
1178	 0.274691510456795 
1179	 0.274966104996177 
1180	 0.2752536604868 
1181	 0.275526744675984 
1182	 0.275818007146874 
1183	 0.276084917681947 
1184	 0.276341698410411 
1185	 0.276581023185583 
1186	 0.276813231042726 
1187	 0.277022073673797 
1188	 0.277260505587851 
1189	 0.277507772021834 
1190	 0.277738372829017 
1191	 0.277990696507105 
1192	 0.278213157197518 
1193	 0.278394916096247 
1194	 0.27859675626974 
1195	 0.278802046215737 
1196	 0.279004124000805 
1197	 0.279216958852614 
1198	 0.27941424579115 
1199	 0.279603311180889 
1200	 0.279782577288239 
1201	 0.279963089311903 
1202	 0.280131903910453 
1203	 0.280310928072367 
1204	 0.280494055851527 
1205	 0.280675542960862 
1206	 0.280870933101631 
1207	 0.281038791215375 
1208	 0.281192669042288 
1209	 0.281347244829702 
1210	 0.281488219569777 
1211	 0.281625502695778 
1212	 0.281754579365766 
1213	 0.281893347000618 
1214	 0.282026914131979 
1215	 0.282163645416871 
1216	 0.282305258562534 
1217	 0.282463114833733 
1218	 0.2826044011957 
1219	 0.282738838630444 
1220	 0.282873969980243 
1221	 0.283009296051822 
1222	 0.283136988195977 
1223	 0.283259468189523 
1224	 0.283381641085095 
1225	 0.283486554732262 
1226	 0.283614879235427 
1227	 0.283780125194834 
1228	 0.283900267273849 
1229	 0.283991944015967 
1230	 0.284108922126223 
1231	 0.284204559143875 
1232	 0.284311718651065 
1233	 0.284432465414737 
1234	 0.284598698869324 
1235	 0.284712909615288 
1236	 0.284809479782909 
1237	 0.284901512921422 
1238	 0.284968819983276 
1239	 0.285058018407219 
1240	 0.285149381616168 
1241	 0.285240253874374 
1242	 0.285336196399066 
1243	 0.285436474955533 
1244	 0.285535438556128 
1245	 0.285636690679254 
1246	 0.285757854653484 
1247	 0.285861908347346 
1248	 0.285956396827558 
1249	 0.286049531381348 
1250	 0.28613020536945 
1251	 0.286195102945756 
1252	 0.286279795660026 
1253	 0.286372955581076 
1254	 0.286447296567231 
1255	 0.286511222035521 
1256	 0.286600293040216 
1257	 0.28669264342882 
1258	 0.286777947150983 
1259	 0.286887447355681 
1260	 0.286979668037469 
1261	 0.287036689868785 
1262	 0.287120234400727 
1263	 0.287231299498074 
1264	 0.287322529819671 
1265	 0.287411417650591 
1266	 0.287495940268645 
1267	 0.287568966063963 
1268	 0.287641494802532 
1269	 0.287713048845688 
1270	 0.287787671440392 
1271	 0.287853370604114 
1272	 0.287912023207136 
1273	 0.287974754632425 
1274	 0.288029007676921 
1275	 0.28809505407631 
1276	 0.288168292693937 
1277	 0.28823655209626 
1278	 0.288311826985191 
1279	 0.288382588430985 
1280	 0.288451059357977 
1281	 0.288516147244508 
1282	 0.288579449520434 
1283	 0.288638530289125 
1284	 0.288692473159377 
1285	 0.288740826636016 
1286	 0.288793500009033 
1287	 0.288856618039618 
1288	 0.288925577649539 
1289	 0.289009197781278 
1290	 0.289075372834613 
1291	 0.28914112727783 
1292	 0.289205463428964 
1293	 0.289265123732919 
1294	 0.289316339929933 
1295	 0.289377258954879 
1296	 0.289409418314503 
1297	 0.289406027081891 
1298	 0.289422339089331 
1299	 0.289441399358244 
1300	 0.289448287869606 
1301	 0.289462482322065 
1302	 0.289465519154264 
1303	 0.28945321089023 
1304	 0.28942313142896 
1305	 0.289427426897682 
1306	 0.289429188570268 
1307	 0.289422096158834 
1308	 0.28941285619301 
1309	 0.289394189782548 
1310	 0.289353817240717 
1311	 0.289326768407687 
1312	 0.289310961027466 
1313	 0.289278591322314 
1314	 0.289231108188439 
1315	 0.289196650385949 
1316	 0.289150543040392 
1317	 0.289127584801701 
1318	 0.289129892823585 
1319	 0.289119302625363 
1320	 0.289121540600321 
1321	 0.289108607742744 
1322	 0.289086370331801 
1323	 0.289050828326811 
1324	 0.289034625060632 
1325	 0.289029089461413 
1326	 0.288992086105846 
1327	 0.28897982736814 
1328	 0.288974199952682 
1329	 0.288943833656959 
1330	 0.288946331620438 
1331	 0.28898055003519 
1332	 0.288997016764339 
1333	 0.289015560259637 
1334	 0.289035164947487 
1335	 0.289044069127329 
1336	 0.28907877838385 
1337	 0.289126689956378 
1338	 0.289171005859394 
1339	 0.289240075714439 
1340	 0.28928799207931 
1341	 0.289318662685185 
1342	 0.289359655860151 
1343	 0.289399845587351 
1344	 0.2894383952842 
1345	 0.289483266956464 
1346	 0.289525561950468 
1347	 0.289552839332376 
1348	 0.289550385920241 
1349	 0.289539748977884 
1350	 0.289522088505485 
1351	 0.289506931071105 
1352	 0.289493722105225 
1353	 0.289471113098323 
1354	 0.289432731379548 
1355	 0.289415281107729 
1356	 0.289403162615294 
1357	 0.289387181238336 
1358	 0.28937106751572 
1359	 0.289377054866011 
1360	 0.289381881955992 
1361	 0.289396966328083 
1362	 0.289434805189919 
1363	 0.289481340472499 
1364	 0.289519623696079 
1365	 0.28958677121193 
1366	 0.289688740873862 
1367	 0.289782790773694 
1368	 0.289893903213358 
1369	 0.290004416423044 
1370	 0.290078896505393 
1371	 0.290142558975291 
1372	 0.290164718323428 
1373	 0.290170560431818 
1374	 0.290168632102851 
1375	 0.290167907172147 
1376	 0.290104582714354 
1377	 0.290023242548224 
1378	 0.2898951730429 
1379	 0.28968211952291 
1380	 0.289521126714906 
1381	 0.289341407363002 
1382	 0.289179848181206 
1383	 0.289044174221901 
1384	 0.288900228372864 
1385	 0.288782492066201 
1386	 0.288622344807453 
1387	 0.28847039822338 
1388	 0.288262347817195 
1389	 0.288017390369142 
1390	 0.287731977598291 
1391	 0.287388297765212 
1392	 0.287019646211069 
1393	 0.286611284127212 
1394	 0.286179598841976 
1395	 0.285748768402764 
1396	 0.285302271139888 
1397	 0.284855916173071 
1398	 0.284407576877043 
1399	 0.283935318320327 
1400	 0.283455153465192 
1401	 0.282959701676734 
1402	 0.282425400223599 
1403	 0.281924221798296 
1404	 0.281418784574154 
1405	 0.280940478682756 
1406	 0.280497950431389 
1407	 0.280032075467284 
1408	 0.279552647976254 
1409	 0.279103667995448 
1410	 0.278623355321265 
1411	 0.278217452252457 
1412	 0.277864991264477 
1413	 0.277541976933259 
1414	 0.27723793409893 
1415	 0.276957495477116 
1416	 0.276683151185812 
1417	 0.276419054248866 
1418	 0.276171182489384 
1419	 0.275926998681887 
1420	 0.275693761275807 
1421	 0.275472311460513 
1422	 0.275278631326289 
1423	 0.275091328903275 
1424	 0.274886246246818 
1425	 0.274671400075217 
1426	 0.274478797099027 
1427	 0.274271103587045 
1428	 0.274105548096036 
1429	 0.273978063898245 
1430	 0.273841345265394 
1431	 0.273718282320667 
1432	 0.273591782127228 
1433	 0.273457225766693 
1434	 0.273348212113748 
1435	 0.273250890380284 
1436	 0.273165117052278 
1437	 0.27311088744715 
1438	 0.273043385146044 
1439	 0.272981615342199 
1440	 0.272905657493826 
1441	 0.272828250996567 
1442	 0.272746057183992 
1443	 0.272664972353103 
1444	 0.272606450100966 
1445	 0.272560156717679 
1446	 0.272524191224611 
1447	 0.272493343704598 
1448	 0.272455533890099 
1449	 0.272420541368584 
1450	 0.27239111617304 
1451	 0.272388193162928 
1452	 0.272401952496166 
1453	 0.272431982121612 
1454	 0.272500393614942 
1455	 0.272533548790213 
1456	 0.272561834412869 
1457	 0.272590796250861 
1458	 0.272595434775161 
1459	 0.272633097397338 
1460	 0.272686122908112 
1461	 0.272751192339815 
1462	 0.272837095191645 
1463	 0.272912131736936 
1464	 0.27300060315896 
1465	 0.273079449775918 
1466	 0.273144574155311 
1467	 0.273224270091683 
1468	 0.273293618786332 
1469	 0.273386286318912 
1470	 0.273494439608791 
1471	 0.273619501770807 
1472	 0.273750200193427 
1473	 0.27387573361276 
1474	 0.273981711101957 
1475	 0.27408220426491 
1476	 0.274187739738636 
1477	 0.274314306014918 
1478	 0.274470349956229 
1479	 0.274624002139165 
1480	 0.274777321425506 
1481	 0.274941895072893 
1482	 0.275091339897841 
1483	 0.275228739545769 
1484	 0.275377617002383 
1485	 0.275517404657679 
1486	 0.275675085642389 
1487	 0.275848672442488 
1488	 0.276014140540112 
1489	 0.276197087716066 
1490	 0.276357472111156 
1491	 0.276499797352453 
1492	 0.276647661994633 
1493	 0.276779493864158 
1494	 0.276929592816749 
1495	 0.277100796019274 
1496	 0.277253481928435 
1497	 0.277410233966992 
1498	 0.277551316968913 
1499	 0.277676594479982 
1500	 0.277798985380658 
1501	 0.277905417293439 
1502	 0.2780217647862 
1503	 0.278137367100227 
1504	 0.27824839217945 
1505	 0.27838193006494 
1506	 0.278521489065595 
1507	 0.278643974044501 
1508	 0.278759455184515 
1509	 0.27886499409284 
1510	 0.278974202665722 
1511	 0.279099917987411 
1512	 0.279226519992102 
1513	 0.2793393073889 
1514	 0.279451508984996 
1515	 0.279574901892785 
1516	 0.279690672960284 
1517	 0.279802070702529 
1518	 0.279921356266883 
1519	 0.280029238301643 
1520	 0.280120997248262 
1521	 0.280219839249686 
1522	 0.280321650704578 
1523	 0.28041318925841 
1524	 0.280493205954061 
1525	 0.280585707307596 
1526	 0.280680726235346 
1527	 0.280776807242801 
1528	 0.280875363628928 
1529	 0.280980699520873 
1530	 0.281096198971975 
1531	 0.281195484849689 
1532	 0.281301374765639 
1533	 0.281392706351215 
1534	 0.281456252021351 
1535	 0.281533588174304 
1536	 0.281608756925821 
1537	 0.281693913516547 
1538	 0.281783920163992 
1539	 0.281878759811888 
1540	 0.281994793365029 
1541	 0.282089222332273 
1542	 0.282166611977544 
1543	 0.282260633497673 
1544	 0.282356522093397 
1545	 0.282445981249833 
1546	 0.282546152445939 
1547	 0.282637545110571 
1548	 0.282717839113717 
1549	 0.282791185740325 
1550	 0.282867289819928 
1551	 0.282961689304668 
1552	 0.283064561530475 
1553	 0.283142953157913 
1554	 0.283206833529522 
1555	 0.283280073786121 
1556	 0.28334775319544 
1557	 0.283419097474027 
1558	 0.283502315052173 
1559	 0.283571657644986 
1560	 0.283625460317062 
1561	 0.283651183985178 
1562	 0.28370909743126 
1563	 0.283768010118658 
1564	 0.283834623680296 
1565	 0.283927484761652 
1566	 0.283992109234027 
1567	 0.28404383125323 
1568	 0.284097274871644 
1569	 0.28414095466618 
1570	 0.284193648599381 
1571	 0.284255652423906 
1572	 0.28430232314581 
1573	 0.284340633983094 
1574	 0.284381660355792 
1575	 0.284407948152826 
1576	 0.284451229073144 
1577	 0.284515357608583 
1578	 0.284559309191818 
1579	 0.284595557382074 
1580	 0.284636340664497 
1581	 0.284671293792909 
1582	 0.284707058361162 
1583	 0.284744744760481 
1584	 0.284786598310014 
1585	 0.284825105848567 
1586	 0.284864916553097 
1587	 0.284918271759297 
1588	 0.28496124402271 
1589	 0.284994607523522 
1590	 0.285030313576895 
1591	 0.285062133779128 
1592	 0.285095876474889 
1593	 0.285143971498724 
1594	 0.285167402712547 
1595	 0.285171058485876 
1596	 0.285185898851281 
1597	 0.285184932926029 
1598	 0.285192655899238 
1599	 0.285223931720823 
1600	 0.285237935400102 
1601	 0.285231455639414 
1602	 0.285244178933828 
1603	 0.285252935424322 
1604	 0.285274309248804 
1605	 0.285326867435952 
1606	 0.285358731699695 
1607	 0.285385170408517 
1608	 0.28541186251737 
1609	 0.28542464778095 
1610	 0.285438245381183 
1611	 0.285442577703732 
1612	 0.285463441114811 
1613	 0.285491781078862 
1614	 0.285512201109749 
1615	 0.285543268519495 
1616	 0.285562840821161 
1617	 0.285577389977189 
1618	 0.285604648856082 
1619	 0.285625048265726 
1620	 0.28564117720642 
1621	 0.285654416804052 
1622	 0.285658807630628 
1623	 0.285663995711017 
1624	 0.285668113343068 
1625	 0.285676125967355 
1626	 0.28568381974217 
1627	 0.285688923203866 
1628	 0.285696936098597 
1629	 0.285700204794519 
1630	 0.285694758494439 
1631	 0.285698628590913 
1632	 0.285706135837622 
1633	 0.285715546817986 
1634	 0.285731003469593 
1635	 0.285737077914534 
1636	 0.28573785522736 
1637	 0.285748469773342 
1638	 0.285757908513017 
1639	 0.285770718825595 
1640	 0.285790433532612 
1641	 0.285813641249828 
1642	 0.285839611281885 
1643	 0.28586173337965 
1644	 0.285896240481267 
1645	 0.285907675224729 
1646	 0.285895111544243 
1647	 0.285906677504454 
1648	 0.285923358409339 
1649	 0.285931541866528 
1650	 0.285955486255274 
1651	 0.285954881211703 
1652	 0.285922300847812 
1653	 0.285920676733831 
1654	 0.285927622734579 
1655	 0.285930124586849 
1656	 0.285947615557966 
1657	 0.285950314940104 
1658	 0.285944291058648 
1659	 0.285933015886102 
1660	 0.285910677562886 
1661	 0.285902113435015 
1662	 0.28589539306101 
1663	 0.285883045946371 
1664	 0.285883206863071 
1665	 0.285866046087428 
1666	 0.285833010673345 
1667	 0.28580063943749 
1668	 0.285754409616816 
1669	 0.285729737935101 
1670	 0.285704685471477 
1671	 0.285694652540479 
1672	 0.285709880621752 
1673	 0.285713598077808 
1674	 0.285719470611402 
1675	 0.285723155206413 
1676	 0.285737110715735 
1677	 0.285724566960938 
1678	 0.285689709631112 
1679	 0.285673643290023 
1680	 0.285638369854258 
1681	 0.285631655285131 
1682	 0.285658105648029 
1683	 0.285667383810283 
1684	 0.28567974300449 
1685	 0.28568885649274 
1686	 0.285694239703103 
1687	 0.285697457920851 
1688	 0.285702244935689 
1689	 0.285700294474447 
1690	 0.285705312932244 
1691	 0.285679178712692 
1692	 0.285629188970667 
1693	 0.285587255008989 
1694	 0.285519083706393 
1695	 0.285474348326704 
1696	 0.285433314566321 
1697	 0.285419975445602 
1698	 0.28542631868721 
1699	 0.285434080854599 
1700	 0.285483785687017 
1701	 0.285487898857564 
1702	 0.285461514733199 
1703	 0.285453690792572 
1704	 0.285435817198959 
1705	 0.285422563038213 
1706	 0.285429574596624 
1707	 0.285413786604667 
1708	 0.285376988160478 
1709	 0.285355769881254 
1710	 0.285333604622435 
1711	 0.285312407456577 
1712	 0.28529544398909 
1713	 0.285279262353165 
1714	 0.285263405366676 
1715	 0.285243398039275 
1716	 0.285224620185673 
1717	 0.285212401840182 
1718	 0.28520787064959 
1719	 0.285178446997739 
1720	 0.285149790001704 
1721	 0.285103639649057 
1722	 0.285022687873006 
1723	 0.284964737132259 
1724	 0.284913934023703 
1725	 0.284856091372683 
1726	 0.284796064408891 
1727	 0.284735649387497 
1728	 0.284667964414344 
1729	 0.284617907534202 
1730	 0.284571747360169 
1731	 0.28453838545133 
1732	 0.284538885166693 
1733	 0.28449137186732 
1734	 0.284433221389234 
1735	 0.284359713495871 
1736	 0.284241148484099 
1737	 0.284156310188415 
1738	 0.28409264254206 
1739	 0.284003341254862 
1740	 0.283906863085986 
1741	 0.283816955997505 
1742	 0.283700006351492 
1743	 0.283626803913908 
1744	 0.283588652367977 
1745	 0.283537730426173 
1746	 0.283503221734374 
1747	 0.283447677913365 
1748	 0.283367902990791 
1749	 0.283280943475669 
1750	 0.283209899029259 
1751	 0.283154161685877 
1752	 0.283102987592712 
1753	 0.283049823036446 
1754	 0.283014311835784 
1755	 0.282965725531666 
1756	 0.282919688308063 
1757	 0.282895178198155 
1758	 0.282834668739208 
1759	 0.282763088886024 
1760	 0.282713858073827 
1761	 0.282661868727135 
1762	 0.282613991995752 
1763	 0.28258451737923 
1764	 0.282540450008183 
1765	 0.282455665925253 
1766	 0.28239751667839 
1767	 0.282370344691529 
1768	 0.282318520266265 
1769	 0.282298872915796 
1770	 0.282282567296587 
1771	 0.282222045498509 
1772	 0.282184823162254 
1773	 0.282149217414156 
1774	 0.282074644100126 
1775	 0.281995196018093 
1776	 0.281930859618716 
1777	 0.281855272890134 
1778	 0.281809494342574 
1779	 0.281809312636841 
1780	 0.281778416568111 
1781	 0.281752219064507 
1782	 0.281741007985467 
1783	 0.281713573690665 
1784	 0.281704534220799 
1785	 0.281713771254418 
1786	 0.281713540149102 
1787	 0.281723519029047 
1788	 0.281704022307719 
1789	 0.281666152405105 
1790	 0.281640349163927 
1791	 0.281581372495363 
1792	 0.281571940158745 
1793	 0.28161268400192 
1794	 0.281614953829441 
1795	 0.281623209275672 
1796	 0.281624731311726 
1797	 0.281601891072277 
1798	 0.281582497286579 
1799	 0.281565769817285 
1800	 0.281558290840528 
1801	 0.279962998544617 
1802	 0.280103358673519 
1803	 0.280278489953715 
1804	 0.28048019684593 
1805	 0.280690144087942 
1806	 0.280886442421533 
1807	 0.281058708205131 
1808	 0.281190801904059 
1809	 0.281262712928232 
1810	 0.281344383077411 
1811	 0.281410375244813 
1812	 0.281468602380248 
1813	 0.281514461365955 
1814	 0.281557661365402 
1815	 0.281601989818408 
1816	 0.2816232868386 
1817	 0.281649601389723 
1818	 0.281671203462213 
1819	 0.281690325158897 
1820	 0.281707487528285 
1821	 0.281725604313645 
1822	 0.281709287935047 
1823	 0.281720205709323 
1824	 0.281749321005374 
1825	 0.281727552257323 
1826	 0.281735977689635 
1827	 0.281727428534461 
1828	 0.281695417586285 
1829	 0.281638424441885 
1830	 0.281591981663085 
1831	 0.281540475625081 
1832	 0.281464688902694 
1833	 0.281392786934089 
1834	 0.281312734256326 
1835	 0.281263980436503 
1836	 0.28123463202536 
1837	 0.281208967960564 
1838	 0.281213021393986 
1839	 0.281211065332752 
1840	 0.281215269778245 
1841	 0.281201637236987 
1842	 0.281207368803285 
1843	 0.281208549176177 
1844	 0.281196268645966 
1845	 0.281190871881052 
1846	 0.281193064402324 
1847	 0.281205670950239 
1848	 0.281209025292041 
1849	 0.28120433171667 
1850	 0.2811808218501 
1851	 0.281147550577661 
1852	 0.281076212914567 
1853	 0.280994847773671 
1854	 0.280904314261168 
1855	 0.28080689083804 
1856	 0.280711828912922 
1857	 0.280601991585225 
1858	 0.280485537962874 
1859	 0.280368489713442 
1860	 0.280226106861081 
1861	 0.280061691499995 
1862	 0.279902900255654 
1863	 0.279708395335854 
1864	 0.279422450014978 
1865	 0.279111182756462 
1866	 0.278702421270811 
1867	 0.27824719214347 
1868	 0.277821461690052 
1869	 0.277365787187563 
1870	 0.276949280073143 
1871	 0.276516698313697 
1872	 0.276093557687985 
1873	 0.275636426160148 
1874	 0.275210825635338 
1875	 0.274768894884108 
1876	 0.274286716100534 
1877	 0.273799881260277 
1878	 0.27325130919517 
1879	 0.272613448390399 
1880	 0.271888513048203 
1881	 0.271088812339494 
1882	 0.270213343639074 
1883	 0.269252752480808 
1884	 0.268196888249462 
1885	 0.267103580484664 
1886	 0.265943744925879 
1887	 0.264687979291216 
1888	 0.263388919178423 
1889	 0.261991800361685 
1890	 0.260528812938473 
1891	 0.259040299758175 
1892	 0.257482409895007 
1893	 0.255894192012682 
1894	 0.254268694817149 
1895	 0.252624777781333 
1896	 0.250906484795173 
1897	 0.249167452059309 
1898	 0.247433212266173 
1899	 0.24572215066532 
1900	 0.24406361223275 
1901	 0.242453443893741 
1902	 0.240917248216684 
1903	 0.239467742741588 
1904	 0.23804508167242 
1905	 0.236659543847124 
1906	 0.235360273358797 
1907	 0.234128870991701 
1908	 0.232933081267657 
1909	 0.231819694516273 
1910	 0.230765392996179 
1911	 0.229752301945264 
1912	 0.228769311275522 
1913	 0.227844622382032 
1914	 0.22697587800455 
1915	 0.226156565554984 
1916	 0.225383296213963 
1917	 0.224652685800046 
1918	 0.223999183956969 
1919	 0.223386094288941 
1920	 0.222849014974458 
1921	 0.22238197843396 
1922	 0.221944444737667 
1923	 0.221566195779844 
1924	 0.221228428965361 
1925	 0.220935951301667 
1926	 0.220684117161813 
1927	 0.220485171997334 
1928	 0.220315152746528 
1929	 0.220178263239994 
1930	 0.220062702970455 
1931	 0.219966641392891 
1932	 0.219889103508711 
1933	 0.219828311357127 
1934	 0.219794840904508 
1935	 0.219802090201076 
1936	 0.219850903665738 
1937	 0.219916676058333 
1938	 0.220026937365869 
1939	 0.220138211243985 
1940	 0.220259696252456 
1941	 0.220395966423794 
1942	 0.220569004632711 
1943	 0.220761512274607 
1944	 0.220992669736777 
1945	 0.221252786250903 
1946	 0.221506400353316 
1947	 0.221776176066929 
1948	 0.222045458022138 
1949	 0.222303114145328 
1950	 0.22259143315118 
1951	 0.222899421119419 
1952	 0.223204762643506 
1953	 0.223541514729427 
1954	 0.22390376675236 
1955	 0.22425907661741 
1956	 0.22462135841823 
1957	 0.224986811680021 
1958	 0.225348895524888 
1959	 0.225730463098023 
1960	 0.226129203292389 
1961	 0.226523585023801 
1962	 0.226933731065817 
1963	 0.227338124693934 
1964	 0.227741077188889 
1965	 0.228138828121054 
1966	 0.228540662042378 
1967	 0.228940373457979 
1968	 0.229336967767973 
1969	 0.22971480640798 
1970	 0.230126276654574 
1971	 0.230547241421528 
1972	 0.23097605698317 
1973	 0.231435135137034 
1974	 0.231880209502872 
1975	 0.232331042732023 
1976	 0.23277416057574 
1977	 0.233191964165443 
1978	 0.233608516140094 
1979	 0.234024544573903 
1980	 0.234440293018116 
1981	 0.234869046452091 
1982	 0.235321162924999 
1983	 0.235758876139462 
1984	 0.236197625390178 
1985	 0.236628781296726 
1986	 0.23705561709745 
1987	 0.237476399750314 
1988	 0.237884085324731 
1989	 0.238306073618298 
1990	 0.238714331014548 
1991	 0.239121070587 
1992	 0.23953082039111 
1993	 0.23993135851546 
1994	 0.240347568270196 
1995	 0.240771717793189 
1996	 0.241202739963086 
1997	 0.241655176734715 
1998	 0.242090554835613 
1999	 0.242523341989858 
2000	 0.242951747210898 
2001	 0.243377264182503 
2002	 0.243791289094082 
2003	 0.244199950378216 
2004	 0.244603378079842 
2005	 0.245003925156069 
2006	 0.245386754885832 
2007	 0.245788773034998 
2008	 0.246195649129696 
2009	 0.246607766236187 
2010	 0.247035048089009 
2011	 0.247450936285068 
2012	 0.24787127324215 
2013	 0.248280271235472 
2014	 0.248682582457619 
2015	 0.249080078153104 
2016	 0.249451110241532 
2017	 0.24983621150136 
2018	 0.250215032081947 
2019	 0.250585377949828 
2020	 0.250953304204917 
2021	 0.251324345755389 
2022	 0.251689590952097 
2023	 0.252029907736729 
2024	 0.252402751555431 
2025	 0.252796619255338 
2026	 0.253183139575306 
2027	 0.253580702414844 
2028	 0.253989016400895 
2029	 0.254372536233254 
2030	 0.254745893599469 
2031	 0.255098866776573 
2032	 0.255437974441105 
2033	 0.255770364555134 
2034	 0.256074531923122 
2035	 0.256399333488649 
2036	 0.256734037028964 
2037	 0.257050869772427 
2038	 0.257365130689962 
2039	 0.257674616105088 
2040	 0.2579579686289 
2041	 0.25826837439222 
2042	 0.258571857253124 
2043	 0.258860352662927 
2044	 0.259149394870852 
2045	 0.2594290674134 
2046	 0.259711014301933 
2047	 0.259993547054927 
2048	 0.260273330332665 
2049	 0.260561399213088 
2050	 0.260826501671347 
2051	 0.26107381314988 
2052	 0.261325029168283 
2053	 0.26154939437941 
2054	 0.261796863601883 
2055	 0.262059016890326 
2056	 0.262330318030944 
2057	 0.262586870135418 
2058	 0.262851997256038 
2059	 0.263099903042717 
2060	 0.263328258386884 
2061	 0.263564615143983 
2062	 0.263796299886357 
2063	 0.264032182316392 
2064	 0.264276173760989 
2065	 0.26450754315139 
2066	 0.264720091506695 
2067	 0.264955308884554 
2068	 0.265195121125601 
2069	 0.265446522148839 
2070	 0.265668809587706 
2071	 0.265894443888073 
2072	 0.266118068379334 
2073	 0.266312496828158 
2074	 0.266523144890952 
2075	 0.266754884544257 
2076	 0.266974287329408 
2077	 0.267175941377766 
2078	 0.267392179109187 
2079	 0.267631191668555 
2080	 0.267847562403722 
2081	 0.268041628465233 
2082	 0.268254637972612 
2083	 0.268468014482669 
2084	 0.268684337015333 
2085	 0.268896383853676 
2086	 0.269119280226548 
2087	 0.269337759673574 
2088	 0.269550713430408 
2089	 0.269756956043053 
2090	 0.269962094641196 
2091	 0.270173954044086 
2092	 0.270388047537952 
2093	 0.270583396029896 
2094	 0.27077596393415 
2095	 0.270972661306707 
2096	 0.271141750448694 
2097	 0.271328222074525 
2098	 0.271536058216069 
2099	 0.271742422874205 
2100	 0.271945142005174 
2101	 0.272149475970202 
2102	 0.272345483576878 
2103	 0.272534715178212 
2104	 0.272730517454022 
2105	 0.272911865779148 
2106	 0.273119723441199 
2107	 0.273344518739515 
2108	 0.273571779815168 
2109	 0.273824612760799 
2110	 0.274057037073823 
2111	 0.274274552362635 
2112	 0.274507249458954 
2113	 0.274752259665088 
2114	 0.274973902982558 
2115	 0.275206316256524 
2116	 0.275460842854934 
2117	 0.275675390564022 
2118	 0.275857112660846 
2119	 0.276071045785882 
2120	 0.276285433642317 
2121	 0.276494746483963 
2122	 0.276734707401545 
2123	 0.27693128575829 
2124	 0.277087507562807 
2125	 0.277261415349134 
2126	 0.277430810723113 
2127	 0.277592145927216 
2128	 0.277765532613709 
2129	 0.2779172973799 
2130	 0.278059818223781 
2131	 0.2781744429594 
2132	 0.278280531541186 
2133	 0.278380597408941 
2134	 0.278443480119133 
2135	 0.278462395125288 
2136	 0.278511877647578 
2137	 0.278550433842068 
2138	 0.278587911650575 
2139	 0.278652775588737 
2140	 0.278680332357248 
2141	 0.278662305571727 
2142	 0.278670442927329 
2143	 0.278683171285723 
2144	 0.278689400623572 
2145	 0.278724597230644 
2146	 0.278720793563905 
2147	 0.278691498704851 
2148	 0.278649322366694 
2149	 0.278589255998641 
2150	 0.278494793805645 
2151	 0.27841628471816 
2152	 0.278337903536524 
2153	 0.278242385930767 
2154	 0.278147381086483 
2155	 0.278028635690536 
2156	 0.277878261159172 
2157	 0.277741174578702 
2158	 0.277596497503412 
2159	 0.277451715762696 
2160	 0.277329247326559 
2161	 0.277168321815933 
2162	 0.276980262440919 
2163	 0.27679187059453 
2164	 0.276572973042015 
2165	 0.276365823217232 
2166	 0.276154350321666 
2167	 0.275946736522152 
2168	 0.275730638958404 
2169	 0.275509121255529 
2170	 0.275283137530335 
2171	 0.275032877748123 
2172	 0.274826478866628 
2173	 0.274632951127831 
2174	 0.274447151578218 
2175	 0.274305074330766 
2176	 0.274136657438661 
2177	 0.273953936185597 
2178	 0.2737768658599 
2179	 0.273619159086504 
2180	 0.27342528858014 
2181	 0.273205982658245 
2182	 0.272992695780596 
2183	 0.272758664327667 
2184	 0.272512421511252 
2185	 0.272297644111942 
2186	 0.272112481567563 
2187	 0.271898692060289 
2188	 0.271691368778681 
2189	 0.271462578298582 
2190	 0.271197828950415 
2191	 0.270966797075973 
2192	 0.270733397858036 
2193	 0.270523316413839 
2194	 0.270337022756677 
2195	 0.270152757257293 
2196	 0.269953595752458 
2197	 0.269806470942841 
2198	 0.269682245205959 
2199	 0.269588673491795 
2200	 0.269564939863434 
2201	 0.269524329620433 
2202	 0.269501740824776 
2203	 0.269467675681475 
2204	 0.269442277948171 
2205	 0.269410243798367 
2206	 0.269399542672939 
2207	 0.269403375383361 
2208	 0.269409249198464 
2209	 0.269420844499761 
2210	 0.269446011511988 
2211	 0.269476999115529 
2212	 0.269519790147563 
2213	 0.269585240526053 
2214	 0.269644059244145 
2215	 0.269709746228581 
2216	 0.269773500427774 
2217	 0.269848882720362 
2218	 0.269904745263587 
2219	 0.269942138170234 
2220	 0.269988479363833 
2221	 0.270032250639969 
2222	 0.270072199804921 
2223	 0.270098305526466 
2224	 0.270126208177776 
2225	 0.270139816630764 
2226	 0.2701254046189 
2227	 0.270122680498184 
2228	 0.270112481728347 
2229	 0.270135713021002 
2230	 0.270172652742177 
2231	 0.270205070859774 
2232	 0.270271999350767 
2233	 0.270302541419295 
2234	 0.270303439264149 
2235	 0.270315904624957 
2236	 0.270344440342945 
2237	 0.27033572090129 
2238	 0.27029548626248 
2239	 0.270273105513353 
2240	 0.270238203787044 
2241	 0.270197231422454 
2242	 0.270165019975332 
2243	 0.270130595762278 
2244	 0.270083949553124 
2245	 0.270032998517369 
2246	 0.26998382582459 
2247	 0.269939387798382 
2248	 0.269883471799121 
2249	 0.269808599931206 
2250	 0.269755438574317 
2251	 0.269702659133215 
2252	 0.269665154365212 
2253	 0.2696508745697 
2254	 0.269611736430785 
2255	 0.269581360798453 
2256	 0.269530003983744 
2257	 0.269444226680516 
2258	 0.269380439109078 
2259	 0.269306168758132 
2260	 0.269259039162744 
2261	 0.269228960474367 
2262	 0.26920929509309 
2263	 0.269196636324271 
2264	 0.269209639955971 
2265	 0.269265790338508 
2266	 0.269296253306212 
2267	 0.269341210101642 
2268	 0.269375524045674 
2269	 0.269405870100432 
2270	 0.269384373773539 
2271	 0.269405282531197 
2272	 0.269434597045419 
2273	 0.269484983903932 
2274	 0.269527708965385 
2275	 0.269528126646094 
2276	 0.269510420458556 
2277	 0.269484881949607 
2278	 0.269409650347988 
2279	 0.269383317900081 
2280	 0.269369661128171 
2281	 0.269367433130411 
2282	 0.269379231398238 
2283	 0.269397993501689 
2284	 0.269443590249019 
2285	 0.269467630173187 
2286	 0.269503245073037 
2287	 0.269505755021982 
2288	 0.269469142550504 
2289	 0.269464447744553 
2290	 0.269457987928531 
2291	 0.269446167000282 
2292	 0.269452649016784 
2293	 0.269441391263785 
2294	 0.269414107973374 
2295	 0.269388154703943 
2296	 0.269347316554829 
2297	 0.269330668563032 
2298	 0.269318749055569 
2299	 0.269279547210351 
2300	 0.26927159101125 
2301	 0.269295810158958 
2302	 0.269272139503353 
2303	 0.269248227570292 
2304	 0.269214038378497 
2305	 0.269122811963734 
2306	 0.269059468813671 
2307	 0.26900491885516 
2308	 0.268924527014201 
2309	 0.268832793284024 
2310	 0.268741224348922 
2311	 0.268617164444497 
2312	 0.268538419065714 
2313	 0.268486637209446 
2314	 0.26841182179656 
2315	 0.268365110949435 
2316	 0.268279442228632 
2317	 0.268150418370043 
2318	 0.268060131830427 
2319	 0.267975382771706 
2320	 0.267873030739045 
2321	 0.267771977066961 
2322	 0.267681199234641 
2323	 0.267592417570677 
2324	 0.267488454860376 
2325	 0.267347831290478 
2326	 0.267275924800221 
2327	 0.267228955327506 
2328	 0.26717982838857 
2329	 0.267181390798331 
2330	 0.267249425783408 
2331	 0.267220041944808 
2332	 0.267136267709913 
2333	 0.267025769433635 
2334	 0.266872507921645 
2335	 0.266821787638556 
2336	 0.266779403341448 
2337	 0.26668569788291 
2338	 0.266654756686313 
2339	 0.26657192356546 
2340	 0.26645407293648 
2341	 0.266348684236462 
2342	 0.266166884822864 
2343	 0.265962792882599 
2344	 0.265750534447681 
2345	 0.265581934202474 
2346	 0.265486721802795 
2347	 0.265347116591247 
2348	 0.265203286264128 
2349	 0.265046671828341 
2350	 0.264856677603018 
2351	 0.264704689211306 
2352	 0.264585597352649 
2353	 0.264409387845318 
2354	 0.26421405233745 
2355	 0.264047262644445 
2356	 0.263863425212226 
2357	 0.263662805122467 
2358	 0.263511267022657 
2359	 0.263303007845637 
2360	 0.263009153925845 
2361	 0.26277071357241 
2362	 0.262535580491674 
2363	 0.26230056100163 
2364	 0.262080311173477 
2365	 0.261850154434246 
2366	 0.261650014770807 
2367	 0.261397336498866 
2368	 0.26110942598742 
2369	 0.260835339281637 
2370	 0.260520047858481 
2371	 0.260229116485351 
2372	 0.259960858979315 
2373	 0.259670206735427 
2374	 0.259405010613631 
2375	 0.259112851337766 
2376	 0.258839721237651 
2377	 0.258580099798922 
2378	 0.258328637818935 
2379	 0.258079593783097 
2380	 0.257803579272033 
2381	 0.257556479620563 
2382	 0.257266689960128 
2383	 0.256995364967655 
2384	 0.256708342074559 
2385	 0.256349277837352 
2386	 0.256015906720225 
2387	 0.255677442119907 
2388	 0.255383294180664 
2389	 0.255142720437785 
2390	 0.254987784131788 
2391	 0.254822479496948 
2392	 0.254571554523402 
2393	 0.254339758198492 
2394	 0.25402568674428 
2395	 0.253676697021806 
2396	 0.253384719623499 
2397	 0.253106384725036 
2398	 0.252821234653989 
2399	 0.25251926726673 
2400	 0.252202896802892 
2401	 0.251843097119427 
2402	 0.251453922682083 
2403	 0.251088282380897 
2404	 0.250788287828782 
2405	 0.250452924449315 
2406	 0.250124939489519 
2407	 0.249771763463497 
2408	 0.249236381957992 
2409	 0.248765462507426 
2410	 0.248394577440842 
2411	 0.24802599117694 
2412	 0.247784374183335 
2413	 0.247559408426826 
2414	 0.247294427531659 
2415	 0.246984061581393 
2416	 0.246655186635878 
2417	 0.246268372520292 
2418	 0.24600625745613 
2419	 0.24579234495457 
2420	 0.24551363849683 
2421	 0.24528593375643 
2422	 0.244980019292606 
2423	 0.24455872272696 
2424	 0.244248300584846 
2425	 0.244012652981776 
2426	 0.24370104755606 
2427	 0.243372511763442 
2428	 0.243021046925453 
2429	 0.242618971319272 
2430	 0.242241433924142 
2431	 0.241881737510169 
2432	 0.241512748830053 
2433	 0.241115163643297 
2434	 0.240837906946934 
2435	 0.240601596006157 
2436	 0.240312329177105 
2437	 0.240106771623584 
2438	 0.239821844965398 
2439	 0.239454269691513 
2440	 0.239147329235047 
2441	 0.238872768482221 
2442	 0.23855391525543 
2443	 0.238186265262092 
2444	 0.237848847840711 
2445	 0.237524716088741 
2446	 0.237185445458199 
2447	 0.236845934836412 
2448	 0.236541471754678 
2449	 0.236224013585479 
2450	 0.235928192482147 
2451	 0.235682988230469 
2452	 0.235449122956007 
2453	 0.235308578878389 
2454	 0.235012336529267 
2455	 0.234619956401891 
2456	 0.23422963674352 
2457	 0.233652139632058 
2458	 0.233247457731853 
2459	 0.23302366341347 
2460	 0.232692105372134 
2461	 0.232371334309081 
2462	 0.232079128957169 
2463	 0.231743421778926 
2464	 0.23138469946071 
2465	 0.230996529575403 
2466	 0.230672443360553 
2467	 0.230387471445188 
2468	 0.230094311068959 
2469	 0.22983809769527 
2470	 0.229631878673196 
2471	 0.229420412453838 
2472	 0.229175359156943 
2473	 0.228947338017673 
2474	 0.228632191549611 
2475	 0.228168431374441 
2476	 0.227804844445444 
2477	 0.227454081776877 
2478	 0.22699678249591 
2479	 0.226586981136406 
2480	 0.226270877018113 
2481	 0.225993545950124 
2482	 0.225798898215179 
2483	 0.225602304997091 
2484	 0.225428718765505 
2485	 0.225319524956504 
2486	 0.225093437762511 
2487	 0.224908238370947 
2488	 0.22474187316141 
2489	 0.224361723303807 
2490	 0.22382859746693 
2491	 0.223327861401877 
2492	 0.222936897493452 
2493	 0.222561204000173 
2494	 0.222331716321117 
2495	 0.222333161602018 
2496	 0.222211836441309 
2497	 0.221961328113102 
2498	 0.221717910472885 
2499	 0.221555988250249 
2500	 0.221520618366843 
