Wavelength	LMW_2400007.asd
350	 4.76599343112795E-02 
351	 4.90964754074745E-02 
352	 5.00494340537712E-02 
353	 4.70449404759593E-02 
354	 4.71139187477346E-02 
355	 4.27935037430103E-02 
356	 4.00455264424346E-02 
357	 4.42645077232062E-02 
358	 4.57865963461949E-02 
359	 0.048150688168824 
360	 4.92360724092654E-02 
361	 4.42092321522104E-02 
362	 4.15869875016008E-02 
363	 4.36093094750843E-02 
364	 0.047994374399036 
365	 0.047169612886077 
366	 4.50305320035163E-02 
367	 4.50897539076753E-02 
368	 4.87679546730988E-02 
369	 5.03873423986966E-02 
370	 5.02902221126996E-02 
371	 4.85372713607682E-02 
372	 4.54769611630799E-02 
373	 4.80604545517925E-02 
374	 4.96983755637174E-02 
375	 4.76742111755938E-02 
376	 4.91264503673218E-02 
377	 4.71205745404678E-02 
378	 4.53526518343558E-02 
379	 4.81878344186969E-02 
380	 4.92012540568225E-02 
381	 4.89577501609135E-02 
382	 4.95613551327418E-02 
383	 5.32976227361334E-02 
384	 5.15137072610813E-02 
385	 4.84236262846234E-02 
386	 4.81586352662459E-02 
387	 5.14879489936416E-02 
388	 5.26617472346171E-02 
389	 5.20649108647939E-02 
390	 5.16697504325903E-02 
391	 5.00074277337689E-02 
392	 4.88269544591739E-02 
393	 4.97957245095893E-02 
394	 5.38878863105927E-02 
395	 5.40386636013737E-02 
396	 5.28149646286415E-02 
397	 0.053063662724974 
398	 5.47828988283162E-02 
399	 5.53820352663215E-02 
400	 5.51882910553401E-02 
401	 5.53556088984083E-02 
402	 5.46467390038341E-02 
403	 5.42205618293322E-02 
404	 5.49677194102506E-02 
405	 5.72500030249914E-02 
406	 5.73270602426831E-02 
407	 5.71164180368524E-02 
408	 5.79484902664996E-02 
409	 5.65597276744597E-02 
410	 5.48672238956755E-02 
411	 5.47554432246647E-02 
412	 5.72097069654575E-02 
413	 5.74136897954428E-02 
414	 5.73068661989904E-02 
415	 5.78039317266414E-02 
416	 5.77116246538904E-02 
417	 5.71936088512697E-02 
418	 5.68410395020691E-02 
419	 5.70861095265555E-02 
420	 0.057603701234814 
421	 5.72265570360751E-02 
422	 5.67755930176833E-02 
423	 5.79821429440569E-02 
424	 5.75875345630645E-02 
425	 5.69131964489236E-02 
426	 5.69063428486381E-02 
427	 5.67527945309395E-02 
428	 5.67301569778655E-02 
429	 5.68673192078869E-02 
430	 5.70611699135688E-02 
431	 5.68967568899618E-02 
432	 5.69868330800909E-02 
433	 5.71637749791954E-02 
434	 5.65468691380347E-02 
435	 5.68078219389399E-02 
436	 0.057206724571855 
437	 5.69864539608329E-02 
438	 5.65192176139472E-02 
439	 5.65405701522625E-02 
440	 5.69429656413744E-02 
441	 5.71895023475669E-02 
442	 0.057169179899132 
443	 5.73981773517517E-02 
444	 5.78321371087881E-02 
445	 5.74763442255933E-02 
446	 5.75777871068209E-02 
447	 5.78919925049551E-02 
448	 5.79136682676865E-02 
449	 5.79883243874402E-02 
450	 5.80333753642671E-02 
451	 5.81230733660048E-02 
452	 5.84400684946104E-02 
453	 5.84832881184141E-02 
454	 5.85300810324037E-02 
455	 5.87379469847662E-02 
456	 0.05861689258714 
457	 5.84714079684789E-02 
458	 5.85169687158215E-02 
459	 5.88497516602819E-02 
460	 5.90516558259646E-02 
461	 0.058910919035222 
462	 5.85954502021367E-02 
463	 5.87496518638374E-02 
464	 5.91377305155256E-02 
465	 5.93495539443837E-02 
466	 5.91603859199096E-02 
467	 5.92742084545735E-02 
468	 5.95347720832175E-02 
469	 5.96427818761369E-02 
470	 5.92708761597644E-02 
471	 5.92714730787941E-02 
472	 0.059417322797283 
473	 5.94329769443627E-02 
474	 5.93807543712182E-02 
475	 0.059340872715579 
476	 5.93832812833556E-02 
477	 5.95277519117099E-02 
478	 5.95022075543332E-02 
479	 5.95840774522733E-02 
480	 5.97812880149667E-02 
481	 5.96609506018502E-02 
482	 5.97937892443338E-02 
483	 6.00326739210744E-02 
484	 6.00941481827137E-02 
485	 6.00069814804971E-02 
486	 5.98806553039686E-02 
487	 0.059844633481357 
488	 6.00126647642792E-02 
489	 0.060015930903209 
490	 6.00598634271424E-02 
491	 6.02699350270769E-02 
492	 6.03377968945933E-02 
493	 6.02555206686268E-02 
494	 6.01685637064439E-02 
495	 6.02597710827356E-02 
496	 6.03214515176801E-02 
497	 0.060328241647434 
498	 6.03415979331671E-02 
499	 0.060533220333921 
500	 6.05143306864668E-02 
501	 6.04509811303265E-02 
502	 6.05665104765026E-02 
503	 6.05406271965778E-02 
504	 6.06370280095335E-02 
505	 6.08133317031719E-02 
506	 6.07542993197062E-02 
507	 6.07799769993428E-02 
508	 6.07836563142055E-02 
509	 6.07007710320331E-02 
510	 6.08198748185317E-02 
511	 0.060806451366025 
512	 6.07665947366161E-02 
513	 6.09796564786905E-02 
514	 6.10051663926133E-02 
515	 6.09780118026256E-02 
516	 6.10146242147557E-02 
517	 6.10893526746802E-02 
518	 6.11666775597329E-02 
519	 6.11941401071691E-02 
520	 6.11541754000618E-02 
521	 6.12205048837828E-02 
522	 6.12718395263131E-02 
523	 6.12696493089616E-02 
524	 6.12783816194563E-02 
525	 6.12686568459587E-02 
526	 0.061256465868557 
527	 6.12761687513896E-02 
528	 6.14005448104147E-02 
529	 6.14968384908364E-02 
530	 6.15405996980902E-02 
531	 6.15805775783847E-02 
532	 6.15935242487158E-02 
533	 6.16809798498781E-02 
534	 6.18350565074507E-02 
535	 6.17691183139172E-02 
536	 6.18060094670889E-02 
537	 6.19266957130236E-02 
538	 6.19891207645921E-02 
539	 6.20076847342834E-02 
540	 6.20323859004046E-02 
541	 6.20959524950584E-02 
542	 6.22051024951878E-02 
543	 6.22874954624686E-02 
544	 6.23495581873102E-02 
545	 6.24229612088935E-02 
546	 6.25484587657214E-02 
547	 0.062614771767912 
548	 6.26343783786042E-02 
549	 6.27222103705999E-02 
550	 6.28002170918985E-02 
551	 6.29039238820602E-02 
552	 6.30710780576662E-02 
553	 6.33191725632966E-02 
554	 6.34163137737824E-02 
555	 6.34624811613589E-02 
556	 6.37010913990574E-02 
557	 6.39211995548779E-02 
558	 6.40544983020515E-02 
559	 6.41335707546172E-02 
560	 6.43426590800426E-02 
561	 6.44492516484061E-02 
562	 6.45952923960559E-02 
563	 0.064965658885711 
564	 6.52426086175395E-02 
565	 6.54907695136217E-02 
566	 6.57914420200259E-02 
567	 6.62147471042106E-02 
568	 6.65586796739118E-02 
569	 6.67750841071958E-02 
570	 6.69126566405537E-02 
571	 6.71858610187806E-02 
572	 0.067484362503554 
573	 6.77876102136585E-02 
574	 6.81351473149012E-02 
575	 6.84682114098654E-02 
576	 6.88607759526473E-02 
577	 6.93552726746639E-02 
578	 6.98877663978475E-02 
579	 7.04476045848694E-02 
580	 7.09835282482979E-02 
581	 7.14496228260785E-02 
582	 7.19482460085499E-02 
583	 7.24207899849329E-02 
584	 7.28492454866544E-02 
585	 7.32901123381035E-02 
586	 7.38797128405138E-02 
587	 7.45473598495479E-02 
588	 7.51655512661776E-02 
589	 7.56878622676518E-02 
590	 0.076162809260046 
591	 7.66162266906403E-02 
592	 7.70488036358146E-02 
593	 7.73913401570525E-02 
594	 0.077724501353521 
595	 7.81350707692056E-02 
596	 7.86445222143764E-02 
597	 7.92546628765615E-02 
598	 7.99171004021603E-02 
599	 8.05630790168218E-02 
600	 8.12155410908215E-02 
601	 8.18029351573384E-02 
602	 8.22785529849359E-02 
603	 8.26462951067307E-02 
604	 8.30879342648606E-02 
605	 8.35525564957184E-02 
606	 8.39357139643637E-02 
607	 8.43617489667864E-02 
608	 8.47667640818869E-02 
609	 0.085128447651639 
610	 8.54844448956092E-02 
611	 8.57905192486479E-02 
612	 8.61179036722001E-02 
613	 8.65045640576788E-02 
614	 8.67859529944893E-02 
615	 8.70816493088184E-02 
616	 8.73947686428729E-02 
617	 8.76499757982986E-02 
618	 8.79131318113448E-02 
619	 0.088116684757975 
620	 8.82506141551721E-02 
621	 8.84691109412546E-02 
622	 8.86934127671441E-02 
623	 8.88992877199654E-02 
624	 8.90796071813588E-02 
625	 8.92119111570689E-02 
626	 8.93323244813353E-02 
627	 8.94839151733978E-02 
628	 8.97128687799216E-02 
629	 8.99011753100428E-02 
630	 9.00146637091291E-02 
631	 9.00790396915812E-02 
632	 9.02360501503482E-02 
633	 9.04133362864004E-02 
634	 9.05613570174427E-02 
635	 9.06623141588199E-02 
636	 9.08367202198108E-02 
637	 9.09855893902023E-02 
638	 9.10491410292576E-02 
639	 9.11568833163002E-02 
640	 9.12705764592081E-02 
641	 9.14069761344444E-02 
642	 9.15895712151498E-02 
643	 9.17207601973136E-02 
644	 9.18604693778299E-02 
645	 9.20170951404011E-02 
646	 9.20996952116376E-02 
647	 0.092243709655112 
648	 9.24157874884084E-02 
649	 9.25509909935495E-02 
650	 9.26739581704809E-02 
651	 9.28268642531394E-02 
652	 9.30018047434519E-02 
653	 9.31518544720842E-02 
654	 9.33550092020362E-02 
655	 9.35367275261979E-02 
656	 9.36630444302916E-02 
657	 0.093869477895875 
658	 9.40862288658307E-02 
659	 9.43067182556043E-02 
660	 9.45404708746236E-02 
661	 9.47026448871121E-02 
662	 9.48370995840446E-02 
663	 9.50064499604454E-02 
664	 0.095282828310568 
665	 0.095537633376068 
666	 9.57295614725678E-02 
667	 9.58756520655791E-02 
668	 9.60992372370878E-02 
669	 9.63648244345452E-02 
670	 9.66348981654441E-02 
671	 9.68776059324833E-02 
672	 9.71374924198034E-02 
673	 9.73829852259517E-02 
674	 9.76083229896063E-02 
675	 9.79082208964971E-02 
676	 9.81505660955291E-02 
677	 0.098381553128634 
678	 9.87005616503291E-02 
679	 9.89794674160165E-02 
680	 9.92797318588507E-02 
681	 9.96081398044533E-02 
682	 9.98808422925565E-02 
683	 0.100166348137766 
684	 0.100490444470752 
685	 0.100840518699422 
686	 0.101107785145809 
687	 0.101396498765165 
688	 0.101723438578852 
689	 0.102041974727144 
690	 0.102375138941633 
691	 0.102702103696273 
692	 0.103026343855179 
693	 0.103418499101614 
694	 0.103760467163326 
695	 0.104090194187397 
696	 0.104478072248028 
697	 0.104829204133658 
698	 0.105184448446424 
699	 0.105558902523257 
700	 0.105932424385237 
701	 0.106272535109313 
702	 0.106631719999748 
703	 0.107039735019722 
704	 0.10741014877781 
705	 0.107784660011256 
706	 0.108156196495897 
707	 0.108500388979388 
708	 0.108871921317914 
709	 0.109235406465139 
710	 0.10959050222292 
711	 0.110004373602919 
712	 0.110365875988835 
713	 0.11069796245447 
714	 0.111048694416331 
715	 0.111400594101545 
716	 0.111757129725603 
717	 0.112114861062741 
718	 0.112465245891779 
719	 0.112816505971895 
720	 0.113131639765637 
721	 0.113405803745933 
722	 0.11370350302082 
723	 0.114038370000615 
724	 0.114371612920583 
725	 0.114652473311837 
726	 0.114878913870743 
727	 0.115116760935769 
728	 0.115369352500481 
729	 0.115582566965571 
730	 0.115822647229258 
731	 0.116062223742578 
732	 0.116268804153013 
733	 0.116437207691892 
734	 0.116586412663516 
735	 0.116746562874257 
736	 0.11693345631181 
737	 0.117054049406438 
738	 0.117163165762081 
739	 0.117272556341889 
740	 0.117337516722511 
741	 0.117441036794193 
742	 0.117521094006838 
743	 0.117533259486094 
744	 0.117563791618666 
745	 0.117602132829291 
746	 0.117626363158998 
747	 0.117613456604629 
748	 0.117590189924573 
749	 0.117543482144746 
750	 0.117480454791153 
751	 0.1174352686434 
752	 0.117362591499519 
753	 0.117294917718006 
754	 0.117251414334476 
755	 0.117163162979734 
756	 0.117030166205956 
757	 0.116888682759224 
758	 0.116781044281627 
759	 0.116638004707104 
760	 0.116464385640556 
761	 0.116286552526712 
762	 0.116146349240351 
763	 0.115985684981845 
764	 0.115814033164124 
765	 0.115649123073122 
766	 0.115487086051661 
767	 0.115286709894053 
768	 0.115074281647024 
769	 0.114900816321032 
770	 0.114726572205504 
771	 0.114528856468267 
772	 0.11430433917547 
773	 0.114070855223936 
774	 0.113824903366255 
775	 0.113595840092378 
776	 0.113394131867847 
777	 0.113162329059629 
778	 0.112934484557202 
779	 0.112725342054236 
780	 0.112531357707469 
781	 0.112296132752986 
782	 0.112062876911436 
783	 0.111844046422102 
784	 0.111612280217966 
785	 0.111379875799669 
786	 0.111138293702655 
787	 0.110890667645186 
788	 0.110678123832444 
789	 0.110454859505293 
790	 0.11023273580217 
791	 0.110029671773398 
792	 0.109776408309951 
793	 0.109531246063036 
794	 0.109306338430697 
795	 0.109071930683772 
796	 0.10886171559126 
797	 0.108655049978737 
798	 0.108439206308255 
799	 0.108232325627625 
800	 0.108003756760267 
801	 0.10778040588407 
802	 0.1075900278406 
803	 0.107392463355074 
804	 0.107204409485066 
805	 0.10701289261979 
806	 0.106795600170262 
807	 0.106618490252727 
808	 0.106444569048486 
809	 0.106253719596791 
810	 0.106062770711863 
811	 0.105912211544297 
812	 0.105738393546944 
813	 0.105510551472507 
814	 0.105349512549124 
815	 0.105206202026654 
816	 0.105062258918661 
817	 0.104914621087881 
818	 0.104782740857169 
819	 0.104638685271139 
820	 0.104470019961347 
821	 0.104284486446572 
822	 0.104124131170794 
823	 0.103993036771949 
824	 0.103878035489711 
825	 0.103750708492964 
826	 0.103616561694595 
827	 0.103491623464052 
828	 0.103384371003337 
829	 0.103266663462959 
830	 0.103161960996928 
831	 0.103069382343694 
832	 0.102978481520084 
833	 0.102904458105006 
834	 0.102828677876013 
835	 0.102717737564738 
836	 0.102542125556471 
837	 0.102466228280347 
838	 0.102447048633142 
839	 0.102409882654209 
840	 0.102290939933738 
841	 0.102196546324973 
842	 0.102130296928601 
843	 0.102070495580116 
844	 0.102016366812459 
845	 0.101968250776624 
846	 0.101908487095327 
847	 0.101828360557369 
848	 0.101814892899161 
849	 0.101779782621071 
850	 0.101723181376632 
851	 0.101717859890291 
852	 0.101662081151112 
853	 0.101615092293039 
854	 0.101603743940245 
855	 0.101576050081486 
856	 0.101576859961056 
857	 0.101589756666111 
858	 0.101596336623127 
859	 0.101613594345556 
860	 0.101602198519286 
861	 0.101587546721867 
862	 0.101606198949913 
863	 0.10163724937692 
864	 0.101626471965219 
865	 0.101592239118128 
866	 0.101596070643207 
867	 0.101649629412466 
868	 0.101680686805373 
869	 0.101689453047119 
870	 0.101750551095677 
871	 0.101797819918616 
872	 0.101843607810648 
873	 0.10191019236485 
874	 0.102014087919525 
875	 0.102037597016145 
876	 0.102025724522655 
877	 0.102057562955528 
878	 0.102190220234289 
879	 0.102292220209933 
880	 0.102347406624668 
881	 0.102391599256582 
882	 0.102472220645436 
883	 0.102557005122398 
884	 0.102653183172612 
885	 0.102777001519832 
886	 0.102856346211456 
887	 0.102927308926322 
888	 0.103015668615801 
889	 0.10312684367606 
890	 0.103236259952234 
891	 0.10334232377953 
892	 0.103453459981695 
893	 0.103583148693866 
894	 0.103679681624573 
895	 0.103791396381042 
896	 0.103953931662036 
897	 0.104145619929757 
898	 0.104262945782281 
899	 0.104388944995374 
900	 0.10458148153207 
901	 0.104686161548792 
902	 0.104838999122085 
903	 0.105054074451233 
904	 0.105276273610565 
905	 0.105366963633999 
906	 0.105506959851126 
907	 0.105688309811637 
908	 0.105834489180589 
909	 0.106047073329355 
910	 0.106246191625271 
911	 0.106457865855435 
912	 0.106752797150586 
913	 0.106973606434637 
914	 0.107152738839431 
915	 0.107333870049747 
916	 0.107548758470236 
917	 0.107770053192918 
918	 0.108002846802343 
919	 0.108225580524851 
920	 0.108394443109957 
921	 0.108651188134794 
922	 0.108893191942081 
923	 0.109090306461039 
924	 0.109373546957169 
925	 0.109638835287748 
926	 0.109927028080059 
927	 0.110236825669392 
928	 0.110439391764873 
929	 0.110680568027318 
930	 0.110996583148106 
931	 0.111357850812629 
932	 0.111660581480138 
933	 0.112000884347455 
934	 0.112282393241066 
935	 0.112469897615352 
936	 0.112868063542995 
937	 0.113163919590184 
938	 0.113426038712769 
939	 0.113789218662077 
940	 0.114146155837137 
941	 0.114488846072921 
942	 0.114835228256479 
943	 0.115188480052422 
944	 0.115438943755831 
945	 0.115710226967448 
946	 0.116080330420841 
947	 0.116529747200719 
948	 0.11675912636921 
949	 0.117057537115212 
950	 0.117453114759137 
951	 0.117842711998707 
952	 0.118279636672398 
953	 0.118665923314238 
954	 0.11900530549555 
955	 0.119353850037754 
956	 0.119674555786803 
957	 0.120079941990363 
958	 0.120531605349215 
959	 0.12091617691188 
960	 0.12129931474013 
961	 0.121669378972497 
962	 0.122044300314683 
963	 0.122447570915866 
964	 0.122810088283532 
965	 0.123220461718809 
966	 0.123684360563318 
967	 0.124148699422898 
968	 0.124629585550963 
969	 0.12505465872702 
970	 0.125375034871359 
971	 0.12560785201552 
972	 0.125980187112276 
973	 0.126469118601715 
974	 0.126998924321866 
975	 0.127485776610876 
976	 0.127938086094544 
977	 0.128373986002136 
978	 0.128804132242417 
979	 0.129214245941617 
980	 0.129499490133754 
981	 0.129786933143478 
982	 0.130185404462078 
983	 0.13072444526472 
984	 0.131195029869064 
985	 0.131640444867174 
986	 0.132012479518818 
987	 0.132288107827231 
988	 0.13284459038156 
989	 0.13330217237848 
990	 0.133596647960562 
991	 0.133897723281618 
992	 0.134489164151114 
993	 0.134870030916587 
994	 0.135202966335091 
995	 0.135770867906443 
996	 0.135962181133455 
997	 0.136307321490688 
998	 0.13678093603433 
999	 0.137204920713598 
1000	 0.13776102973309 
1001	 0.135469200909629 
1002	 0.135838196214131 
1003	 0.136093393281444 
1004	 0.136357703754687 
1005	 0.136601315543181 
1006	 0.136878299714652 
1007	 0.137124792317058 
1008	 0.137448706885806 
1009	 0.137725099287501 
1010	 0.138014092589015 
1011	 0.138290982002945 
1012	 0.138537041093789 
1013	 0.13886300576469 
1014	 0.139166062717587 
1015	 0.139426797784245 
1016	 0.139701293335527 
1017	 0.139952271754414 
1018	 0.14019492874616 
1019	 0.140396766718493 
1020	 0.140611955222149 
1021	 0.140824982746602 
1022	 0.141018440225278 
1023	 0.141256521112198 
1024	 0.141483786958578 
1025	 0.141723199553076 
1026	 0.141996748668397 
1027	 0.142244774761734 
1028	 0.142447434461457 
1029	 0.142638594487666 
1030	 0.142828038872632 
1031	 0.143015187289687 
1032	 0.143201171361773 
1033	 0.143435716281179 
1034	 0.143610403310587 
1035	 0.143743208006506 
1036	 0.143936177475571 
1037	 0.144126178241459 
1038	 0.14429869158264 
1039	 0.144532893402884 
1040	 0.144760266881505 
1041	 0.144922835998332 
1042	 0.145147489985155 
1043	 0.145331891380731 
1044	 0.145492166769956 
1045	 0.145596509062762 
1046	 0.145772367659597 
1047	 0.145952595691013 
1048	 0.146141744398688 
1049	 0.146356022325001 
1050	 0.146569238087573 
1051	 0.146744308843699 
1052	 0.146922374777518 
1053	 0.147110909531308 
1054	 0.147257829944421 
1055	 0.147436670129979 
1056	 0.147623749411241 
1057	 0.147787395843278 
1058	 0.147957206985901 
1059	 0.148118934274705 
1060	 0.148277645542093 
1061	 0.14835746892515 
1062	 0.148483644085642 
1063	 0.148661378657111 
1064	 0.148796738840973 
1065	 0.148977362051927 
1066	 0.149143243377214 
1067	 0.149231473964595 
1068	 0.149320706365333 
1069	 0.149412924312462 
1070	 0.149486567896118 
1071	 0.14953230451536 
1072	 0.149601910193749 
1073	 0.149668133605497 
1074	 0.149739521983827 
1075	 0.149837178643297 
1076	 0.149913517529484 
1077	 0.149948791676941 
1078	 0.150009239409612 
1079	 0.150036730904291 
1080	 0.150094293763517 
1081	 0.150200277092895 
1082	 0.150243150288179 
1083	 0.150308514897397 
1084	 0.150381014302931 
1085	 0.150465657205326 
1086	 0.150570853598737 
1087	 0.150650683150748 
1088	 0.150737092356499 
1089	 0.150792269036883 
1090	 0.15084911923975 
1091	 0.150878627329243 
1092	 0.150901297351267 
1093	 0.150957056254692 
1094	 0.150995466377836 
1095	 0.151052579076115 
1096	 0.151157065421313 
1097	 0.151227566363287 
1098	 0.151289404143615 
1099	 0.151325761098792 
1100	 0.15139786600451 
1101	 0.15147132205083 
1102	 0.151560232186191 
1103	 0.151685338936868 
1104	 0.15178694348963 
1105	 0.151868556416451 
1106	 0.151952929917248 
1107	 0.152055764862495 
1108	 0.152157782174393 
1109	 0.152262723370804 
1110	 0.152366699746406 
1111	 0.152488704124316 
1112	 0.152628387581051 
1113	 0.152741572336049 
1114	 0.15284925380093 
1115	 0.152974808009583 
1116	 0.153071649329417 
1117	 0.153205101753721 
1118	 0.153377688545036 
1119	 0.1535490376166 
1120	 0.153720290302725 
1121	 0.153870734103083 
1122	 0.154003299875946 
1123	 0.154161897727746 
1124	 0.154307780317429 
1125	 0.15443250424656 
1126	 0.154583417487459 
1127	 0.154760560091883 
1128	 0.154908247780131 
1129	 0.155052168831664 
1130	 0.155195972803789 
1131	 0.155307640075338 
1132	 0.155455564492003 
1133	 0.155641210475022 
1134	 0.155800399570831 
1135	 0.155977967648178 
1136	 0.156119496406603 
1137	 0.156224466649075 
1138	 0.156345807315782 
1139	 0.1564749634384 
1140	 0.156610748004527 
1141	 0.156730851136418 
1142	 0.156851837863137 
1143	 0.156973708978919 
1144	 0.157087117844611 
1145	 0.157198912977774 
1146	 0.157328287928425 
1147	 0.157429879473321 
1148	 0.157511637822299 
1149	 0.157589990828801 
1150	 0.157647633196129 
1151	 0.157714035137136 
1152	 0.157784959933074 
1153	 0.157864895365607 
1154	 0.157953364024247 
1155	 0.158062638025662 
1156	 0.158151806506095 
1157	 0.158232722729456 
1158	 0.158325420022255 
1159	 0.15842952926028 
1160	 0.158511711270477 
1161	 0.158596781436241 
1162	 0.158668102728911 
1163	 0.158698898016954 
1164	 0.158760446336903 
1165	 0.158844919936087 
1166	 0.158914204170187 
1167	 0.158972685735005 
1168	 0.159044876457589 
1169	 0.159115470605072 
1170	 0.159180797752871 
1171	 0.159240200079983 
1172	 0.159313573260528 
1173	 0.159362127837013 
1174	 0.159378008315275 
1175	 0.15941750808596 
1176	 0.159464916715822 
1177	 0.159506521004186 
1178	 0.159546852111353 
1179	 0.159592701678306 
1180	 0.159637216469548 
1181	 0.159682853035345 
1182	 0.159725568278256 
1183	 0.159791913344709 
1184	 0.159841413372117 
1185	 0.159885635195999 
1186	 0.15993080318001 
1187	 0.159977952037104 
1188	 0.160015277678882 
1189	 0.160041500024103 
1190	 0.160081189303963 
1191	 0.160120464675944 
1192	 0.160162181103225 
1193	 0.160214673192717 
1194	 0.160262099649009 
1195	 0.160308778231371 
1196	 0.160351165890814 
1197	 0.160397955281442 
1198	 0.160434302884637 
1199	 0.160464046295605 
1200	 0.160477520615617 
1201	 0.160517264515837 
1202	 0.160568054152496 
1203	 0.16060120580469 
1204	 0.160640893190817 
1205	 0.1606744726163 
1206	 0.160683312139983 
1207	 0.160714724341587 
1208	 0.160774066791899 
1209	 0.160806491775811 
1210	 0.160820953912477 
1211	 0.160850696890541 
1212	 0.160876550707275 
1213	 0.160904081998409 
1214	 0.160944544249232 
1215	 0.160982276707189 
1216	 0.161018101428455 
1217	 0.161048036630186 
1218	 0.161078341448729 
1219	 0.161109227044934 
1220	 0.161142755625462 
1221	 0.161166638781333 
1222	 0.161207504246025 
1223	 0.161275285635447 
1224	 0.161311665457478 
1225	 0.161333936169027 
1226	 0.161366312844082 
1227	 0.161385201095607 
1228	 0.161410019941084 
1229	 0.161450112420451 
1230	 0.161484827537319 
1231	 0.161504366968026 
1232	 0.161535827973602 
1233	 0.161573238582361 
1234	 0.161621625378262 
1235	 0.161659533798789 
1236	 0.161702075819602 
1237	 0.161737603905222 
1238	 0.161773130116482 
1239	 0.161790453767754 
1240	 0.161792155188426 
1241	 0.161805246556881 
1242	 0.161803436493818 
1243	 0.161816025740781 
1244	 0.16184157239168 
1245	 0.161868652378264 
1246	 0.161908174755296 
1247	 0.161934430936109 
1248	 0.161955176551336 
1249	 0.161980630169486 
1250	 0.162017295071211 
1251	 0.162030918703037 
1252	 0.162049808336208 
1253	 0.162072614984618 
1254	 0.162100537495256 
1255	 0.162120108871882 
1256	 0.162146497817154 
1257	 0.162199900564001 
1258	 0.162219611553911 
1259	 0.16221297272667 
1260	 0.162222668333975 
1261	 0.162220613809529 
1262	 0.162230654669709 
1263	 0.162253405459284 
1264	 0.162274065711966 
1265	 0.162295282698055 
1266	 0.162321158168321 
1267	 0.162343577329419 
1268	 0.162389670744368 
1269	 0.162418403628568 
1270	 0.16244351387389 
1271	 0.162475704423469 
1272	 0.162500263488962 
1273	 0.162538836714496 
1274	 0.162589026983058 
1275	 0.162640175537291 
1276	 0.162701636150788 
1277	 0.162754601990728 
1278	 0.162801582322412 
1279	 0.162860869261118 
1280	 0.162924217395542 
1281	 0.162986444734884 
1282	 0.163067119671371 
1283	 0.163129693185637 
1284	 0.163179220464583 
1285	 0.163226297789331 
1286	 0.163271017288186 
1287	 0.163317241323006 
1288	 0.163357765033086 
1289	 0.163400371455577 
1290	 0.163431166359349 
1291	 0.163452737782479 
1292	 0.1634688844028 
1293	 0.163481882464637 
1294	 0.163485062739849 
1295	 0.163481964839912 
1296	 0.163468058215053 
1297	 0.163435981576536 
1298	 0.163410984216709 
1299	 0.163377448948981 
1300	 0.163353366663634 
1301	 0.163356407544113 
1302	 0.163321043807248 
1303	 0.163265558744642 
1304	 0.163208001644173 
1305	 0.163134955738096 
1306	 0.163061404236357 
1307	 0.163004857258378 
1308	 0.16292777417898 
1309	 0.162842224630972 
1310	 0.16272751970358 
1311	 0.162650915840301 
1312	 0.162579739842456 
1313	 0.162518620546403 
1314	 0.162487411732996 
1315	 0.162433405172913 
1316	 0.162372422287661 
1317	 0.162314395289955 
1318	 0.162240693400048 
1319	 0.162189920554511 
1320	 0.162152373945058 
1321	 0.162114891685102 
1322	 0.162076179274601 
1323	 0.162066754320163 
1324	 0.162064501806277 
1325	 0.162046509608815 
1326	 0.162026962074063 
1327	 0.16203723500663 
1328	 0.16205087947983 
1329	 0.162048998019689 
1330	 0.162085702684128 
1331	 0.162156049464495 
1332	 0.162212517281178 
1333	 0.162289872784245 
1334	 0.162350243346731 
1335	 0.162392279513294 
1336	 0.16245507078506 
1337	 0.162515888102222 
1338	 0.16258938841946 
1339	 0.162686619093919 
1340	 0.162772638887436 
1341	 0.162861043465942 
1342	 0.162948071469503 
1343	 0.163033978023037 
1344	 0.163114872962615 
1345	 0.163211747537371 
1346	 0.163288435494919 
1347	 0.16334083603201 
1348	 0.163408512326533 
1349	 0.16347394653653 
1350	 0.163511897053475 
1351	 0.163546605439342 
1352	 0.163572995286744 
1353	 0.163612693710079 
1354	 0.16364714207877 
1355	 0.163678769058988 
1356	 0.163724696784436 
1357	 0.163756343563045 
1358	 0.163744021762958 
1359	 0.163791197052676 
1360	 0.163865360708093 
1361	 0.163946467859793 
1362	 0.164062824514925 
1363	 0.164173546063397 
1364	 0.16428213723917 
1365	 0.164402315284377 
1366	 0.164537629657151 
1367	 0.164669621263144 
1368	 0.164812467873885 
1369	 0.164950356879417 
1370	 0.165076652562582 
1371	 0.165201891391208 
1372	 0.165297818875279 
1373	 0.16537941341434 
1374	 0.16544532628859 
1375	 0.165502735550925 
1376	 0.165518466034713 
1377	 0.165513372559657 
1378	 0.165484094500127 
1379	 0.165389709897694 
1380	 0.165349940070841 
1381	 0.165297429277591 
1382	 0.165284773182704 
1383	 0.165318922940676 
1384	 0.165337982680468 
1385	 0.165384256020477 
1386	 0.165408706113509 
1387	 0.165433718164744 
1388	 0.165437932734218 
1389	 0.165433256653682 
1390	 0.16540263221539 
1391	 0.165365724716845 
1392	 0.165298224626253 
1393	 0.165184542653174 
1394	 0.165081756765195 
1395	 0.164974022704878 
1396	 0.164853344640258 
1397	 0.164775508137368 
1398	 0.164743283777079 
1399	 0.164676074871224 
1400	 0.164627035639627 
1401	 0.164542973732266 
1402	 0.164415667930533 
1403	 0.164327535319744 
1404	 0.164230052075257 
1405	 0.164161041424822 
1406	 0.164134045396051 
1407	 0.16408475996558 
1408	 0.164043982974963 
1409	 0.163984988208814 
1410	 0.163904890488783 
1411	 0.163841517663742 
1412	 0.163771290054531 
1413	 0.163710469657367 
1414	 0.163678552802301 
1415	 0.163655500678393 
1416	 0.163634876453942 
1417	 0.163608955959113 
1418	 0.16356456231501 
1419	 0.163521018950113 
1420	 0.163500513460253 
1421	 0.163488143197084 
1422	 0.163499873894176 
1423	 0.163507250680965 
1424	 0.163487121693823 
1425	 0.163446348467086 
1426	 0.16341961130617 
1427	 0.163361971933499 
1428	 0.163349634348282 
1429	 0.16337047219137 
1430	 0.163371136257478 
1431	 0.163392808611118 
1432	 0.163394495993878 
1433	 0.16337707838121 
1434	 0.163365981100241 
1435	 0.16334204719423 
1436	 0.163333365542271 
1437	 0.163333104734113 
1438	 0.163336236862365 
1439	 0.16335102971074 
1440	 0.163365263677455 
1441	 0.163371298402977 
1442	 0.163365545262495 
1443	 0.163341397816216 
1444	 0.163329284637948 
1445	 0.163353435779205 
1446	 0.163372933659218 
1447	 0.163396206424071 
1448	 0.163423151045635 
1449	 0.163421367864982 
1450	 0.163412852713764 
1451	 0.163423078354933 
1452	 0.163445638134169 
1453	 0.163465468317539 
1454	 0.163493175754963 
1455	 0.163517424971303 
1456	 0.163545983908909 
1457	 0.163561203411556 
1458	 0.163566541560154 
1459	 0.163583884822286 
1460	 0.163586052363004 
1461	 0.163612846955082 
1462	 0.163675569960459 
1463	 0.163705641629116 
1464	 0.163731980898934 
1465	 0.16375685975626 
1466	 0.1637557832698 
1467	 0.163774416960242 
1468	 0.163798503441516 
1469	 0.163832229621279 
1470	 0.163888275948817 
1471	 0.163923347795189 
1472	 0.163959012380432 
1473	 0.164004683077678 
1474	 0.164012815505367 
1475	 0.164028796955512 
1476	 0.164045355716728 
1477	 0.164055355761381 
1478	 0.164099501564845 
1479	 0.164148444692031 
1480	 0.164206735133027 
1481	 0.164271080410337 
1482	 0.16431329988402 
1483	 0.164340173346894 
1484	 0.164378277449556 
1485	 0.164398829914744 
1486	 0.164443807190306 
1487	 0.164513131054212 
1488	 0.164558048172103 
1489	 0.164601862523298 
1490	 0.164646837610654 
1491	 0.16468815684729 
1492	 0.164717381836854 
1493	 0.16473308558983 
1494	 0.16477047258968 
1495	 0.16480274386136 
1496	 0.164840508850735 
1497	 0.164911496817199 
1498	 0.164956582189819 
1499	 0.164982503384045 
1500	 0.165011851226872 
1501	 0.165034452819917 
1502	 0.165059840800532 
1503	 0.165080827338842 
1504	 0.165106516041895 
1505	 0.165150920218831 
1506	 0.16518719153537 
1507	 0.165213449018738 
1508	 0.165242050734833 
1509	 0.165257494674615 
1510	 0.165271091141831 
1511	 0.165297366072224 
1512	 0.165322907305665 
1513	 0.1653347482914 
1514	 0.165353167099701 
1515	 0.165393242052961 
1516	 0.16543206431164 
1517	 0.165463863859134 
1518	 0.165506730541715 
1519	 0.165535703685782 
1520	 0.165542261373173 
1521	 0.165574672843716 
1522	 0.165624205605691 
1523	 0.165655865425521 
1524	 0.165691422965148 
1525	 0.165710021413692 
1526	 0.165708293208154 
1527	 0.165719179893019 
1528	 0.165722606766918 
1529	 0.165745443041641 
1530	 0.165788064018548 
1531	 0.165809740494281 
1532	 0.165834939977953 
1533	 0.165850489628098 
1534	 0.165837545535513 
1535	 0.165852619842019 
1536	 0.165887730407635 
1537	 0.165908417347291 
1538	 0.165928149639984 
1539	 0.165956365886697 
1540	 0.165979492816601 
1541	 0.166006525368614 
1542	 0.166051601924265 
1543	 0.166083784494084 
1544	 0.16611075794944 
1545	 0.166131942965095 
1546	 0.166147867778085 
1547	 0.16615431880814 
1548	 0.166174822221412 
1549	 0.166202372768753 
1550	 0.166220937786577 
1551	 0.166249198641199 
1552	 0.166254348592958 
1553	 0.166236530028607 
1554	 0.166228732676413 
1555	 0.166228368842215 
1556	 0.166242375145392 
1557	 0.166261920677845 
1558	 0.166263371042609 
1559	 0.166258812144487 
1560	 0.166255596117075 
1561	 0.166232403137097 
1562	 0.166232920125523 
1563	 0.166246891866249 
1564	 0.166262362603373 
1565	 0.166287644028756 
1566	 0.166304903859188 
1567	 0.166324225363389 
1568	 0.166340351142588 
1569	 0.166355448034961 
1570	 0.166361023258178 
1571	 0.166364453050979 
1572	 0.166365411935036 
1573	 0.16635007432885 
1574	 0.166351234655009 
1575	 0.166359765142346 
1576	 0.166366328958987 
1577	 0.166385692954061 
1578	 0.166388149145641 
1579	 0.166382528882041 
1580	 0.166378352092153 
1581	 0.166352603750703 
1582	 0.166352889652298 
1583	 0.166372009432348 
1584	 0.166380305869526 
1585	 0.166400243070863 
1586	 0.166414074156257 
1587	 0.166419325405994 
1588	 0.16642466260617 
1589	 0.166431098979917 
1590	 0.166436794603867 
1591	 0.166435377651978 
1592	 0.166438092697247 
1593	 0.166449540968278 
1594	 0.166451131434851 
1595	 0.166453971375929 
1596	 0.166445802007065 
1597	 0.166418367443835 
1598	 0.166405338779558 
1599	 0.166387326845198 
1600	 0.166377994658067 
1601	 0.166376017894506 
1602	 0.166383618913434 
1603	 0.166408388330957 
1604	 0.166423653590165 
1605	 0.166451512973241 
1606	 0.166465435701201 
1607	 0.166471350021872 
1608	 0.166456042025823 
1609	 0.166461202005553 
1610	 0.166452961438528 
1611	 0.166436893798215 
1612	 0.166441707945209 
1613	 0.166445546093847 
1614	 0.166444031088759 
1615	 0.166439299041326 
1616	 0.166435336967408 
1617	 0.166424431432049 
1618	 0.166426121212838 
1619	 0.16645247541977 
1620	 0.166469549583111 
1621	 0.166478694762396 
1622	 0.16648246730904 
1623	 0.166489550453494 
1624	 0.166490076574217 
1625	 0.166496301903578 
1626	 0.166510858862304 
1627	 0.166511586258589 
1628	 0.166503499492813 
1629	 0.166502204446636 
1630	 0.166501545326272 
1631	 0.166494321795791 
1632	 0.166485726048425 
1633	 0.166481216732536 
1634	 0.166469907001823 
1635	 0.166462408815677 
1636	 0.166462668028303 
1637	 0.166460384271773 
1638	 0.166456524554674 
1639	 0.166449959384294 
1640	 0.166446015135198 
1641	 0.166437013244026 
1642	 0.166413619850219 
1643	 0.166412861621047 
1644	 0.166430947045793 
1645	 0.166424509494327 
1646	 0.166415749819051 
1647	 0.166408412545454 
1648	 0.166379966803017 
1649	 0.166375252223683 
1650	 0.16639213212596 
1651	 0.166396278617853 
1652	 0.166406092847922 
1653	 0.166399333698674 
1654	 0.166379833146857 
1655	 0.166368554214524 
1656	 0.166348663102072 
1657	 0.166336961616672 
1658	 0.166335383560569 
1659	 0.166328160029222 
1660	 0.166316174053678 
1661	 0.166310440810874 
1662	 0.166312887038495 
1663	 0.166303752901632 
1664	 0.166286470114635 
1665	 0.166281111845779 
1666	 0.166276340803904 
1667	 0.166269570272876 
1668	 0.166271425520734 
1669	 0.166269422210885 
1670	 0.166255896549588 
1671	 0.166254969194335 
1672	 0.166265875133449 
1673	 0.166270055752129 
1674	 0.166271350360674 
1675	 0.16628006558595 
1676	 0.166293995318555 
1677	 0.166302113874275 
1678	 0.16631989760769 
1679	 0.16631909969048 
1680	 0.166302868593715 
1681	 0.166290964209448 
1682	 0.166265729082253 
1683	 0.166256441008062 
1684	 0.166251449197182 
1685	 0.166255275086038 
1686	 0.166273606022439 
1687	 0.166283049300176 
1688	 0.166293441543134 
1689	 0.166306833535848 
1690	 0.166322514474791 
1691	 0.166331494851779 
1692	 0.166339256078095 
1693	 0.166348582422403 
1694	 0.166357553180328 
1695	 0.166355885844821 
1696	 0.166352947248904 
1697	 0.166349427730747 
1698	 0.166329254266976 
1699	 0.166321706790027 
1700	 0.166316322866959 
1701	 0.16632758833284 
1702	 0.166355342969736 
1703	 0.166367878630067 
1704	 0.166391324111033 
1705	 0.16640372792251 
1706	 0.16639812028762 
1707	 0.166399836786683 
1708	 0.166411194971161 
1709	 0.166407922133039 
1710	 0.166384665833396 
1711	 0.166382294358522 
1712	 0.166391459359208 
1713	 0.166383642901154 
1714	 0.166380190880893 
1715	 0.166374169122864 
1716	 0.166344527167357 
1717	 0.166337920999575 
1718	 0.166351409919841 
1719	 0.166349972266941 
1720	 0.166357661010323 
1721	 0.16634369661015 
1722	 0.16631631680379 
1723	 0.166283036100818 
1724	 0.166223646524778 
1725	 0.166192921776531 
1726	 0.166164011530947 
1727	 0.166151565616194 
1728	 0.166157537869649 
1729	 0.166166328515748 
1730	 0.166199950949362 
1731	 0.166203576000413 
1732	 0.166199187520774 
1733	 0.166189673319535 
1734	 0.166156364168157 
1735	 0.166134282367275 
1736	 0.166126329318465 
1737	 0.166104020762298 
1738	 0.16607913975172 
1739	 0.166039842444887 
1740	 0.165973812601476 
1741	 0.165940725858079 
1742	 0.165910688219056 
1743	 0.165881277840887 
1744	 0.165879889985298 
1745	 0.165861174461529 
1746	 0.165827128427443 
1747	 0.165791936095914 
1748	 0.165757852918492 
1749	 0.165714024704181 
1750	 0.165684217502728 
1751	 0.165690306171269 
1752	 0.165672746629527 
1753	 0.165642028930634 
1754	 0.165649286381562 
1755	 0.165617159374757 
1756	 0.165574710200278 
1757	 0.165553620804573 
1758	 0.165507114775912 
1759	 0.165474306105661 
1760	 0.165467336079975 
1761	 0.165462708791711 
1762	 0.16545997517442 
1763	 0.165476266434676 
1764	 0.165500276971276 
1765	 0.165494071427962 
1766	 0.16547455430928 
1767	 0.165458098954646 
1768	 0.165412357960814 
1769	 0.165373054769845 
1770	 0.165382642835501 
1771	 0.165390138777317 
1772	 0.165395290382286 
1773	 0.165417385623815 
1774	 0.165421361606018 
1775	 0.165405547069506 
1776	 0.165398024357369 
1777	 0.165403580560328 
1778	 0.165409178616402 
1779	 0.165410151014311 
1780	 0.165397007982681 
1781	 0.165375238404795 
1782	 0.165368439300609 
1783	 0.165403097604106 
1784	 0.165402898621036 
1785	 0.165375541018435 
1786	 0.165381293113778 
1787	 0.16539912248458 
1788	 0.165383710684321 
1789	 0.165383925278 
1790	 0.165371156082073 
1791	 0.165298127465499 
1792	 0.16527734234245 
1793	 0.165293347781035 
1794	 0.165293671801348 
1795	 0.165307750806975 
1796	 0.165308108507149 
1797	 0.165300796965525 
1798	 0.165300587180326 
1799	 0.165292114048274 
1800	 0.165289541676505 
1801	 0.163571011622243 
1802	 0.163774000213037 
1803	 0.164003324558768 
1804	 0.164220070268855 
1805	 0.164389312944565 
1806	 0.16458547275363 
1807	 0.164802874142141 
1808	 0.164965655589919 
1809	 0.165117281905627 
1810	 0.165231617391242 
1811	 0.165307360805937 
1812	 0.165359656997245 
1813	 0.165412314724965 
1814	 0.165425224346218 
1815	 0.165465757467933 
1816	 0.165506819396856 
1817	 0.165534638656674 
1818	 0.165562579632097 
1819	 0.165582463134313 
1820	 0.165607875996552 
1821	 0.165582153783615 
1822	 0.165559569003105 
1823	 0.165556264864995 
1824	 0.165567372346506 
1825	 0.165591821848338 
1826	 0.165596060202999 
1827	 0.165586563490373 
1828	 0.165553625681563 
1829	 0.165464276291593 
1830	 0.165414453347149 
1831	 0.165371642187225 
1832	 0.165321458089554 
1833	 0.165281237744509 
1834	 0.165269735548924 
1835	 0.165241495352717 
1836	 0.165248512390927 
1837	 0.165282848208118 
1838	 0.165292202599142 
1839	 0.165325953744889 
1840	 0.165379859318061 
1841	 0.16543225570697 
1842	 0.165475989568793 
1843	 0.165544323156227 
1844	 0.165617193318863 
1845	 0.165658644946977 
1846	 0.16570389540306 
1847	 0.165767139420444 
1848	 0.165790389086397 
1849	 0.165830067394639 
1850	 0.165877260709936 
1851	 0.165930911627547 
1852	 0.165959624943294 
1853	 0.166031914899579 
1854	 0.166099672058038 
1855	 0.166145430928593 
1856	 0.166185908639008 
1857	 0.166188714129369 
1858	 0.166176302725887 
1859	 0.166168542599398 
1860	 0.166134560328965 
1861	 0.166089886960526 
1862	 0.166023996144361 
1863	 0.165943596490077 
1864	 0.16582580829126 
1865	 0.165709748841481 
1866	 0.165590888671042 
1867	 0.165442890756418 
1868	 0.165295783527178 
1869	 0.165170300970596 
1870	 0.165079286907897 
1871	 0.165025133292005 
1872	 0.165016250436702 
1873	 0.165038842699892 
1874	 0.165073127452983 
1875	 0.1651384732884 
1876	 0.165189032227806 
1877	 0.165221514491012 
1878	 0.165213931628542 
1879	 0.165145741607095 
1880	 0.165056569996701 
1881	 0.164927758156147 
1882	 0.16477158508693 
1883	 0.164591788423881 
1884	 0.164377548421121 
1885	 0.164122561809689 
1886	 0.163849691046045 
1887	 0.163546770772438 
1888	 0.16323268791528 
1889	 0.162906967016263 
1890	 0.162577825169592 
1891	 0.162236407235543 
1892	 0.161892083913663 
1893	 0.161520491570136 
1894	 0.16113784958041 
1895	 0.160723809173827 
1896	 0.160287238126959 
1897	 0.159842182156288 
1898	 0.159375903243191 
1899	 0.158920696500069 
1900	 0.15849633088143 
1901	 0.158096132829635 
1902	 0.157726831418814 
1903	 0.157405787484321 
1904	 0.157089562413605 
1905	 0.156790809794231 
1906	 0.156517394867954 
1907	 0.156250818988869 
1908	 0.155995720383294 
1909	 0.155753728675347 
1910	 0.155508499730398 
1911	 0.155252555872608 
1912	 0.155013036090734 
1913	 0.154793159893854 
1914	 0.154575065443688 
1915	 0.154372413329371 
1916	 0.154195863311438 
1917	 0.154028052215456 
1918	 0.153850877378495 
1919	 0.153712132110114 
1920	 0.153602791993313 
1921	 0.153522442533088 
1922	 0.153468274452574 
1923	 0.153428955430497 
1924	 0.153389018052535 
1925	 0.153355719528406 
1926	 0.153330503582496 
1927	 0.15331139776396 
1928	 0.153300214493361 
1929	 0.153286248130594 
1930	 0.153291443093581 
1931	 0.153295844884884 
1932	 0.153297685150491 
1933	 0.153329087083801 
1934	 0.153357502118446 
1935	 0.15338762271413 
1936	 0.153425369246539 
1937	 0.153459758201712 
1938	 0.153476613963016 
1939	 0.153528812980049 
1940	 0.153600956814531 
1941	 0.153671685531507 
1942	 0.153757954637364 
1943	 0.153842886191805 
1944	 0.153915979031161 
1945	 0.153994946311061 
1946	 0.15407636093604 
1947	 0.154171671405459 
1948	 0.154249570512965 
1949	 0.154308336221272 
1950	 0.154388692219393 
1951	 0.154472485947253 
1952	 0.154563816286676 
1953	 0.154655639857349 
1954	 0.154744626898454 
1955	 0.154817191434778 
1956	 0.154900885815956 
1957	 0.15500468657625 
1958	 0.155121036590966 
1959	 0.155248413094009 
1960	 0.155406226396215 
1961	 0.155544860633547 
1962	 0.155687087971537 
1963	 0.155830185263169 
1964	 0.155971663363797 
1965	 0.156102289250359 
1966	 0.156248861760104 
1967	 0.156382771336972 
1968	 0.156520130624866 
1969	 0.156659075634506 
1970	 0.156795026548658 
1971	 0.156932051966897 
1972	 0.157065663649739 
1973	 0.157188132082031 
1974	 0.157318587237123 
1975	 0.157463799036615 
1976	 0.157587555605963 
1977	 0.157690476082843 
1978	 0.157804510751673 
1979	 0.157901461576682 
1980	 0.158001990704807 
1981	 0.158130994353262 
1982	 0.158292855753012 
1983	 0.158444107462455 
1984	 0.158607286355432 
1985	 0.158767479044278 
1986	 0.158934302797987 
1987	 0.159091014294134 
1988	 0.15924548611136 
1989	 0.159404346614976 
1990	 0.159551875813868 
1991	 0.159673808892169 
1992	 0.159782801322321 
1993	 0.159864564175807 
1994	 0.159964721627192 
1995	 0.160046378283749 
1996	 0.160150292684352 
1997	 0.160277448255497 
1998	 0.160395624361704 
1999	 0.160509194234477 
2000	 0.160633797068499 
2001	 0.160768792844746 
2002	 0.160898346881661 
2003	 0.161023937739908 
2004	 0.16116224277369 
2005	 0.161285625872451 
2006	 0.161384862011314 
2007	 0.161513799131695 
2008	 0.161650472909345 
2009	 0.161794769945763 
2010	 0.161970122049382 
2011	 0.16211946203866 
2012	 0.162258612069433 
2013	 0.162398980013995 
2014	 0.162532455450577 
2015	 0.162660071446795 
2016	 0.162798333251578 
2017	 0.16292106580014 
2018	 0.163042022189079 
2019	 0.163153289071414 
2020	 0.16327085149255 
2021	 0.163386796290793 
2022	 0.163499440145759 
2023	 0.163614445510602 
2024	 0.163721153278949 
2025	 0.163810246273372 
2026	 0.163919255983419 
2027	 0.164041017079422 
2028	 0.164152364511107 
2029	 0.164264256696753 
2030	 0.164390399732355 
2031	 0.164494718011508 
2032	 0.164581265367872 
2033	 0.164670516419184 
2034	 0.164753225213067 
2035	 0.164840272847163 
2036	 0.164920669272955 
2037	 0.165011648926294 
2038	 0.165101578935645 
2039	 0.165201996783914 
2040	 0.165307936929133 
2041	 0.165432425990036 
2042	 0.165538928323597 
2043	 0.165654465940587 
2044	 0.165753337391435 
2045	 0.165834641332377 
2046	 0.16592246837609 
2047	 0.166016368584745 
2048	 0.166091832703228 
2049	 0.166149820954282 
2050	 0.166220879876961 
2051	 0.166278499921557 
2052	 0.166350842841626 
2053	 0.166443498633064 
2054	 0.166528788709984 
2055	 0.166616835069566 
2056	 0.166707273437643 
2057	 0.166778380113966 
2058	 0.166834834628691 
2059	 0.166903615096555 
2060	 0.166963897784018 
2061	 0.167028425009611 
2062	 0.167106290288503 
2063	 0.167174366110532 
2064	 0.167228422734079 
2065	 0.167291495294788 
2066	 0.167362243501948 
2067	 0.16742663284039 
2068	 0.167480994051101 
2069	 0.167559249978287 
2070	 0.167613319991246 
2071	 0.167649579595437 
2072	 0.167716584497777 
2073	 0.167785038506103 
2074	 0.167860519523962 
2075	 0.167964256411553 
2076	 0.168046465217 
2077	 0.168119571719802 
2078	 0.168194991795984 
2079	 0.168271804876266 
2080	 0.168341975892199 
2081	 0.168400071713203 
2082	 0.168467968060266 
2083	 0.168539750495147 
2084	 0.168613626430818 
2085	 0.168668014534207 
2086	 0.168718218587498 
2087	 0.168767444164198 
2088	 0.168796453130682 
2089	 0.168838085018962 
2090	 0.168882871087313 
2091	 0.168939916167201 
2092	 0.168995426977368 
2093	 0.169063841147244 
2094	 0.169165444230591 
2095	 0.169241601562914 
2096	 0.169298918990826 
2097	 0.169373416359694 
2098	 0.169443660551269 
2099	 0.169523623826796 
2100	 0.169603789512552 
2101	 0.169699067956098 
2102	 0.169788793724564 
2103	 0.169878438645742 
2104	 0.16995797439514 
2105	 0.170038638375669 
2106	 0.170116572522382 
2107	 0.170181605762364 
2108	 0.170250684853717 
2109	 0.170310470217258 
2110	 0.170392218855343 
2111	 0.170477885440205 
2112	 0.170575571509151 
2113	 0.170698033406841 
2114	 0.170826054671417 
2115	 0.170939394116943 
2116	 0.171054682364041 
2117	 0.171149141737362 
2118	 0.171230274881782 
2119	 0.171313872623845 
2120	 0.171391460553939 
2121	 0.171454616807095 
2122	 0.171507404363957 
2123	 0.171562946149749 
2124	 0.171600707040296 
2125	 0.171649421256355 
2126	 0.17171616284555 
2127	 0.171765739121448 
2128	 0.171801096494822 
2129	 0.171841858102166 
2130	 0.171892586547826 
2131	 0.171924194452169 
2132	 0.171935989710343 
2133	 0.171930127558511 
2134	 0.171942792329294 
2135	 0.171929876667161 
2136	 0.171947353666803 
2137	 0.172016542970817 
2138	 0.172030811159258 
2139	 0.172027860995241 
2140	 0.172015323411695 
2141	 0.171975192789965 
2142	 0.171935532318228 
2143	 0.171886722418192 
2144	 0.17183986226785 
2145	 0.171774987945751 
2146	 0.171724528706902 
2147	 0.171677556366278 
2148	 0.17164989236239 
2149	 0.171604049589382 
2150	 0.171574171368267 
2151	 0.171502140540891 
2152	 0.171403988085675 
2153	 0.171305600858639 
2154	 0.171182377976165 
2155	 0.171066188781329 
2156	 0.170948718382009 
2157	 0.17082875091445 
2158	 0.170701774041497 
2159	 0.170575684709626 
2160	 0.17044148051682 
2161	 0.170319977081273 
2162	 0.170206397466659 
2163	 0.170091258422439 
2164	 0.169995872360352 
2165	 0.169882992499398 
2166	 0.169756541950897 
2167	 0.169618297822491 
2168	 0.169473450147453 
2169	 0.16929806998475 
2170	 0.169165283996454 
2171	 0.169046231806575 
2172	 0.168925280415525 
2173	 0.168831923306192 
2174	 0.16871728232998 
2175	 0.168581714363294 
2176	 0.168463083322592 
2177	 0.168350771923895 
2178	 0.168237294828918 
2179	 0.168124146071641 
2180	 0.168020757497912 
2181	 0.167933860872408 
2182	 0.167830350447199 
2183	 0.167731457009892 
2184	 0.167611941773212 
2185	 0.1675118674862 
2186	 0.167400019757259 
2187	 0.167303134903123 
2188	 0.167227223541175 
2189	 0.167143023688913 
2190	 0.167058108303736 
2191	 0.166970267091457 
2192	 0.166878952205557 
2193	 0.166800335378197 
2194	 0.166715092381042 
2195	 0.166646041290405 
2196	 0.166601463532022 
2197	 0.166548367134646 
2198	 0.166484376762747 
2199	 0.166444027995808 
2200	 0.166424769900878 
2201	 0.16639661293826 
2202	 0.166377176882279 
2203	 0.166373238990251 
2204	 0.166337134318511 
2205	 0.166267977012657 
2206	 0.166240373114724 
2207	 0.166220047453394 
2208	 0.166197015355171 
2209	 0.166193051545951 
2210	 0.166183747011039 
2211	 0.166163463765591 
2212	 0.166151335057986 
2213	 0.16615584281503 
2214	 0.166151023114394 
2215	 0.166123935799302 
2216	 0.166124833883522 
2217	 0.166150883557831 
2218	 0.166161018378009 
2219	 0.166183275145154 
2220	 0.166199375295383 
2221	 0.166214228634387 
2222	 0.166202636277484 
2223	 0.166200005177788 
2224	 0.166191273277209 
2225	 0.166193826567537 
2226	 0.166186556533599 
2227	 0.166201381531968 
2228	 0.166251358223828 
2229	 0.166252569005999 
2230	 0.166230847226003 
2231	 0.166233311076578 
2232	 0.166214352729445 
2233	 0.166222376643442 
2234	 0.16627832081101 
2235	 0.166293989341856 
2236	 0.166298554846542 
2237	 0.166291434058492 
2238	 0.166259712018812 
2239	 0.166236499951284 
2240	 0.166196461468191 
2241	 0.166178303495433 
2242	 0.166150238574799 
2243	 0.166161411053874 
2244	 0.166225066771295 
2245	 0.166279203277409 
2246	 0.166269514213281 
2247	 0.166288992415342 
2248	 0.166286325807433 
2249	 0.166236115250691 
2250	 0.166198710501615 
2251	 0.166172992057022 
2252	 0.166148390162532 
2253	 0.16608664631588 
2254	 0.166074938178119 
2255	 0.1661065512291 
2256	 0.166133691206006 
2257	 0.166191104707134 
2258	 0.166203303874309 
2259	 0.166205430127885 
2260	 0.166204617835714 
2261	 0.166158946376375 
2262	 0.166146905746989 
2263	 0.166129390165852 
2264	 0.166162499389093 
2265	 0.166255218550356 
2266	 0.166313023698447 
2267	 0.166410344245742 
2268	 0.166473919687642 
2269	 0.166510170553287 
2270	 0.166498405449275 
2271	 0.166513551772128 
2272	 0.166550090715846 
2273	 0.166603208971259 
2274	 0.166643744327975 
2275	 0.166658561051282 
2276	 0.166658065277451 
2277	 0.166668470256315 
2278	 0.166645433380687 
2279	 0.166670914680459 
2280	 0.166741711808773 
2281	 0.166778422112988 
2282	 0.166816595454798 
2283	 0.166848447258662 
2284	 0.166870014424287 
2285	 0.166886265505058 
2286	 0.166891359966687 
2287	 0.166907928399874 
2288	 0.166915117660734 
2289	 0.166939790160032 
2290	 0.166986604590516 
2291	 0.167030430559174 
2292	 0.167087651216939 
2293	 0.167124769125155 
2294	 0.167141145113201 
2295	 0.167172659560298 
2296	 0.167183890747338 
2297	 0.167240099414903 
2298	 0.167303470380432 
2299	 0.167363068361179 
2300	 0.167408237839027 
2301	 0.16743818249572 
2302	 0.167451272647293 
2303	 0.167462448167231 
2304	 0.167461054312743 
2305	 0.167451289055281 
2306	 0.167437648889502 
2307	 0.167401795771439 
2308	 0.167396695350952 
2309	 0.167386878352237 
2310	 0.167407355890728 
2311	 0.167472638123275 
2312	 0.167508420801922 
2313	 0.167557448111515 
2314	 0.167590085560953 
2315	 0.167586865103006 
2316	 0.167607195353796 
2317	 0.167661179774321 
2318	 0.167672623385159 
2319	 0.16764596797651 
2320	 0.167667732729284 
2321	 0.16765788862689 
2322	 0.167695680769053 
2323	 0.167828152324244 
2324	 0.167899762632501 
2325	 0.167953424135742 
2326	 0.168033291729663 
2327	 0.168119190901178 
2328	 0.168170374835033 
2329	 0.168222273420939 
2330	 0.168273447215558 
2331	 0.168311569060734 
2332	 0.168380282847533 
2333	 0.168479879344495 
2334	 0.168528521709865 
2335	 0.168587489947014 
2336	 0.168585152602447 
2337	 0.168578769014603 
2338	 0.168610229694041 
2339	 0.168611345741769 
2340	 0.16867314197983 
2341	 0.168727900976421 
2342	 0.168769534999722 
2343	 0.16877066393309 
2344	 0.168733603067399 
2345	 0.168753140491239 
2346	 0.168777642013792 
2347	 0.168826368168411 
2348	 0.168954107053337 
2349	 0.168976766969953 
2350	 0.168967093986396 
2351	 0.168949280386658 
2352	 0.168880492143403 
2353	 0.168818165698233 
2354	 0.168751149146378 
2355	 0.168664071604106 
2356	 0.168495643495523 
2357	 0.16845535002711 
2358	 0.168481872651733 
2359	 0.168489519772819 
2360	 0.168592928504611 
2361	 0.168627821803498 
2362	 0.16862703349884 
2363	 0.168607763414128 
2364	 0.168555352093542 
2365	 0.168508295420732 
2366	 0.168388763246609 
2367	 0.16835429034211 
2368	 0.168405990085206 
2369	 0.16840517757028 
2370	 0.16840738178441 
2371	 0.168445774988136 
2372	 0.16839662711897 
2373	 0.168327743602721 
2374	 0.168305917293572 
2375	 0.168278782111578 
2376	 0.168224583306444 
2377	 0.168221889662347 
2378	 0.168246195515012 
2379	 0.168169582537982 
2380	 0.168048346733322 
2381	 0.167953591389571 
2382	 0.167866851322705 
2383	 0.167792201006938 
2384	 0.167750303874291 
2385	 0.167720124044328 
2386	 0.167663873006959 
2387	 0.167605461878136 
2388	 0.167652010661956 
2389	 0.167719389972173 
2390	 0.167731161201692 
2391	 0.167704369720247 
2392	 0.167604284036351 
2393	 0.167490835939695 
2394	 0.16739756853355 
2395	 0.167369835353961 
2396	 0.167378207448487 
2397	 0.167385142147138 
2398	 0.167278310872982 
2399	 0.167177343095791 
2400	 0.167142678163877 
2401	 0.167017022126464 
2402	 0.167052641413926 
2403	 0.167048031174458 
2404	 0.166965892636809 
2405	 0.16696921831656 
2406	 0.166811750335998 
2407	 0.166644727343999 
2408	 0.166526308755974 
2409	 0.166385571176565 
2410	 0.166297735689232 
2411	 0.16626975060845 
2412	 0.166204992464288 
2413	 0.16609413104679 
2414	 0.166084404123051 
2415	 0.166072763926309 
2416	 0.166006333857554 
2417	 0.165944824416324 
2418	 0.165896808998777 
2419	 0.165774666490675 
2420	 0.165681404900186 
2421	 0.165606775008293 
2422	 0.165538358286039 
2423	 0.165445083743582 
2424	 0.16541009503519 
2425	 0.165523739710932 
2426	 0.165446231659651 
2427	 0.16523477545216 
2428	 0.165173551277665 
2429	 0.165052213933939 
2430	 0.16501061119511 
2431	 0.165166066826037 
2432	 0.165124357678356 
2433	 0.164959702712857 
2434	 0.164883852590467 
2435	 0.164811980358689 
2436	 0.16472999521441 
2437	 0.164708099950573 
2438	 0.164613870223218 
2439	 0.16437894270214 
2440	 0.164257263584101 
2441	 0.164193419580734 
2442	 0.164103217926788 
2443	 0.164063570379029 
2444	 0.164003061713005 
2445	 0.163932595965444 
2446	 0.163803596238537 
2447	 0.163635458381033 
2448	 0.163556692398812 
2449	 0.163432813121373 
2450	 0.163344641678162 
2451	 0.163368757412589 
2452	 0.163328117490364 
2453	 0.163270851137239 
2454	 0.163199458868862 
2455	 0.163160502858453 
2456	 0.163068535621609 
2457	 0.162811698025544 
2458	 0.162709467092557 
2459	 0.162682862232418 
2460	 0.1626640662348 
2461	 0.162804727013464 
2462	 0.162804677475932 
2463	 0.162709783002555 
2464	 0.162580113911973 
2465	 0.162384334821947 
2466	 0.162232142394592 
2467	 0.162056811026691 
2468	 0.161945783840645 
2469	 0.161812843275699 
2470	 0.161650616791733 
2471	 0.161663541549583 
2472	 0.161695215993866 
2473	 0.16171582265565 
2474	 0.161771437857044 
2475	 0.161757985957174 
2476	 0.161619784734068 
2477	 0.16148857271719 
2478	 0.161406954593175 
2479	 0.161365582076238 
2480	 0.161271623122707 
2481	 0.161196820719963 
2482	 0.161088464188563 
2483	 0.160839813053006 
2484	 0.160819381295543 
2485	 0.160771607656491 
2486	 0.160731492601664 
2487	 0.160935930381641 
2488	 0.160790948470976 
2489	 0.160634827065563 
2490	 0.160476547116739 
2491	 0.160149094079727 
2492	 0.160150836888825 
2493	 0.160061345066983 
2494	 0.160008170968857 
2495	 0.159929657444768 
2496	 0.159653129240174 
2497	 0.159718064025187 
2498	 0.159791249416381 
2499	 0.159937857168546 
2500	 0.15998846202977 
