Wavelength	LMW_1300005.asd
350	 5.96224460266693E-02 
351	 5.61287557888491E-02 
352	 4.89622112491876E-02 
353	 4.15606863725348E-02 
354	 4.66693500648201E-02 
355	 4.95630405819375E-02 
356	 4.88619144673013E-02 
357	 4.80681542068594E-02 
358	 5.59739955501022E-02 
359	 5.18383984914578E-02 
360	 4.28050533004456E-02 
361	 5.08069037907127E-02 
362	 4.63268328531703E-02 
363	 4.32126564413144E-02 
364	 4.83701138908161E-02 
365	 4.99571272669172E-02 
366	 4.82469265665573E-02 
367	 4.69059863082975E-02 
368	 4.88507610369074E-02 
369	 4.98131474504702E-02 
370	 4.80334661613444E-02 
371	 4.56955113281189E-02 
372	 0.047046005202108 
373	 4.68390042960728E-02 
374	 4.73491509706117E-02 
375	 4.89521001964529E-02 
376	 4.69116309558465E-02 
377	 4.63967312399658E-02 
378	 4.82988979279265E-02 
379	 5.12693713219648E-02 
380	 0.051166793689849 
381	 4.94401047286718E-02 
382	 4.83816394597387E-02 
383	 5.03316468670964E-02 
384	 0.052554463148733 
385	 0.052246153955356 
386	 4.98475999875752E-02 
387	 5.17832221947417E-02 
388	 5.41276055462082E-02 
389	 0.054175145569282 
390	 5.11629572583799E-02 
391	 5.13369220952688E-02 
392	 5.12474393968136E-02 
393	 5.10900787286824E-02 
394	 0.054069031813264 
395	 5.46433275840408E-02 
396	 5.45846968632783E-02 
397	 5.56104282668839E-02 
398	 0.056777577121213 
399	 5.68176394890758E-02 
400	 5.66421152843796E-02 
401	 0.057516854770976 
402	 5.77464768950443E-02 
403	 5.68622602805815E-02 
404	 5.57242499154547E-02 
405	 5.62955584876705E-02 
406	 5.74955907269366E-02 
407	 5.87138742455431E-02 
408	 5.92440093343047E-02 
409	 5.76114558810557E-02 
410	 5.66240725386193E-02 
411	 5.69010444480398E-02 
412	 5.78786974491434E-02 
413	 5.92885176647526E-02 
414	 5.92807666177833E-02 
415	 5.80709831689615E-02 
416	 5.85541952301308E-02 
417	 5.87489504169124E-02 
418	 5.85743750760563E-02 
419	 5.83472402053192E-02 
420	 5.80914832305759E-02 
421	 5.79741760866345E-02 
422	 5.80633929829616E-02 
423	 5.82980333815034E-02 
424	 5.79588399399459E-02 
425	 5.76292418319873E-02 
426	 5.75910600126581E-02 
427	 0.057287177916016 
428	 5.68799668163115E-02 
429	 0.05652537669597 
430	 5.63940058066821E-02 
431	 5.67557463228911E-02 
432	 0.056761289692044 
433	 5.64115453214971E-02 
434	 0.056525323288492 
435	 5.66499656805842E-02 
436	 5.65509008261905E-02 
437	 5.63026581151522E-02 
438	 5.67082439868259E-02 
439	 5.69372123243207E-02 
440	 5.70768870106415E-02 
441	 5.75503719431847E-02 
442	 5.74225505848279E-02 
443	 5.76384384782981E-02 
444	 5.83057316118925E-02 
445	 5.79922731626837E-02 
446	 5.82429164619003E-02 
447	 5.87887146876872E-02 
448	 5.90368832489685E-02 
449	 5.94016800912337E-02 
450	 5.96322374852986E-02 
451	 5.97179942213419E-02 
452	 5.98610000438623E-02 
453	 6.00152993169692E-02 
454	 6.01637947295923E-02 
455	 6.03069896356682E-02 
456	 6.05037971956429E-02 
457	 6.05354434822413E-02 
458	 6.05630170949419E-02 
459	 6.08427934779663E-02 
460	 6.09353816798282E-02 
461	 6.08906278794101E-02 
462	 6.08988198410209E-02 
463	 6.12800441892577E-02 
464	 6.16356222089895E-02 
465	 6.18213581344725E-02 
466	 6.18098559936943E-02 
467	 0.06166277528768 
468	 6.17429979760968E-02 
469	 0.062040950721265 
470	 6.22412419501542E-02 
471	 6.23171156846934E-02 
472	 6.22024371245623E-02 
473	 6.20224248935947E-02 
474	 6.23926685019799E-02 
475	 6.25253468820945E-02 
476	 6.23546273524103E-02 
477	 6.21641587953571E-02 
478	 6.21750104660342E-02 
479	 6.23712645680608E-02 
480	 6.26368809602855E-02 
481	 6.27606594471045E-02 
482	 6.29055598134195E-02 
483	 6.30495191608323E-02 
484	 6.31544888672963E-02 
485	 6.33726615739489E-02 
486	 6.31933326701477E-02 
487	 0.062842280940439 
488	 6.30963340946503E-02 
489	 6.30935102782585E-02 
490	 6.31513696627242E-02 
491	 6.34369397380103E-02 
492	 6.32167780798234E-02 
493	 6.30778768730981E-02 
494	 6.31359536770185E-02 
495	 6.32761932532435E-02 
496	 6.34629927380343E-02 
497	 0.063415105919203 
498	 6.31909383312527E-02 
499	 6.33746436157817E-02 
500	 6.34789483904135E-02 
501	 0.063486210537881 
502	 6.34858999071594E-02 
503	 6.33799256705769E-02 
504	 6.34392913714511E-02 
505	 6.36189643133131E-02 
506	 6.35932704278381E-02 
507	 6.35172827933351E-02 
508	 6.35450571661933E-02 
509	 6.36840223289184E-02 
510	 6.35416796015917E-02 
511	 6.34291519659511E-02 
512	 6.34747504738025E-02 
513	 6.36602520257698E-02 
514	 0.063601239332489 
515	 6.35651961798639E-02 
516	 6.36871781701081E-02 
517	 0.063765350187252 
518	 6.36615352829986E-02 
519	 6.35583860689281E-02 
520	 0.063668673341951 
521	 6.37474080892527E-02 
522	 6.37050465697503E-02 
523	 6.36142075905218E-02 
524	 6.36986125902219E-02 
525	 6.37254258771984E-02 
526	 0.063696846689845 
527	 6.36701148043298E-02 
528	 6.36976084748005E-02 
529	 6.37425743263877E-02 
530	 6.38038055005588E-02 
531	 6.38973613624131E-02 
532	 6.39509444539421E-02 
533	 6.39880651481932E-02 
534	 6.40327112709949E-02 
535	 6.40798875206867E-02 
536	 6.41156364647307E-02 
537	 6.41789944631112E-02 
538	 6.42999002955728E-02 
539	 6.43053151770891E-02 
540	 6.42778878550418E-02 
541	 6.42969783708823E-02 
542	 6.44117713689959E-02 
543	 0.064445821755145 
544	 6.44990685516168E-02 
545	 6.46836585368343E-02 
546	 0.064857769908343 
547	 0.064896768099449 
548	 6.48758275491848E-02 
549	 6.50236772616463E-02 
550	 6.51658765226524E-02 
551	 6.52534289154309E-02 
552	 6.53234557159217E-02 
553	 6.55978767701589E-02 
554	 6.57392220681552E-02 
555	 6.57741288127574E-02 
556	 6.59098602583729E-02 
557	 6.60780144452143E-02 
558	 6.62575361965487E-02 
559	 6.64533076512953E-02 
560	 6.67177441333052E-02 
561	 0.06689163091105 
562	 0.06707244563521 
563	 6.73945069679534E-02 
564	 6.76615762746906E-02 
565	 6.79231464942595E-02 
566	 6.82442045039446E-02 
567	 6.86873552613108E-02 
568	 6.90976094212952E-02 
569	 6.94612699760011E-02 
570	 6.97906305587291E-02 
571	 7.00318481552512E-02 
572	 7.04036329255625E-02 
573	 7.08901566418771E-02 
574	 7.13126299668028E-02 
575	 7.17449023151078E-02 
576	 7.21957380772762E-02 
577	 7.26538143286901E-02 
578	 7.30623568951139E-02 
579	 7.36105399691812E-02 
580	 7.42814673366523E-02 
581	 7.49693815791445E-02 
582	 7.56743704248535E-02 
583	 7.63445506022654E-02 
584	 7.69637425614682E-02 
585	 7.75719097144114E-02 
586	 7.81681403066075E-02 
587	 7.87592160773633E-02 
588	 7.93604095903019E-02 
589	 8.00316653516234E-02 
590	 8.06684322315375E-02 
591	 8.12648252847776E-02 
592	 8.19079114780661E-02 
593	 8.25027496216572E-02 
594	 8.31508858091415E-02 
595	 8.39140254146166E-02 
596	 8.46534239768892E-02 
597	 8.54243848090714E-02 
598	 0.086209804495514 
599	 8.69646654647066E-02 
600	 8.77384255797409E-02 
601	 8.84300596245693E-02 
602	 8.90066822805083E-02 
603	 8.95881510346477E-02 
604	 9.01495825050802E-02 
605	 9.07051764160962E-02 
606	 9.12743775575798E-02 
607	 9.18513048170032E-02 
608	 9.23839041882666E-02 
609	 9.28744191729185E-02 
610	 9.33897166620801E-02 
611	 9.38858436589047E-02 
612	 9.43722734085143E-02 
613	 9.48575948480759E-02 
614	 9.53180617481237E-02 
615	 9.57281794231172E-02 
616	 9.60722559726058E-02 
617	 9.63525581827403E-02 
618	 9.67187420155675E-02 
619	 9.70376144937615E-02 
620	 9.72573271687275E-02 
621	 9.76011426534402E-02 
622	 9.79016945276319E-02 
623	 9.81485474108327E-02 
624	 9.83941552380406E-02 
625	 9.86776405997656E-02 
626	 9.88973071822041E-02 
627	 9.90605973450635E-02 
628	 0.099330717038675 
629	 9.96068868199737E-02 
630	 9.98250198011873E-02 
631	 9.99698687594839E-02 
632	 0.10017062429756 
633	 0.100379212759693 
634	 0.100571018690368 
635	 0.100747415268887 
636	 0.100957340114722 
637	 0.101176241503561 
638	 0.101368503043711 
639	 0.101495362693444 
640	 0.101685289169426 
641	 0.101914684331619 
642	 0.102099718776441 
643	 0.10231005854251 
644	 0.102525067742135 
645	 0.102728527651692 
646	 0.102921424931137 
647	 0.103132022986735 
648	 0.103332435549379 
649	 0.103500295677167 
650	 0.103703908610088 
651	 0.103953575878838 
652	 0.104206420970114 
653	 0.104387302508662 
654	 0.104670466274785 
655	 0.104935085825923 
656	 0.105103937614322 
657	 0.105340452489022 
658	 0.105605711940316 
659	 0.1058891962747 
660	 0.10618267629764 
661	 0.106425791561247 
662	 0.106689790915704 
663	 0.107005234675852 
664	 0.107325703139224 
665	 0.107670517518273 
666	 0.107972280676245 
667	 0.108200867802024 
668	 0.108577232988702 
669	 0.108911232060459 
670	 0.109207291704296 
671	 0.109623219937608 
672	 0.109936190170923 
673	 0.110244213633843 
674	 0.110637131419545 
675	 0.111062789117762 
676	 0.111444521590949 
677	 0.111796883205743 
678	 0.112177572801911 
679	 0.11259719959339 
680	 0.113040945435101 
681	 0.11348614256034 
682	 0.113905116051829 
683	 0.114307541208079 
684	 0.114753790221733 
685	 0.115268022060088 
686	 0.115696322222095 
687	 0.116156077656255 
688	 0.116646509876103 
689	 0.117089532488851 
690	 0.11758587480725 
691	 0.118094001984861 
692	 0.118586569163842 
693	 0.119112116584613 
694	 0.119585137332746 
695	 0.120061281900971 
696	 0.120620887247059 
697	 0.121177685127334 
698	 0.121685473539788 
699	 0.122185869422426 
700	 0.122801643225421 
701	 0.123332916812852 
702	 0.123848296685603 
703	 0.124421190869405 
704	 0.124970462028014 
705	 0.125512926313529 
706	 0.126065078100463 
707	 0.126640284728291 
708	 0.127226933005752 
709	 0.127813110989575 
710	 0.128384874172072 
711	 0.128928337372083 
712	 0.129451429649843 
713	 0.129990137044593 
714	 0.130566600673147 
715	 0.131118440547431 
716	 0.131673380160247 
717	 0.132218684379726 
718	 0.132716335363105 
719	 0.133221804335205 
720	 0.133697972429262 
721	 0.134142239160448 
722	 0.134645777838661 
723	 0.135144824247128 
724	 0.135615538653986 
725	 0.136052346240141 
726	 0.136468242612105 
727	 0.136879991388859 
728	 0.13727498079725 
729	 0.137617315951041 
730	 0.137977670056556 
731	 0.138316370556089 
732	 0.138611260942293 
733	 0.138933431358491 
734	 0.139229562480538 
735	 0.139475097003035 
736	 0.139670258776757 
737	 0.139886062501398 
738	 0.140077762531528 
739	 0.140239462033345 
740	 0.140414151596151 
741	 0.140509171632899 
742	 0.140570883583594 
743	 0.140637528722089 
744	 0.140634674421571 
745	 0.140647727824002 
746	 0.140668008559088 
747	 0.14064223280263 
748	 0.140556554982313 
749	 0.140452956320226 
750	 0.140355156057097 
751	 0.140257492393216 
752	 0.140152481010832 
753	 0.140034656354642 
754	 0.139890810220367 
755	 0.139683058846087 
756	 0.139430514320779 
757	 0.139184216595744 
758	 0.138993124887092 
759	 0.138770506863593 
760	 0.138489289809005 
761	 0.138179941639221 
762	 0.137932658939671 
763	 0.137620258896264 
764	 0.137277588179994 
765	 0.136954615157647 
766	 0.136627839403479 
767	 0.136283412702339 
768	 0.135936458408397 
769	 0.135608452179316 
770	 0.135253429007992 
771	 0.134901727539557 
772	 0.134546805432919 
773	 0.134132677620366 
774	 0.133723172367151 
775	 0.133338347179406 
776	 0.132970767942358 
777	 0.132570353525146 
778	 0.132172435003537 
779	 0.131781959635569 
780	 0.131388193717982 
781	 0.13097649080082 
782	 0.130564266646859 
783	 0.130170704608653 
784	 0.129811061655683 
785	 0.129428234839936 
786	 0.129013816686792 
787	 0.128593562583309 
788	 0.128249840278648 
789	 0.127904101102469 
790	 0.127523946697924 
791	 0.12710977498456 
792	 0.126727453036079 
793	 0.126377162693265 
794	 0.126031671202216 
795	 0.125649977535405 
796	 0.125267628741147 
797	 0.124905775773863 
798	 0.12456458422826 
799	 0.124210263198095 
800	 0.123878056044365 
801	 0.123559169808493 
802	 0.123227992996776 
803	 0.122841647896039 
804	 0.122534794937721 
805	 0.122271176721482 
806	 0.121924593147603 
807	 0.121625840697203 
808	 0.121326194669899 
809	 0.121012187586876 
810	 0.120737882362035 
811	 0.120465172440446 
812	 0.120172337669329 
813	 0.119865183655502 
814	 0.119613012790122 
815	 0.119354431415981 
816	 0.119091208060386 
817	 0.118853096080471 
818	 0.118672838621087 
819	 0.118447466689157 
820	 0.118158773182692 
821	 0.117874679845967 
822	 0.117685471752424 
823	 0.117490912074233 
824	 0.117246618447962 
825	 0.11704992758156 
826	 0.116847237173532 
827	 0.116629453185635 
828	 0.116422079511829 
829	 0.116332044840058 
830	 0.116156819224727 
831	 0.115939968176348 
832	 0.115817783129472 
833	 0.115672696017481 
834	 0.11549010002477 
835	 0.115305036799568 
836	 0.115185588039001 
837	 0.115089338631482 
838	 0.114988574151901 
839	 0.114861182836492 
840	 0.114690161077836 
841	 0.114552551017795 
842	 0.114450301740491 
843	 0.11436052685653 
844	 0.114259831031641 
845	 0.114175834563756 
846	 0.114103402025923 
847	 0.114025664615544 
848	 0.113953288955837 
849	 0.113894196857799 
850	 0.113838520649729 
851	 0.11376718245164 
852	 0.113734111208237 
853	 0.113689236938583 
854	 0.113622011950987 
855	 0.113598605802376 
856	 0.11362430020038 
857	 0.113636633575936 
858	 0.11359688011536 
859	 0.11356589060291 
860	 0.113557982019038 
861	 0.113593625899586 
862	 0.11366382634149 
863	 0.113645559433043 
864	 0.113642255822021 
865	 0.113676670972605 
866	 0.11371459283124 
867	 0.113741031222228 
868	 0.113765772001785 
869	 0.113797573066836 
870	 0.113839518608233 
871	 0.113866907468651 
872	 0.113948049331703 
873	 0.11408060474756 
874	 0.114129974069181 
875	 0.11419934619049 
876	 0.114285486050919 
877	 0.114374040402925 
878	 0.114492811413668 
879	 0.11461675467176 
880	 0.114702145280213 
881	 0.114750551143619 
882	 0.114966888337879 
883	 0.115144975390558 
884	 0.115239288229023 
885	 0.115318062418701 
886	 0.115481501007631 
887	 0.115643397171411 
888	 0.115798717103669 
889	 0.116012296640155 
890	 0.116202535773185 
891	 0.116362483301797 
892	 0.116515240584327 
893	 0.116701843108833 
894	 0.11683210595951 
895	 0.116996644848378 
896	 0.117247691342349 
897	 0.117506791297935 
898	 0.117753889296508 
899	 0.118017387199831 
900	 0.118297293264258 
901	 0.118473924739216 
902	 0.118654009182696 
903	 0.118900245397497 
904	 0.119216919472072 
905	 0.119467820912489 
906	 0.119714709658062 
907	 0.119972203825499 
908	 0.120238010155726 
909	 0.120547354922081 
910	 0.120880828783488 
911	 0.121220184217797 
912	 0.1215539155965 
913	 0.121892318197855 
914	 0.12223977383 
915	 0.122587033743089 
916	 0.12292059605448 
917	 0.123296169593463 
918	 0.123652668530356 
919	 0.123976025780708 
920	 0.124321723178706 
921	 0.124697193715895 
922	 0.125116065767969 
923	 0.125549846744885 
924	 0.125919912573287 
925	 0.126315977447971 
926	 0.126748728575102 
927	 0.127198360401573 
928	 0.12762318410467 
929	 0.128055658056498 
930	 0.128549796756683 
931	 0.129098906956899 
932	 0.129553876369587 
933	 0.130016099077095 
934	 0.130503486267591 
935	 0.131010063272129 
936	 0.131539154176205 
937	 0.132061719868624 
938	 0.132564500496311 
939	 0.133073577397331 
940	 0.133728785291418 
941	 0.134275101707465 
942	 0.134810534041552 
943	 0.135471588019184 
944	 0.135935855666503 
945	 0.136471050171196 
946	 0.137121191640825 
947	 0.137785286277863 
948	 0.138261689820932 
949	 0.138881737737536 
950	 0.139578193473549 
951	 0.140144991103256 
952	 0.140842708353838 
953	 0.141547444706929 
954	 0.142223871977643 
955	 0.142897054265473 
956	 0.143571417224909 
957	 0.144283269712071 
958	 0.14499380474463 
959	 0.145654190313233 
960	 0.146438564407401 
961	 0.147216036866566 
962	 0.147960980192014 
963	 0.148721159665482 
964	 0.149460482188706 
965	 0.150258626949071 
966	 0.15103510890891 
967	 0.151675665036906 
968	 0.152540634341494 
969	 0.15339597619705 
970	 0.154131887730703 
971	 0.154806870633387 
972	 0.155720407296358 
973	 0.15658816409823 
974	 0.157350960202685 
975	 0.15814746905245 
976	 0.159085399522879 
977	 0.160039190121081 
978	 0.160960109827458 
979	 0.161855913952116 
980	 0.162675425583445 
981	 0.163472574129337 
982	 0.16427176857166 
983	 0.165093096459946 
984	 0.166057050929891 
985	 0.167005958774334 
986	 0.167887924818653 
987	 0.168733036055551 
988	 0.169562003413737 
989	 0.170489052863939 
990	 0.171480830098741 
991	 0.172436558270535 
992	 0.173363441819268 
993	 0.174215552729913 
994	 0.175116395904752 
995	 0.176151814828508 
996	 0.176953521278102 
997	 0.177829969256315 
998	 0.178893242941663 
999	 0.180053689948533 
1000	 0.18089544324244 
1001	 0.180860392489431 
1002	 0.181743307322216 
1003	 0.182591773123193 
1004	 0.183431294953877 
1005	 0.184266758371385 
1006	 0.185095164279156 
1007	 0.185887795602813 
1008	 0.186732726442043 
1009	 0.187558350537981 
1010	 0.188344136298327 
1011	 0.189197417202885 
1012	 0.190059768921908 
1013	 0.190805072330759 
1014	 0.191580291827395 
1015	 0.192320925536325 
1016	 0.192955863911278 
1017	 0.193710172325973 
1018	 0.194547017020384 
1019	 0.195405254328903 
1020	 0.196185343793746 
1021	 0.196937780145418 
1022	 0.19766408576945 
1023	 0.198357702287273 
1024	 0.199027448429053 
1025	 0.199753630367849 
1026	 0.200470257300583 
1027	 0.201149156484179 
1028	 0.201844941776379 
1029	 0.202563210240359 
1030	 0.203309463447313 
1031	 0.204011504141766 
1032	 0.204701905185447 
1033	 0.205356162946955 
1034	 0.206029845169004 
1035	 0.206663799436966 
1036	 0.207273802521816 
1037	 0.207966703862066 
1038	 0.208668191507261 
1039	 0.209296087995199 
1040	 0.209942573426247 
1041	 0.210590534446878 
1042	 0.21115538397769 
1043	 0.211748122832082 
1044	 0.212347312517156 
1045	 0.21295164186567 
1046	 0.213537587793732 
1047	 0.214180741288329 
1048	 0.214818422923632 
1049	 0.215428232488405 
1050	 0.216041228009588 
1051	 0.216622576876056 
1052	 0.217159673689648 
1053	 0.217736822018363 
1054	 0.218310419182673 
1055	 0.218858316384542 
1056	 0.219470601833167 
1057	 0.220049750188214 
1058	 0.220617772658129 
1059	 0.221166310068276 
1060	 0.221716410580756 
1061	 0.222211088008037 
1062	 0.222706567531075 
1063	 0.223260876912498 
1064	 0.223812866702791 
1065	 0.224348685742553 
1066	 0.224902846306521 
1067	 0.225468381545602 
1068	 0.226006775272919 
1069	 0.226531234271864 
1070	 0.227044050607886 
1071	 0.227506300216827 
1072	 0.227998991602461 
1073	 0.228506877985629 
1074	 0.229014484689095 
1075	 0.22952584056155 
1076	 0.230039894207311 
1077	 0.230545224146343 
1078	 0.231018752372498 
1079	 0.231492577293608 
1080	 0.231999734941793 
1081	 0.232512744306755 
1082	 0.232984424778531 
1083	 0.2334650411817 
1084	 0.233944862895141 
1085	 0.234417169917208 
1086	 0.234881398502713 
1087	 0.235353305566408 
1088	 0.23582344834382 
1089	 0.236286944321512 
1090	 0.236776405234461 
1091	 0.237254202735713 
1092	 0.237714431079225 
1093	 0.238164260949441 
1094	 0.238620444106114 
1095	 0.2390741463257 
1096	 0.239539305345506 
1097	 0.240003136974551 
1098	 0.24045989135171 
1099	 0.240894750852172 
1100	 0.241345193892916 
1101	 0.241795559086003 
1102	 0.242271619951866 
1103	 0.242781638685262 
1104	 0.243234862459879 
1105	 0.243708240200121 
1106	 0.244215359145909 
1107	 0.24470362312722 
1108	 0.245249735135038 
1109	 0.245806107197384 
1110	 0.2462906551354 
1111	 0.246795484898686 
1112	 0.247285088145645 
1113	 0.247769107186891 
1114	 0.248251472113794 
1115	 0.248746520502766 
1116	 0.249220418428147 
1117	 0.249721999335222 
1118	 0.250246168004123 
1119	 0.250778274761133 
1120	 0.251298573545281 
1121	 0.251789290126917 
1122	 0.252290297337886 
1123	 0.252776213689788 
1124	 0.253261633393661 
1125	 0.253752113878536 
1126	 0.254233959867597 
1127	 0.25468537487986 
1128	 0.255182385722104 
1129	 0.255719459048433 
1130	 0.25620769544792 
1131	 0.256686523791253 
1132	 0.257173566827615 
1133	 0.257626350919328 
1134	 0.258105226111757 
1135	 0.258618478155913 
1136	 0.259124128083327 
1137	 0.25961550649121 
1138	 0.260079022426387 
1139	 0.260538895586597 
1140	 0.260984399887022 
1141	 0.261426690291179 
1142	 0.261863683190667 
1143	 0.262294177045577 
1144	 0.262717983175326 
1145	 0.263135267796093 
1146	 0.263534069501261 
1147	 0.263942027950278 
1148	 0.264364530048313 
1149	 0.26476626153649 
1150	 0.265160728743029 
1151	 0.265550209160974 
1152	 0.265948597455957 
1153	 0.266314592634214 
1154	 0.266682561762608 
1155	 0.26705657142682 
1156	 0.267416221877734 
1157	 0.267746647623516 
1158	 0.268103740758788 
1159	 0.2684808974116 
1160	 0.268835980789372 
1161	 0.26919298218987 
1162	 0.269537301584659 
1163	 0.269854417355793 
1164	 0.2701867082366 
1165	 0.270520399983752 
1166	 0.270868213591671 
1167	 0.271184545552031 
1168	 0.27151960229441 
1169	 0.271836273427816 
1170	 0.272130451920293 
1171	 0.272440551048188 
1172	 0.272767557443061 
1173	 0.273064251166395 
1174	 0.273354055919458 
1175	 0.273637089918383 
1176	 0.273886906290315 
1177	 0.274163996873196 
1178	 0.274460718321639 
1179	 0.274740393011337 
1180	 0.275030348277856 
1181	 0.275302992944645 
1182	 0.275562958034885 
1183	 0.27580678501896 
1184	 0.276055377398506 
1185	 0.27629542701572 
1186	 0.276545880706098 
1187	 0.276804803933623 
1188	 0.27704638845682 
1189	 0.277290765261721 
1190	 0.277519388398898 
1191	 0.277730561237797 
1192	 0.277940548454017 
1193	 0.278136421730377 
1194	 0.278343408200788 
1195	 0.278558006410945 
1196	 0.278759014857229 
1197	 0.278961271980916 
1198	 0.279158120493675 
1199	 0.279347652158095 
1200	 0.279519430282933 
1201	 0.279702791915619 
1202	 0.279889614564589 
1203	 0.280073969499757 
1204	 0.280258477541875 
1205	 0.280439368252796 
1206	 0.280630000405369 
1207	 0.280796584132398 
1208	 0.280940415804429 
1209	 0.281099369344731 
1210	 0.281255621480672 
1211	 0.281406072999009 
1212	 0.281565089160428 
1213	 0.281716557402167 
1214	 0.281858170235413 
1215	 0.281993902271661 
1216	 0.282125682774632 
1217	 0.282256028481358 
1218	 0.282385935669679 
1219	 0.282506993487705 
1220	 0.282632999963555 
1221	 0.282761931390574 
1222	 0.282892363500216 
1223	 0.283027600732092 
1224	 0.283151762051423 
1225	 0.283270506622103 
1226	 0.283395422800806 
1227	 0.28351768974083 
1228	 0.283635970846116 
1229	 0.283760345685309 
1230	 0.28388084511807 
1231	 0.283985860904987 
1232	 0.284100595693325 
1233	 0.284219788279928 
1234	 0.284349118344071 
1235	 0.284465747447686 
1236	 0.284587780921741 
1237	 0.284692734327827 
1238	 0.284784818482645 
1239	 0.284876993704137 
1240	 0.28495395442895 
1241	 0.285045335486369 
1242	 0.285136057136486 
1243	 0.28523499116984 
1244	 0.285354668415126 
1245	 0.285455276019844 
1246	 0.285554484092865 
1247	 0.285647491937633 
1248	 0.285728099029744 
1249	 0.285805193292397 
1250	 0.285896227963619 
1251	 0.285965215425844 
1252	 0.286032954724802 
1253	 0.286087587746556 
1254	 0.286161521745686 
1255	 0.28623215407969 
1256	 0.286312566827858 
1257	 0.286410638106289 
1258	 0.286503799709126 
1259	 0.286599106115976 
1260	 0.28669032129331 
1261	 0.286787267331551 
1262	 0.28687717260123 
1263	 0.286953801331111 
1264	 0.287040604926358 
1265	 0.287136725096995 
1266	 0.287222172583405 
1267	 0.287311619655281 
1268	 0.287387355717472 
1269	 0.28746524065038 
1270	 0.287542789644506 
1271	 0.28760142860284 
1272	 0.287646105106737 
1273	 0.28770370270655 
1274	 0.287740068564049 
1275	 0.287805444030504 
1276	 0.287897795943289 
1277	 0.287979389836343 
1278	 0.28807596204742 
1279	 0.288150910877055 
1280	 0.288211802674842 
1281	 0.288278406709977 
1282	 0.288338252422386 
1283	 0.288395951877076 
1284	 0.288450951513447 
1285	 0.288513643401464 
1286	 0.288581615029177 
1287	 0.288622073929174 
1288	 0.28867817436159 
1289	 0.288741953606475 
1290	 0.288802850012662 
1291	 0.288861940551898 
1292	 0.288923791859631 
1293	 0.288995841933561 
1294	 0.289046086386584 
1295	 0.289094596746063 
1296	 0.289126098760371 
1297	 0.289134629564085 
1298	 0.289150271340407 
1299	 0.289154681056841 
1300	 0.289161281327156 
1301	 0.289172225045035 
1302	 0.289176893919046 
1303	 0.289167439930144 
1304	 0.28917654739322 
1305	 0.289196761648285 
1306	 0.289193889878272 
1307	 0.289200527766627 
1308	 0.289193592914693 
1309	 0.289164446224891 
1310	 0.289101199713134 
1311	 0.289070983552322 
1312	 0.28904313985023 
1313	 0.289006988152951 
1314	 0.288974207408257 
1315	 0.288945479319852 
1316	 0.288915974016346 
1317	 0.288876693967135 
1318	 0.288831931094087 
1319	 0.288806327749275 
1320	 0.288774161323574 
1321	 0.288749489984057 
1322	 0.288744108655957 
1323	 0.288746587067814 
1324	 0.288744958118704 
1325	 0.288729214407723 
1326	 0.288707327577472 
1327	 0.288698233507912 
1328	 0.288655727872402 
1329	 0.288628797918402 
1330	 0.288619902659515 
1331	 0.288611873631477 
1332	 0.288631188381974 
1333	 0.288688461565747 
1334	 0.288720027874607 
1335	 0.288759426846818 
1336	 0.288794648737547 
1337	 0.288812385457942 
1338	 0.288844585497276 
1339	 0.288887425959116 
1340	 0.288929491539876 
1341	 0.288980745509415 
1342	 0.28902591254485 
1343	 0.289080279569331 
1344	 0.289110717630065 
1345	 0.28914197421972 
1346	 0.289139862753462 
1347	 0.289126923493071 
1348	 0.289150826324314 
1349	 0.289164558088825 
1350	 0.289166402926143 
1351	 0.28917426476393 
1352	 0.289183320731948 
1353	 0.289181248673325 
1354	 0.289186644578197 
1355	 0.289169710318591 
1356	 0.289117471863807 
1357	 0.289100352612865 
1358	 0.289080258634108 
1359	 0.28907896764605 
1360	 0.289097769008373 
1361	 0.289130553817721 
1362	 0.289172314020351 
1363	 0.289223272372346 
1364	 0.289298109433207 
1365	 0.289374321785745 
1366	 0.289450102467538 
1367	 0.289538189451164 
1368	 0.289656397885339 
1369	 0.289747466201982 
1370	 0.289831758737792 
1371	 0.289911774264373 
1372	 0.289952909988759 
1373	 0.28997373721934 
1374	 0.289969762471363 
1375	 0.289959433697817 
1376	 0.28988350243374 
1377	 0.289758423728426 
1378	 0.289624991014709 
1379	 0.289418795656892 
1380	 0.28926627659075 
1381	 0.289128793025309 
1382	 0.288982534124315 
1383	 0.288856023692095 
1384	 0.288709486137521 
1385	 0.288568064456444 
1386	 0.288389568377474 
1387	 0.288203009720313 
1388	 0.287983314005774 
1389	 0.287735323800785 
1390	 0.287455392990798 
1391	 0.287139613188419 
1392	 0.286787228945929 
1393	 0.286374390909638 
1394	 0.28593718571638 
1395	 0.285506554704902 
1396	 0.28505954196297 
1397	 0.284614563431932 
1398	 0.284182322675625 
1399	 0.28371528596827 
1400	 0.28323438399124 
1401	 0.282730837331054 
1402	 0.282178058107161 
1403	 0.281679421863946 
1404	 0.281177141385115 
1405	 0.280696951365109 
1406	 0.280268771936261 
1407	 0.279809967168513 
1408	 0.279325860650888 
1409	 0.278877948217299 
1410	 0.278409111898809 
1411	 0.278005233076641 
1412	 0.277644804651655 
1413	 0.27731323749958 
1414	 0.277018500386121 
1415	 0.276740650283253 
1416	 0.276438102994171 
1417	 0.276157356987217 
1418	 0.275911056278694 
1419	 0.275660189744499 
1420	 0.275445150959751 
1421	 0.27525798284175 
1422	 0.275054925540919 
1423	 0.274856947063046 
1424	 0.274657894439089 
1425	 0.274456885750287 
1426	 0.274263382754137 
1427	 0.274053605571031 
1428	 0.273895542652686 
1429	 0.273772072211814 
1430	 0.273640343080503 
1431	 0.2735481173789 
1432	 0.273427370517178 
1433	 0.273269338279371 
1434	 0.273153242609136 
1435	 0.27304507943921 
1436	 0.272951949579953 
1437	 0.272899791652819 
1438	 0.272830550683864 
1439	 0.272764136137251 
1440	 0.272693090858043 
1441	 0.272603330981135 
1442	 0.272522592468557 
1443	 0.272450650895082 
1444	 0.272382668801815 
1445	 0.27235405163021 
1446	 0.272331086486508 
1447	 0.27229114545694 
1448	 0.272270017851537 
1449	 0.272244215374681 
1450	 0.27221258260553 
1451	 0.272207233678924 
1452	 0.272215268788141 
1453	 0.2722427162203 
1454	 0.27229905147513 
1455	 0.272337585155494 
1456	 0.272396281233674 
1457	 0.272431203436379 
1458	 0.272428915228851 
1459	 0.27247244796661 
1460	 0.272525106288102 
1461	 0.272588184079162 
1462	 0.272692018623961 
1463	 0.272768376699345 
1464	 0.27283868518222 
1465	 0.27290753100755 
1466	 0.272956595167972 
1467	 0.273024691515381 
1468	 0.273090612521098 
1469	 0.273175013730282 
1470	 0.273275282916934 
1471	 0.273392106792398 
1472	 0.273512328409182 
1473	 0.273627697865947 
1474	 0.2737114251795 
1475	 0.273816755689953 
1476	 0.27393794518213 
1477	 0.274064198840864 
1478	 0.274249338730375 
1479	 0.274430111136257 
1480	 0.274575658354269 
1481	 0.274730185193667 
1482	 0.274879379124486 
1483	 0.275000920017166 
1484	 0.275151182373477 
1485	 0.275322209369106 
1486	 0.275487391577655 
1487	 0.275659587884345 
1488	 0.275816430083445 
1489	 0.275973326848254 
1490	 0.276123061085288 
1491	 0.276259968967538 
1492	 0.276401112123187 
1493	 0.276528352958394 
1494	 0.276680710539977 
1495	 0.276848145213661 
1496	 0.277003894966737 
1497	 0.277190594898484 
1498	 0.277340370754757 
1499	 0.277462881362935 
1500	 0.27758269328117 
1501	 0.277676245365277 
1502	 0.277783289148199 
1503	 0.277887030091689 
1504	 0.277993250379792 
1505	 0.278118632414096 
1506	 0.278242278327906 
1507	 0.278369348559009 
1508	 0.278486693406562 
1509	 0.278591961683728 
1510	 0.278699752679275 
1511	 0.278817557344092 
1512	 0.27893978586706 
1513	 0.279057309012984 
1514	 0.279182703644219 
1515	 0.279320039443687 
1516	 0.279453659595855 
1517	 0.279565444405383 
1518	 0.279677847278006 
1519	 0.279778292864876 
1520	 0.279842749092733 
1521	 0.279935664370521 
1522	 0.280045068974306 
1523	 0.2801448787093 
1524	 0.280245586031922 
1525	 0.280340927971208 
1526	 0.280425919774311 
1527	 0.28052557483623 
1528	 0.280630958205465 
1529	 0.280731348715645 
1530	 0.280840955555716 
1531	 0.280945238800767 
1532	 0.281051542210488 
1533	 0.28114177500441 
1534	 0.281226654148679 
1535	 0.281306908494704 
1536	 0.281358880869621 
1537	 0.281427230183724 
1538	 0.281503946262858 
1539	 0.281581230468904 
1540	 0.281657535017705 
1541	 0.28175092409974 
1542	 0.281863771616865 
1543	 0.281960803189135 
1544	 0.282063105878283 
1545	 0.282157572358634 
1546	 0.282244204379585 
1547	 0.282316072532975 
1548	 0.282395699270309 
1549	 0.282477779671944 
1550	 0.282550050727523 
1551	 0.282644815072183 
1552	 0.282753455697768 
1553	 0.282847053672374 
1554	 0.282934945123298 
1555	 0.283014079189882 
1556	 0.283085655184655 
1557	 0.283159145179663 
1558	 0.283237994959656 
1559	 0.28331438560529 
1560	 0.283374952923284 
1561	 0.283428056258432 
1562	 0.283469215747793 
1563	 0.28348390360877 
1564	 0.283528606713938 
1565	 0.283575310647743 
1566	 0.283626672409045 
1567	 0.283696088635283 
1568	 0.283763482022122 
1569	 0.283833022207935 
1570	 0.283890510068822 
1571	 0.283959074849628 
1572	 0.28400345406221 
1573	 0.284018880520239 
1574	 0.284050716471786 
1575	 0.284073478927563 
1576	 0.284110929364434 
1577	 0.284162636973628 
1578	 0.284205771034901 
1579	 0.284255387132657 
1580	 0.284299279710121 
1581	 0.284332280057308 
1582	 0.284375022592876 
1583	 0.284415482897581 
1584	 0.284466853054646 
1585	 0.284537056611715 
1586	 0.284590313012177 
1587	 0.284644694989471 
1588	 0.284692443325917 
1589	 0.284728809469877 
1590	 0.284759883423154 
1591	 0.284787667841499 
1592	 0.284816605688456 
1593	 0.284845559835723 
1594	 0.284858442677948 
1595	 0.284856587488388 
1596	 0.28486236766722 
1597	 0.284853515285532 
1598	 0.284857148195141 
1599	 0.284884285379664 
1600	 0.284899005045535 
1601	 0.284897827795203 
1602	 0.284913536416768 
1603	 0.284931172839578 
1604	 0.284953321933047 
1605	 0.28499290370182 
1606	 0.285028245244637 
1607	 0.285055725732799 
1608	 0.285102942821371 
1609	 0.285133286697806 
1610	 0.285155698079626 
1611	 0.2851949937847 
1612	 0.285224229410047 
1613	 0.285249028657824 
1614	 0.285273486550282 
1615	 0.285284097802091 
1616	 0.285286870904015 
1617	 0.2853025933399 
1618	 0.285330833228375 
1619	 0.285343375351456 
1620	 0.285343231078597 
1621	 0.285353982698763 
1622	 0.285357455036476 
1623	 0.28537791829688 
1624	 0.285421256371425 
1625	 0.285426751652203 
1626	 0.285422090844804 
1627	 0.285419061268692 
1628	 0.285392854025358 
1629	 0.285383596477619 
1630	 0.285389745147936 
1631	 0.28538099463871 
1632	 0.285351748676698 
1633	 0.28536522275583 
1634	 0.28539693089329 
1635	 0.285421215812339 
1636	 0.285477478465678 
1637	 0.285493793090708 
1638	 0.285472997922256 
1639	 0.285495321696182 
1640	 0.285528411536003 
1641	 0.285553514095523 
1642	 0.285608295551353 
1643	 0.28562002271334 
1644	 0.285597785578225 
1645	 0.285592060086915 
1646	 0.28557048607403 
1647	 0.285572797793933 
1648	 0.285593660770086 
1649	 0.285599245721994 
1650	 0.285614898135226 
1651	 0.285610850943314 
1652	 0.285574956779206 
1653	 0.285579953353137 
1654	 0.28559813180665 
1655	 0.285614265558795 
1656	 0.285666873438827 
1657	 0.285672787854312 
1658	 0.285651595278176 
1659	 0.285633781322415 
1660	 0.28559324702205 
1661	 0.285569107185493 
1662	 0.285549104384621 
1663	 0.28552948317105 
1664	 0.285513641437098 
1665	 0.285497168950104 
1666	 0.285484572211485 
1667	 0.285464400059886 
1668	 0.285438539340354 
1669	 0.28541938115466 
1670	 0.285387495993676 
1671	 0.285384300048124 
1672	 0.285405335583102 
1673	 0.285413213003924 
1674	 0.285439477120487 
1675	 0.285441753954739 
1676	 0.285426898738995 
1677	 0.285413885737612 
1678	 0.28539325593288 
1679	 0.285371383993523 
1680	 0.285331094355228 
1681	 0.28532356982575 
1682	 0.285331716058048 
1683	 0.28533629084778 
1684	 0.285364020481221 
1685	 0.28537785838299 
1686	 0.285386715038467 
1687	 0.285384209426273 
1688	 0.285386162384246 
1689	 0.285364905629684 
1690	 0.285309775035348 
1691	 0.285276933334325 
1692	 0.285241332440472 
1693	 0.28521147821367 
1694	 0.285192424411379 
1695	 0.285173691555637 
1696	 0.285146906455018 
1697	 0.285138139888672 
1698	 0.285150318221755 
1699	 0.285145052996412 
1700	 0.285140447733743 
1701	 0.285137933606896 
1702	 0.285120461378621 
1703	 0.285123112254554 
1704	 0.285151920124991 
1705	 0.285152391629109 
1706	 0.285145185506713 
1707	 0.285139556120982 
1708	 0.285121107355771 
1709	 0.285104167821952 
1710	 0.285097412433962 
1711	 0.285074600797036 
1712	 0.285039349599571 
1713	 0.284999064064693 
1714	 0.284940326378185 
1715	 0.28490806601922 
1716	 0.284878635295557 
1717	 0.284855328918307 
1718	 0.284860598619706 
1719	 0.284838759562428 
1720	 0.284799549875292 
1721	 0.284770248599212 
1722	 0.28474425942063 
1723	 0.284704061903655 
1724	 0.284672665063688 
1725	 0.284611084755699 
1726	 0.284510881572487 
1727	 0.284442711414532 
1728	 0.284365992074548 
1729	 0.284307036236818 
1730	 0.284267858264014 
1731	 0.28423633431317 
1732	 0.284224577785349 
1733	 0.284181457141048 
1734	 0.284149032318028 
1735	 0.284081701227283 
1736	 0.283977435542402 
1737	 0.283872835666846 
1738	 0.283745604667596 
1739	 0.283650546545442 
1740	 0.283549330741744 
1741	 0.283474701669045 
1742	 0.283434460915943 
1743	 0.283375278296135 
1744	 0.283307466398683 
1745	 0.283270866075304 
1746	 0.283253814715458 
1747	 0.283235890301128 
1748	 0.283204483548665 
1749	 0.283122027852542 
1750	 0.283039088681096 
1751	 0.282942005479923 
1752	 0.282850750408229 
1753	 0.282802502275951 
1754	 0.282753221494434 
1755	 0.282704586411282 
1756	 0.282690390568925 
1757	 0.282667591739796 
1758	 0.282603462530089 
1759	 0.282541655950713 
1760	 0.282468501937063 
1761	 0.282400872112358 
1762	 0.282357293155942 
1763	 0.282305374560931 
1764	 0.282257735148951 
1765	 0.28219769212707 
1766	 0.28214011073589 
1767	 0.282108713687517 
1768	 0.282084195326188 
1769	 0.282051612015201 
1770	 0.282004259401355 
1771	 0.281961200508278 
1772	 0.281914261065323 
1773	 0.281850274977669 
1774	 0.281805329018468 
1775	 0.281780387174585 
1776	 0.281729423484804 
1777	 0.281668294670203 
1778	 0.281623213540735 
1779	 0.281548686933888 
1780	 0.281476624334347 
1781	 0.281444854122297 
1782	 0.281404675749946 
1783	 0.28136796876636 
1784	 0.281348686360195 
1785	 0.281351880713722 
1786	 0.28132606547561 
1787	 0.281298580496721 
1788	 0.281269058561427 
1789	 0.281197745292212 
1790	 0.281185043439439 
1791	 0.281224188522089 
1792	 0.281217923705112 
1793	 0.281205803674733 
1794	 0.28120633397453 
1795	 0.281190106508236 
1796	 0.281192561265624 
1797	 0.281230325751832 
1798	 0.281242682063246 
1799	 0.281232554808246 
1800	 0.281227906482866 
1801	 0.279851023141427 
1802	 0.280023626833344 
1803	 0.280213137057369 
1804	 0.28045209456189 
1805	 0.280683592999753 
1806	 0.280856639962516 
1807	 0.281002616702063 
1808	 0.281125567770726 
1809	 0.28120012367486 
1810	 0.28126334706696 
1811	 0.281293440984215 
1812	 0.281363472831248 
1813	 0.281395194143018 
1814	 0.281406415597358 
1815	 0.281438126868637 
1816	 0.281426503806158 
1817	 0.281439319397248 
1818	 0.281441301948792 
1819	 0.28147196201156 
1820	 0.281528743327727 
1821	 0.281578855057412 
1822	 0.281606860754213 
1823	 0.281627931987708 
1824	 0.281644043151738 
1825	 0.281650349317511 
1826	 0.281647773574246 
1827	 0.281629758775864 
1828	 0.281601958764462 
1829	 0.281548473165873 
1830	 0.281504093049046 
1831	 0.281463482724152 
1832	 0.281406130311786 
1833	 0.281334033109941 
1834	 0.281263820900409 
1835	 0.281197857763292 
1836	 0.281144144745254 
1837	 0.281127027286296 
1838	 0.28112245556654 
1839	 0.281108981751227 
1840	 0.281101108986506 
1841	 0.281092002084187 
1842	 0.281077717785991 
1843	 0.281066002207162 
1844	 0.281068590516569 
1845	 0.28107378542513 
1846	 0.281062915681734 
1847	 0.281047003742458 
1848	 0.281022710701505 
1849	 0.281001417350752 
1850	 0.28097516229058 
1851	 0.280962258457671 
1852	 0.280919642899059 
1853	 0.280847050108849 
1854	 0.280763570925977 
1855	 0.280668252106739 
1856	 0.280583502828474 
1857	 0.280506480879492 
1858	 0.280401266296472 
1859	 0.280295491022562 
1860	 0.280161299164112 
1861	 0.280006708562937 
1862	 0.279817893969863 
1863	 0.279623692683032 
1864	 0.279341753904462 
1865	 0.278970047486805 
1866	 0.27856167445272 
1867	 0.278131878878344 
1868	 0.277693039559439 
1869	 0.277267769540731 
1870	 0.276851129458729 
1871	 0.276426698841329 
1872	 0.275987477419208 
1873	 0.275563139427714 
1874	 0.275133040331772 
1875	 0.27470037240906 
1876	 0.274264634825951 
1877	 0.27378519745263 
1878	 0.273230675391441 
1879	 0.272593321399774 
1880	 0.271877451622246 
1881	 0.271059541647302 
1882	 0.270187537881282 
1883	 0.26925550457646 
1884	 0.268241923971553 
1885	 0.267159684416181 
1886	 0.265978247875449 
1887	 0.264716689755576 
1888	 0.263413820224745 
1889	 0.262014280019214 
1890	 0.26055410439632 
1891	 0.259073788307377 
1892	 0.257541011316609 
1893	 0.255963093720391 
1894	 0.25434446237256 
1895	 0.252699821846073 
1896	 0.250998934163189 
1897	 0.249261246634845 
1898	 0.247518695345616 
1899	 0.245824947681965 
1900	 0.244195827259502 
1901	 0.242588988919207 
1902	 0.24104942027217 
1903	 0.239602828535737 
1904	 0.238174961800968 
1905	 0.236757854074713 
1906	 0.235442304961991 
1907	 0.234191464131433 
1908	 0.232983414821316 
1909	 0.231875836351117 
1910	 0.230809174213798 
1911	 0.229787914975593 
1912	 0.228821099815221 
1913	 0.227896620696541 
1914	 0.227002751328548 
1915	 0.226170552933393 
1916	 0.225389690680481 
1917	 0.224659512576333 
1918	 0.223990030250452 
1919	 0.223394793381962 
1920	 0.22287836748194 
1921	 0.222401176875902 
1922	 0.221970419829028 
1923	 0.221619264597072 
1924	 0.22130082797552 
1925	 0.221039117567958 
1926	 0.220811543455055 
1927	 0.220647852062567 
1928	 0.220473254375162 
1929	 0.220328158537962 
1930	 0.22020985729705 
1931	 0.220084858464858 
1932	 0.219994886100908 
1933	 0.219945989030401 
1934	 0.219906861636081 
1935	 0.219912471625011 
1936	 0.219971097961862 
1937	 0.220034371827475 
1938	 0.220126905747083 
1939	 0.22023212489104 
1940	 0.220351220969634 
1941	 0.220479138971567 
1942	 0.220650750720715 
1943	 0.220860583964402 
1944	 0.221085841157142 
1945	 0.221319114449753 
1946	 0.22155847476905 
1947	 0.221797778547752 
1948	 0.222052776935656 
1949	 0.22231339417466 
1950	 0.222602494454642 
1951	 0.222916932481837 
1952	 0.223221727307956 
1953	 0.223575185698708 
1954	 0.223931165007033 
1955	 0.224240824157995 
1956	 0.22457347411389 
1957	 0.224931351818299 
1958	 0.225288037213349 
1959	 0.225664716787553 
1960	 0.226096300629412 
1961	 0.226498081012311 
1962	 0.226880571812795 
1963	 0.227280686355092 
1964	 0.227690622691429 
1965	 0.228097751013555 
1966	 0.228509581744577 
1967	 0.228921037661884 
1968	 0.229345005490673 
1969	 0.229775262063363 
1970	 0.230200642438841 
1971	 0.230644722022796 
1972	 0.231071536260354 
1973	 0.231487203948474 
1974	 0.231901022337477 
1975	 0.232309605222666 
1976	 0.232711892200117 
1977	 0.233114818627573 
1978	 0.233532104732781 
1979	 0.233972128864843 
1980	 0.234404424210388 
1981	 0.234834288048554 
1982	 0.235263381415867 
1983	 0.235699220190936 
1984	 0.236134752660323 
1985	 0.236569976430303 
1986	 0.237026983599883 
1987	 0.237457023422175 
1988	 0.237865562621227 
1989	 0.238276681818009 
1990	 0.23870188235676 
1991	 0.239093251148158 
1992	 0.239502746115717 
1993	 0.239924793054548 
1994	 0.24034008938782 
1995	 0.240743664063051 
1996	 0.241164318973753 
1997	 0.241596127915736 
1998	 0.242023786933803 
1999	 0.242468348354282 
2000	 0.242892358354136 
2001	 0.243308076498107 
2002	 0.243714915054687 
2003	 0.244117144013112 
2004	 0.244519117802402 
2005	 0.244918354185979 
2006	 0.245308758560598 
2007	 0.24572205199404 
2008	 0.246143069307388 
2009	 0.246563381778276 
2010	 0.247020212390966 
2011	 0.247436571120184 
2012	 0.247819493560014 
2013	 0.248213606547722 
2014	 0.248585542629564 
2015	 0.248980241918082 
2016	 0.249383757212621 
2017	 0.249794637151208 
2018	 0.250180346311179 
2019	 0.250554340473513 
2020	 0.250925313970895 
2021	 0.251273759564124 
2022	 0.251636285916105 
2023	 0.25200419189781 
2024	 0.252378238804009 
2025	 0.252758384315989 
2026	 0.253134324563199 
2027	 0.253515739859285 
2028	 0.253892451053421 
2029	 0.254266490772353 
2030	 0.254637828073701 
2031	 0.254997318618796 
2032	 0.255358425202352 
2033	 0.255698437058028 
2034	 0.256010981714373 
2035	 0.256340341143161 
2036	 0.256669815758957 
2037	 0.256992056729013 
2038	 0.257322050437942 
2039	 0.257639050418405 
2040	 0.257937968592243 
2041	 0.258241268825744 
2042	 0.258545657467624 
2043	 0.258834627056071 
2044	 0.259124739878968 
2045	 0.259406068924969 
2046	 0.259694431644933 
2047	 0.260002229800424 
2048	 0.260268544951199 
2049	 0.260506477231971 
2050	 0.260764457163677 
2051	 0.260993136264264 
2052	 0.261242812886952 
2053	 0.261521221686937 
2054	 0.261795652597349 
2055	 0.262073939995418 
2056	 0.26235071244205 
2057	 0.26261391883974 
2058	 0.262880789437652 
2059	 0.263134683751992 
2060	 0.263374779658842 
2061	 0.263603644118889 
2062	 0.263820063825085 
2063	 0.264041186462701 
2064	 0.264246599427897 
2065	 0.264458024209407 
2066	 0.26467721373212 
2067	 0.264895637846802 
2068	 0.265101667206033 
2069	 0.265324946163145 
2070	 0.265542224863111 
2071	 0.265767569351389 
2072	 0.265979275719634 
2073	 0.266186949774707 
2074	 0.266388556185926 
2075	 0.266577877736498 
2076	 0.266776921296441 
2077	 0.266964387689103 
2078	 0.26717356323632 
2079	 0.267398392637702 
2080	 0.267622495449173 
2081	 0.267857118925451 
2082	 0.268094106300288 
2083	 0.268330634669927 
2084	 0.268587679561401 
2085	 0.268806382109023 
2086	 0.269023747277013 
2087	 0.269219346239973 
2088	 0.26937045994674 
2089	 0.26955370179956 
2090	 0.269742960282664 
2091	 0.269930887755109 
2092	 0.270119247178268 
2093	 0.270318302675645 
2094	 0.270525686342359 
2095	 0.27072815713637 
2096	 0.270940561204327 
2097	 0.271147882312147 
2098	 0.271355906166876 
2099	 0.271549814097991 
2100	 0.271740694923699 
2101	 0.271931017289546 
2102	 0.27211320526581 
2103	 0.272266712022394 
2104	 0.272460195612265 
2105	 0.272662137115349 
2106	 0.272879675082603 
2107	 0.273125833602851 
2108	 0.273369040584658 
2109	 0.273625549950448 
2110	 0.273875290692789 
2111	 0.274141910948118 
2112	 0.274387443268802 
2113	 0.274638347582118 
2114	 0.274842531619793 
2115	 0.275066289635486 
2116	 0.275272147607897 
2117	 0.275500101191203 
2118	 0.275739763934966 
2119	 0.275977337653899 
2120	 0.27623553993381 
2121	 0.276459148698721 
2122	 0.276671078193704 
2123	 0.276871137996552 
2124	 0.277054423887118 
2125	 0.277224463553702 
2126	 0.277378603150284 
2127	 0.277531338025002 
2128	 0.277664349502537 
2129	 0.27779995609124 
2130	 0.277946677890315 
2131	 0.278086351068558 
2132	 0.278179011781199 
2133	 0.278241123771447 
2134	 0.278309749653984 
2135	 0.27833849576434 
2136	 0.278390768790208 
2137	 0.278455111043917 
2138	 0.278517500636709 
2139	 0.278585963669858 
2140	 0.278636149939139 
2141	 0.278700060107192 
2142	 0.278729118794781 
2143	 0.278720470007218 
2144	 0.278717114902205 
2145	 0.278715539720011 
2146	 0.278683729442004 
2147	 0.278642841470117 
2148	 0.278574660500089 
2149	 0.278493243691708 
2150	 0.278366005934753 
2151	 0.278277622009357 
2152	 0.278198504123848 
2153	 0.27810711059358 
2154	 0.278029967736492 
2155	 0.277927705675252 
2156	 0.277816059202232 
2157	 0.277680009811405 
2158	 0.277518102275025 
2159	 0.277360868544644 
2160	 0.277175950646094 
2161	 0.277005442131422 
2162	 0.276867400458028 
2163	 0.276689936364021 
2164	 0.276491890054389 
2165	 0.276287082136299 
2166	 0.276074418441111 
2167	 0.275832108360998 
2168	 0.275606370658934 
2169	 0.275386028030108 
2170	 0.275162992633365 
2171	 0.274926349392367 
2172	 0.274710616557396 
2173	 0.274498250754879 
2174	 0.274305425701431 
2175	 0.274131524507112 
2176	 0.273959595777749 
2177	 0.273824203888002 
2178	 0.273649981473013 
2179	 0.273464898252057 
2180	 0.273270123587486 
2181	 0.273044421310695 
2182	 0.272823592733487 
2183	 0.27260466484483 
2184	 0.272371020079667 
2185	 0.27214942297429 
2186	 0.271934802490619 
2187	 0.271702273447889 
2188	 0.271462862638961 
2189	 0.27122973373933 
2190	 0.270968139927996 
2191	 0.270749370763941 
2192	 0.270552699592812 
2193	 0.270368194369675 
2194	 0.270204317267059 
2195	 0.270049786723748 
2196	 0.269904900556863 
2197	 0.269777664805057 
2198	 0.269653494248748 
2199	 0.269567400653086 
2200	 0.269520725726755 
2201	 0.269475686309145 
2202	 0.269453891571278 
2203	 0.26945127650106 
2204	 0.269441136974208 
2205	 0.269432701031612 
2206	 0.269422964497458 
2207	 0.269411278589963 
2208	 0.269416886985397 
2209	 0.269428176721104 
2210	 0.269440946291156 
2211	 0.269456204161074 
2212	 0.269498548809043 
2213	 0.269558708423004 
2214	 0.269608224115126 
2215	 0.269682442339893 
2216	 0.269746945434334 
2217	 0.269789878169408 
2218	 0.269845488893862 
2219	 0.269927329844391 
2220	 0.269985355707389 
2221	 0.270039196222534 
2222	 0.270078609269597 
2223	 0.270085240808827 
2224	 0.270077911427252 
2225	 0.270076442316397 
2226	 0.270053771047093 
2227	 0.270043584343458 
2228	 0.270037747393174 
2229	 0.270044832595033 
2230	 0.270050091133555 
2231	 0.270068903372669 
2232	 0.270124847460332 
2233	 0.270138265007215 
2234	 0.270141039204466 
2235	 0.270130360847013 
2236	 0.270098116212094 
2237	 0.270060173708364 
2238	 0.270004180213459 
2239	 0.269955351397615 
2240	 0.269876108446352 
2241	 0.269837267088624 
2242	 0.269842963059582 
2243	 0.269821274779007 
2244	 0.269812026388928 
2245	 0.269791332768468 
2246	 0.269752343771128 
2247	 0.269711118986792 
2248	 0.269658432990976 
2249	 0.269609189199934 
2250	 0.269549514762309 
2251	 0.269448464510737 
2252	 0.269403826843835 
2253	 0.269384148813047 
2254	 0.269360954866407 
2255	 0.269373607200802 
2256	 0.269357430548105 
2257	 0.269346443854942 
2258	 0.26929703141887 
2259	 0.269202674676112 
2260	 0.269142957052877 
2261	 0.269054129743016 
2262	 0.269007854210802 
2263	 0.268993041480362 
2264	 0.26900043438609 
2265	 0.269043801569961 
2266	 0.269073653071101 
2267	 0.269144851510457 
2268	 0.269181358683949 
2269	 0.269186653669991 
2270	 0.269194080641367 
2271	 0.269208786158347 
2272	 0.269230749438499 
2273	 0.269262454112208 
2274	 0.269277375736417 
2275	 0.269285245266533 
2276	 0.269278542512566 
2277	 0.269262459134164 
2278	 0.269247017361027 
2279	 0.269208503553326 
2280	 0.269114219411544 
2281	 0.269104449129529 
2282	 0.269115314511835 
2283	 0.269144707675879 
2284	 0.26925898804712 
2285	 0.26930111916319 
2286	 0.269299614286315 
2287	 0.269324807693817 
2288	 0.2693569882908 
2289	 0.269365867656924 
2290	 0.269381848276809 
2291	 0.269374840880341 
2292	 0.269324298882032 
2293	 0.269287234380258 
2294	 0.26923673729418 
2295	 0.2692162340844 
2296	 0.269216609225059 
2297	 0.269206963626048 
2298	 0.269219587531022 
2299	 0.269203309081228 
2300	 0.269140326953405 
2301	 0.269104884247801 
2302	 0.269113419321368 
2303	 0.269119735575461 
2304	 0.269146004424156 
2305	 0.269179346386169 
2306	 0.269126099605517 
2307	 0.268989054317988 
2308	 0.268906043400577 
2309	 0.268787703989959 
2310	 0.268684854803968 
2311	 0.268620837167277 
2312	 0.268529253348217 
2313	 0.26841110182912 
2314	 0.268309932879415 
2315	 0.268202566277639 
2316	 0.268107739405278 
2317	 0.268039396733382 
2318	 0.267934592972837 
2319	 0.267814608913703 
2320	 0.267712231887163 
2321	 0.267578419204512 
2322	 0.267474663236417 
2323	 0.267394150395765 
2324	 0.267334207494593 
2325	 0.267321775094429 
2326	 0.267264683224249 
2327	 0.267183869001205 
2328	 0.267135861193289 
2329	 0.267122190480902 
2330	 0.267046997987275 
2331	 0.267018538469717 
2332	 0.266973198336781 
2333	 0.266822155394063 
2334	 0.266680034810483 
2335	 0.266515443656396 
2336	 0.266344233045092 
2337	 0.266224871102755 
2338	 0.266171723695677 
2339	 0.266173688589228 
2340	 0.266118494589585 
2341	 0.265986013244698 
2342	 0.265796924873583 
2343	 0.265566898869967 
2344	 0.265380743232818 
2345	 0.265266662439416 
2346	 0.265269977973791 
2347	 0.26515302934154 
2348	 0.265054528729365 
2349	 0.264902350464237 
2350	 0.264654356000495 
2351	 0.264460197854755 
2352	 0.264267821564116 
2353	 0.264087669419958 
2354	 0.263913092657236 
2355	 0.26372167036617 
2356	 0.263534207794437 
2357	 0.263334616155287 
2358	 0.26313443859635 
2359	 0.262925202765397 
2360	 0.262710772672573 
2361	 0.262496720647581 
2362	 0.262249442206397 
2363	 0.262036758596021 
2364	 0.261863058272167 
2365	 0.261654638373837 
2366	 0.261452088714041 
2367	 0.261214609281046 
2368	 0.260915088143103 
2369	 0.260644781384854 
2370	 0.260338956227066 
2371	 0.260158475979654 
2372	 0.259921585743907 
2373	 0.259660208022728 
2374	 0.259415607773214 
2375	 0.259012333949225 
2376	 0.258654796562189 
2377	 0.258395113404568 
2378	 0.258122985578853 
2379	 0.257930156768158 
2380	 0.257726626595439 
2381	 0.25744647546572 
2382	 0.257144446903429 
2383	 0.256828341799333 
2384	 0.256468528392142 
2385	 0.256150292592853 
2386	 0.255905710645378 
2387	 0.255639215795734 
2388	 0.255371128402319 
2389	 0.255163261329258 
2390	 0.254929136177253 
2391	 0.254617811082914 
2392	 0.254357321841937 
2393	 0.254071244279677 
2394	 0.253747021170958 
2395	 0.253391007413444 
2396	 0.252995887887242 
2397	 0.252673857597899 
2398	 0.252410576952758 
2399	 0.252199447203658 
2400	 0.251922223559087 
2401	 0.251586665366379 
2402	 0.251233173175633 
2403	 0.250877036182531 
2404	 0.250580479879429 
2405	 0.250225815425184 
2406	 0.24978685207285 
2407	 0.249366299959957 
2408	 0.249015882871551 
2409	 0.248717215961848 
2410	 0.248484282219756 
2411	 0.248230438102587 
2412	 0.24792333914174 
2413	 0.247642392277181 
2414	 0.247321753709456 
2415	 0.247005097912105 
2416	 0.246719185895746 
2417	 0.246464226157461 
2418	 0.246171959118745 
2419	 0.245877560670538 
2420	 0.245575566193684 
2421	 0.24524979525526 
2422	 0.244942056735576 
2423	 0.244668865596279 
2424	 0.244377597900176 
2425	 0.244062701582897 
2426	 0.24377935900213 
2427	 0.24350287942935 
2428	 0.243216285050883 
2429	 0.242935188338547 
2430	 0.242607357603396 
2431	 0.242280671672694 
2432	 0.241901826900365 
2433	 0.241445738953092 
2434	 0.241100301704577 
2435	 0.240778520574211 
2436	 0.240470143594919 
2437	 0.240276321052634 
2438	 0.239941301736085 
2439	 0.23948155478487 
2440	 0.239135174047963 
2441	 0.238765051169476 
2442	 0.238450760004827 
2443	 0.238285168363145 
2444	 0.237974729052958 
2445	 0.237536601305428 
2446	 0.237203768103712 
2447	 0.236888716153825 
2448	 0.236591454833381 
2449	 0.236367949169672 
2450	 0.236174828411012 
2451	 0.236073869900536 
2452	 0.235804868680504 
2453	 0.235445864271203 
2454	 0.235043008585373 
2455	 0.234448848791852 
2456	 0.233989428820767 
2457	 0.233624163537357 
2458	 0.233285819408869 
2459	 0.232999974374068 
2460	 0.232661692527957 
2461	 0.232333915361969 
2462	 0.231985263543507 
2463	 0.23159882684749 
2464	 0.231271470398354 
2465	 0.230912139013763 
2466	 0.230630688577945 
2467	 0.230498747786988 
2468	 0.230216050969144 
2469	 0.229916603329199 
2470	 0.229407936171277 
2471	 0.228928455406059 
2472	 0.228714951760041 
2473	 0.228484217368056 
2474	 0.228223392608031 
2475	 0.228062586461929 
2476	 0.227604469979283 
2477	 0.227250844104776 
2478	 0.227245859712356 
2479	 0.226871983027419 
2480	 0.226427646785261 
2481	 0.226189945559164 
2482	 0.225917466269888 
2483	 0.225580708058674 
2484	 0.2252700486664 
2485	 0.224905561465308 
2486	 0.224420859522636 
2487	 0.224235131557019 
2488	 0.224229924450626 
2489	 0.224004742293786 
2490	 0.223709176602154 
2491	 0.223445785416294 
2492	 0.223077632863824 
2493	 0.222951411051298 
2494	 0.223059080851207 
2495	 0.222923185790274 
2496	 0.222822873094441 
2497	 0.222687855149777 
2498	 0.222271000489262 
2499	 0.2219138060388 
2500	 0.221561584875524 
