Wavelength	LMW_1400002.asd
350	 7.42446339836582E-02 
351	 7.71318816943521E-02 
352	 6.97956311577137E-02 
353	 5.92700756478995E-02 
354	 0.061517856159461 
355	 6.68721714387351E-02 
356	 7.03774023766122E-02 
357	 7.02515082138063E-02 
358	 7.13689435407488E-02 
359	 0.072172018700732 
360	 7.18188349146387E-02 
361	 7.00549483690063E-02 
362	 6.49923455455825E-02 
363	 6.63366133944407E-02 
364	 0.073616162580741 
365	 6.86452682645133E-02 
366	 6.58667531390813E-02 
367	 6.68518764530016E-02 
368	 6.91844781570309E-02 
369	 7.02537126353894E-02 
370	 6.82940157653747E-02 
371	 6.64436645709909E-02 
372	 7.02276201829148E-02 
373	 7.22705921061895E-02 
374	 7.10276631282676E-02 
375	 6.85712195058102E-02 
376	 7.20967059501802E-02 
377	 6.88924041072933E-02 
378	 0.065680638536418 
379	 7.03766929902109E-02 
380	 7.03491216650442E-02 
381	 6.70040245099193E-02 
382	 6.53019397256608E-02 
383	 7.11008475628279E-02 
384	 7.11146013866593E-02 
385	 6.82078562431434E-02 
386	 6.68147281585676E-02 
387	 7.00393809441552E-02 
388	 7.08602887608028E-02 
389	 6.93306345153907E-02 
390	 6.79994254843994E-02 
391	 6.88734720976493E-02 
392	 0.070026316016935 
393	 7.03111083783646E-02 
394	 6.96539792788904E-02 
395	 7.16906422364957E-02 
396	 7.30497893461369E-02 
397	 7.17683462005856E-02 
398	 7.12555544017191E-02 
399	 7.09144297113759E-02 
400	 7.03113956577561E-02 
401	 6.94619134706594E-02 
402	 7.10810327482599E-02 
403	 7.13735451729642E-02 
404	 7.02876120692254E-02 
405	 7.17113537164945E-02 
406	 7.26438039095344E-02 
407	 7.25271666210624E-02 
408	 0.07173752578619 
409	 0.071627718175833 
410	 7.15956034231419E-02 
411	 7.16964732230357E-02 
412	 7.21368565420249E-02 
413	 7.19602666624251E-02 
414	 7.19771894328857E-02 
415	 7.23779409037817E-02 
416	 7.23827117840927E-02 
417	 7.21064721212172E-02 
418	 7.23132677201172E-02 
419	 0.073252864237709 
420	 7.29429334254085E-02 
421	 7.26955163854809E-02 
422	 7.29635204150369E-02 
423	 7.35192956755506E-02 
424	 7.36430674093545E-02 
425	 7.32155018254247E-02 
426	 0.072604962038165 
427	 7.29085274396662E-02 
428	 7.29116482436336E-02 
429	 0.072999097054502 
430	 7.37122289127038E-02 
431	 7.37857293393632E-02 
432	 7.33591971073635E-02 
433	 7.28554741869113E-02 
434	 7.28633295337999E-02 
435	 7.35586292406585E-02 
436	 7.40963558748516E-02 
437	 7.39487787863899E-02 
438	 7.38725187994707E-02 
439	 7.39646284466489E-02 
440	 7.43106532559639E-02 
441	 7.49053960236606E-02 
442	 7.53349618653408E-02 
443	 7.53383277701651E-02 
444	 7.50445462996472E-02 
445	 7.50944073749337E-02 
446	 7.54392546357447E-02 
447	 7.57948575472917E-02 
448	 7.58987342769344E-02 
449	 7.59113550451386E-02 
450	 7.62283346927367E-02 
451	 7.67122078485276E-02 
452	 7.68114699146018E-02 
453	 7.70433828144895E-02 
454	 7.70734572289342E-02 
455	 7.68591925643109E-02 
456	 7.74753502881783E-02 
457	 7.78520319844416E-02 
458	 7.78603854022714E-02 
459	 7.78518022857112E-02 
460	 7.82722571547512E-02 
461	 7.84805990436982E-02 
462	 7.83849191811743E-02 
463	 7.87916451469955E-02 
464	 7.91392718127117E-02 
465	 7.94832045878899E-02 
466	 7.99137288390828E-02 
467	 7.99542289609708E-02 
468	 8.02220641301674E-02 
469	 0.080526056960343 
470	 8.01202491922574E-02 
471	 8.06096186685979E-02 
472	 8.11088563645325E-02 
473	 8.09946209987381E-02 
474	 8.12504753187169E-02 
475	 8.16356034616224E-02 
476	 8.18621993020079E-02 
477	 8.17459142578226E-02 
478	 8.21621696076416E-02 
479	 8.25547074878957E-02 
480	 8.27373355231481E-02 
481	 8.32150340561133E-02 
482	 8.33920097797597E-02 
483	 8.35544266899681E-02 
484	 8.40258499933979E-02 
485	 8.42974982383382E-02 
486	 8.42531953747136E-02 
487	 8.41156361996075E-02 
488	 8.43532082145878E-02 
489	 8.48219871070651E-02 
490	 8.52055997433099E-02 
491	 8.53445415006727E-02 
492	 0.085540135884218 
493	 8.55705674272695E-02 
494	 8.55931582054461E-02 
495	 8.58886880001758E-02 
496	 8.62620333091303E-02 
497	 8.64528674335065E-02 
498	 8.64819270456782E-02 
499	 8.67901301026748E-02 
500	 8.69868944991391E-02 
501	 8.69792845582036E-02 
502	 8.68728702074126E-02 
503	 8.72217146997435E-02 
504	 8.75263432083806E-02 
505	 8.75905288321523E-02 
506	 0.087543151593947 
507	 8.76734659363549E-02 
508	 8.79149523946126E-02 
509	 8.81598415390292E-02 
510	 0.088435671423227 
511	 8.85283152208371E-02 
512	 8.85323095243007E-02 
513	 8.86821074638097E-02 
514	 8.88152972162872E-02 
515	 8.89382464492394E-02 
516	 8.90537336312508E-02 
517	 8.91230323418898E-02 
518	 8.92142864232465E-02 
519	 8.93362995681521E-02 
520	 8.94649275643894E-02 
521	 8.95113010489154E-02 
522	 8.96603338478062E-02 
523	 8.98699897361409E-02 
524	 0.089855686261582 
525	 8.98901425075135E-02 
526	 8.99347412160575E-02 
527	 8.99404919178664E-02 
528	 9.00481381916086E-02 
529	 9.02125251728028E-02 
530	 9.03673231256969E-02 
531	 9.04406517566186E-02 
532	 9.04454863092916E-02 
533	 9.05584929318759E-02 
534	 9.08057351579873E-02 
535	 9.08518270569648E-02 
536	 9.09352064404694E-02 
537	 9.10568136141488E-02 
538	 9.11395257430439E-02 
539	 9.12258342158813E-02 
540	 9.12960950399799E-02 
541	 9.13563428432879E-02 
542	 9.14501670877059E-02 
543	 9.16209692905132E-02 
544	 9.17329951534751E-02 
545	 9.16838883763361E-02 
546	 9.16955246665847E-02 
547	 9.17473037379019E-02 
548	 9.18644496895739E-02 
549	 9.21010259665947E-02 
550	 9.21973645526092E-02 
551	 9.22093873341043E-02 
552	 9.22562095867335E-02 
553	 0.092478480483657 
554	 9.25524807337269E-02 
555	 9.25352101135166E-02 
556	 0.092659983965186 
557	 9.27503947586216E-02 
558	 9.28396762107577E-02 
559	 9.29410268337295E-02 
560	 9.29903618726665E-02 
561	 0.093042519346511 
562	 9.31329509033005E-02 
563	 9.32692644271527E-02 
564	 9.33588806748461E-02 
565	 9.33976460447246E-02 
566	 9.34239638351739E-02 
567	 9.35145944120199E-02 
568	 9.36258188711048E-02 
569	 9.37343013223881E-02 
570	 0.093822397692757 
571	 9.38772566485662E-02 
572	 9.39174892802844E-02 
573	 9.39566816032054E-02 
574	 9.40011381961876E-02 
575	 0.09400893475136 
576	 9.40594859038885E-02 
577	 9.41691069562009E-02 
578	 9.41638427121244E-02 
579	 9.42307642997186E-02 
580	 9.43647734895585E-02 
581	 9.44754329924178E-02 
582	 9.45154442446577E-02 
583	 9.44868235645026E-02 
584	 9.44292088579372E-02 
585	 9.44235554753888E-02 
586	 0.094477238277595 
587	 9.45251365408783E-02 
588	 9.45240399735052E-02 
589	 9.46389018383504E-02 
590	 0.094726834195179 
591	 9.47402919483008E-02 
592	 9.47282866134348E-02 
593	 9.46735427199482E-02 
594	 9.46002405619165E-02 
595	 0.094535053906467 
596	 9.44784116953086E-02 
597	 9.45461877507916E-02 
598	 9.46691663469489E-02 
599	 9.47001317316823E-02 
600	 9.48167516608033E-02 
601	 9.49057892423131E-02 
602	 9.49124696375552E-02 
603	 9.49461138817491E-02 
604	 9.49351499428053E-02 
605	 9.49569217932016E-02 
606	 9.50956704525723E-02 
607	 9.51887713338844E-02 
608	 9.52535158634527E-02 
609	 9.53154472182635E-02 
610	 9.53959604996021E-02 
611	 9.54203417121679E-02 
612	 9.54189944131927E-02 
613	 9.54337615484613E-02 
614	 9.54519260884688E-02 
615	 9.54552420496327E-02 
616	 9.54766206909472E-02 
617	 9.55697664001289E-02 
618	 9.55850478225211E-02 
619	 9.55456905528024E-02 
620	 9.55114987956686E-02 
621	 0.095565629735957 
622	 0.095624082512502 
623	 9.56561158610785E-02 
624	 9.56649732009886E-02 
625	 9.57358252208546E-02 
626	 9.57597253734751E-02 
627	 9.57337520459335E-02 
628	 9.58129652816433E-02 
629	 9.59018497953516E-02 
630	 0.095950474722773 
631	 9.59487721072303E-02 
632	 9.59879460493823E-02 
633	 9.60534530513134E-02 
634	 9.61061644620908E-02 
635	 9.61005443733807E-02 
636	 9.62008411058942E-02 
637	 9.63188031326652E-02 
638	 9.63655893321492E-02 
639	 9.63543716304094E-02 
640	 9.63716887227724E-02 
641	 9.64355328656669E-02 
642	 9.65215551153193E-02 
643	 9.65808796258338E-02 
644	 0.096633274519629 
645	 9.66951391552865E-02 
646	 9.67679149911124E-02 
647	 9.68191289311511E-02 
648	 0.096850004985668 
649	 9.68844269466027E-02 
650	 9.69969117875504E-02 
651	 9.70670681444713E-02 
652	 0.097083848953549 
653	 9.71360280831873E-02 
654	 9.72537523627107E-02 
655	 9.73287907863205E-02 
656	 9.73145342106724E-02 
657	 9.73812588324639E-02 
658	 9.74591221100151E-02 
659	 0.097537058454234 
660	 9.76221467457743E-02 
661	 9.76660906831835E-02 
662	 9.76909918480081E-02 
663	 9.77429468365513E-02 
664	 9.78952328002736E-02 
665	 9.79734695654577E-02 
666	 9.79834078397476E-02 
667	 9.79945416506421E-02 
668	 0.098095802124586 
669	 9.81576193783104E-02 
670	 9.81776689670898E-02 
671	 9.82583558379289E-02 
672	 9.83259668361317E-02 
673	 9.83961553543427E-02 
674	 0.098481258182463 
675	 9.85552461717618E-02 
676	 9.85832902570818E-02 
677	 9.86086521239483E-02 
678	 9.86906471612768E-02 
679	 9.87239056301306E-02 
680	 9.87862344001569E-02 
681	 9.88888469982705E-02 
682	 0.098937771195982 
683	 9.89773708937386E-02 
684	 9.90162198980878E-02 
685	 9.90580504739652E-02 
686	 9.91205203385975E-02 
687	 9.91758754266208E-02 
688	 9.92113954460296E-02 
689	 9.92281337833522E-02 
690	 9.92424994052527E-02 
691	 9.92643037851577E-02 
692	 9.93068438031136E-02 
693	 9.93997548565381E-02 
694	 9.94679184407234E-02 
695	 9.94944579114345E-02 
696	 9.94950488771351E-02 
697	 9.95189704753723E-02 
698	 9.95628108011112E-02 
699	 9.96105667862374E-02 
700	 9.96387048914839E-02 
701	 9.96845449773842E-02 
702	 0.099718809602065 
703	 9.97249098914842E-02 
704	 9.97642275733541E-02 
705	 9.97774956028439E-02 
706	 9.97831332428734E-02 
707	 9.98265746707003E-02 
708	 9.98122789719432E-02 
709	 9.98203893133605E-02 
710	 9.98757001744962E-02 
711	 9.98980417681582E-02 
712	 9.99146166729017E-02 
713	 0.099921537775472 
714	 9.99143823642854E-02 
715	 9.99123386396864E-02 
716	 9.99089380465122E-02 
717	 9.99115922635225E-02 
718	 9.99348719453797E-02 
719	 9.99551134996198E-02 
720	 9.99483225500088E-02 
721	 9.99132583261676E-02 
722	 9.98856174202165E-02 
723	 9.99135683036259E-02 
724	 9.99384871450565E-02 
725	 9.98929631693883E-02 
726	 9.98725830719303E-02 
727	 0.099863280034605 
728	 9.98452903554788E-02 
729	 9.98015165807932E-02 
730	 9.97739993808724E-02 
731	 9.97725851908413E-02 
732	 9.97781482536083E-02 
733	 9.97158910493894E-02 
734	 9.96621650880917E-02 
735	 9.96298895942491E-02 
736	 9.96050207440862E-02 
737	 9.95870411588272E-02 
738	 9.95433437735222E-02 
739	 9.94811472507133E-02 
740	 9.94510934094426E-02 
741	 9.94177098370856E-02 
742	 0.099378984426101 
743	 9.93328420111569E-02 
744	 9.92521836273826E-02 
745	 9.92032241432221E-02 
746	 9.91821486426351E-02 
747	 9.91486851555876E-02 
748	 9.90780142822024E-02 
749	 0.099001848167234 
750	 9.89483503668568E-02 
751	 9.89329231171222E-02 
752	 0.098903624922806 
753	 9.88606306831063E-02 
754	 9.88184881209647E-02 
755	 9.87980830269012E-02 
756	 9.87409588896399E-02 
757	 9.86470043862329E-02 
758	 9.85556465386282E-02 
759	 9.85426656829768E-02 
760	 9.85024803442181E-02 
761	 9.84151683086812E-02 
762	 9.83874239787372E-02 
763	 9.83590693556798E-02 
764	 9.83188976747614E-02 
765	 9.82709552379155E-02 
766	 9.82339297251452E-02 
767	 9.81753227604936E-02 
768	 9.80852829694248E-02 
769	 9.79794862974168E-02 
770	 9.79526792588305E-02 
771	 0.097935336689913 
772	 9.78801364274379E-02 
773	 9.77881691885526E-02 
774	 9.77538289787496E-02 
775	 9.77176207238371E-02 
776	 9.76346556383219E-02 
777	 9.76042321048347E-02 
778	 9.75512783846704E-02 
779	 9.74809011974979E-02 
780	 9.74307763514538E-02 
781	 0.097392907203617 
782	 0.097356573242298 
783	 9.73074567804606E-02 
784	 0.097230339409609 
785	 9.71487420678998E-02 
786	 9.70863523148513E-02 
787	 9.70484051382159E-02 
788	 9.69984220610652E-02 
789	 9.69607492778332E-02 
790	 9.69167197029848E-02 
791	 9.68383521709194E-02 
792	 9.67298582139553E-02 
793	 9.66634278903453E-02 
794	 9.66454814387027E-02 
795	 9.66199972555997E-02 
796	 9.65436573949837E-02 
797	 9.64519115156478E-02 
798	 9.63786100087801E-02 
799	 9.63281965109204E-02 
800	 9.62855506384984E-02 
801	 9.62323400474631E-02 
802	 9.61596205018743E-02 
803	 9.60933133541863E-02 
804	 9.60413778501957E-02 
805	 9.59855386845903E-02 
806	 9.59023403082225E-02 
807	 9.58753887435901E-02 
808	 9.58267347912965E-02 
809	 9.57315614444673E-02 
810	 9.56561076504946E-02 
811	 9.56072637987907E-02 
812	 9.55595733546604E-02 
813	 9.54968219270264E-02 
814	 0.095452763478994 
815	 9.54098822403425E-02 
816	 9.53414816757845E-02 
817	 9.52402290325267E-02 
818	 9.52215578754716E-02 
819	 9.51718105107428E-02 
820	 9.50717305228163E-02 
821	 9.49936503120537E-02 
822	 9.49511473266326E-02 
823	 9.48974470201467E-02 
824	 0.094815123011756 
825	 9.47501502417621E-02 
826	 9.47355033548596E-02 
827	 9.46764631837272E-02 
828	 0.094533193683102 
829	 9.45631618601418E-02 
830	 9.45157634960883E-02 
831	 9.44246397337239E-02 
832	 0.094430548116692 
833	 9.43951640429121E-02 
834	 0.094327059166435 
835	 9.42432165470137E-02 
836	 9.41622237596509E-02 
837	 9.41379513893401E-02 
838	 9.41330734144767E-02 
839	 9.40982615203754E-02 
840	 9.39923648173314E-02 
841	 9.39134483826263E-02 
842	 9.38653361466355E-02 
843	 9.38272772021116E-02 
844	 9.37972122979843E-02 
845	 9.37687618010689E-02 
846	 9.37120998206544E-02 
847	 9.36164083275914E-02 
848	 9.36360288948963E-02 
849	 9.35964923336945E-02 
850	 9.34775533517948E-02 
851	 9.34050422160405E-02 
852	 9.33882851831122E-02 
853	 9.33696958897226E-02 
854	 9.33097792687333E-02 
855	 9.32145506169277E-02 
856	 9.32014803856925E-02 
857	 9.32076696119975E-02 
858	 9.31666613058826E-02 
859	 9.31223555945959E-02 
860	 9.30589378258298E-02 
861	 9.30034153123178E-02 
862	 9.29803320762387E-02 
863	 9.29388393806352E-02 
864	 9.29070072808351E-02 
865	 9.28933366003808E-02 
866	 0.092883175103052 
867	 0.092805477561551 
868	 9.27253027620754E-02 
869	 0.09268390899232 
870	 9.26763644639484E-02 
871	 9.26049193285982E-02 
872	 9.25730831492901E-02 
873	 0.092606376257147 
874	 9.25549639018674E-02 
875	 9.25234382475797E-02 
876	 9.24836005258176E-02 
877	 9.24079823199578E-02 
878	 0.092348148876006 
879	 9.23590532527565E-02 
880	 9.23656455184505E-02 
881	 9.22887525804685E-02 
882	 0.092236814790883 
883	 9.22346930872995E-02 
884	 9.22425522572001E-02 
885	 0.092196554831466 
886	 9.21219778482029E-02 
887	 9.21076811360334E-02 
888	 9.21473304537434E-02 
889	 9.21533912450937E-02 
890	 0.092137521171945 
891	 9.20821090937244E-02 
892	 0.091998432399452 
893	 9.19343269199994E-02 
894	 9.19024951150456E-02 
895	 9.19159556733445E-02 
896	 9.19549478924876E-02 
897	 9.19490987865815E-02 
898	 9.18934297103929E-02 
899	 9.18501239679467E-02 
900	 9.18566856682966E-02 
901	 9.18365577736956E-02 
902	 9.18067845952845E-02 
903	 9.17854431494391E-02 
904	 9.17816936828409E-02 
905	 9.17707075863526E-02 
906	 9.17027214440052E-02 
907	 9.16385044630132E-02 
908	 9.16628278483996E-02 
909	 0.091701034559001 
910	 9.16455728842871E-02 
911	 0.091589914121863 
912	 9.16984201744021E-02 
913	 9.16535668778269E-02 
914	 9.16034719683109E-02 
915	 0.091612489363558 
916	 9.16286112638749E-02 
917	 0.091601891490954 
918	 9.16013313441217E-02 
919	 0.091613337729248 
920	 9.15259942301201E-02 
921	 9.14495829341046E-02 
922	 9.14518071628122E-02 
923	 9.15005484543114E-02 
924	 9.14428182335637E-02 
925	 9.13821312888885E-02 
926	 0.091409239307339 
927	 9.14843184621617E-02 
928	 9.13472080399454E-02 
929	 9.13377701218762E-02 
930	 9.13983534253805E-02 
931	 9.14162104636565E-02 
932	 9.14012662493474E-02 
933	 9.14127840291308E-02 
934	 9.14023608645505E-02 
935	 9.13460707864833E-02 
936	 9.13922204198785E-02 
937	 9.13455558526422E-02 
938	 9.12759507767308E-02 
939	 9.13023573724318E-02 
940	 9.13933224758134E-02 
941	 0.091357587309745 
942	 9.12941666194346E-02 
943	 9.13448745787498E-02 
944	 9.13130528612456E-02 
945	 9.12786513069361E-02 
946	 9.12869845580201E-02 
947	 9.13244306502145E-02 
948	 9.12105662676583E-02 
949	 9.11466905298619E-02 
950	 9.11662465297031E-02 
951	 9.11998529512458E-02 
952	 9.11999751065239E-02 
953	 9.12079622247729E-02 
954	 9.12070652136587E-02 
955	 9.11744403881923E-02 
956	 9.12519398196017E-02 
957	 9.12726168429557E-02 
958	 9.12378582874437E-02 
959	 9.12465382897155E-02 
960	 9.12489459952911E-02 
961	 9.12060704736014E-02 
962	 9.11701970173056E-02 
963	 9.12120222490914E-02 
964	 9.11402639466839E-02 
965	 9.11871818904828E-02 
966	 9.12671111214561E-02 
967	 9.11472377562951E-02 
968	 9.11812806941103E-02 
969	 9.11865625799806E-02 
970	 9.11313254496081E-02 
971	 9.10920007339178E-02 
972	 9.09539276998108E-02 
973	 9.09515764671089E-02 
974	 9.10204722403339E-02 
975	 9.09497447440872E-02 
976	 9.10328330108698E-02 
977	 9.11243282484236E-02 
978	 9.11082608928865E-02 
979	 9.09704859877599E-02 
980	 9.09928152289864E-02 
981	 9.09301128490177E-02 
982	 0.090804901517229 
983	 0.090819800547691 
984	 9.10836245361382E-02 
985	 9.11086568202955E-02 
986	 9.09749868574601E-02 
987	 9.10309494706687E-02 
988	 9.10711877886382E-02 
989	 9.10429951118477E-02 
990	 9.10225961939052E-02 
991	 9.10868093936258E-02 
992	 9.10131687352522E-02 
993	 9.08876556778791E-02 
994	 9.08625819084263E-02 
995	 9.09883742245332E-02 
996	 9.08420498203319E-02 
997	 9.08017769429956E-02 
998	 9.08623839952445E-02 
999	 9.08932703464353E-02 
1000	 9.09579830573636E-02 
1001	 8.76916690173263E-02 
1002	 8.76870997127144E-02 
1003	 8.76557964484574E-02 
1004	 8.76402502036196E-02 
1005	 8.76312181728036E-02 
1006	 8.75844590209989E-02 
1007	 8.75061425798199E-02 
1008	 8.75025497614133E-02 
1009	 8.74469315104467E-02 
1010	 8.74192518800784E-02 
1011	 8.74176933681726E-02 
1012	 8.73753762738782E-02 
1013	 8.73640971668504E-02 
1014	 8.73595120226994E-02 
1015	 8.73417681960385E-02 
1016	 8.73410234016775E-02 
1017	 8.73090931799134E-02 
1018	 8.72502497357509E-02 
1019	 8.71879566061776E-02 
1020	 8.71996519121634E-02 
1021	 8.72001159317757E-02 
1022	 8.71992411446472E-02 
1023	 8.71924383143255E-02 
1024	 0.087105151012618 
1025	 8.70610650147657E-02 
1026	 8.70527878895779E-02 
1027	 8.70196186503542E-02 
1028	 8.70206715565715E-02 
1029	 8.69809534649132E-02 
1030	 8.69151804398004E-02 
1031	 8.68848571919302E-02 
1032	 8.68809897787452E-02 
1033	 8.68840255797332E-02 
1034	 8.68597835194474E-02 
1035	 8.68316006185855E-02 
1036	 8.68418170964041E-02 
1037	 8.68197778649636E-02 
1038	 8.67597889655398E-02 
1039	 8.67517680345316E-02 
1040	 8.67691303157593E-02 
1041	 8.67328721323881E-02 
1042	 8.67069369310882E-02 
1043	 8.67274923132268E-02 
1044	 8.67262148383446E-02 
1045	 8.66836519788325E-02 
1046	 8.66696821898866E-02 
1047	 0.08669492884803 
1048	 8.66733672809059E-02 
1049	 8.66497154208824E-02 
1050	 0.086612006554782 
1051	 8.66032292706772E-02 
1052	 8.66199254647006E-02 
1053	 8.65869855527826E-02 
1054	 8.65899799352263E-02 
1055	 8.65729303973164E-02 
1056	 8.65456047985523E-02 
1057	 8.65546151658433E-02 
1058	 8.66278951327512E-02 
1059	 8.66167953400759E-02 
1060	 8.65829485598438E-02 
1061	 8.65366340670026E-02 
1062	 8.65159544799464E-02 
1063	 8.65510375067473E-02 
1064	 0.086572067032976 
1065	 8.66198139605651E-02 
1066	 8.66479921418023E-02 
1067	 8.66115994367147E-02 
1068	 8.66212662414261E-02 
1069	 8.66745196792982E-02 
1070	 8.67059676819271E-02 
1071	 8.67402743520044E-02 
1072	 0.086737055648194 
1073	 8.66940544011143E-02 
1074	 0.086693793333774 
1075	 8.66706260809416E-02 
1076	 8.66917247674854E-02 
1077	 8.67732186257942E-02 
1078	 0.086819790779299 
1079	 8.67971072034919E-02 
1080	 8.67334694893114E-02 
1081	 8.66923629855563E-02 
1082	 8.66609640111244E-02 
1083	 8.66540592990848E-02 
1084	 8.67148951138235E-02 
1085	 8.67391329013935E-02 
1086	 8.67584724848139E-02 
1087	 8.67569214605205E-02 
1088	 8.67556004771881E-02 
1089	 8.67082552692282E-02 
1090	 8.67045554562398E-02 
1091	 8.66959563854842E-02 
1092	 8.66749870832775E-02 
1093	 8.66879809916438E-02 
1094	 8.66650572882738E-02 
1095	 8.66417032518751E-02 
1096	 8.66635244884343E-02 
1097	 8.66951782107261E-02 
1098	 8.66832663584369E-02 
1099	 8.66276107021752E-02 
1100	 8.66163855026167E-02 
1101	 8.65941205817971E-02 
1102	 8.65808638290345E-02 
1103	 8.66017971362451E-02 
1104	 8.66246564093043E-02 
1105	 8.65722374804708E-02 
1106	 8.65353533301048E-02 
1107	 8.65217581267642E-02 
1108	 8.65283571516473E-02 
1109	 8.65518094020969E-02 
1110	 8.65556690173276E-02 
1111	 8.65460767369401E-02 
1112	 8.65034893813476E-02 
1113	 8.64781106001034E-02 
1114	 8.64421733092851E-02 
1115	 8.64309467584633E-02 
1116	 8.64417241459652E-02 
1117	 8.64369698870471E-02 
1118	 8.64239729707972E-02 
1119	 8.64486870136562E-02 
1120	 8.64490520743799E-02 
1121	 0.086403397123839 
1122	 8.64053693366679E-02 
1123	 0.086410870906708 
1124	 0.086397977339709 
1125	 8.63806129676961E-02 
1126	 8.63778895988382E-02 
1127	 8.63637006149632E-02 
1128	 8.63551640633476E-02 
1129	 8.63686499973826E-02 
1130	 8.63739106807655E-02 
1131	 8.63694731909307E-02 
1132	 8.63686679448618E-02 
1133	 8.63681688132591E-02 
1134	 8.63691864980848E-02 
1135	 8.63806405644576E-02 
1136	 8.63748686096763E-02 
1137	 8.63493199070117E-02 
1138	 8.63439913599283E-02 
1139	 8.63294323910296E-02 
1140	 8.62903606870557E-02 
1141	 8.62866083698843E-02 
1142	 8.63043928809191E-02 
1143	 8.63114078258958E-02 
1144	 8.63309416556144E-02 
1145	 8.63388689853601E-02 
1146	 8.63443846328578E-02 
1147	 8.63436571197621E-02 
1148	 8.63389517243766E-02 
1149	 8.63283466340813E-02 
1150	 8.62935409985673E-02 
1151	 8.62842081372352E-02 
1152	 8.62932496798953E-02 
1153	 8.62962147078049E-02 
1154	 8.63040812025534E-02 
1155	 8.63334744949865E-02 
1156	 0.086337036763582 
1157	 8.63208878087652E-02 
1158	 8.63220401578097E-02 
1159	 8.63253668529962E-02 
1160	 8.63286909484288E-02 
1161	 8.63439560615699E-02 
1162	 8.63457437415215E-02 
1163	 8.63270883409709E-02 
1164	 8.63309059462309E-02 
1165	 8.63499053803352E-02 
1166	 0.086353610272935 
1167	 0.086368013887994 
1168	 8.63810039562892E-02 
1169	 8.63960498113943E-02 
1170	 8.64040600113947E-02 
1171	 8.64169801520174E-02 
1172	 8.64358534077849E-02 
1173	 8.64563518045635E-02 
1174	 8.64765330678112E-02 
1175	 8.64941843541813E-02 
1176	 0.086514695452633 
1177	 8.65381129797927E-02 
1178	 8.65625284865064E-02 
1179	 8.65804025459275E-02 
1180	 8.66062120910188E-02 
1181	 8.66200379508237E-02 
1182	 8.66109846009399E-02 
1183	 8.66141206576319E-02 
1184	 8.66262270530658E-02 
1185	 8.66433522118673E-02 
1186	 8.66607903087988E-02 
1187	 8.66835636049932E-02 
1188	 8.67120125889905E-02 
1189	 8.67424557476632E-02 
1190	 8.67740291139168E-02 
1191	 8.68209677321584E-02 
1192	 8.68543784310466E-02 
1193	 8.68759774642459E-02 
1194	 8.69034807025127E-02 
1195	 8.69252395760204E-02 
1196	 8.69568417958532E-02 
1197	 8.70012635360462E-02 
1198	 8.70368655499453E-02 
1199	 8.70712946061485E-02 
1200	 0.087111134108976 
1201	 8.71397760714944E-02 
1202	 8.71540439132789E-02 
1203	 8.71839809788838E-02 
1204	 8.72184139795389E-02 
1205	 0.087249208643637 
1206	 8.72923068094965E-02 
1207	 8.73170679522074E-02 
1208	 8.73195074052808E-02 
1209	 8.73433498654112E-02 
1210	 8.73755695379879E-02 
1211	 8.73985233489238E-02 
1212	 8.74254660605333E-02 
1213	 8.74546586885134E-02 
1214	 8.74722403454537E-02 
1215	 8.74967723776156E-02 
1216	 8.75268082506639E-02 
1217	 0.08757027909485 
1218	 8.76047840602688E-02 
1219	 8.76376892454122E-02 
1220	 8.76697122949726E-02 
1221	 8.76998131578616E-02 
1222	 8.77339995476088E-02 
1223	 8.77690723353004E-02 
1224	 8.78031953974545E-02 
1225	 8.78448541195775E-02 
1226	 8.78765103701254E-02 
1227	 8.78975903634922E-02 
1228	 8.79256855999245E-02 
1229	 8.79507007286011E-02 
1230	 8.79797262737217E-02 
1231	 8.80166634579529E-02 
1232	 8.80500932730139E-02 
1233	 8.80829613771485E-02 
1234	 8.81087759819009E-02 
1235	 8.81557271590628E-02 
1236	 8.82212882302699E-02 
1237	 8.82590813281181E-02 
1238	 8.82977413381511E-02 
1239	 8.83330457956722E-02 
1240	 8.83412657640488E-02 
1241	 8.83705724166143E-02 
1242	 8.84169370053677E-02 
1243	 8.84572401675567E-02 
1244	 8.85002594111011E-02 
1245	 8.85372934814657E-02 
1246	 8.85732635948473E-02 
1247	 8.86091574426086E-02 
1248	 8.86419571474049E-02 
1249	 8.86720536367789E-02 
1250	 8.86999699975072E-02 
1251	 8.87261416877164E-02 
1252	 0.088761171415823 
1253	 8.87989469098118E-02 
1254	 8.88331296065203E-02 
1255	 8.88786345287242E-02 
1256	 8.89100838175079E-02 
1257	 8.89259432913738E-02 
1258	 8.89491587261166E-02 
1259	 8.89685912319547E-02 
1260	 8.89954104252299E-02 
1261	 8.90269359737927E-02 
1262	 8.90594699721767E-02 
1263	 8.90924565205307E-02 
1264	 8.91325031624979E-02 
1265	 8.91863654902482E-02 
1266	 8.92275219085543E-02 
1267	 8.92647364218821E-02 
1268	 8.93079646138296E-02 
1269	 8.93411378064408E-02 
1270	 8.93579483212989E-02 
1271	 8.93851772580538E-02 
1272	 8.94129324881304E-02 
1273	 8.94464022864196E-02 
1274	 8.94793605999568E-02 
1275	 8.95245430698029E-02 
1276	 8.95833266076266E-02 
1277	 0.089634400451299 
1278	 0.089692233010262 
1279	 8.97398240643996E-02 
1280	 8.97680983488964E-02 
1281	 0.089821570021784 
1282	 8.98819607592792E-02 
1283	 8.99486132673768E-02 
1284	 9.00413017258082E-02 
1285	 9.01202416978256E-02 
1286	 9.01898954222075E-02 
1287	 9.02578913714791E-02 
1288	 9.03298726841819E-02 
1289	 9.03992592851637E-02 
1290	 9.04691393189242E-02 
1291	 9.05398202349974E-02 
1292	 9.06164904909015E-02 
1293	 9.06934483235332E-02 
1294	 9.07711086007346E-02 
1295	 9.08686105377437E-02 
1296	 9.09377502394383E-02 
1297	 9.09769302692126E-02 
1298	 9.10412783484972E-02 
1299	 9.11011475391382E-02 
1300	 9.11710739786067E-02 
1301	 9.12781510863433E-02 
1302	 9.13538254138031E-02 
1303	 9.14248862556396E-02 
1304	 9.14700561461308E-02 
1305	 9.14931352072452E-02 
1306	 9.15296514303882E-02 
1307	 9.15714845365163E-02 
1308	 9.16105911953227E-02 
1309	 9.16612824218485E-02 
1310	 9.17283834241358E-02 
1311	 9.17780840072329E-02 
1312	 9.18306703949871E-02 
1313	 9.18706975507024E-02 
1314	 9.18930963092529E-02 
1315	 0.091928605952271 
1316	 9.19680750184905E-02 
1317	 9.19994388731286E-02 
1318	 9.20271816334706E-02 
1319	 0.092061869589958 
1320	 9.20940586079391E-02 
1321	 9.21240063831718E-02 
1322	 9.21570979900689E-02 
1323	 9.21977882272576E-02 
1324	 9.22232354020789E-02 
1325	 9.22457340985101E-02 
1326	 9.22746310309008E-02 
1327	 9.22900707099661E-02 
1328	 9.23148474352966E-02 
1329	 9.23422907173034E-02 
1330	 9.23640185891132E-02 
1331	 9.23840678526321E-02 
1332	 9.24139991789169E-02 
1333	 0.092448624213208 
1334	 9.24707157928884E-02 
1335	 9.24905972119484E-02 
1336	 9.25168456016669E-02 
1337	 9.25330322578902E-02 
1338	 9.25566442189484E-02 
1339	 9.26052140849492E-02 
1340	 9.26267679548795E-02 
1341	 9.26314399579062E-02 
1342	 9.26411067656934E-02 
1343	 9.26390325144365E-02 
1344	 9.26433095418458E-02 
1345	 9.26579375941673E-02 
1346	 9.26567381011903E-02 
1347	 9.26550403730349E-02 
1348	 9.26470061587635E-02 
1349	 9.26407081399449E-02 
1350	 0.092650149121097 
1351	 0.092647883002174 
1352	 9.26471517347387E-02 
1353	 9.26404871410164E-02 
1354	 9.26286449487234E-02 
1355	 9.26104973372535E-02 
1356	 9.25795292534974E-02 
1357	 9.25697602368685E-02 
1358	 9.25542372872919E-02 
1359	 9.25609287376641E-02 
1360	 9.25971652032637E-02 
1361	 9.26232288498316E-02 
1362	 0.092654035283945 
1363	 9.26846036360757E-02 
1364	 9.27102406820184E-02 
1365	 9.27409062553759E-02 
1366	 9.27723479495898E-02 
1367	 9.28144775517454E-02 
1368	 9.28611651646497E-02 
1369	 9.29202410840325E-02 
1370	 0.092986971676095 
1371	 9.30539890987702E-02 
1372	 9.31028442221348E-02 
1373	 9.31433700970522E-02 
1374	 9.31726089360757E-02 
1375	 9.31914156669274E-02 
1376	 9.31929957493139E-02 
1377	 9.31789242185506E-02 
1378	 9.31635595291026E-02 
1379	 9.31254326705929E-02 
1380	 9.31051172272747E-02 
1381	 9.30697083917968E-02 
1382	 9.30789108567238E-02 
1383	 9.31153175627892E-02 
1384	 9.31508661424326E-02 
1385	 9.32282820656981E-02 
1386	 9.32791947498488E-02 
1387	 9.33229046677215E-02 
1388	 9.33563867318944E-02 
1389	 9.33808693784668E-02 
1390	 9.33987769922088E-02 
1391	 9.34013824330929E-02 
1392	 9.34127781349326E-02 
1393	 9.34314834721678E-02 
1394	 9.34365484051947E-02 
1395	 9.34477468854756E-02 
1396	 9.34604400741405E-02 
1397	 9.34747644076201E-02 
1398	 9.34889443002875E-02 
1399	 9.35061412104133E-02 
1400	 9.35304184506928E-02 
1401	 9.35432288135859E-02 
1402	 0.093547581593277 
1403	 9.35638876364919E-02 
1404	 9.35767593274708E-02 
1405	 9.36003278755816E-02 
1406	 9.36374801078962E-02 
1407	 9.36679876391456E-02 
1408	 9.37014001930394E-02 
1409	 9.37305927353994E-02 
1410	 0.093752711775666 
1411	 9.37867036858841E-02 
1412	 9.38244829150172E-02 
1413	 9.38631002659852E-02 
1414	 9.39073857377933E-02 
1415	 9.39525518519109E-02 
1416	 0.093999482526456 
1417	 9.40411383060194E-02 
1418	 9.40781797240745E-02 
1419	 9.41159688566218E-02 
1420	 0.094153622700131 
1421	 0.094191584430632 
1422	 9.42362960950361E-02 
1423	 9.42773285873903E-02 
1424	 9.43148414453947E-02 
1425	 9.43475843652723E-02 
1426	 9.43772640975103E-02 
1427	 9.43976803977023E-02 
1428	 9.44364167155004E-02 
1429	 9.44782529354755E-02 
1430	 9.45243505406427E-02 
1431	 9.45895237783319E-02 
1432	 9.46404163858387E-02 
1433	 9.46886965902194E-02 
1434	 9.47268239513507E-02 
1435	 9.47492181238951E-02 
1436	 9.47840818707076E-02 
1437	 9.48184694802711E-02 
1438	 0.094855044317913 
1439	 9.48993036892094E-02 
1440	 0.094949272939058 
1441	 9.49797431195415E-02 
1442	 9.50001140143913E-02 
1443	 9.50263006295046E-02 
1444	 9.50521614105763E-02 
1445	 9.50939934207216E-02 
1446	 9.51449049793453E-02 
1447	 9.51819261822827E-02 
1448	 9.52173182817677E-02 
1449	 9.52441642714066E-02 
1450	 9.52517199559498E-02 
1451	 9.52783390937305E-02 
1452	 9.53108917028155E-02 
1453	 9.53502673147662E-02 
1454	 9.54040908594288E-02 
1455	 9.54435952836148E-02 
1456	 9.54781918825184E-02 
1457	 9.55135598610743E-02 
1458	 9.55416562277377E-02 
1459	 9.55799335371627E-02 
1460	 9.56296303409381E-02 
1461	 9.56717019137636E-02 
1462	 9.57149324465469E-02 
1463	 9.57475934720892E-02 
1464	 9.57753771959902E-02 
1465	 9.57988071328517E-02 
1466	 9.58055656157892E-02 
1467	 9.58278394427292E-02 
1468	 9.58549160371449E-02 
1469	 9.58815958381868E-02 
1470	 9.59165941511914E-02 
1471	 9.59516822226166E-02 
1472	 9.59774614814928E-02 
1473	 9.60057951612836E-02 
1474	 9.60165139554264E-02 
1475	 9.60352775971138E-02 
1476	 9.60647141061717E-02 
1477	 9.60797241899691E-02 
1478	 9.61238668080935E-02 
1479	 9.61720325372719E-02 
1480	 0.09621678953088 
1481	 9.62779905727377E-02 
1482	 9.63111783603409E-02 
1483	 9.63289510195375E-02 
1484	 9.63528316215343E-02 
1485	 9.63598864777741E-02 
1486	 9.63784521239527E-02 
1487	 0.096406889633302 
1488	 0.096434163726433 
1489	 9.64607579524353E-02 
1490	 9.64884329312239E-02 
1491	 9.65226515197851E-02 
1492	 9.65458087557571E-02 
1493	 9.65560083601003E-02 
1494	 9.65825353455744E-02 
1495	 9.66199975594862E-02 
1496	 9.66460863162888E-02 
1497	 9.66747794769424E-02 
1498	 9.67006707182718E-02 
1499	 9.67146501766786E-02 
1500	 9.67337440540638E-02 
1501	 9.67582177866228E-02 
1502	 9.67816115519428E-02 
1503	 9.68135594413154E-02 
1504	 9.68211292156803E-02 
1505	 9.68225749931921E-02 
1506	 9.68386232446137E-02 
1507	 9.68498906299105E-02 
1508	 9.68615666173205E-02 
1509	 9.68776338397947E-02 
1510	 9.68958555955943E-02 
1511	 9.69057936655989E-02 
1512	 0.096911497192034 
1513	 9.69324387806003E-02 
1514	 9.69634398396672E-02 
1515	 9.69963366820568E-02 
1516	 0.097028542949777 
1517	 9.70453757681544E-02 
1518	 9.70525867074782E-02 
1519	 9.70610080998304E-02 
1520	 9.70522793076646E-02 
1521	 9.70652761692596E-02 
1522	 9.70878621931846E-02 
1523	 9.71056525051642E-02 
1524	 9.71388409227702E-02 
1525	 0.097151456341551 
1526	 9.71502285578433E-02 
1527	 9.71578378691792E-02 
1528	 9.71533655972008E-02 
1529	 9.71622286994557E-02 
1530	 9.71835981263763E-02 
1531	 9.72025279709426E-02 
1532	 0.097228787757429 
1533	 9.72466005711275E-02 
1534	 0.097264287672214 
1535	 9.72772153645964E-02 
1536	 9.72759284096904E-02 
1537	 9.72855105574064E-02 
1538	 9.73007817982918E-02 
1539	 9.73090558126064E-02 
1540	 9.73220099269675E-02 
1541	 9.73334405338255E-02 
1542	 9.73358031131552E-02 
1543	 9.73468379701967E-02 
1544	 9.73558818191716E-02 
1545	 9.73753312406599E-02 
1546	 9.74169859006057E-02 
1547	 9.74363468026679E-02 
1548	 9.74412880591388E-02 
1549	 9.74483929333784E-02 
1550	 9.74446540809178E-02 
1551	 9.74370984121277E-02 
1552	 9.74488000057476E-02 
1553	 9.74734063324169E-02 
1554	 9.74872156506909E-02 
1555	 9.75063854974477E-02 
1556	 9.75300245742831E-02 
1557	 9.75438538635554E-02 
1558	 9.75598035913084E-02 
1559	 9.75754946082094E-02 
1560	 9.75766919660126E-02 
1561	 9.75652477026597E-02 
1562	 9.75649727670044E-02 
1563	 9.75541349591564E-02 
1564	 9.75582660946962E-02 
1565	 9.75811934787094E-02 
1566	 9.75868072313822E-02 
1567	 9.75820949839717E-02 
1568	 9.75942592392553E-02 
1569	 0.09761757250839 
1570	 9.76197060178963E-02 
1571	 9.76237221560309E-02 
1572	 9.76252989965899E-02 
1573	 9.76019182052908E-02 
1574	 9.75959965443639E-02 
1575	 9.76012289423274E-02 
1576	 9.76082636074263E-02 
1577	 9.76185025431174E-02 
1578	 9.76285744274798E-02 
1579	 9.76542619683009E-02 
1580	 9.76629931624461E-02 
1581	 9.76585777409261E-02 
1582	 9.76562390552802E-02 
1583	 9.76415800322557E-02 
1584	 9.76415676443538E-02 
1585	 0.09764987421336 
1586	 9.76556556365269E-02 
1587	 9.76657504028797E-02 
1588	 9.76781460255912E-02 
1589	 9.76950764988632E-02 
1590	 9.77036224030011E-02 
1591	 9.77251262843252E-02 
1592	 9.77217528365334E-02 
1593	 9.76822248202651E-02 
1594	 9.76687052092821E-02 
1595	 9.76558277053052E-02 
1596	 9.76456062868079E-02 
1597	 9.76518473652469E-02 
1598	 9.76546718266176E-02 
1599	 9.76538893112704E-02 
1600	 9.76531346093809E-02 
1601	 9.76513151315888E-02 
1602	 9.76571936973282E-02 
1603	 9.76643771253158E-02 
1604	 9.76723632970216E-02 
1605	 9.77003428593822E-02 
1606	 9.77110934925321E-02 
1607	 9.77072770565842E-02 
1608	 9.77030578722521E-02 
1609	 0.09771293647551 
1610	 0.097707220158284 
1611	 9.77178333374814E-02 
1612	 9.77402338821971E-02 
1613	 9.77522570602989E-02 
1614	 9.77578073429417E-02 
1615	 9.77502722629149E-02 
1616	 0.097744725608487 
1617	 0.097735186296028 
1618	 0.097727400096221 
1619	 0.097743015547125 
1620	 9.77554335192408E-02 
1621	 9.77626698933693E-02 
1622	 9.77747493374065E-02 
1623	 9.77726388704348E-02 
1624	 0.097753996226914 
1625	 9.77571858065956E-02 
1626	 9.77650961339994E-02 
1627	 9.77682619430407E-02 
1628	 9.77850623919568E-02 
1629	 9.77810342991409E-02 
1630	 9.77557621111803E-02 
1631	 9.77550390458971E-02 
1632	 9.77602575388311E-02 
1633	 9.77600881912918E-02 
1634	 9.77662708148804E-02 
1635	 9.77736878737054E-02 
1636	 9.77765311328754E-02 
1637	 9.77833347428103E-02 
1638	 9.78046342441901E-02 
1639	 9.78068117666176E-02 
1640	 9.77916760342579E-02 
1641	 9.77933357011142E-02 
1642	 9.77940866593995E-02 
1643	 9.78030049932301E-02 
1644	 9.78271541104302E-02 
1645	 9.78370688232858E-02 
1646	 9.78449520296311E-02 
1647	 9.78484655117231E-02 
1648	 9.78477759361526E-02 
1649	 9.78418506152667E-02 
1650	 9.78307886437234E-02 
1651	 9.78200359710797E-02 
1652	 9.77994700258693E-02 
1653	 9.77901386114323E-02 
1654	 9.77799628314153E-02 
1655	 9.77850660246232E-02 
1656	 9.78115271923035E-02 
1657	 9.78138692182299E-02 
1658	 9.78239861794163E-02 
1659	 9.78096460531304E-02 
1660	 9.77543452703256E-02 
1661	 9.77393259115835E-02 
1662	 0.097728063686904 
1663	 9.77309988366011E-02 
1664	 9.77631708062027E-02 
1665	 9.77809251809908E-02 
1666	 9.78053760480984E-02 
1667	 9.78131044286309E-02 
1668	 9.78129819667462E-02 
1669	 9.78110868616698E-02 
1670	 9.77912124308749E-02 
1671	 9.77876458593143E-02 
1672	 9.77924555900998E-02 
1673	 9.77939051748177E-02 
1674	 9.77994769547577E-02 
1675	 9.78035709150978E-02 
1676	 9.78103194155361E-02 
1677	 9.78075045642016E-02 
1678	 9.77971325024825E-02 
1679	 9.77947358495972E-02 
1680	 9.77897061837551E-02 
1681	 0.097784910536851 
1682	 9.77817854783226E-02 
1683	 9.77873803924034E-02 
1684	 9.77976932858259E-02 
1685	 9.78007702303706E-02 
1686	 9.78108685360567E-02 
1687	 9.78162066322633E-02 
1688	 9.78102947417099E-02 
1689	 9.78094025069107E-02 
1690	 9.78119367228685E-02 
1691	 9.78179458944491E-02 
1692	 9.78296804799428E-02 
1693	 9.78264265747397E-02 
1694	 9.78235338447857E-02 
1695	 9.78131484204256E-02 
1696	 9.77759899749831E-02 
1697	 9.77645111151374E-02 
1698	 9.77672735248373E-02 
1699	 9.77667977393816E-02 
1700	 9.77697935853279E-02 
1701	 9.77835769543064E-02 
1702	 9.78122864517512E-02 
1703	 0.097816304314872 
1704	 9.78149832359223E-02 
1705	 9.78194584182472E-02 
1706	 9.78015438251997E-02 
1707	 9.78078147143859E-02 
1708	 9.78550888111457E-02 
1709	 9.78531455337105E-02 
1710	 9.78178086352498E-02 
1711	 9.78139123669036E-02 
1712	 9.77883412238219E-02 
1713	 9.78017899494959E-02 
1714	 0.097878209529717 
1715	 9.78947628311131E-02 
1716	 0.097889405841363 
1717	 0.097895725699172 
1718	 9.78801955682717E-02 
1719	 0.097875557336024 
1720	 9.78916943182696E-02 
1721	 9.78888679570904E-02 
1722	 9.78713173794755E-02 
1723	 9.78566026949916E-02 
1724	 9.78392308453929E-02 
1725	 0.097823860457696 
1726	 0.097803116387545 
1727	 9.77860138486904E-02 
1728	 9.77746783595676E-02 
1729	 9.77635999578254E-02 
1730	 9.77474838277264E-02 
1731	 9.77424353831209E-02 
1732	 9.77430362788214E-02 
1733	 9.77403743629914E-02 
1734	 9.77528567910991E-02 
1735	 9.77439654279094E-02 
1736	 9.77160937435781E-02 
1737	 9.77120768510381E-02 
1738	 9.77109858917858E-02 
1739	 9.76992284718444E-02 
1740	 9.77021967064442E-02 
1741	 9.76890565381592E-02 
1742	 9.76486125241502E-02 
1743	 9.76363235118059E-02 
1744	 9.76327531339914E-02 
1745	 0.097633856950118 
1746	 9.76531687772937E-02 
1747	 9.76607734743193E-02 
1748	 0.097646476386814 
1749	 0.097651348030617 
1750	 9.76427262996426E-02 
1751	 9.76444507480631E-02 
1752	 9.76716265813768E-02 
1753	 9.76594144322277E-02 
1754	 9.76477980463091E-02 
1755	 9.76340124941888E-02 
1756	 9.76033182199523E-02 
1757	 9.75938006683329E-02 
1758	 9.75712768339952E-02 
1759	 9.75481435765934E-02 
1760	 0.097541947355159 
1761	 9.75360319760671E-02 
1762	 0.097547228635352 
1763	 9.75530542441899E-02 
1764	 9.75592117069266E-02 
1765	 9.75810012772642E-02 
1766	 9.75807374911867E-02 
1767	 9.75900331587498E-02 
1768	 9.76044439040002E-02 
1769	 9.75776094921822E-02 
1770	 9.75621169924998E-02 
1771	 9.75580473023745E-02 
1772	 9.75269587109746E-02 
1773	 9.75213994310735E-02 
1774	 9.75342735804682E-02 
1775	 9.75244893019003E-02 
1776	 9.75188269961468E-02 
1777	 0.097514304005827 
1778	 9.74986690990612E-02 
1779	 9.74899354776566E-02 
1780	 9.74959867766606E-02 
1781	 9.74951736449308E-02 
1782	 9.74876871574415E-02 
1783	 9.74919459285365E-02 
1784	 9.74942061341378E-02 
1785	 9.75098395568593E-02 
1786	 9.75240467823862E-02 
1787	 9.75299207854763E-02 
1788	 0.097532489933801 
1789	 9.75389919840696E-02 
1790	 9.75408646036923E-02 
1791	 9.75418038089453E-02 
1792	 9.75269669347837E-02 
1793	 9.75003062110067E-02 
1794	 9.74787055689576E-02 
1795	 9.74345401510062E-02 
1796	 9.74254332954686E-02 
1797	 9.74475826023623E-02 
1798	 9.74517585606302E-02 
1799	 9.74622928488871E-02 
1800	 9.74623244940906E-02 
1801	 9.45210246934024E-02 
1802	 0.094610752516817 
1803	 9.47118663045317E-02 
1804	 9.48308152258834E-02 
1805	 9.49608192653233E-02 
1806	 9.51131102941479E-02 
1807	 9.52396518430516E-02 
1808	 9.53347095226743E-02 
1809	 9.54113294291595E-02 
1810	 9.54644890324108E-02 
1811	 0.095481170922429 
1812	 9.54975276967269E-02 
1813	 9.55079246184675E-02 
1814	 9.55028302227935E-02 
1815	 9.55167011414392E-02 
1816	 9.55306983020137E-02 
1817	 9.55443871257924E-02 
1818	 9.55667979202868E-02 
1819	 9.55805142026602E-02 
1820	 9.55850472748811E-02 
1821	 0.095600007585597 
1822	 9.56141613415989E-02 
1823	 0.095640520585146 
1824	 9.56853775562726E-02 
1825	 9.57036643838206E-02 
1826	 9.57136790780008E-02 
1827	 9.57158063065634E-02 
1828	 9.57087275652594E-02 
1829	 9.56789253451781E-02 
1830	 9.56642597127373E-02 
1831	 0.095650096501436 
1832	 9.56336845151426E-02 
1833	 9.56186558252388E-02 
1834	 9.56295965989737E-02 
1835	 9.56469039811374E-02 
1836	 9.56629510109854E-02 
1837	 9.56736836843338E-02 
1838	 9.56707511915132E-02 
1839	 9.56792763252525E-02 
1840	 9.56854284223186E-02 
1841	 9.56908455068948E-02 
1842	 9.57077587080537E-02 
1843	 9.57418459315229E-02 
1844	 0.09577494012861 
1845	 0.095799232897325 
1846	 0.095843868362728 
1847	 9.59061586562475E-02 
1848	 9.59219015072686E-02 
1849	 9.59382704701201E-02 
1850	 9.59826021720975E-02 
1851	 9.60417920317069E-02 
1852	 9.60761284188457E-02 
1853	 9.61343469026066E-02 
1854	 9.62043222136334E-02 
1855	 9.62260067761742E-02 
1856	 9.62341882845411E-02 
1857	 9.62600052255398E-02 
1858	 9.62911691249984E-02 
1859	 9.63224882087916E-02 
1860	 9.63420792778659E-02 
1861	 9.63696887444112E-02 
1862	 9.63660565710168E-02 
1863	 9.63249094476563E-02 
1864	 9.62695360304194E-02 
1865	 9.61980860626835E-02 
1866	 9.61270043022222E-02 
1867	 9.60612824268283E-02 
1868	 9.59928072628954E-02 
1869	 9.59535442400519E-02 
1870	 9.59391781226625E-02 
1871	 9.59445180877569E-02 
1872	 0.095979916036463 
1873	 9.60422984985862E-02 
1874	 9.60928226180729E-02 
1875	 9.61460966369336E-02 
1876	 9.62001616239351E-02 
1877	 9.62577305390004E-02 
1878	 9.63028198561067E-02 
1879	 9.63382121284885E-02 
1880	 9.63563540577024E-02 
1881	 9.63355213728846E-02 
1882	 9.63381188222372E-02 
1883	 9.63515080044067E-02 
1884	 9.63421673387903E-02 
1885	 9.63330458087738E-02 
1886	 9.63233913665637E-02 
1887	 9.62823804765231E-02 
1888	 9.62489218812907E-02 
1889	 9.62180267832369E-02 
1890	 9.62004853908145E-02 
1891	 9.61639441709918E-02 
1892	 9.61216958448943E-02 
1893	 9.60649452246101E-02 
1894	 9.59914158586929E-02 
1895	 9.59154940277037E-02 
1896	 9.58466620605978E-02 
1897	 9.57635117943274E-02 
1898	 9.56744426748651E-02 
1899	 9.55792158580714E-02 
1900	 9.54976208899001E-02 
1901	 9.54383878493088E-02 
1902	 9.53805091642644E-02 
1903	 9.53577577244141E-02 
1904	 9.53090082506743E-02 
1905	 9.52429228893507E-02 
1906	 9.51874451496375E-02 
1907	 9.51346193874438E-02 
1908	 9.50813932289948E-02 
1909	 9.50547293738973E-02 
1910	 9.50236869851103E-02 
1911	 9.49882437663709E-02 
1912	 9.49546021937372E-02 
1913	 9.49156453874889E-02 
1914	 9.48567669674855E-02 
1915	 9.48181755210672E-02 
1916	 9.47834317161594E-02 
1917	 9.47632794496246E-02 
1918	 9.47482266846534E-02 
1919	 9.47282295773771E-02 
1920	 9.47157513624006E-02 
1921	 9.46998264156499E-02 
1922	 9.46945212926761E-02 
1923	 9.47112479038907E-02 
1924	 9.47157039310907E-02 
1925	 9.47268360475529E-02 
1926	 9.47302072113984E-02 
1927	 9.47264296583672E-02 
1928	 9.47163695093195E-02 
1929	 9.47181834846089E-02 
1930	 9.47265246253222E-02 
1931	 9.47388092150243E-02 
1932	 9.47379273238294E-02 
1933	 9.47351008078195E-02 
1934	 9.47236655972481E-02 
1935	 9.47190084407087E-02 
1936	 9.47114450502816E-02 
1937	 9.47139208891837E-02 
1938	 9.47263533414883E-02 
1939	 9.47352538202822E-02 
1940	 9.47367965824281E-02 
1941	 9.47555469131263E-02 
1942	 9.47936371900001E-02 
1943	 9.48173487501573E-02 
1944	 9.48579641779288E-02 
1945	 9.49076277028773E-02 
1946	 9.49322081110842E-02 
1947	 9.49434981536117E-02 
1948	 9.49469182131931E-02 
1949	 9.49174113458599E-02 
1950	 9.49151113531923E-02 
1951	 9.49098556188608E-02 
1952	 9.49237969220848E-02 
1953	 9.49475034731163E-02 
1954	 9.49818234989907E-02 
1955	 0.095016090779289 
1956	 9.50501495083527E-02 
1957	 9.50883105158139E-02 
1958	 9.51347235948656E-02 
1959	 9.51782574189896E-02 
1960	 9.52226551746551E-02 
1961	 9.52654657947969E-02 
1962	 9.53126267992347E-02 
1963	 9.53564445521256E-02 
1964	 9.54027312045357E-02 
1965	 9.54343649170535E-02 
1966	 9.54669033589745E-02 
1967	 9.54983794032262E-02 
1968	 9.55378062527076E-02 
1969	 9.55830897688785E-02 
1970	 9.56195829240127E-02 
1971	 9.56544044926352E-02 
1972	 9.56984769190763E-02 
1973	 9.57369836400506E-02 
1974	 9.57822384451581E-02 
1975	 9.58512642702654E-02 
1976	 9.59025024519001E-02 
1977	 9.59217160094034E-02 
1978	 9.59471863598898E-02 
1979	 9.59710707466925E-02 
1980	 9.59912021167679E-02 
1981	 9.60276964558237E-02 
1982	 0.096082469283875 
1983	 9.61323447194015E-02 
1984	 9.61911221812638E-02 
1985	 9.62405589448028E-02 
1986	 9.62967061756831E-02 
1987	 9.63404851464909E-02 
1988	 9.63714261599004E-02 
1989	 0.096404949577925 
1990	 0.096425262280286 
1991	 9.64442053603742E-02 
1992	 9.64724801881939E-02 
1993	 9.65012109044114E-02 
1994	 9.65316084326735E-02 
1995	 9.65701629753531E-02 
1996	 9.66040165091323E-02 
1997	 9.66425092508428E-02 
1998	 9.66693778304064E-02 
1999	 9.66748490703076E-02 
2000	 9.67075220799002E-02 
2001	 9.67525620900176E-02 
2002	 9.67826146759477E-02 
2003	 9.68386482889873E-02 
2004	 9.69202236271313E-02 
2005	 9.69756170576236E-02 
2006	 9.70132563094366E-02 
2007	 9.70721084273558E-02 
2008	 9.71359001064946E-02 
2009	 9.71949254420884E-02 
2010	 9.72697782626985E-02 
2011	 9.73291950899537E-02 
2012	 9.73718199244836E-02 
2013	 0.097423204090543 
2014	 9.74760572787391E-02 
2015	 9.75237874163006E-02 
2016	 9.75815610748323E-02 
2017	 9.76338557865646E-02 
2018	 9.76774483663837E-02 
2019	 9.77115610538116E-02 
2020	 0.097749733681365 
2021	 9.77744646010412E-02 
2022	 0.097818039478438 
2023	 9.78731038141775E-02 
2024	 9.79283600035143E-02 
2025	 9.79974955364518E-02 
2026	 9.80557141057063E-02 
2027	 9.81166171030327E-02 
2028	 9.81613886947075E-02 
2029	 9.82118271683979E-02 
2030	 9.82600347549844E-02 
2031	 9.83103577811568E-02 
2032	 9.83649975304216E-02 
2033	 0.098409509090654 
2034	 9.84508262770828E-02 
2035	 9.84860411293939E-02 
2036	 9.85060803028416E-02 
2037	 9.85379470810053E-02 
2038	 9.85739623814547E-02 
2039	 9.86074761928735E-02 
2040	 9.86372098976471E-02 
2041	 9.86784399408458E-02 
2042	 9.87227494031018E-02 
2043	 9.87603706835117E-02 
2044	 9.88115921531691E-02 
2045	 9.88871485283071E-02 
2046	 0.098930213814889 
2047	 9.89636452113809E-02 
2048	 9.89964820284474E-02 
2049	 9.90050156337251E-02 
2050	 9.90337008613974E-02 
2051	 9.90830087800106E-02 
2052	 9.91126300459801E-02 
2053	 9.91206878941034E-02 
2054	 9.91524953586955E-02 
2055	 9.91846741794258E-02 
2056	 0.099233430944165 
2057	 9.92659283743755E-02 
2058	 9.93160299407466E-02 
2059	 9.93506852494621E-02 
2060	 9.93638104113487E-02 
2061	 9.93828676525632E-02 
2062	 9.94059305412499E-02 
2063	 9.94293681202949E-02 
2064	 9.94382084137868E-02 
2065	 9.94613283410001E-02 
2066	 9.95004612549992E-02 
2067	 0.099535290767922 
2068	 9.95733035303566E-02 
2069	 9.96137837923741E-02 
2070	 9.96370563393256E-02 
2071	 9.96483063883387E-02 
2072	 9.96747792952946E-02 
2073	 9.96981379053713E-02 
2074	 9.97194365837881E-02 
2075	 9.97412874982428E-02 
2076	 9.97787449731359E-02 
2077	 9.98174031664712E-02 
2078	 9.98574874101722E-02 
2079	 9.99317769345016E-02 
2080	 9.99737677353562E-02 
2081	 9.99815421316409E-02 
2082	 0.100007091373802 
2083	 0.100019037767557 
2084	 0.100056650297399 
2085	 0.100088340459286 
2086	 0.100134556580675 
2087	 0.100166676391421 
2088	 0.100188464117867 
2089	 0.100223396658009 
2090	 0.100259469139505 
2091	 0.100300911692116 
2092	 0.100366354569783 
2093	 0.100402364411909 
2094	 0.10041483264255 
2095	 0.100443614772863 
2096	 0.100467824180418 
2097	 0.10049070037377 
2098	 0.100506459883283 
2099	 0.100558743098377 
2100	 0.100589500260509 
2101	 0.100602125538407 
2102	 0.100642662507003 
2103	 0.10070070816681 
2104	 0.100748143076452 
2105	 0.100810027485911 
2106	 0.100853063263865 
2107	 0.100867262884617 
2108	 0.100916298328869 
2109	 0.100973909607706 
2110	 0.101035802513462 
2111	 0.101133323023699 
2112	 0.101207703233631 
2113	 0.101277190923108 
2114	 0.101332449982433 
2115	 0.101382694816507 
2116	 0.10142548867912 
2117	 0.101455793002222 
2118	 0.101466708225308 
2119	 0.101495488901488 
2120	 0.10151289542126 
2121	 0.101551633316265 
2122	 0.101618423255293 
2123	 0.101663253791919 
2124	 0.101718584219997 
2125	 0.101749707661785 
2126	 0.101744464347199 
2127	 0.101763955574502 
2128	 0.101792468609367 
2129	 0.101806958846716 
2130	 0.101816841405951 
2131	 0.101842207270316 
2132	 0.101860581353765 
2133	 0.101865725500127 
2134	 0.101877517804864 
2135	 0.101911644994423 
2136	 0.101909780538241 
2137	 0.1018773091468 
2138	 0.101865176000397 
2139	 0.101847735717004 
2140	 0.101832480145427 
2141	 0.101823082283998 
2142	 0.101815108377937 
2143	 0.101815761328213 
2144	 0.101797585793836 
2145	 0.101777307544856 
2146	 0.101752125305535 
2147	 0.101711121979251 
2148	 0.101661606382953 
2149	 0.101615477069396 
2150	 0.101574375349103 
2151	 0.101521195637987 
2152	 0.101455266823188 
2153	 0.101398604747905 
2154	 0.101338520793219 
2155	 0.10128535928214 
2156	 0.101240489877195 
2157	 0.10118929981332 
2158	 0.101150998549891 
2159	 0.10108948950108 
2160	 0.101004294786457 
2161	 0.100933278829778 
2162	 0.100862506122237 
2163	 0.100778957070997 
2164	 0.100687317567991 
2165	 0.100610752956121 
2166	 0.100531115666697 
2167	 0.100442843301971 
2168	 0.100355817351982 
2169	 0.100281040199117 
2170	 0.10019561652236 
2171	 0.10007862806295 
2172	 0.100005490514718 
2173	 9.99613043175265E-02 
2174	 9.99019066585904E-02 
2175	 9.98631105807075E-02 
2176	 9.98084820152618E-02 
2177	 9.97326399776244E-02 
2178	 9.96717702519095E-02 
2179	 9.96296055825794E-02 
2180	 9.95640249455898E-02 
2181	 9.94870263241148E-02 
2182	 9.94124164071268E-02 
2183	 0.099321516918873 
2184	 9.92188245730167E-02 
2185	 9.91655324889373E-02 
2186	 9.91429847846385E-02 
2187	 9.91067756367036E-02 
2188	 0.099110286809496 
2189	 9.90641646868912E-02 
2190	 9.89901664710568E-02 
2191	 9.89187222168829E-02 
2192	 9.88170966272132E-02 
2193	 9.87435549084278E-02 
2194	 9.86774256646817E-02 
2195	 9.86142352140258E-02 
2196	 9.85563203254179E-02 
2197	 9.85132909469396E-02 
2198	 0.098477671362253 
2199	 9.84484190494515E-02 
2200	 9.84428361156045E-02 
2201	 0.098429094191179 
2202	 9.84046456321612E-02 
2203	 9.83995900546663E-02 
2204	 9.83888460193609E-02 
2205	 9.83832689448663E-02 
2206	 9.83646843234524E-02 
2207	 9.83482895629215E-02 
2208	 9.83160301754295E-02 
2209	 9.82464958994577E-02 
2210	 9.82315718819664E-02 
2211	 9.82466464238748E-02 
2212	 9.82365361768124E-02 
2213	 9.82386306584526E-02 
2214	 9.82452083418962E-02 
2215	 9.82320522242456E-02 
2216	 9.82327050453161E-02 
2217	 9.82670104473337E-02 
2218	 9.82820863471495E-02 
2219	 9.82892895666846E-02 
2220	 9.82851998527131E-02 
2221	 9.82688536319634E-02 
2222	 9.82572374549943E-02 
2223	 9.82411832505252E-02 
2224	 9.82158831019186E-02 
2225	 9.82051090045147E-02 
2226	 9.82016567787268E-02 
2227	 0.098210877992709 
2228	 9.82236611822972E-02 
2229	 9.82489119651029E-02 
2230	 0.098299751304978 
2231	 9.83237300260927E-02 
2232	 9.83470337187771E-02 
2233	 9.83665660917693E-02 
2234	 9.83773113672708E-02 
2235	 0.098384221549565 
2236	 9.83777388037091E-02 
2237	 9.83861542888257E-02 
2238	 9.83892604391265E-02 
2239	 0.098405031715877 
2240	 9.84481576974816E-02 
2241	 9.84769868590909E-02 
2242	 9.85003389234274E-02 
2243	 9.85228224563957E-02 
2244	 9.85382971018492E-02 
2245	 9.85602670167874E-02 
2246	 9.85804271358176E-02 
2247	 0.098604208398081 
2248	 9.86242738552629E-02 
2249	 9.86424011901531E-02 
2250	 0.098663554566387 
2251	 9.86885851283688E-02 
2252	 9.87046545068957E-02 
2253	 9.87226867360162E-02 
2254	 0.098726485973738 
2255	 9.87087655987147E-02 
2256	 9.87116836850879E-02 
2257	 9.87076443293848E-02 
2258	 0.098731680647066 
2259	 9.87857438120182E-02 
2260	 9.88231405440388E-02 
2261	 9.88745902913231E-02 
2262	 9.89081906458252E-02 
2263	 9.89216830936895E-02 
2264	 9.89446978602763E-02 
2265	 9.89624385361963E-02 
2266	 9.89904190250666E-02 
2267	 9.90319769124344E-02 
2268	 9.90652348724515E-02 
2269	 9.91122053155029E-02 
2270	 9.91380774104925E-02 
2271	 9.91284565482938E-02 
2272	 0.099124256009827 
2273	 9.91211964495235E-02 
2274	 9.91322855063364E-02 
2275	 0.099152594064827 
2276	 9.92094544593477E-02 
2277	 9.92165990707845E-02 
2278	 9.91957525372362E-02 
2279	 9.92039250925545E-02 
2280	 9.91945211081652E-02 
2281	 9.92170124345821E-02 
2282	 9.92827596992082E-02 
2283	 9.93205129411722E-02 
2284	 9.93611689747784E-02 
2285	 9.93878054272037E-02 
2286	 9.93903676468999E-02 
2287	 9.94138381676208E-02 
2288	 9.94356723078138E-02 
2289	 9.94686088289934E-02 
2290	 9.95196523799631E-02 
2291	 9.95694953202253E-02 
2292	 9.96413327357996E-02 
2293	 9.96774956167571E-02 
2294	 9.97112448376268E-02 
2295	 9.97208428654762E-02 
2296	 9.96728350042589E-02 
2297	 9.96543522763162E-02 
2298	 9.96633608457019E-02 
2299	 9.96630564138164E-02 
2300	 9.96942873671712E-02 
2301	 0.099702217810413 
2302	 9.96979750874618E-02 
2303	 9.97322520098036E-02 
2304	 9.98000077191757E-02 
2305	 9.98182811001694E-02 
2306	 9.98373032631039E-02 
2307	 9.98596313601759E-02 
2308	 9.98662895727482E-02 
2309	 9.98290348469634E-02 
2310	 9.98527312725943E-02 
2311	 9.98981765580086E-02 
2312	 9.99202823039354E-02 
2313	 9.99769611184862E-02 
2314	 0.100003247863918 
2315	 0.100008139558033 
2316	 0.100001191772051 
2317	 9.99633270973205E-02 
2318	 9.99594286834845E-02 
2319	 9.99421933828725E-02 
2320	 0.099952147072785 
2321	 0.099995663975481 
2322	 0.100044572474187 
2323	 0.100116005622185 
2324	 0.100170466135721 
2325	 0.100233103565114 
2326	 0.100296750073766 
2327	 0.100348400085058 
2328	 0.100410188805268 
2329	 0.100446681011683 
2330	 0.10047332230309 
2331	 0.100499668118698 
2332	 0.100488921293528 
2333	 0.100550368279625 
2334	 0.100640926440318 
2335	 0.100666181762173 
2336	 0.100707689502276 
2337	 0.10072982154872 
2338	 0.100681612781708 
2339	 0.10069712025308 
2340	 0.100756884680734 
2341	 0.100767026869496 
2342	 0.100816470914193 
2343	 0.100893747167298 
2344	 0.100915797091569 
2345	 0.100959052720048 
2346	 0.101051868478625 
2347	 0.101072261812568 
2348	 0.101045271820093 
2349	 0.101032880490662 
2350	 0.100986395502495 
2351	 0.10095480943513 
2352	 0.100916170953948 
2353	 0.100901574504266 
2354	 0.100898836811671 
2355	 0.100902754526332 
2356	 0.100933010893252 
2357	 0.100950269258951 
2358	 0.100957623834785 
2359	 0.100978800217897 
2360	 0.101012554643281 
2361	 0.101037336924409 
2362	 0.10107094232586 
2363	 0.1010922736004 
2364	 0.101101096739279 
2365	 0.101110083748812 
2366	 0.101075492727333 
2367	 0.101112613130599 
2368	 0.101224907547273 
2369	 0.101269317488214 
2370	 0.101316302476896 
2371	 0.101384946135313 
2372	 0.101349399069871 
2373	 0.101337196672489 
2374	 0.101395651559118 
2375	 0.101394430972802 
2376	 0.101400196958152 
2377	 0.101348706139717 
2378	 0.101263071008442 
2379	 0.101256427094294 
2380	 0.10123643950013 
2381	 0.101228452402183 
2382	 0.101271292568587 
2383	 0.101291091391653 
2384	 0.101287337010433 
2385	 0.101276375695066 
2386	 0.101264336056704 
2387	 0.101213778811683 
2388	 0.101183942335326 
2389	 0.101272665619322 
2390	 0.101345969553744 
2391	 0.101368031528431 
2392	 0.101369209028376 
2393	 0.101317172681246 
2394	 0.101257970520225 
2395	 0.101269908894907 
2396	 0.101331197029265 
2397	 0.101316463184531 
2398	 0.101305547922849 
2399	 0.101318537550608 
2400	 0.101354967192886 
2401	 0.101481059293592 
2402	 0.101548837557709 
2403	 0.101546525713983 
2404	 0.101523095471218 
2405	 0.101421056504377 
2406	 0.101314754443131 
2407	 0.101294624991001 
2408	 0.101232039114323 
2409	 0.10117855591075 
2410	 0.101202279211717 
2411	 0.101129157907027 
2412	 0.101127254333842 
2413	 0.101125279568674 
2414	 0.101102718514991 
2415	 0.101238950966092 
2416	 0.101229808918331 
2417	 0.10109784889618 
2418	 0.101126220159913 
2419	 0.101144548674288 
2420	 0.101148715091831 
2421	 0.101297861970048 
2422	 0.1013175611395 
2423	 0.10121013147144 
2424	 0.101207827135825 
2425	 0.10125480116142 
2426	 0.101258481178059 
2427	 0.101296155901528 
2428	 0.101233024727812 
2429	 0.101040850262347 
2430	 0.100923659271023 
2431	 0.10076503427224 
2432	 0.100743967162847 
2433	 0.100871768203329 
2434	 0.100913546513289 
2435	 0.101003496428153 
2436	 0.100958722742278 
2437	 0.100772675469699 
2438	 0.100726801323858 
2439	 0.100698163661203 
2440	 0.100681505177769 
2441	 0.100723702921761 
2442	 0.100753693793044 
2443	 0.100759167809669 
2444	 0.100734200220499 
2445	 0.100807242204269 
2446	 0.100745949173416 
2447	 0.100505190955614 
2448	 0.100463693543709 
2449	 0.100467440215483 
2450	 0.100425730395975 
2451	 0.100446488669856 
2452	 0.100423913274656 
2453	 0.100335429386383 
2454	 0.100298354305156 
2455	 0.100326613879609 
2456	 0.100363635723148 
2457	 0.100431744689275 
2458	 0.100384497842402 
2459	 0.100262215639507 
2460	 0.100192033144774 
2461	 0.100039799943832 
2462	 0.100002378487045 
2463	 0.100172284721268 
2464	 0.100143898699964 
2465	 9.99777175627381E-02 
2466	 0.099914896996174 
2467	 9.97779269437878E-02 
2468	 9.97014575723025E-02 
2469	 9.97696784025947E-02 
2470	 9.96713536119249E-02 
2471	 0.099656653419819 
2472	 9.96525760195507E-02 
2473	 9.95560200271009E-02 
2474	 9.94205562313483E-02 
2475	 9.92620960430408E-02 
2476	 9.90799201429407E-02 
2477	 9.91281980788836E-02 
2478	 9.92272215476005E-02 
2479	 9.90701454241743E-02 
2480	 9.88782298651061E-02 
2481	 9.87758508584992E-02 
2482	 9.87348117406288E-02 
2483	 9.87632076051813E-02 
2484	 9.88662663318651E-02 
2485	 9.89298290587549E-02 
2486	 9.89895334288117E-02 
2487	 9.91046048669123E-02 
2488	 9.92069821042216E-02 
2489	 9.90846640108858E-02 
2490	 9.88000142632261E-02 
2491	 9.85948695326116E-02 
2492	 0.09851490858369 
2493	 9.87930097779577E-02 
2494	 9.91028269348442E-02 
2495	 0.099330161341502 
2496	 9.94523350353606E-02 
2497	 9.94362718839483E-02 
2498	 9.95593736119683E-02 
2499	 9.96443348885174E-02 
2500	 9.98343446084529E-02 
