Wavelength	LMW_13_a00006.asd
350	 5.85758240335614E-02 
351	 5.87342676075495E-02 
352	 5.13225774305809E-02 
353	 4.39932435826997E-02 
354	 4.38692365197786E-02 
355	 4.51140957088694E-02 
356	 4.62990469117074E-02 
357	 4.75749105699596E-02 
358	 5.14349021492334E-02 
359	 4.64236369204367E-02 
360	 3.92630189304804E-02 
361	 4.56778560541308E-02 
362	 4.23183551409278E-02 
363	 4.02303111454955E-02 
364	 4.40705258099589E-02 
365	 4.19521743896385E-02 
366	 4.01907612956058E-02 
367	 3.83098870105544E-02 
368	 3.63695860160042E-02 
369	 4.45917301875741E-02 
370	 4.55666243904228E-02 
371	 4.05158681141583E-02 
372	 4.26466808270903E-02 
373	 4.26719629407976E-02 
374	 4.26659199864692E-02 
375	 0.044230274414807 
376	 4.60987641994539E-02 
377	 4.18738393050655E-02 
378	 3.79122760050689E-02 
379	 4.13246930732944E-02 
380	 4.53790451722459E-02 
381	 4.56731345434848E-02 
382	 4.36774265839826E-02 
383	 4.49386964900295E-02 
384	 4.75432162196361E-02 
385	 4.89290580568623E-02 
386	 4.86715028173349E-02 
387	 0.050668809146259 
388	 5.09550136638552E-02 
389	 5.04631362559104E-02 
390	 5.10318335962989E-02 
391	 5.08356759292262E-02 
392	 5.12488659533613E-02 
393	 5.20921209483133E-02 
394	 5.20123778365954E-02 
395	 0.054742960378073 
396	 5.69550744875675E-02 
397	 5.67134771705853E-02 
398	 5.73657037636123E-02 
399	 5.87045971907321E-02 
400	 6.02557912158044E-02 
401	 6.13511913624561E-02 
402	 6.15897023176259E-02 
403	 6.13212265927745E-02 
404	 6.10731431800158E-02 
405	 6.14534953730755E-02 
406	 6.25957801090467E-02 
407	 6.40184181254365E-02 
408	 6.49294853735628E-02 
409	 6.38210260442194E-02 
410	 0.063678798831766 
411	 6.41578089632687E-02 
412	 0.063638947535973 
413	 6.37069133797768E-02 
414	 6.41776021396048E-02 
415	 6.45697298795814E-02 
416	 6.42474063801996E-02 
417	 6.37392562333101E-02 
418	 6.31558922313175E-02 
419	 6.25564205461663E-02 
420	 0.062263112568838 
421	 6.13101177363366E-02 
422	 0.060561985820927 
423	 6.16221708281403E-02 
424	 6.03391614050432E-02 
425	 5.91405953045301E-02 
426	 5.93303721461607E-02 
427	 5.86613718832328E-02 
428	 5.82095969640263E-02 
429	 0.057847827163313 
430	 5.72794324885906E-02 
431	 5.72026062353197E-02 
432	 5.71693882737462E-02 
433	 5.72125543974767E-02 
434	 5.78412145032714E-02 
435	 5.84144357605157E-02 
436	 5.90718364961295E-02 
437	 5.98783949542987E-02 
438	 6.02293067052633E-02 
439	 6.09128364229903E-02 
440	 6.20329460861886E-02 
441	 6.32783398775791E-02 
442	 6.40576766923345E-02 
443	 6.49825202828534E-02 
444	 6.62249817564028E-02 
445	 0.067122304235114 
446	 6.79863212927115E-02 
447	 6.89918862385252E-02 
448	 7.01960513170337E-02 
449	 7.13332134775237E-02 
450	 7.24419881041738E-02 
451	 7.34660655492647E-02 
452	 7.42860484251178E-02 
453	 7.51806242026326E-02 
454	 7.61091885412797E-02 
455	 7.70194310514695E-02 
456	 7.79889222302076E-02 
457	 7.89779304821687E-02 
458	 8.00048884687005E-02 
459	 8.10835503885487E-02 
460	 0.082021353238783 
461	 8.26985014404198E-02 
462	 8.33144160933032E-02 
463	 8.44944254754448E-02 
464	 8.55001369436628E-02 
465	 8.63480044229035E-02 
466	 8.72376861989129E-02 
467	 8.82204829138048E-02 
468	 8.89740881366155E-02 
469	 0.089549905167643 
470	 9.02921610904537E-02 
471	 9.10654225874202E-02 
472	 9.18703509875678E-02 
473	 9.27269054462733E-02 
474	 9.36810112872087E-02 
475	 9.44759901308306E-02 
476	 9.51101499391816E-02 
477	 9.56971019666212E-02 
478	 9.61981369278553E-02 
479	 9.69003377182901E-02 
480	 9.77709049629787E-02 
481	 9.83097536130552E-02 
482	 9.89064569861743E-02 
483	 9.95438356701093E-02 
484	 0.100128671671286 
485	 0.100740780792191 
486	 0.101262570793656 
487	 0.10165364124285 
488	 0.101961274864169 
489	 0.102504606746689 
490	 0.103023766497809 
491	 0.10335151880849 
492	 0.103814901576162 
493	 0.104193694360353 
494	 0.104534337956146 
495	 0.104962809338528 
496	 0.105226583541262 
497	 0.105364519910967 
498	 0.105499467343168 
499	 0.105835386257207 
500	 0.106157049426968 
501	 0.106410965157887 
502	 0.106591180077995 
503	 0.106658384319549 
504	 0.106797606547029 
505	 0.106991894575084 
506	 0.107049223634926 
507	 0.107209684275018 
508	 0.107444623738391 
509	 0.10765664429649 
510	 0.107713786101977 
511	 0.107704732378772 
512	 0.10772343029508 
513	 0.107844359072981 
514	 0.107948567649611 
515	 0.107946728463014 
516	 0.107900633005053 
517	 0.108134113848234 
518	 0.108222609192764 
519	 0.108219427058868 
520	 0.108291469612304 
521	 0.108299551431431 
522	 0.108365286078266 
523	 0.108476456295357 
524	 0.108472722254054 
525	 0.108512085867247 
526	 0.108586814224533 
527	 0.108650887004843 
528	 0.10864785385689 
529	 0.108734760762645 
530	 0.108868966506325 
531	 0.108892498180988 
532	 0.108966225047054 
533	 0.10903145155404 
534	 0.109054368014692 
535	 0.109119611118806 
536	 0.109151882421338 
537	 0.109218541561324 
538	 0.10940586866702 
539	 0.109546689413184 
540	 0.109605611735632 
541	 0.109644080875476 
542	 0.109833271501494 
543	 0.110024498374708 
544	 0.110177397768738 
545	 0.110301708056275 
546	 0.110487131258607 
547	 0.110630149593142 
548	 0.110726455513105 
549	 0.11085382471493 
550	 0.11087809320469 
551	 0.110966900441204 
552	 0.111222460119846 
553	 0.11144633074619 
554	 0.111670536240316 
555	 0.111892071754601 
556	 0.112090643423718 
557	 0.112219479343447 
558	 0.112365926977626 
559	 0.112602983948887 
560	 0.112964029766187 
561	 0.11330763478849 
562	 0.11359398926918 
563	 0.113832417460986 
564	 0.11405867995495 
565	 0.114330109202388 
566	 0.114650478822493 
567	 0.114964462396259 
568	 0.115355592609178 
569	 0.115741620464636 
570	 0.116035797214376 
571	 0.116250359734757 
572	 0.116583847605449 
573	 0.117024029159433 
574	 0.117409590471247 
575	 0.117764354647852 
576	 0.118208606176405 
577	 0.118765411448379 
578	 0.11920303269755 
579	 0.119699165458614 
580	 0.120249501734683 
581	 0.120785610349185 
582	 0.121381013519886 
583	 0.12184316705419 
584	 0.122143219122984 
585	 0.122509585398119 
586	 0.122946768900937 
587	 0.123434259594748 
588	 0.12395540559704 
589	 0.124595734652363 
590	 0.12525273738383 
591	 0.125836340122368 
592	 0.126289100486227 
593	 0.126761106743541 
594	 0.127346423004713 
595	 0.128069854790952 
596	 0.128853194831544 
597	 0.129471651189153 
598	 0.129972238372439 
599	 0.13053953547658 
600	 0.131048478082517 
601	 0.131449420147877 
602	 0.131788795795151 
603	 0.132273930365607 
604	 0.132778552794945 
605	 0.133268063359382 
606	 0.133754237797013 
607	 0.134340502736382 
608	 0.134900655174428 
609	 0.135374551900533 
610	 0.135794921576243 
611	 0.136140489936546 
612	 0.136491077488024 
613	 0.136894470527124 
614	 0.137220723071188 
615	 0.137500216533526 
616	 0.137778168216817 
617	 0.138103983908793 
618	 0.138470839248631 
619	 0.138774635212735 
620	 0.138985775685814 
621	 0.139265440226096 
622	 0.139499305361305 
623	 0.139723273289516 
624	 0.140006558012228 
625	 0.140219582817438 
626	 0.140449454901177 
627	 0.140726539380457 
628	 0.140984674323257 
629	 0.141205646421434 
630	 0.141403757901761 
631	 0.141604626555951 
632	 0.141829701193851 
633	 0.142040050356536 
634	 0.142210689318922 
635	 0.142340450797774 
636	 0.142588241270624 
637	 0.14283409926364 
638	 0.1429902815212 
639	 0.143170593640661 
640	 0.143351374536003 
641	 0.143552924713932 
642	 0.143798483111453 
643	 0.14400279575279 
644	 0.144196085261571 
645	 0.144394692962814 
646	 0.144577455740674 
647	 0.144761992741124 
648	 0.144925792498098 
649	 0.145057244414043 
650	 0.145233587377401 
651	 0.145435617768603 
652	 0.145654471707277 
653	 0.145891418097082 
654	 0.14612333279986 
655	 0.146325669014537 
656	 0.146493383236198 
657	 0.14666310919802 
658	 0.146836685750276 
659	 0.147038124366062 
660	 0.147285843583268 
661	 0.147495281735433 
662	 0.147663171874989 
663	 0.147820911528999 
664	 0.148033912430042 
665	 0.148340651620936 
666	 0.148588360659317 
667	 0.148668988682283 
668	 0.148889874436709 
669	 0.149136514764797 
670	 0.149351060847562 
671	 0.149535351751358 
672	 0.149720414881558 
673	 0.149968896724177 
674	 0.150263986475303 
675	 0.150378272219984 
676	 0.150573159294632 
677	 0.150840270446822 
678	 0.151067851075519 
679	 0.151322186695497 
680	 0.151559941976796 
681	 0.151762177326526 
682	 0.151951928290533 
683	 0.15218114542054 
684	 0.15242369193104 
685	 0.152647017555231 
686	 0.15287648615143 
687	 0.153141364066393 
688	 0.153415842251643 
689	 0.153638891626075 
690	 0.153832096459497 
691	 0.154034869183094 
692	 0.154269171646125 
693	 0.154522475370704 
694	 0.154739018876541 
695	 0.1549727052997 
696	 0.155283711705304 
697	 0.155531060930092 
698	 0.155724710904363 
699	 0.155914143513562 
700	 0.156175202163392 
701	 0.156414152713546 
702	 0.156636143879582 
703	 0.156859087510615 
704	 0.157067328653257 
705	 0.157330029166617 
706	 0.15758722200306 
707	 0.157737395824551 
708	 0.157941709627082 
709	 0.158188102346733 
710	 0.158433255409363 
711	 0.158617672892899 
712	 0.158824465983752 
713	 0.159030112322269 
714	 0.159197175995378 
715	 0.159345144586177 
716	 0.15954720429992 
717	 0.159768510627382 
718	 0.159904708655585 
719	 0.160037544349148 
720	 0.160182130907392 
721	 0.160334058853027 
722	 0.160468026140479 
723	 0.160642249387785 
724	 0.160802790044027 
725	 0.160879060026017 
726	 0.160912964809067 
727	 0.161025041328357 
728	 0.161162393575406 
729	 0.161126963386895 
730	 0.161162974982707 
731	 0.161275211395123 
732	 0.161385901548507 
733	 0.16131679716229 
734	 0.161339010316864 
735	 0.161382628207131 
736	 0.16128426421115 
737	 0.161250176829145 
738	 0.161226985510144 
739	 0.161185291054218 
740	 0.161141867471441 
741	 0.161083824887939 
742	 0.160995863476201 
743	 0.160868124455624 
744	 0.160696305245122 
745	 0.160559679137556 
746	 0.160465079678005 
747	 0.160363987479789 
748	 0.160112610420378 
749	 0.159873725583964 
750	 0.159721605112585 
751	 0.159588290508139 
752	 0.159390927190526 
753	 0.159156435659443 
754	 0.158921099470788 
755	 0.158651430440141 
756	 0.158423123696118 
757	 0.158202921557668 
758	 0.157917018685591 
759	 0.157654777118185 
760	 0.157339864014624 
761	 0.156993779390386 
762	 0.156772440715123 
763	 0.156474626734806 
764	 0.156146946154594 
765	 0.155860584295058 
766	 0.155582184944302 
767	 0.155271236794408 
768	 0.154922884145523 
769	 0.154560868056465 
770	 0.154253530614009 
771	 0.15394388669952 
772	 0.153604950611379 
773	 0.153260132522578 
774	 0.152893384221273 
775	 0.15255654016548 
776	 0.152266158177044 
777	 0.1519039034619 
778	 0.151548465169437 
779	 0.151239350355893 
780	 0.150978235527761 
781	 0.150669801347263 
782	 0.150278290741535 
783	 0.149853067768435 
784	 0.149520448745461 
785	 0.149219048690442 
786	 0.148883134525968 
787	 0.148502752655612 
788	 0.14820520863319 
789	 0.14788759847138 
790	 0.147554908505973 
791	 0.14723721568114 
792	 0.146866156695303 
793	 0.146569235617764 
794	 0.146332787005505 
795	 0.146021418899961 
796	 0.145674609119636 
797	 0.145345192154882 
798	 0.145049370688173 
799	 0.144731791423638 
800	 0.144402014128507 
801	 0.144064684093222 
802	 0.14374891919001 
803	 0.143586527245683 
804	 0.143356961971334 
805	 0.143030397626059 
806	 0.142711190758059 
807	 0.142460016237702 
808	 0.142161473031331 
809	 0.141822662646029 
810	 0.14162790261992 
811	 0.14146017463189 
812	 0.141225880768406 
813	 0.140901118759429 
814	 0.140624015905722 
815	 0.140370002679774 
816	 0.140151804408318 
817	 0.139975913609928 
818	 0.139761233256051 
819	 0.139527866683112 
820	 0.139292609183046 
821	 0.139064358424648 
822	 0.138847947210725 
823	 0.138646994449763 
824	 0.138465972203906 
825	 0.138314409767819 
826	 0.138067489194149 
827	 0.13780156796261 
828	 0.137624618712492 
829	 0.137562942700428 
830	 0.137431978464726 
831	 0.137213012313914 
832	 0.136990200428694 
833	 0.136877536886495 
834	 0.136775512655437 
835	 0.136641152028497 
836	 0.136499771884012 
837	 0.13630681188934 
838	 0.136182291881862 
839	 0.136137342879662 
840	 0.135956892556688 
841	 0.135815843044582 
842	 0.135689083817838 
843	 0.135541325723322 
844	 0.135486916213653 
845	 0.135412430284577 
846	 0.135298211735554 
847	 0.135176669288642 
848	 0.135086530869576 
849	 0.134989440029566 
850	 0.13490240806847 
851	 0.134880730245114 
852	 0.134826328284802 
853	 0.134743843978308 
854	 0.134658373883622 
855	 0.134600032281528 
856	 0.134545472401486 
857	 0.134514278432882 
858	 0.13450794092693 
859	 0.134455139318298 
860	 0.134427631487992 
861	 0.134422348180523 
862	 0.134409619855735 
863	 0.134370752217099 
864	 0.1343468235893 
865	 0.134363591889767 
866	 0.134411871593581 
867	 0.134333281183726 
868	 0.134276562034579 
869	 0.134313394104445 
870	 0.134397374651137 
871	 0.134408441437171 
872	 0.13448323511396 
873	 0.134638500228842 
874	 0.134636211568259 
875	 0.134558483529782 
876	 0.134496602728636 
877	 0.134508140334294 
878	 0.134547654066615 
879	 0.134646273320503 
880	 0.134767070127423 
881	 0.134866653997473 
882	 0.134980955957191 
883	 0.135085876979429 
884	 0.135171074076684 
885	 0.135248561492801 
886	 0.135407620645304 
887	 0.135534479975911 
888	 0.135616075751682 
889	 0.135732148561931 
890	 0.13585063645325 
891	 0.135949074356535 
892	 0.136024006392705 
893	 0.13609708257848 
894	 0.136234911743749 
895	 0.136416308101637 
896	 0.136599363797332 
897	 0.136742822730302 
898	 0.136938947137859 
899	 0.137133887562523 
900	 0.137277807336935 
901	 0.137435197783128 
902	 0.13759018649436 
903	 0.137763078815016 
904	 0.137962094085986 
905	 0.138101210642288 
906	 0.138355790776017 
907	 0.138652366380659 
908	 0.138843480281963 
909	 0.139089825053582 
910	 0.139266406675578 
911	 0.139415576425728 
912	 0.139670662069208 
913	 0.139927389465469 
914	 0.140150357354053 
915	 0.140382716890506 
916	 0.140713637590356 
917	 0.141045801542294 
918	 0.141295032417114 
919	 0.141473432576563 
920	 0.141695347566908 
921	 0.141966970267199 
922	 0.142278112743259 
923	 0.142598559429167 
924	 0.142883184900297 
925	 0.143129219992939 
926	 0.143409763042134 
927	 0.143752958872962 
928	 0.144075030304981 
929	 0.144460077945402 
930	 0.144831732237389 
931	 0.145128527750514 
932	 0.145415630776988 
933	 0.145702360413765 
934	 0.146068309772865 
935	 0.146530239186975 
936	 0.146890825718198 
937	 0.147220070512462 
938	 0.147567804640338 
939	 0.147963494341436 
940	 0.148387373279665 
941	 0.148772730195397 
942	 0.149121417332949 
943	 0.149483330389753 
944	 0.149959432419743 
945	 0.150407173766125 
946	 0.150798726092423 
947	 0.151161010958194 
948	 0.151466522154913 
949	 0.151903263664868 
950	 0.152428020340203 
951	 0.152894293302915 
952	 0.153325707687238 
953	 0.153798241022349 
954	 0.154250490498474 
955	 0.154601111577768 
956	 0.155111256344103 
957	 0.155582933063733 
958	 0.155992807517743 
959	 0.1564372881351 
960	 0.156928064465244 
961	 0.157458774806095 
962	 0.157992276656204 
963	 0.158490539906767 
964	 0.159025517588166 
965	 0.159532940627934 
966	 0.160018274855553 
967	 0.160529209607509 
968	 0.161022583113142 
969	 0.161494800246172 
970	 0.161970553623744 
971	 0.162483508618413 
972	 0.163018536000651 
973	 0.163605530414384 
974	 0.164117061743557 
975	 0.164430249824995 
976	 0.165044407122705 
977	 0.165686118268129 
978	 0.166215616409644 
979	 0.166654837753285 
980	 0.167144757395042 
981	 0.167714122646707 
982	 0.168272866566976 
983	 0.168743281740735 
984	 0.16949268753272 
985	 0.17005508188159 
986	 0.170455532303863 
987	 0.170987407461572 
988	 0.171590580578318 
989	 0.172163482696076 
990	 0.172707404065866 
991	 0.173271587878587 
992	 0.173827630851229 
993	 0.174413972197247 
994	 0.175048430422384 
995	 0.175684178389889 
996	 0.176068423347263 
997	 0.176682918486383 
998	 0.177337785547897 
999	 0.177769238635983 
1000	 0.178499445095985 
1001	 0.177721689706319 
1002	 0.178206553080452 
1003	 0.178773113389298 
1004	 0.179325451046413 
1005	 0.179886981187401 
1006	 0.180443806190636 
1007	 0.181024053580509 
1008	 0.181593870427553 
1009	 0.182047051929253 
1010	 0.182581325093642 
1011	 0.18312159590192 
1012	 0.183509328086705 
1013	 0.183977184579513 
1014	 0.184513292215222 
1015	 0.184995479577163 
1016	 0.185531706081311 
1017	 0.186042049262129 
1018	 0.186567835819471 
1019	 0.187022488636013 
1020	 0.187505466951746 
1021	 0.18794957579065 
1022	 0.188360121035094 
1023	 0.188820025301676 
1024	 0.189208842887973 
1025	 0.189587225729865 
1026	 0.190018968762326 
1027	 0.190415532200984 
1028	 0.190804760814117 
1029	 0.191168288407294 
1030	 0.191538022361845 
1031	 0.191914884774938 
1032	 0.192286901488236 
1033	 0.192654928631308 
1034	 0.193041449214315 
1035	 0.193384360710535 
1036	 0.193668681299472 
1037	 0.193957143515179 
1038	 0.194295457078291 
1039	 0.194627358733799 
1040	 0.194933926566623 
1041	 0.195257126573506 
1042	 0.19555103217355 
1043	 0.195786449759887 
1044	 0.196044273383534 
1045	 0.196311101194505 
1046	 0.19658700126389 
1047	 0.196861808915688 
1048	 0.19716891472105 
1049	 0.197458208912035 
1050	 0.197714258340196 
1051	 0.19796447240664 
1052	 0.198211679091537 
1053	 0.198506831355799 
1054	 0.198858542451974 
1055	 0.199203668977897 
1056	 0.199534506102109 
1057	 0.199854396122982 
1058	 0.200111430534751 
1059	 0.200465724162859 
1060	 0.200860362996886 
1061	 0.20127010815626 
1062	 0.201665645952836 
1063	 0.202065484788891 
1064	 0.202393589902496 
1065	 0.202714841951209 
1066	 0.20312425384221 
1067	 0.203551189472759 
1068	 0.203954800933668 
1069	 0.204355169250564 
1070	 0.20476482172539 
1071	 0.205141893612224 
1072	 0.205561260385672 
1073	 0.206010040894408 
1074	 0.206472726948677 
1075	 0.206954993871897 
1076	 0.20745488782921 
1077	 0.207915500111838 
1078	 0.208335284565868 
1079	 0.208771717418908 
1080	 0.209231075477738 
1081	 0.209696303474581 
1082	 0.210172166561598 
1083	 0.210591180190995 
1084	 0.210932741048906 
1085	 0.211313835099487 
1086	 0.211663578805973 
1087	 0.212076094786398 
1088	 0.212521472771925 
1089	 0.212991155764651 
1090	 0.213446948168457 
1091	 0.213853178704641 
1092	 0.214219240665133 
1093	 0.214588314109033 
1094	 0.214964718343529 
1095	 0.215339067670606 
1096	 0.215716035442178 
1097	 0.216054394193033 
1098	 0.21635079698362 
1099	 0.216590866945298 
1100	 0.216865052427854 
1101	 0.2171171300086 
1102	 0.21736709865107 
1103	 0.217639542075452 
1104	 0.217893120814485 
1105	 0.218097845701376 
1106	 0.21831595483523 
1107	 0.218531221094406 
1108	 0.218708501238504 
1109	 0.218869998634159 
1110	 0.219020953892579 
1111	 0.21917334251604 
1112	 0.219327018419346 
1113	 0.219458821532609 
1114	 0.219579147928078 
1115	 0.219691975089774 
1116	 0.219790656236308 
1117	 0.219875609701259 
1118	 0.219945175261972 
1119	 0.220032493436829 
1120	 0.220092513020706 
1121	 0.220131330801939 
1122	 0.220202566215968 
1123	 0.22028502302883 
1124	 0.220343832430583 
1125	 0.220407784709417 
1126	 0.220453712009793 
1127	 0.220473013964772 
1128	 0.220496062996609 
1129	 0.220511970846739 
1130	 0.220539512017707 
1131	 0.22056292917051 
1132	 0.220592246891944 
1133	 0.220644747691606 
1134	 0.220675147047438 
1135	 0.220693392476411 
1136	 0.220714962355178 
1137	 0.220730442568957 
1138	 0.220704658662788 
1139	 0.220706397299953 
1140	 0.220705002979454 
1141	 0.220718587348632 
1142	 0.220756287532505 
1143	 0.220770439125602 
1144	 0.220779227019131 
1145	 0.2207871930224 
1146	 0.220773595253523 
1147	 0.220779209956441 
1148	 0.22081138823559 
1149	 0.22081564627552 
1150	 0.220802507975677 
1151	 0.220803986710861 
1152	 0.220796005040868 
1153	 0.220807314303256 
1154	 0.22082154281038 
1155	 0.220857425242707 
1156	 0.220883911857761 
1157	 0.22090077704155 
1158	 0.22093242078395 
1159	 0.220971777748656 
1160	 0.221016695214429 
1161	 0.221059833770292 
1162	 0.221124328986919 
1163	 0.221213479116249 
1164	 0.221291833981634 
1165	 0.221378417849372 
1166	 0.221465118196956 
1167	 0.221542479632693 
1168	 0.221624271464248 
1169	 0.221716231762228 
1170	 0.22182108072724 
1171	 0.221917982671383 
1172	 0.222017432904944 
1173	 0.222115706890288 
1174	 0.222210421350083 
1175	 0.222310290379047 
1176	 0.22240577827549 
1177	 0.222516350606411 
1178	 0.222631829118018 
1179	 0.222757726481153 
1180	 0.222907225214282 
1181	 0.223043595300645 
1182	 0.223182465239399 
1183	 0.223319984074079 
1184	 0.223442625417352 
1185	 0.223545501737717 
1186	 0.223673761087151 
1187	 0.223803444606489 
1188	 0.223934718121437 
1189	 0.224087130928864 
1190	 0.224220648997143 
1191	 0.224337419364784 
1192	 0.224465017232093 
1193	 0.224603776940367 
1194	 0.224723169521165 
1195	 0.224831224253346 
1196	 0.224947215647385 
1197	 0.225065650885178 
1198	 0.225166831290582 
1199	 0.225261693359951 
1200	 0.225350829263762 
1201	 0.225457299862543 
1202	 0.225549353042479 
1203	 0.225664549137382 
1204	 0.225815596451187 
1205	 0.225940506653552 
1206	 0.226059127993084 
1207	 0.226174243695096 
1208	 0.226284546471452 
1209	 0.22639370385935 
1210	 0.226497771563074 
1211	 0.226601278497825 
1212	 0.226710601919647 
1213	 0.22680722633537 
1214	 0.226888591337251 
1215	 0.22697823953716 
1216	 0.227067533333687 
1217	 0.227156315182606 
1218	 0.227232762564154 
1219	 0.227308727558629 
1220	 0.227382004164597 
1221	 0.227435426142101 
1222	 0.227508017221237 
1223	 0.22759488773808 
1224	 0.227674136614758 
1225	 0.227751259139621 
1226	 0.22783400541469 
1227	 0.22792523196248 
1228	 0.228005425083078 
1229	 0.228085609866744 
1230	 0.2281621817492 
1231	 0.22822210968015 
1232	 0.228292394137692 
1233	 0.228366572956659 
1234	 0.228450209309946 
1235	 0.228517793839264 
1236	 0.228590357197683 
1237	 0.228644120411841 
1238	 0.228675650429061 
1239	 0.228720544553573 
1240	 0.228756131433386 
1241	 0.228805139267896 
1242	 0.228861591797279 
1243	 0.228922765730892 
1244	 0.228988441125164 
1245	 0.229061363834085 
1246	 0.22915478674043 
1247	 0.229229903325693 
1248	 0.229310553221821 
1249	 0.229375418503186 
1250	 0.229405908360112 
1251	 0.229450509473242 
1252	 0.2295062771395 
1253	 0.229567077526473 
1254	 0.229621921331272 
1255	 0.22969358361489 
1256	 0.229742740956125 
1257	 0.229769562250877 
1258	 0.229810150675183 
1259	 0.229851713649117 
1260	 0.229893283448969 
1261	 0.229948083571968 
1262	 0.22998198816333 
1263	 0.229990913132406 
1264	 0.230022018418629 
1265	 0.230063447419202 
1266	 0.230087684683842 
1267	 0.230113861985115 
1268	 0.230144825792929 
1269	 0.230162533771609 
1270	 0.230150245246306 
1271	 0.230170584040163 
1272	 0.230209266991832 
1273	 0.230234978612042 
1274	 0.230269995781005 
1275	 0.230291685896371 
1276	 0.230299686208757 
1277	 0.230313626674608 
1278	 0.230326758878218 
1279	 0.230335934771964 
1280	 0.230332166998367 
1281	 0.230348928264966 
1282	 0.230380259609788 
1283	 0.230400110589174 
1284	 0.230399979447464 
1285	 0.230447881812358 
1286	 0.230506361206736 
1287	 0.230572311728199 
1288	 0.230667667960361 
1289	 0.230809343969655 
1290	 0.230942622831357 
1291	 0.231072922128207 
1292	 0.231234839507535 
1293	 0.231422150249014 
1294	 0.231619099403897 
1295	 0.231839433483801 
1296	 0.232059301307183 
1297	 0.232288500575364 
1298	 0.232528112813752 
1299	 0.2327735950999 
1300	 0.233029861784097 
1301	 0.233307464774378 
1302	 0.233578601803898 
1303	 0.233857145284277 
1304	 0.234127771353296 
1305	 0.234400749174873 
1306	 0.234661640318841 
1307	 0.234921241770969 
1308	 0.235170848710641 
1309	 0.235413074375927 
1310	 0.235659957302005 
1311	 0.235870158353259 
1312	 0.236064675865352 
1313	 0.236235922331882 
1314	 0.236357130949966 
1315	 0.236505923457001 
1316	 0.23667043011969 
1317	 0.236795288915941 
1318	 0.236931540214242 
1319	 0.237017022157109 
1320	 0.237053197581031 
1321	 0.237076836373068 
1322	 0.237077861675059 
1323	 0.23705164897916 
1324	 0.237010015662603 
1325	 0.236956474595586 
1326	 0.236888308015026 
1327	 0.236792665565832 
1328	 0.236671643057659 
1329	 0.236529272753365 
1330	 0.236375567348637 
1331	 0.23620296014636 
1332	 0.236016129401392 
1333	 0.235829303433588 
1334	 0.235596196980127 
1335	 0.235332575658068 
1336	 0.235055309136322 
1337	 0.234732292503399 
1338	 0.234427953850869 
1339	 0.234126001359588 
1340	 0.233807557144841 
1341	 0.233487123304173 
1342	 0.233156969374804 
1343	 0.232811333914423 
1344	 0.232459742073703 
1345	 0.232106633522837 
1346	 0.231753331966969 
1347	 0.23140113173382 
1348	 0.231037173904655 
1349	 0.230668626230099 
1350	 0.230283886927528 
1351	 0.229898275920157 
1352	 0.229501420561494 
1353	 0.229105315567731 
1354	 0.228703679418801 
1355	 0.228309029298925 
1356	 0.227896324458564 
1357	 0.227519394953301 
1358	 0.227153037671367 
1359	 0.22680664712595 
1360	 0.226475485592246 
1361	 0.226172190855495 
1362	 0.225889966239764 
1363	 0.225628542445733 
1364	 0.225399942221256 
1365	 0.225179979043295 
1366	 0.224985831126577 
1367	 0.224785205674218 
1368	 0.224594645421419 
1369	 0.224404253884859 
1370	 0.224183458392017 
1371	 0.223965792739694 
1372	 0.22373024745716 
1373	 0.223472294206296 
1374	 0.223186764630145 
1375	 0.222884935164854 
1376	 0.22254251580927 
1377	 0.222168242001335 
1378	 0.221762957108544 
1379	 0.221298310257744 
1380	 0.220871608165318 
1381	 0.220408687006489 
1382	 0.219996110696694 
1383	 0.219633984920144 
1384	 0.219249918069619 
1385	 0.218898362619661 
1386	 0.218507677079768 
1387	 0.218121344570987 
1388	 0.21768512798081 
1389	 0.217223068714426 
1390	 0.21672347075171 
1391	 0.216160458804314 
1392	 0.215548612482578 
1393	 0.214895989556009 
1394	 0.214209757433484 
1395	 0.213507970414258 
1396	 0.212796175102094 
1397	 0.212071831920894 
1398	 0.211337945598357 
1399	 0.210573931331823 
1400	 0.209797360425157 
1401	 0.208988131173358 
1402	 0.208139301093327 
1403	 0.20730003818263 
1404	 0.206440565656179 
1405	 0.205586454264276 
1406	 0.204739566178417 
1407	 0.203867346854568 
1408	 0.202959477278309 
1409	 0.202088815893205 
1410	 0.201205353834012 
1411	 0.200362059750352 
1412	 0.199544542545357 
1413	 0.198756864648041 
1414	 0.198020884560862 
1415	 0.197284297513197 
1416	 0.196560449356402 
1417	 0.195866209945812 
1418	 0.195161660806267 
1419	 0.19449174090335 
1420	 0.193885848868546 
1421	 0.19332531779733 
1422	 0.192782732738174 
1423	 0.192252215258943 
1424	 0.191727825732318 
1425	 0.191196115336435 
1426	 0.19070694881863 
1427	 0.190236317508617 
1428	 0.189797672969506 
1429	 0.189406468134274 
1430	 0.189007527419537 
1431	 0.188630097617333 
1432	 0.18824523404954 
1433	 0.18785343661705 
1434	 0.187482850166001 
1435	 0.187117181839387 
1436	 0.18676808950752 
1437	 0.186444969988986 
1438	 0.186114430141447 
1439	 0.185788098730384 
1440	 0.185469716631728 
1441	 0.185143204424964 
1442	 0.184822971719474 
1443	 0.18449962400353 
1444	 0.184188152787008 
1445	 0.183916358882581 
1446	 0.183666648632292 
1447	 0.183433439046214 
1448	 0.183241582276997 
1449	 0.183080028335787 
1450	 0.182956352068992 
1451	 0.182893771118554 
1452	 0.182891886429184 
1453	 0.182925688778054 
1454	 0.183013111276825 
1455	 0.183120442135162 
1456	 0.183283596972833 
1457	 0.183437569735428 
1458	 0.183616856856228 
1459	 0.18379450834773 
1460	 0.183985513125628 
1461	 0.184162479254961 
1462	 0.184356885477971 
1463	 0.184515174294584 
1464	 0.184660338624165 
1465	 0.184781380904996 
1466	 0.184864440515208 
1467	 0.184953326856277 
1468	 0.185010044778531 
1469	 0.185090787690102 
1470	 0.185193462609483 
1471	 0.18528353757785 
1472	 0.185351945061269 
1473	 0.185425341408535 
1474	 0.185467616478125 
1475	 0.185500714390728 
1476	 0.185544787281243 
1477	 0.185596166329218 
1478	 0.185659596576684 
1479	 0.185742074467397 
1480	 0.185850387535683 
1481	 0.185961892616125 
1482	 0.186065756143914 
1483	 0.186176082101524 
1484	 0.186275441634789 
1485	 0.186366122643748 
1486	 0.186456796393044 
1487	 0.186544293702323 
1488	 0.186629795847586 
1489	 0.186707124076853 
1490	 0.186799495939455 
1491	 0.186897946145329 
1492	 0.186993518745909 
1493	 0.187097840564645 
1494	 0.187192328348363 
1495	 0.187279390631349 
1496	 0.187371140588231 
1497	 0.187468036082679 
1498	 0.187554743780789 
1499	 0.187640942395959 
1500	 0.187717595021384 
1501	 0.187767894036688 
1502	 0.187843904832305 
1503	 0.18793136948205 
1504	 0.188016594067465 
1505	 0.188107018725377 
1506	 0.188190330871693 
1507	 0.18824927489726 
1508	 0.188309474934808 
1509	 0.18836711187533 
1510	 0.188428929846995 
1511	 0.188499136644839 
1512	 0.188567171132662 
1513	 0.188646425434772 
1514	 0.188716829235565 
1515	 0.188768677101277 
1516	 0.188829677434942 
1517	 0.188901864982026 
1518	 0.18898294867408 
1519	 0.189052916699043 
1520	 0.189137867638616 
1521	 0.1891907108438 
1522	 0.189212788747884 
1523	 0.189256842876083 
1524	 0.189294388755543 
1525	 0.189347597412857 
1526	 0.189418072744849 
1527	 0.189473386599015 
1528	 0.189529657522659 
1529	 0.189580731322913 
1530	 0.189624451164977 
1531	 0.189671511227853 
1532	 0.189718616730729 
1533	 0.189763870592552 
1534	 0.189803396894909 
1535	 0.189848509594623 
1536	 0.189901866740986 
1537	 0.189944278122212 
1538	 0.189983442576175 
1539	 0.190023592076436 
1540	 0.190054777945776 
1541	 0.19009181748059 
1542	 0.190132359256519 
1543	 0.190173599843097 
1544	 0.190219856554949 
1545	 0.190257031936873 
1546	 0.190284842013243 
1547	 0.190330874437726 
1548	 0.190361664573534 
1549	 0.190380313084797 
1550	 0.190408102316462 
1551	 0.190424745593318 
1552	 0.190449301171383 
1553	 0.19048887279231 
1554	 0.190506011508362 
1555	 0.190513835899974 
1556	 0.1905217494722 
1557	 0.190527468094437 
1558	 0.190554095943948 
1559	 0.190581282090197 
1560	 0.190599850913963 
1561	 0.190611507751771 
1562	 0.190632254644825 
1563	 0.190647150418836 
1564	 0.190682053229906 
1565	 0.190741423074701 
1566	 0.190767394186888 
1567	 0.190790075485455 
1568	 0.190803094826584 
1569	 0.190793044476581 
1570	 0.190789871382287 
1571	 0.190783908122532 
1572	 0.190788994303137 
1573	 0.190802072582036 
1574	 0.190797099628519 
1575	 0.190788384232159 
1576	 0.19078680526019 
1577	 0.190768268537867 
1578	 0.190763657479192 
1579	 0.19078479504326 
1580	 0.190787039375338 
1581	 0.190776317633193 
1582	 0.190773348907043 
1583	 0.190774708518173 
1584	 0.190762770220135 
1585	 0.190747045591286 
1586	 0.190732002963517 
1587	 0.190707323678356 
1588	 0.190685880814269 
1589	 0.190667132415187 
1590	 0.190644565030058 
1591	 0.190619046318801 
1592	 0.190593266248806 
1593	 0.190575607959383 
1594	 0.190542321574978 
1595	 0.190495522932511 
1596	 0.190450364870461 
1597	 0.190391598987042 
1598	 0.190341745949813 
1599	 0.190298112697495 
1600	 0.190254380189057 
1601	 0.190211865856355 
1602	 0.190174264355926 
1603	 0.190144015260288 
1604	 0.190107421812225 
1605	 0.190076303253333 
1606	 0.190033154648648 
1607	 0.189978351541694 
1608	 0.18991909738345 
1609	 0.189872609214961 
1610	 0.189824253529063 
1611	 0.189773128963831 
1612	 0.189729548074598 
1613	 0.189670038026921 
1614	 0.189601798980336 
1615	 0.189542465793534 
1616	 0.189473417277786 
1617	 0.189413416477661 
1618	 0.189356629683808 
1619	 0.189291072845971 
1620	 0.189222762650627 
1621	 0.189138973736258 
1622	 0.189037735785802 
1623	 0.188945655149257 
1624	 0.188846611322487 
1625	 0.188754968823175 
1626	 0.188665386661463 
1627	 0.188578989607171 
1628	 0.188492930780172 
1629	 0.188415276723337 
1630	 0.18834667600187 
1631	 0.18827178019729 
1632	 0.188201063882892 
1633	 0.188123746125255 
1634	 0.188036987423157 
1635	 0.1879645535785 
1636	 0.187904677669787 
1637	 0.187821508796487 
1638	 0.187735745037961 
1639	 0.187643482171303 
1640	 0.187530215464983 
1641	 0.187429853218057 
1642	 0.187335953725328 
1643	 0.187240331400106 
1644	 0.187142059460708 
1645	 0.187044623506445 
1646	 0.186949370870594 
1647	 0.186856127317434 
1648	 0.186762570629845 
1649	 0.18666868287555 
1650	 0.186582386115406 
1651	 0.186483445030048 
1652	 0.186369942698087 
1653	 0.186274321961551 
1654	 0.186175113855776 
1655	 0.186093464875345 
1656	 0.186047410494499 
1657	 0.185955625559978 
1658	 0.185848151028425 
1659	 0.185744652493298 
1660	 0.185609108705785 
1661	 0.185502679871126 
1662	 0.185422003705163 
1663	 0.185323663378559 
1664	 0.185219970662664 
1665	 0.185122345345639 
1666	 0.185017470682746 
1667	 0.184928275757622 
1668	 0.18485805337031 
1669	 0.184770785245667 
1670	 0.184677136761494 
1671	 0.184596397029315 
1672	 0.184502299587809 
1673	 0.184438755011663 
1674	 0.184416658116877 
1675	 0.184358096066286 
1676	 0.184314988860224 
1677	 0.184224605556699 
1678	 0.184074308314657 
1679	 0.183971592626542 
1680	 0.183868881803075 
1681	 0.183765471842941 
1682	 0.183689474915164 
1683	 0.183593793164323 
1684	 0.183470892313519 
1685	 0.183369018863012 
1686	 0.183278728232127 
1687	 0.183186186206511 
1688	 0.183101315989158 
1689	 0.183006585561009 
1690	 0.182909003495784 
1691	 0.18281222794523 
1692	 0.182708677015839 
1693	 0.182607637617565 
1694	 0.182509139499253 
1695	 0.182410088233248 
1696	 0.182304916355248 
1697	 0.182213856093533 
1698	 0.182130604551249 
1699	 0.182047494585989 
1700	 0.181978786654794 
1701	 0.181893234385658 
1702	 0.181797144445135 
1703	 0.181709621437863 
1704	 0.181624877123381 
1705	 0.181524972850731 
1706	 0.18141395527646 
1707	 0.181323045149559 
1708	 0.181225081057144 
1709	 0.18114037188011 
1710	 0.181089989645807 
1711	 0.181009049192671 
1712	 0.180910786729445 
1713	 0.180820115514616 
1714	 0.180714464496701 
1715	 0.180633710763895 
1716	 0.180570843731718 
1717	 0.180498944620787 
1718	 0.180445156686479 
1719	 0.180362846093392 
1720	 0.180267475235714 
1721	 0.180160567056334 
1722	 0.180026953071713 
1723	 0.179918272999167 
1724	 0.179812033446856 
1725	 0.179700627739197 
1726	 0.17960894354956 
1727	 0.179490008299888 
1728	 0.179326735440473 
1729	 0.179226321665323 
1730	 0.179147162825919 
1731	 0.179069374011271 
1732	 0.179033122538648 
1733	 0.178963343016144 
1734	 0.17888013038741 
1735	 0.178789876166794 
1736	 0.178705061068138 
1737	 0.178594964349514 
1738	 0.178441501170965 
1739	 0.178336413274647 
1740	 0.178235206643711 
1741	 0.178143231301571 
1742	 0.178077659643196 
1743	 0.178020856476322 
1744	 0.177971435733321 
1745	 0.177914029614285 
1746	 0.177883693957031 
1747	 0.177811084169432 
1748	 0.177722221176863 
1749	 0.17763227664894 
1750	 0.177529479543392 
1751	 0.177438018738456 
1752	 0.177344622454588 
1753	 0.177257276487964 
1754	 0.177189730556531 
1755	 0.17712172562627 
1756	 0.17703962091729 
1757	 0.176957705075903 
1758	 0.176870928833753 
1759	 0.176784009893581 
1760	 0.176711695128325 
1761	 0.176647253106535 
1762	 0.176593113005185 
1763	 0.176524079046514 
1764	 0.176434411301291 
1765	 0.17635884690013 
1766	 0.176304082562668 
1767	 0.176249967791373 
1768	 0.176205864190404 
1769	 0.176152027837718 
1770	 0.17606793999749 
1771	 0.176000074838664 
1772	 0.175939027667035 
1773	 0.175872632311955 
1774	 0.175801798180027 
1775	 0.175717338869579 
1776	 0.175632494311609 
1777	 0.175545756315131 
1778	 0.175451300027034 
1779	 0.175362625928356 
1780	 0.175301449148783 
1781	 0.175255059714854 
1782	 0.17523632913378 
1783	 0.175233150625443 
1784	 0.175213101387097 
1785	 0.175211885764144 
1786	 0.175169840269616 
1787	 0.175094778895825 
1788	 0.175027955103987 
1789	 0.174917990092781 
1790	 0.174861257982286 
1791	 0.174849551713257 
1792	 0.174802030046944 
1793	 0.174754229846064 
1794	 0.174714397582473 
1795	 0.174660380551339 
1796	 0.174621027174125 
1797	 0.174612738545798 
1798	 0.174584500267216 
1799	 0.174537725080365 
1800	 0.174497733525261 
1801	 0.170462968138139 
1802	 0.170592511662578 
1803	 0.170711231550134 
1804	 0.170866813537452 
1805	 0.171005613985805 
1806	 0.171122062941642 
1807	 0.171263997088013 
1808	 0.171374900504008 
1809	 0.171471751285388 
1810	 0.171546167215541 
1811	 0.171601590126866 
1812	 0.171646263717452 
1813	 0.171691198961979 
1814	 0.171732291551788 
1815	 0.171783742317827 
1816	 0.171835927857426 
1817	 0.17186182739708 
1818	 0.171852430912175 
1819	 0.171861976397081 
1820	 0.171876592934942 
1821	 0.171871185311234 
1822	 0.171858600706994 
1823	 0.171866617816203 
1824	 0.171864056571601 
1825	 0.171843740949761 
1826	 0.171849690954537 
1827	 0.171854910249651 
1828	 0.171853286306393 
1829	 0.171864278445909 
1830	 0.171858358212915 
1831	 0.171847432662478 
1832	 0.171820784145736 
1833	 0.171752101181842 
1834	 0.171669014138926 
1835	 0.171606115485706 
1836	 0.171519750348062 
1837	 0.171472222419149 
1838	 0.171479783289935 
1839	 0.171473459920026 
1840	 0.171466270764911 
1841	 0.171474269905564 
1842	 0.171514597995909 
1843	 0.171518013489189 
1844	 0.171497498699786 
1845	 0.171499642552305 
1846	 0.171497188066985 
1847	 0.171483670170502 
1848	 0.171478955888103 
1849	 0.171484951587157 
1850	 0.171480019676195 
1851	 0.171466262086032 
1852	 0.171443862084232 
1853	 0.171429452478114 
1854	 0.171381702427008 
1855	 0.171303793354656 
1856	 0.171235971468595 
1857	 0.17115268466996 
1858	 0.171050652903266 
1859	 0.170949827892815 
1860	 0.170827361995184 
1861	 0.170683984823789 
1862	 0.170525008115487 
1863	 0.170338492658572 
1864	 0.170116429032581 
1865	 0.169870632926463 
1866	 0.169557058381814 
1867	 0.169247537810146 
1868	 0.16892917125887 
1869	 0.168584175104275 
1870	 0.168260380632258 
1871	 0.167938701003351 
1872	 0.16761672456827 
1873	 0.167305970972431 
1874	 0.1669934727231 
1875	 0.166695311562558 
1876	 0.166380577099902 
1877	 0.166065090381189 
1878	 0.165751651925149 
1879	 0.165365139399236 
1880	 0.164914220786743 
1881	 0.164419592984071 
1882	 0.163854376055772 
1883	 0.163209546103942 
1884	 0.162516438072617 
1885	 0.161802005074256 
1886	 0.161027018377623 
1887	 0.160219756130684 
1888	 0.159414444843188 
1889	 0.158545027882677 
1890	 0.157640049026617 
1891	 0.156704496309853 
1892	 0.155730644610471 
1893	 0.154708919901191 
1894	 0.153650428222126 
1895	 0.152552252125844 
1896	 0.151403881533764 
1897	 0.150232631080484 
1898	 0.149036998465511 
1899	 0.147823931265117 
1900	 0.146616690823072 
1901	 0.145426887331864 
1902	 0.144287915376907 
1903	 0.143191819169003 
1904	 0.142118881549774 
1905	 0.141083187184182 
1906	 0.140086700721078 
1907	 0.139100112837197 
1908	 0.138164324193079 
1909	 0.137256996682568 
1910	 0.136348866719812 
1911	 0.135469359577448 
1912	 0.134604743963248 
1913	 0.133781900934787 
1914	 0.132983537629046 
1915	 0.132239186779765 
1916	 0.131538702653239 
1917	 0.130865531283948 
1918	 0.130243251650004 
1919	 0.129634735700566 
1920	 0.129063393068875 
1921	 0.128562752184726 
1922	 0.128087265621823 
1923	 0.127655060098214 
1924	 0.127243337723838 
1925	 0.126867267118281 
1926	 0.126500196675963 
1927	 0.126151646080517 
1928	 0.125824597638283 
1929	 0.125539444122941 
1930	 0.125264074202186 
1931	 0.125008467237205 
1932	 0.124809934446014 
1933	 0.124619322521204 
1934	 0.124428802973719 
1935	 0.124260328076316 
1936	 0.124112938117698 
1937	 0.12397465499112 
1938	 0.123843794639922 
1939	 0.123740900282032 
1940	 0.123652113638617 
1941	 0.12358511302637 
1942	 0.123572664734329 
1943	 0.123577600696175 
1944	 0.123590807967821 
1945	 0.123659043074208 
1946	 0.123738440116923 
1947	 0.123825377950603 
1948	 0.123945092990898 
1949	 0.124116713530629 
1950	 0.124271665931372 
1951	 0.124439295825471 
1952	 0.12461233436384 
1953	 0.124768813908716 
1954	 0.12494937975857 
1955	 0.125128628538328 
1956	 0.12529470967452 
1957	 0.12546969472876 
1958	 0.125643745709041 
1959	 0.125834681949087 
1960	 0.126037317610057 
1961	 0.126232709594782 
1962	 0.126451876086793 
1963	 0.126646875415618 
1964	 0.126822872444465 
1965	 0.127006055338421 
1966	 0.127184046565329 
1967	 0.127317094592077 
1968	 0.127460746879227 
1969	 0.127585289111326 
1970	 0.127730717800679 
1971	 0.127873012834877 
1972	 0.12803384153808 
1973	 0.128207750869528 
1974	 0.128381317430354 
1975	 0.128561970591539 
1976	 0.128753794274812 
1977	 0.128942630620772 
1978	 0.129145691291233 
1979	 0.129324414377313 
1980	 0.129507691394534 
1981	 0.129701631188688 
1982	 0.129894613937622 
1983	 0.130085373401245 
1984	 0.130290805245276 
1985	 0.130490847136992 
1986	 0.130681111089269 
1987	 0.130873691961542 
1988	 0.131075081578005 
1989	 0.131271121609306 
1990	 0.131449669931852 
1991	 0.131636069106341 
1992	 0.131825371090675 
1993	 0.13201192584296 
1994	 0.132210744795765 
1995	 0.132425248102814 
1996	 0.132623195505655 
1997	 0.132824677397419 
1998	 0.133018688834568 
1999	 0.133189871017154 
2000	 0.133379108295737 
2001	 0.133572698835098 
2002	 0.133770246339433 
2003	 0.133987998496856 
2004	 0.134224482636037 
2005	 0.134435498485858 
2006	 0.134648064237118 
2007	 0.134856364976214 
2008	 0.135038036900865 
2009	 0.135241626683779 
2010	 0.135461271956354 
2011	 0.135676783432548 
2012	 0.135892744414846 
2013	 0.136111197994319 
2014	 0.136332057141542 
2015	 0.136557820998123 
2016	 0.136781314989486 
2017	 0.137008563777717 
2018	 0.137223244577586 
2019	 0.137420785580259 
2020	 0.137643578794088 
2021	 0.137885661565152 
2022	 0.138099339196414 
2023	 0.138311885512944 
2024	 0.1385230340637 
2025	 0.138703405777185 
2026	 0.138899690997348 
2027	 0.139099288728008 
2028	 0.139331202080578 
2029	 0.139541541020461 
2030	 0.139742464921336 
2031	 0.139952305841156 
2032	 0.140171266339331 
2033	 0.140373903859229 
2034	 0.140570336051414 
2035	 0.140770610268779 
2036	 0.140968444496841 
2037	 0.141158520606687 
2038	 0.141353567458407 
2039	 0.141535867083341 
2040	 0.141696478713323 
2041	 0.141860477028597 
2042	 0.142050364524305 
2043	 0.142222983369419 
2044	 0.142411923413169 
2045	 0.142623749077691 
2046	 0.142813825809186 
2047	 0.143000657182707 
2048	 0.143182812068348 
2049	 0.143347683413035 
2050	 0.143525257704574 
2051	 0.143714172049475 
2052	 0.143887438012271 
2053	 0.144054438309815 
2054	 0.144228011434111 
2055	 0.144399630227916 
2056	 0.144556405353491 
2057	 0.144727632111845 
2058	 0.144911261111026 
2059	 0.145085184262753 
2060	 0.145258343266714 
2061	 0.145428024787334 
2062	 0.145600006894041 
2063	 0.145762840454438 
2064	 0.14591368376458 
2065	 0.146070202262341 
2066	 0.146215468697017 
2067	 0.146374794828898 
2068	 0.146542377850983 
2069	 0.146723143703837 
2070	 0.146879200714446 
2071	 0.147036301498267 
2072	 0.147181451397212 
2073	 0.147299290301608 
2074	 0.147438228603947 
2075	 0.14758233615244 
2076	 0.147729323785762 
2077	 0.147877677309391 
2078	 0.14803589501841 
2079	 0.148208687233237 
2080	 0.14836933527767 
2081	 0.148541725663221 
2082	 0.148695285177982 
2083	 0.148832763235903 
2084	 0.148966784419318 
2085	 0.149094784718651 
2086	 0.149205005963422 
2087	 0.149335318650923 
2088	 0.149468733883114 
2089	 0.149605874496316 
2090	 0.149748606842811 
2091	 0.149899237136138 
2092	 0.150065213346379 
2093	 0.150210985853644 
2094	 0.150360402745489 
2095	 0.150501369088591 
2096	 0.150624525714038 
2097	 0.150746735680098 
2098	 0.150868145909362 
2099	 0.150983915720127 
2100	 0.151102371517131 
2101	 0.15121300244994 
2102	 0.151328796189631 
2103	 0.151439279995965 
2104	 0.151574421021596 
2105	 0.151716488433576 
2106	 0.151866703942378 
2107	 0.152048250948447 
2108	 0.152210625415477 
2109	 0.152376582613856 
2110	 0.152526357769177 
2111	 0.152651901578403 
2112	 0.15279674813626 
2113	 0.152953902355293 
2114	 0.153087263565352 
2115	 0.15322609728143 
2116	 0.153373845627764 
2117	 0.153518708477961 
2118	 0.153653957978451 
2119	 0.153790642659062 
2120	 0.153948630926878 
2121	 0.154072855052818 
2122	 0.154159652265475 
2123	 0.154273550353864 
2124	 0.154382828718324 
2125	 0.154501487468814 
2126	 0.154659835855353 
2127	 0.154775759035188 
2128	 0.154867163978887 
2129	 0.154960441105542 
2130	 0.155027081322658 
2131	 0.155101559854067 
2132	 0.155174293843407 
2133	 0.155254390873006 
2134	 0.155322473143481 
2135	 0.155382325167119 
2136	 0.155440665119609 
2137	 0.155501588463239 
2138	 0.155546872142722 
2139	 0.155588017192088 
2140	 0.155615233361682 
2141	 0.155619312723617 
2142	 0.155631275089739 
2143	 0.155637992196986 
2144	 0.155641314828763 
2145	 0.155659187153478 
2146	 0.155652389427824 
2147	 0.155624701358032 
2148	 0.155587874693319 
2149	 0.155568675207712 
2150	 0.155546412974204 
2151	 0.15551945888813 
2152	 0.155507284416923 
2153	 0.155479796703719 
2154	 0.155436528210643 
2155	 0.155388367740068 
2156	 0.155345314488939 
2157	 0.155286697592252 
2158	 0.155197737105562 
2159	 0.155128830730475 
2160	 0.155064363858438 
2161	 0.154997707485825 
2162	 0.154947826124594 
2163	 0.154880497046032 
2164	 0.154802899401316 
2165	 0.154715170586152 
2166	 0.154637022797926 
2167	 0.154551882428261 
2168	 0.154473682037529 
2169	 0.154413957256911 
2170	 0.154322469485855 
2171	 0.154217036515876 
2172	 0.154109426092127 
2173	 0.153979086236123 
2174	 0.153864752947662 
2175	 0.153741212268451 
2176	 0.153644435860237 
2177	 0.153581348519584 
2178	 0.15348856716159 
2179	 0.15339768260971 
2180	 0.153305244056272 
2181	 0.153191256849833 
2182	 0.153079818172592 
2183	 0.152974004812525 
2184	 0.152874322638787 
2185	 0.15276565245872 
2186	 0.152648251189519 
2187	 0.152530681478751 
2188	 0.152401426841455 
2189	 0.152299736873961 
2190	 0.152207751098175 
2191	 0.152107736218688 
2192	 0.152031766870615 
2193	 0.151935297675523 
2194	 0.151811297447789 
2195	 0.151708736029925 
2196	 0.151608149851084 
2197	 0.151520859693611 
2198	 0.151433667222483 
2199	 0.151365582019919 
2200	 0.151328178115142 
2201	 0.151279490814437 
2202	 0.151217051468202 
2203	 0.151201616175897 
2204	 0.151168669704371 
2205	 0.151136860737811 
2206	 0.151088356242651 
2207	 0.151022685682035 
2208	 0.151003130411489 
2209	 0.150989749977613 
2210	 0.150981217344799 
2211	 0.151026110616129 
2212	 0.151027909112387 
2213	 0.150993066373463 
2214	 0.150980104014396 
2215	 0.150966456940611 
2216	 0.150962328244052 
2217	 0.150972961126627 
2218	 0.150969535971313 
2219	 0.150954694012451 
2220	 0.150959720193261 
2221	 0.150960614859919 
2222	 0.150981751348558 
2223	 0.15100139870891 
2224	 0.151031353501775 
2225	 0.151046575625213 
2226	 0.151041326797968 
2227	 0.151057419761632 
2228	 0.151078047485519 
2229	 0.151110504198622 
2230	 0.151168965827243 
2231	 0.151190382966349 
2232	 0.151204753976865 
2233	 0.151216082437537 
2234	 0.151194261464674 
2235	 0.151198253689913 
2236	 0.151228716907646 
2237	 0.15123349326863 
2238	 0.151234661248375 
2239	 0.151225264505069 
2240	 0.151209314933441 
2241	 0.151175005666201 
2242	 0.151093112127369 
2243	 0.151060787939839 
2244	 0.151046201623358 
2245	 0.15103202082768 
2246	 0.151023547741272 
2247	 0.151017907854201 
2248	 0.150980159586143 
2249	 0.150887325672272 
2250	 0.15084916490159 
2251	 0.150835251539562 
2252	 0.150794462962554 
2253	 0.150766329334897 
2254	 0.150709709606221 
2255	 0.150613546617026 
2256	 0.150550250623431 
2257	 0.150491079795435 
2258	 0.150432883190712 
2259	 0.150386459644843 
2260	 0.150339592408411 
2261	 0.150288969216431 
2262	 0.150242759109633 
2263	 0.150203550624909 
2264	 0.150165772244013 
2265	 0.150130305422772 
2266	 0.150094575180127 
2267	 0.150053870041926 
2268	 0.150029497761702 
2269	 0.150027210215192 
2270	 0.150005488710174 
2271	 0.14997382248496 
2272	 0.149920376384034 
2273	 0.149829369588778 
2274	 0.149766948787969 
2275	 0.149727020252628 
2276	 0.149722570471076 
2277	 0.149681462615363 
2278	 0.149642001343483 
2279	 0.149600156190964 
2280	 0.149543096561721 
2281	 0.149489723666607 
2282	 0.149453785308403 
2283	 0.14939739976385 
2284	 0.149320438153818 
2285	 0.149243016398261 
2286	 0.149163455324698 
2287	 0.14906660691158 
2288	 0.148930354588837 
2289	 0.148844281623968 
2290	 0.148791586299185 
2291	 0.148715812008931 
2292	 0.148674580904542 
2293	 0.148594480123566 
2294	 0.148437532241573 
2295	 0.148337019367142 
2296	 0.148261328269355 
2297	 0.148182326752281 
2298	 0.148117455133788 
2299	 0.148060507323782 
2300	 0.1479631068817 
2301	 0.147847145429308 
2302	 0.147754576103451 
2303	 0.147657358744432 
2304	 0.147518834401737 
2305	 0.147404474713175 
2306	 0.147289758242531 
2307	 0.147163068143543 
2308	 0.147034920354596 
2309	 0.146930798248602 
2310	 0.146786587963797 
2311	 0.146612345421887 
2312	 0.146439843925265 
2313	 0.146241705944865 
2314	 0.146081967436869 
2315	 0.145932717760579 
2316	 0.145765635365259 
2317	 0.145623650696197 
2318	 0.145463457359805 
2319	 0.145237509556968 
2320	 0.145100805461815 
2321	 0.145043170272535 
2322	 0.144923575528877 
2323	 0.144821557772771 
2324	 0.144704254047273 
2325	 0.14452858967018 
2326	 0.144376276084251 
2327	 0.14422999143025 
2328	 0.144122430866554 
2329	 0.143980567889742 
2330	 0.143814079863328 
2331	 0.14367492683138 
2332	 0.143541983693709 
2333	 0.14336073920931 
2334	 0.1432070711672 
2335	 0.143054168590608 
2336	 0.142846966537621 
2337	 0.142704253805023 
2338	 0.142595566949023 
2339	 0.142451074288878 
2340	 0.142301006340426 
2341	 0.142100885184244 
2342	 0.141848311771379 
2343	 0.141640511581468 
2344	 0.14143299684735 
2345	 0.141215816410739 
2346	 0.141015318435192 
2347	 0.140814513843637 
2348	 0.140589033832556 
2349	 0.140401489530509 
2350	 0.140276196835467 
2351	 0.140072072694759 
2352	 0.139826925492422 
2353	 0.139584824873038 
2354	 0.139302087143049 
2355	 0.139053684788516 
2356	 0.138830196907281 
2357	 0.138591186229653 
2358	 0.138340025279585 
2359	 0.138089337123413 
2360	 0.137850164043986 
2361	 0.137597611153609 
2362	 0.137345057165861 
2363	 0.137078756276631 
2364	 0.136770083877126 
2365	 0.136513133373583 
2366	 0.136294331536847 
2367	 0.136038139338261 
2368	 0.135796961611747 
2369	 0.135504785881094 
2370	 0.135116362630666 
2371	 0.134848727184579 
2372	 0.134569429268494 
2373	 0.134368920272538 
2374	 0.134272921812387 
2375	 0.134030123742008 
2376	 0.133713315476623 
2377	 0.1334299507683 
2378	 0.133060092840006 
2379	 0.132711140919478 
2380	 0.132415481821806 
2381	 0.132120123236553 
2382	 0.131875322884524 
2383	 0.131604162908188 
2384	 0.131382500304766 
2385	 0.131171383416169 
2386	 0.130843676643006 
2387	 0.1306044775295 
2388	 0.130444885480827 
2389	 0.130230173738806 
2390	 0.130060289299956 
2391	 0.129867171917344 
2392	 0.129585290681623 
2393	 0.129358236246528 
2394	 0.129136929714898 
2395	 0.128876301817828 
2396	 0.12864926201755 
2397	 0.128378490790673 
2398	 0.1281107670034 
2399	 0.127952305029432 
2400	 0.127717468348567 
2401	 0.12745932946257 
2402	 0.127314835314736 
2403	 0.127108001919301 
2404	 0.126937714015781 
2405	 0.126782067774765 
2406	 0.126515863536054 
2407	 0.126288513376972 
2408	 0.126111010959445 
2409	 0.125918131539167 
2410	 0.12567947223565 
2411	 0.125464008570635 
2412	 0.125263835825652 
2413	 0.124996070429415 
2414	 0.124886673173512 
2415	 0.1247918018233 
2416	 0.124624766271252 
2417	 0.124477600286316 
2418	 0.124279906277241 
2419	 0.123943103780495 
2420	 0.123709946663653 
2421	 0.123496337116503 
2422	 0.123280859583675 
2423	 0.123098201017154 
2424	 0.122966383195489 
2425	 0.122864980562141 
2426	 0.122701338410421 
2427	 0.122585127323955 
2428	 0.12240289191268 
2429	 0.122099352479683 
2430	 0.121913370944623 
2431	 0.121775957681289 
2432	 0.121614087780676 
2433	 0.121515118440347 
2434	 0.121375653989789 
2435	 0.121226548409084 
2436	 0.121013872841056 
2437	 0.120692254791717 
2438	 0.120459401341016 
2439	 0.120214338200917 
2440	 0.120048756485842 
2441	 0.120047701417501 
2442	 0.11992570952794 
2443	 0.119765912220872 
2444	 0.119526844665571 
2445	 0.119187458805982 
2446	 0.118972542442357 
2447	 0.118745660150411 
2448	 0.118582702117849 
2449	 0.118505184038374 
2450	 0.118367713703393 
2451	 0.118237132857584 
2452	 0.118036608833074 
2453	 0.117867681558064 
2454	 0.117590797957025 
2455	 0.117183610079702 
2456	 0.116924649308144 
2457	 0.116598353122302 
2458	 0.116371073780772 
2459	 0.116273726748231 
2460	 0.116110254935385 
2461	 0.116000474869579 
2462	 0.115933397943367 
2463	 0.115843709433249 
2464	 0.115754055495144 
2465	 0.115748241211167 
2466	 0.115556662698631 
2467	 0.115266879240014 
2468	 0.115105748902966 
2469	 0.11482363404725 
2470	 0.114929943105454 
2471	 0.114953013250363 
2472	 0.114876339044461 
2473	 0.114793590561382 
2474	 0.114610265999763 
2475	 0.114441089150584 
2476	 0.114302377749323 
2477	 0.114133130868614 
2478	 0.113953266305224 
2479	 0.11375014328744 
2480	 0.113509240490937 
2481	 0.113563726317996 
2482	 0.113720510140387 
2483	 0.113408289399491 
2484	 0.113000904433758 
2485	 0.112561230419412 
2486	 0.111988580607403 
2487	 0.111819268318249 
2488	 0.111807927802089 
2489	 0.111689070437852 
2490	 0.111543264767982 
2491	 0.111283853654837 
2492	 0.111130402370909 
2493	 0.111040389108028 
2494	 0.110829580875354 
2495	 0.110788268163783 
2496	 0.110873246874044 
2497	 0.110742085118476 
2498	 0.110705946870842 
2499	 0.110616005572074 
2500	 0.110286403328327 
