Wavelength	LMW_2100005.asd
350	 0.103151657197037 
351	 9.83063272625705E-02 
352	 9.04920823793787E-02 
353	 8.72381435128115E-02 
354	 9.37536347121004E-02 
355	 9.66002635292965E-02 
356	 9.61228877259651E-02 
357	 0.097113983199006 
358	 0.106805222152988 
359	 0.109752466376484 
360	 0.108642798206991 
361	 0.116073023864401 
362	 0.116337067349925 
363	 0.111673861278693 
364	 0.107675530612683 
365	 0.111623234696079 
366	 0.113622790901349 
367	 0.113434051486749 
368	 0.114190271433612 
369	 0.121211484814644 
370	 0.122511656320381 
371	 0.121520306065694 
372	 0.130497784892718 
373	 0.132156006771697 
374	 0.130741699717263 
375	 0.130884801387224 
376	 0.132918504584733 
377	 0.133133069465454 
378	 0.134769947895783 
379	 0.140256782480907 
380	 0.139724374028241 
381	 0.139391523175116 
382	 0.141289449517683 
383	 0.14370926616021 
384	 0.14573226455839 
385	 0.146447183766223 
386	 0.14648318971984 
387	 0.149367103937333 
388	 0.151731574439729 
389	 0.153579315923662 
390	 0.15566693378557 
391	 0.15704770717745 
392	 0.158539862620252 
393	 0.160722974897815 
394	 0.16372544956207 
395	 0.164142978771778 
396	 0.164688456342446 
397	 0.167461833727771 
398	 0.171718506826406 
399	 0.17181612163063 
400	 0.170867710265994 
401	 0.173752637243909 
402	 0.174944859110191 
403	 0.176077110607558 
404	 0.177264392101133 
405	 0.176790583934847 
406	 0.178093507216153 
407	 0.179695384270973 
408	 0.180061587405704 
409	 0.180007631871722 
410	 0.179900765710851 
411	 0.180523503025773 
412	 0.182410737362075 
413	 0.183413796437727 
414	 0.183437524991446 
415	 0.183040828478735 
416	 0.183284204248226 
417	 0.183698750785186 
418	 0.18374354168677 
419	 0.183356446180287 
420	 0.184256905639236 
421	 0.184214127924291 
422	 0.183462080269394 
423	 0.1836778066862 
424	 0.183445922695141 
425	 0.182989434386007 
426	 0.182582280313174 
427	 0.182212289556281 
428	 0.181607837097671 
429	 0.181392556478598 
430	 0.182072298838759 
431	 0.182258402182895 
432	 0.181714623109075 
433	 0.181035698406152 
434	 0.181438025566082 
435	 0.181307561557047 
436	 0.181226477757429 
437	 0.181864869464858 
438	 0.18296310628307 
439	 0.184676751653248 
440	 0.18701577772174 
441	 0.189728385793504 
442	 0.191201837365109 
443	 0.192403395796241 
444	 0.193785288101079 
445	 0.194610705238747 
446	 0.195444865628643 
447	 0.196234138811548 
448	 0.196805954318401 
449	 0.197242669737427 
450	 0.197785988929165 
451	 0.19845131261991 
452	 0.199040331215954 
453	 0.199106328285512 
454	 0.198963691133462 
455	 0.199031378230558 
456	 0.199699185714907 
457	 0.200057875871864 
458	 0.200184189885885 
459	 0.200532346081238 
460	 0.200635862852096 
461	 0.200701549672829 
462	 0.200860145275779 
463	 0.201056471215442 
464	 0.201147996132903 
465	 0.201245383617078 
466	 0.201453932569528 
467	 0.201547501074438 
468	 0.201676038788297 
469	 0.201819291894604 
470	 0.201826582805894 
471	 0.201835524401495 
472	 0.201905186763967 
473	 0.202002386979665 
474	 0.201869338985853 
475	 0.202072703783035 
476	 0.202384476382976 
477	 0.202312174490103 
478	 0.202251060609136 
479	 0.202259224586494 
480	 0.202303510524395 
481	 0.202267651849885 
482	 0.202247830041976 
483	 0.202328161087649 
484	 0.202508124583818 
485	 0.202500689929227 
486	 0.202307402025096 
487	 0.202117014664123 
488	 0.202233135028996 
489	 0.202330577642397 
490	 0.202292429101529 
491	 0.202130931343474 
492	 0.202052099612487 
493	 0.202092781409584 
494	 0.202104013733802 
495	 0.201913070805504 
496	 0.201956221876445 
497	 0.201937909704881 
498	 0.201784029585978 
499	 0.201856971122268 
500	 0.201780120771716 
501	 0.201616793201045 
502	 0.201514366071775 
503	 0.201376763743174 
504	 0.201272017539807 
505	 0.20118848833986 
506	 0.201043604911967 
507	 0.200911772181639 
508	 0.200824654863875 
509	 0.200750493644688 
510	 0.200487233348642 
511	 0.200400712112165 
512	 0.200377506581246 
513	 0.200111957074153 
514	 0.200098314357093 
515	 0.200002437640254 
516	 0.199713544400577 
517	 0.199660269295887 
518	 0.199526881709632 
519	 0.199360138812398 
520	 0.199268877363958 
521	 0.199048077318463 
522	 0.198864876834282 
523	 0.198764358575062 
524	 0.198645049100321 
525	 0.198547495920896 
526	 0.198365473813269 
527	 0.19808139050189 
528	 0.198057655307543 
529	 0.1979845298833 
530	 0.197758426529546 
531	 0.197442913862325 
532	 0.197317526188794 
533	 0.19730200019878 
534	 0.197243880295841 
535	 0.196933082382223 
536	 0.196719509042767 
537	 0.196589128254523 
538	 0.196408572212107 
539	 0.196320194507959 
540	 0.196165571600693 
541	 0.195925073095695 
542	 0.195789571543805 
543	 0.195655121595787 
544	 0.195519753308499 
545	 0.195393880097306 
546	 0.195239541369011 
547	 0.195016389797189 
548	 0.194797592841901 
549	 0.194734759587354 
550	 0.194588550349624 
551	 0.194396861512947 
552	 0.194236824703132 
553	 0.194152393228346 
554	 0.194061149701512 
555	 0.193929419199565 
556	 0.19376033230173 
557	 0.19362189339002 
558	 0.193518903137255 
559	 0.193431391923724 
560	 0.193306841704717 
561	 0.193246771152099 
562	 0.193214349544884 
563	 0.193130223237586 
564	 0.192975441872976 
565	 0.192814081667964 
566	 0.192666902592515 
567	 0.192501277927201 
568	 0.192428865707503 
569	 0.192280843316045 
570	 0.191937259797983 
571	 0.1916461594075 
572	 0.191452892070608 
573	 0.191345175650855 
574	 0.191261450006079 
575	 0.191117897446416 
576	 0.190955385403297 
577	 0.190805844759503 
578	 0.190631423853002 
579	 0.190449559019272 
580	 0.190238541655049 
581	 0.189977845844549 
582	 0.189766101291607 
583	 0.189577031589708 
584	 0.189419071963977 
585	 0.189364252806787 
586	 0.189430367064605 
587	 0.189492322458905 
588	 0.189431373914971 
589	 0.189353245498795 
590	 0.189296542008119 
591	 0.189233658201303 
592	 0.189086034889507 
593	 0.188983475496513 
594	 0.188959629226134 
595	 0.188982993854854 
596	 0.188917322114993 
597	 0.188775974676878 
598	 0.188615510737283 
599	 0.188501523279789 
600	 0.188312796960911 
601	 0.188167466869398 
602	 0.188104250896136 
603	 0.187967803574405 
604	 0.187888570267435 
605	 0.187852925338663 
606	 0.187787816329284 
607	 0.187588171494942 
608	 0.187406661693923 
609	 0.18732291948291 
610	 0.187312813888766 
611	 0.187187423491129 
612	 0.187058824686889 
613	 0.18702430806035 
614	 0.186848555125571 
615	 0.186748566093239 
616	 0.186730092360941 
617	 0.186653516663079 
618	 0.186551235350743 
619	 0.186430892876863 
620	 0.186316093540954 
621	 0.186280414634317 
622	 0.186190001309645 
623	 0.186048441523969 
624	 0.185925962805185 
625	 0.185923002798523 
626	 0.185870496267695 
627	 0.185727143134107 
628	 0.185645886688049 
629	 0.185620625233433 
630	 0.185578616143979 
631	 0.185462793233946 
632	 0.185359841338026 
633	 0.185289909394519 
634	 0.185237711451695 
635	 0.185164173755653 
636	 0.185143252303147 
637	 0.185089988264886 
638	 0.184960935007095 
639	 0.184877162051093 
640	 0.184798751699081 
641	 0.184714035416164 
642	 0.184628636200213 
643	 0.184603165434482 
644	 0.184526771947549 
645	 0.184385418087917 
646	 0.184326262367897 
647	 0.184296871820497 
648	 0.184257805730349 
649	 0.184177852361371 
650	 0.184048026055998 
651	 0.183966466050619 
652	 0.18393718068772 
653	 0.183879248110104 
654	 0.183759831881377 
655	 0.183645779689304 
656	 0.183588938994271 
657	 0.183566751593488 
658	 0.183470913100176 
659	 0.183346124760175 
660	 0.183295386356859 
661	 0.18321851271002 
662	 0.183178725080341 
663	 0.183182811468534 
664	 0.183138061154547 
665	 0.183003163953341 
666	 0.182858294552854 
667	 0.182786299889941 
668	 0.182714565740698 
669	 0.18264271494342 
670	 0.182571825873747 
671	 0.182504542191126 
672	 0.182463435903205 
673	 0.182407781121889 
674	 0.182321852512146 
675	 0.182280388583061 
676	 0.18218974371577 
677	 0.182070060413921 
678	 0.181979688901314 
679	 0.181858496669539 
680	 0.181762877429264 
681	 0.181708737448296 
682	 0.181648287719766 
683	 0.181550527958614 
684	 0.181445515079238 
685	 0.181362519440328 
686	 0.181252212203658 
687	 0.18120195399714 
688	 0.181170510978302 
689	 0.18103899020851 
690	 0.180935638341139 
691	 0.180850653894737 
692	 0.180758330230282 
693	 0.180636978243572 
694	 0.180570845827708 
695	 0.180506636690007 
696	 0.180371745395907 
697	 0.180285225599445 
698	 0.180240542563921 
699	 0.180193145103228 
700	 0.180071962225687 
701	 0.179973097084625 
702	 0.179889900913093 
703	 0.179800399566233 
704	 0.17970289425273 
705	 0.179628158291504 
706	 0.179530658740738 
707	 0.179355167573765 
708	 0.179317043762737 
709	 0.179247851574548 
710	 0.179091651935159 
711	 0.179011163246218 
712	 0.178962507543028 
713	 0.178879088505321 
714	 0.178738342765555 
715	 0.178723241304758 
716	 0.178670288754315 
717	 0.178537114676275 
718	 0.178386036772883 
719	 0.178337352481989 
720	 0.17829991705566 
721	 0.178204490934601 
722	 0.178083389030087 
723	 0.177989836098441 
724	 0.177895805947878 
725	 0.177761977577558 
726	 0.177647880271947 
727	 0.177581097688138 
728	 0.177534461013146 
729	 0.177437398706248 
730	 0.177348426075937 
731	 0.177275580463344 
732	 0.177214391628961 
733	 0.177159160740426 
734	 0.177063574608439 
735	 0.176925407352607 
736	 0.176776765627579 
737	 0.176713638586073 
738	 0.176665722130019 
739	 0.17659513504681 
740	 0.176515034222954 
741	 0.176457129345953 
742	 0.176371914640371 
743	 0.176235191999383 
744	 0.176137251693517 
745	 0.176041371454602 
746	 0.175954906366831 
747	 0.175897274269997 
748	 0.175829380195347 
749	 0.175743232603109 
750	 0.175656742543476 
751	 0.175612999959688 
752	 0.175502160451057 
753	 0.175366219538932 
754	 0.175265774696709 
755	 0.175204768170613 
756	 0.175158992822368 
757	 0.175110110465603 
758	 0.175045014368694 
759	 0.174964307411488 
760	 0.174856884381877 
761	 0.174735526425142 
762	 0.174642277254047 
763	 0.174583406473576 
764	 0.174523230609239 
765	 0.174434728182787 
766	 0.174342508244949 
767	 0.174297182101815 
768	 0.174258908356342 
769	 0.174152487320031 
770	 0.174010975581879 
771	 0.173927480085441 
772	 0.173904410794508 
773	 0.173833255011847 
774	 0.173777411667317 
775	 0.173707236575148 
776	 0.173606216751941 
777	 0.173553166420365 
778	 0.173432136076822 
779	 0.173318693610831 
780	 0.173332167988473 
781	 0.173271661933232 
782	 0.17319483667394 
783	 0.17311834122777 
784	 0.172999827643602 
785	 0.172937207635152 
786	 0.172897084916604 
787	 0.172834246534717 
788	 0.172732500252306 
789	 0.17269431027493 
790	 0.172660710327931 
791	 0.172547289118434 
792	 0.172492333326337 
793	 0.172424605030418 
794	 0.172339949223737 
795	 0.172295643090782 
796	 0.17224503138997 
797	 0.172184007393051 
798	 0.172118106366956 
799	 0.172059428388842 
800	 0.171958599743089 
801	 0.171873774506077 
802	 0.171850070202163 
803	 0.171745193983227 
804	 0.171692989945275 
805	 0.171665940446256 
806	 0.171552770035813 
807	 0.171482998799783 
808	 0.171452555560983 
809	 0.171418384502658 
810	 0.171311694978092 
811	 0.171294101526715 
812	 0.171284941367643 
813	 0.171199583710419 
814	 0.171092811780864 
815	 0.171013262913285 
816	 0.17095768204337 
817	 0.170907790110395 
818	 0.170917034623981 
819	 0.170884987453567 
820	 0.170798892021235 
821	 0.170726003748628 
822	 0.17064530050554 
823	 0.170575019393181 
824	 0.170529180370018 
825	 0.170508033277006 
826	 0.170465355276147 
827	 0.170405390659927 
828	 0.17034111073356 
829	 0.17025654578189 
830	 0.170203033977095 
831	 0.170167911273141 
832	 0.170112198040474 
833	 0.170058134342239 
834	 0.169980836060645 
835	 0.16989696206597 
836	 0.169859192814121 
837	 0.169829583187359 
838	 0.169795527033571 
839	 0.169737409311906 
840	 0.169615170636665 
841	 0.16958362170182 
842	 0.169585548566585 
843	 0.169533581496524 
844	 0.169442192526435 
845	 0.169417987606743 
846	 0.169401955049635 
847	 0.169295258323904 
848	 0.169259290220982 
849	 0.169245108503626 
850	 0.169207437705592 
851	 0.169123333363552 
852	 0.169044424419966 
853	 0.168981577048355 
854	 0.168923129636268 
855	 0.168836157891244 
856	 0.168793193329614 
857	 0.168802691458531 
858	 0.168816455605977 
859	 0.168671908796506 
860	 0.168669978161432 
861	 0.16866681558605 
862	 0.168468574768631 
863	 0.168403346048541 
864	 0.168376766027073 
865	 0.168333407634032 
866	 0.168261649023962 
867	 0.168228048340373 
868	 0.168226288414075 
869	 0.168227925389251 
870	 0.168193305931644 
871	 0.168135687456148 
872	 0.168060540356867 
873	 0.167987247144332 
874	 0.167956087440251 
875	 0.16790181304027 
876	 0.167856842629274 
877	 0.167836860104753 
878	 0.167744442841032 
879	 0.167686253130918 
880	 0.167647042604721 
881	 0.167592890142331 
882	 0.167609600022918 
883	 0.167579205292283 
884	 0.167484988875384 
885	 0.167382004778401 
886	 0.16734668247022 
887	 0.167304985946808 
888	 0.16725103429737 
889	 0.167238453665426 
890	 0.167210999363073 
891	 0.167146103744305 
892	 0.167057610118837 
893	 0.166996436880839 
894	 0.166978716699324 
895	 0.166946704982822 
896	 0.166891897423884 
897	 0.16691937401737 
898	 0.16691746784918 
899	 0.166863915656254 
900	 0.166775835279723 
901	 0.166695748235707 
902	 0.166698668873971 
903	 0.166676891517848 
904	 0.16653830391347 
905	 0.166497575474543 
906	 0.166484535969129 
907	 0.166484360434849 
908	 0.166495852709421 
909	 0.166451398363335 
910	 0.166379023668518 
911	 0.166330589264363 
912	 0.16634454968137 
913	 0.166297094890966 
914	 0.166238476326705 
915	 0.166191153724445 
916	 0.166138358279285 
917	 0.166064376661899 
918	 0.166063518112767 
919	 0.16609764554277 
920	 0.165984310552307 
921	 0.165885384662429 
922	 0.165824320480656 
923	 0.165791926616093 
924	 0.165766269207774 
925	 0.165744526358332 
926	 0.165748256284958 
927	 0.165739708417736 
928	 0.165569672621386 
929	 0.165532364674471 
930	 0.165629715607622 
931	 0.165714889604933 
932	 0.165498663745551 
933	 0.165413792747139 
934	 0.165417625003993 
935	 0.16536924021407 
936	 0.165288585376712 
937	 0.165199494930704 
938	 0.165140610735731 
939	 0.165137592989266 
940	 0.165169683619071 
941	 0.165155966020021 
942	 0.165147053638277 
943	 0.16519507579822 
944	 0.165142324449704 
945	 0.165009136713953 
946	 0.164908205700643 
947	 0.164920148231102 
948	 0.164800566974627 
949	 0.164740302161166 
950	 0.164713006260607 
951	 0.164631269159798 
952	 0.164740078368036 
953	 0.164759707982502 
954	 0.164687306861861 
955	 0.164655966205991 
956	 0.164504542113192 
957	 0.16451845655008 
958	 0.164531835416222 
959	 0.164254216759353 
960	 0.164410706499872 
961	 0.164485315448113 
962	 0.164352595781981 
963	 0.164216460569394 
964	 0.164230155632334 
965	 0.164256348489541 
966	 0.164260439263435 
967	 0.164281767472434 
968	 0.164255944929361 
969	 0.16421159380256 
970	 0.164174387953093 
971	 0.164145335330126 
972	 0.164013606957874 
973	 0.164032123705744 
974	 0.164086160614684 
975	 0.163898859697338 
976	 0.163876543734119 
977	 0.163841512716438 
978	 0.163744046998425 
979	 0.163661616498082 
980	 0.163724179207905 
981	 0.163714692136254 
982	 0.163625935060614 
983	 0.163586700489162 
984	 0.163611899610742 
985	 0.163489375943273 
986	 0.163334873400473 
987	 0.163375911943659 
988	 0.16337146592384 
989	 0.163313844178799 
990	 0.163257689021127 
991	 0.16325316598818 
992	 0.163193889060354 
993	 0.163101312038508 
994	 0.163116344868434 
995	 0.16329234758642 
996	 0.163147437182245 
997	 0.163172031158437 
998	 0.163291019919989 
999	 0.163265275101047 
1000	 0.163184987667508 
1001	 0.158626730948922 
1002	 0.15861495875554 
1003	 0.158561783761632 
1004	 0.158528557797059 
1005	 0.158525951016167 
1006	 0.158469133342978 
1007	 0.158367694928678 
1008	 0.158330367372293 
1009	 0.158294615801201 
1010	 0.15822645880015 
1011	 0.158235837835099 
1012	 0.158230547347728 
1013	 0.15814873200331 
1014	 0.15806841629916 
1015	 0.15801718306767 
1016	 0.157956172265876 
1017	 0.157899326539322 
1018	 0.157845844506605 
1019	 0.157838617472606 
1020	 0.157801941193743 
1021	 0.157765032739952 
1022	 0.15776535687948 
1023	 0.157736259674842 
1024	 0.157711002629717 
1025	 0.157706166779849 
1026	 0.157671685427542 
1027	 0.157603187372129 
1028	 0.157554112430032 
1029	 0.157496598786199 
1030	 0.157434509972429 
1031	 0.157384318856352 
1032	 0.157362883972233 
1033	 0.157311248937675 
1034	 0.157274819883061 
1035	 0.157260115095503 
1036	 0.157235111824517 
1037	 0.157217554607741 
1038	 0.157173273082093 
1039	 0.157112457405548 
1040	 0.157051279377292 
1041	 0.15699404563122 
1042	 0.15695242013008 
1043	 0.156913351385581 
1044	 0.156883536587913 
1045	 0.156873462946901 
1046	 0.156851729605437 
1047	 0.156796097563012 
1048	 0.156721475901594 
1049	 0.156638687792878 
1050	 0.156566223614207 
1051	 0.156499168396134 
1052	 0.156470353994119 
1053	 0.156434772511794 
1054	 0.156393003082883 
1055	 0.156365065473467 
1056	 0.156299359960587 
1057	 0.156264596604699 
1058	 0.156265225128733 
1059	 0.156221772297403 
1060	 0.156154197666964 
1061	 0.156126247550981 
1062	 0.156107341329327 
1063	 0.156004913205754 
1064	 0.155950070286883 
1065	 0.155907394919691 
1066	 0.155813501486566 
1067	 0.155776753345639 
1068	 0.155792333957951 
1069	 0.155763694723459 
1070	 0.155701554178626 
1071	 0.155616693606606 
1072	 0.155529200323157 
1073	 0.155361677752372 
1074	 0.155275616234224 
1075	 0.155230709694108 
1076	 0.155204620691989 
1077	 0.155162555682512 
1078	 0.155159661851425 
1079	 0.155100723517103 
1080	 0.155009620381636 
1081	 0.154970924197615 
1082	 0.15493843482204 
1083	 0.154908807058973 
1084	 0.154924989992503 
1085	 0.154890523592639 
1086	 0.154809404619986 
1087	 0.154765157710203 
1088	 0.154730724889479 
1089	 0.15470215283456 
1090	 0.154616283420903 
1091	 0.1545577655121 
1092	 0.154504838545653 
1093	 0.154434223124394 
1094	 0.154420181899773 
1095	 0.154397558416655 
1096	 0.154324298743732 
1097	 0.154262056304526 
1098	 0.154222589891427 
1099	 0.154205189885522 
1100	 0.154164155836945 
1101	 0.154113247912848 
1102	 0.154088695228941 
1103	 0.154064310592758 
1104	 0.15405853341131 
1105	 0.154012805885241 
1106	 0.15395406666254 
1107	 0.153883727113756 
1108	 0.153811096348918 
1109	 0.153794667796639 
1110	 0.15380141763631 
1111	 0.153775202595204 
1112	 0.153726652684735 
1113	 0.153685584834753 
1114	 0.153641591642682 
1115	 0.153595980740788 
1116	 0.153543953493458 
1117	 0.153507846354699 
1118	 0.153472466886291 
1119	 0.15343749375769 
1120	 0.153436310860759 
1121	 0.153421452350226 
1122	 0.153384165292238 
1123	 0.153363230875377 
1124	 0.153329592530422 
1125	 0.153288088209169 
1126	 0.153235300547945 
1127	 0.153171825247505 
1128	 0.153114457437247 
1129	 0.153035846655265 
1130	 0.152984517680051 
1131	 0.152958231881911 
1132	 0.152923619186149 
1133	 0.15289823813024 
1134	 0.152865173010514 
1135	 0.15283563281863 
1136	 0.152779489032244 
1137	 0.152748172958899 
1138	 0.152723305649138 
1139	 0.15267901734544 
1140	 0.152634623414993 
1141	 0.152592080585697 
1142	 0.152530407435652 
1143	 0.152477090309824 
1144	 0.152432446111431 
1145	 0.152388908618515 
1146	 0.152343545509654 
1147	 0.15230061392899 
1148	 0.152266916450701 
1149	 0.152226567862271 
1150	 0.152175862430022 
1151	 0.152132234923286 
1152	 0.152105311583932 
1153	 0.152061676216256 
1154	 0.152018961644095 
1155	 0.151984166056123 
1156	 0.151928189536101 
1157	 0.151849708048201 
1158	 0.151794892408032 
1159	 0.151734302557001 
1160	 0.151684221644435 
1161	 0.151656017044086 
1162	 0.151614524800965 
1163	 0.151575364602675 
1164	 0.151526988550349 
1165	 0.151466608654467 
1166	 0.151406619307693 
1167	 0.151369618506999 
1168	 0.151336664499319 
1169	 0.15130053851957 
1170	 0.151289021021018 
1171	 0.151246745064367 
1172	 0.151175243530448 
1173	 0.151128803101933 
1174	 0.15109273881308 
1175	 0.151041076822913 
1176	 0.150979999638724 
1177	 0.150937233915705 
1178	 0.150894343177693 
1179	 0.150852365854956 
1180	 0.150830005147717 
1181	 0.150799237972183 
1182	 0.150764864234014 
1183	 0.150715198600855 
1184	 0.150675870299468 
1185	 0.150641551258644 
1186	 0.150605543938044 
1187	 0.150568485443333 
1188	 0.150531100787617 
1189	 0.150504522551448 
1190	 0.150457534677424 
1191	 0.150388672567253 
1192	 0.150339540666823 
1193	 0.150282665352054 
1194	 0.150239435914019 
1195	 0.15022279828618 
1196	 0.150191575674925 
1197	 0.150152962945736 
1198	 0.150120396853343 
1199	 0.150088553872003 
1200	 0.150057826333257 
1201	 0.150016987125902 
1202	 0.149974297269677 
1203	 0.149934477908047 
1204	 0.149884091220203 
1205	 0.149843774022602 
1206	 0.149814679624402 
1207	 0.149779553526796 
1208	 0.149743705430786 
1209	 0.149705271944088 
1210	 0.149672024917711 
1211	 0.149627716102017 
1212	 0.149573869785574 
1213	 0.149520610772832 
1214	 0.149460197959215 
1215	 0.149400982340072 
1216	 0.149341507083219 
1217	 0.149276233158861 
1218	 0.14922971445055 
1219	 0.149193507457663 
1220	 0.149148370894336 
1221	 0.14910955350947 
1222	 0.14907173368729 
1223	 0.149023901351474 
1224	 0.148987555407087 
1225	 0.14897247334054 
1226	 0.148939106308927 
1227	 0.148895573581216 
1228	 0.148856399020543 
1229	 0.148815974687942 
1230	 0.148770675901245 
1231	 0.148726746025473 
1232	 0.148679096273632 
1233	 0.148627176098841 
1234	 0.148563342861653 
1235	 0.148512901085965 
1236	 0.148463979024942 
1237	 0.148420471427583 
1238	 0.148387510552414 
1239	 0.148343925555148 
1240	 0.148297961380056 
1241	 0.148254366477921 
1242	 0.148200725608264 
1243	 0.148160720458953 
1244	 0.148141152724707 
1245	 0.148101936088549 
1246	 0.148062271085129 
1247	 0.148015259717826 
1248	 0.147959189694068 
1249	 0.14788535789454 
1250	 0.147824850005405 
1251	 0.147774610072506 
1252	 0.147729685806594 
1253	 0.147702643335374 
1254	 0.147651241611479 
1255	 0.147596888715635 
1256	 0.147535523833457 
1257	 0.147445159831655 
1258	 0.147386598331274 
1259	 0.14734380693237 
1260	 0.147297064882957 
1261	 0.147271182183379 
1262	 0.147225225184689 
1263	 0.147157242224369 
1264	 0.147106860669508 
1265	 0.147059397226426 
1266	 0.147011840816553 
1267	 0.146978877734054 
1268	 0.14693847126753 
1269	 0.146890881127153 
1270	 0.146832032900972 
1271	 0.146782572892468 
1272	 0.146734297068195 
1273	 0.146685094711621 
1274	 0.146645674738732 
1275	 0.146585596485469 
1276	 0.14650417474921 
1277	 0.146445103786611 
1278	 0.146378150939708 
1279	 0.146328186450443 
1280	 0.146308974435491 
1281	 0.146271188483166 
1282	 0.146242276000617 
1283	 0.146192752383592 
1284	 0.146122837367654 
1285	 0.146052739372409 
1286	 0.145992232732814 
1287	 0.145930820143858 
1288	 0.145887311333346 
1289	 0.145871058268501 
1290	 0.14583594237618 
1291	 0.14580456442313 
1292	 0.145759659450005 
1293	 0.145702511574079 
1294	 0.145653219427916 
1295	 0.145602280266242 
1296	 0.145544926716593 
1297	 0.145483394762474 
1298	 0.145435826523392 
1299	 0.145383576257065 
1300	 0.14533717214641 
1301	 0.145324874712286 
1302	 0.14527788027488 
1303	 0.14521008920684 
1304	 0.145140203660944 
1305	 0.145063365522838 
1306	 0.144986747601516 
1307	 0.144930450438565 
1308	 0.14489306082443 
1309	 0.144844174731096 
1310	 0.144803514369959 
1311	 0.144750655245208 
1312	 0.144687301186935 
1313	 0.144627997496408 
1314	 0.144565210404587 
1315	 0.144511388542591 
1316	 0.14446343759394 
1317	 0.14441202719003 
1318	 0.144362938484391 
1319	 0.144311918864921 
1320	 0.144257521562077 
1321	 0.144204512301991 
1322	 0.144154652908419 
1323	 0.144107783343761 
1324	 0.144037931868767 
1325	 0.143972233944325 
1326	 0.143918986750522 
1327	 0.143853429591603 
1328	 0.143799434881766 
1329	 0.143758764333361 
1330	 0.143716283321921 
1331	 0.143678976190443 
1332	 0.143627473572426 
1333	 0.143574908129058 
1334	 0.143524994176303 
1335	 0.1434691987186 
1336	 0.143405893005825 
1337	 0.143336116325051 
1338	 0.143277232296808 
1339	 0.143206637124561 
1340	 0.14315557711583 
1341	 0.14313555764323 
1342	 0.143096986071854 
1343	 0.143059922845691 
1344	 0.143008640727889 
1345	 0.142948506292413 
1346	 0.142894323572137 
1347	 0.142847499922009 
1348	 0.142803924550086 
1349	 0.142758901054367 
1350	 0.142709668258045 
1351	 0.142656336000603 
1352	 0.142591171686969 
1353	 0.14253491775229 
1354	 0.142489049774915 
1355	 0.14242880674509 
1356	 0.142364522246086 
1357	 0.142296459814749 
1358	 0.142202378720643 
1359	 0.142137042894688 
1360	 0.142093519289746 
1361	 0.142036897436295 
1362	 0.14197943701497 
1363	 0.14193643518241 
1364	 0.141904237593317 
1365	 0.141852457663529 
1366	 0.141806958556389 
1367	 0.141758851738471 
1368	 0.141667438185716 
1369	 0.141594722897502 
1370	 0.141534788303872 
1371	 0.141462413845424 
1372	 0.141405028405152 
1373	 0.141331648706075 
1374	 0.141253915840523 
1375	 0.141166871295141 
1376	 0.14108812511614 
1377	 0.140996396139846 
1378	 0.140926845527917 
1379	 0.140879876209892 
1380	 0.140810518738431 
1381	 0.140741449790097 
1382	 0.140671548462091 
1383	 0.140584067109972 
1384	 0.140508969650465 
1385	 0.140453978667124 
1386	 0.140380235667914 
1387	 0.14030768160669 
1388	 0.140220100170338 
1389	 0.14011867806241 
1390	 0.140004423179153 
1391	 0.139897202960287 
1392	 0.13978617800095 
1393	 0.139679847457997 
1394	 0.139568029355841 
1395	 0.139432331464287 
1396	 0.139282905186077 
1397	 0.139136026534194 
1398	 0.138980566346486 
1399	 0.138819981436053 
1400	 0.138660023818296 
1401	 0.13849097470504 
1402	 0.138305394763898 
1403	 0.13812575222775 
1404	 0.13795073247491 
1405	 0.137765715504613 
1406	 0.13756789541056 
1407	 0.137383297515743 
1408	 0.137204874087723 
1409	 0.137018212307505 
1410	 0.136830338715028 
1411	 0.136647053734201 
1412	 0.136457641514518 
1413	 0.136268378759683 
1414	 0.136101149243044 
1415	 0.135956683641035 
1416	 0.135812840951117 
1417	 0.135674281368105 
1418	 0.135537732452486 
1419	 0.135389284550783 
1420	 0.13525281004991 
1421	 0.135127215239968 
1422	 0.135001788671714 
1423	 0.134878550870313 
1424	 0.134743489760994 
1425	 0.134596607208168 
1426	 0.134457283163119 
1427	 0.134316055403147 
1428	 0.134173630593015 
1429	 0.134034586566455 
1430	 0.133892164440221 
1431	 0.133738612625308 
1432	 0.133601582236349 
1433	 0.133477133029648 
1434	 0.133339973467942 
1435	 0.133207159189223 
1436	 0.133067868064241 
1437	 0.132910998773738 
1438	 0.132770166660121 
1439	 0.13263576549867 
1440	 0.132506256035911 
1441	 0.132370008557884 
1442	 0.132243971115574 
1443	 0.132122538552079 
1444	 0.131990616142597 
1445	 0.131869998927124 
1446	 0.131756492588351 
1447	 0.131658215885353 
1448	 0.131573126615439 
1449	 0.131484852202059 
1450	 0.131400520312596 
1451	 0.131331357239162 
1452	 0.131254011946435 
1453	 0.131214296995018 
1454	 0.131212512758894 
1455	 0.131200887021771 
1456	 0.131203726025097 
1457	 0.131202844349351 
1458	 0.131195782787134 
1459	 0.131200731094884 
1460	 0.131205180780113 
1461	 0.131236206121421 
1462	 0.131291619093618 
1463	 0.131339721612269 
1464	 0.13141578873129 
1465	 0.131466886327741 
1466	 0.131492285443938 
1467	 0.131534740602613 
1468	 0.131582640779143 
1469	 0.13162185881357 
1470	 0.131661309107952 
1471	 0.131708097699724 
1472	 0.131740544304254 
1473	 0.131756197583392 
1474	 0.131769049924938 
1475	 0.13177896845549 
1476	 0.131791990290455 
1477	 0.13180537966582 
1478	 0.131815919962188 
1479	 0.131823970946046 
1480	 0.131827689060748 
1481	 0.131825165726533 
1482	 0.131831585918299 
1483	 0.131849671923939 
1484	 0.131854755176621 
1485	 0.131859047336844 
1486	 0.131857948937332 
1487	 0.131843736488856 
1488	 0.131839709829525 
1489	 0.131843668174464 
1490	 0.131832893867351 
1491	 0.13181957018747 
1492	 0.131805282621276 
1493	 0.13177150046952 
1494	 0.131757141486328 
1495	 0.131761658351301 
1496	 0.131748982299517 
1497	 0.131737115502818 
1498	 0.131720446500802 
1499	 0.131698012996364 
1500	 0.131666806935494 
1501	 0.131621816251328 
1502	 0.131590057383212 
1503	 0.131559025272532 
1504	 0.131518634941065 
1505	 0.131498839047848 
1506	 0.131483719015398 
1507	 0.131448081647315 
1508	 0.131420253540782 
1509	 0.13140058209969 
1510	 0.131354589934897 
1511	 0.131305151213766 
1512	 0.131267578212546 
1513	 0.131217694375758 
1514	 0.131182574413398 
1515	 0.131169564528959 
1516	 0.131148665635677 
1517	 0.131122564685363 
1518	 0.131098839046655 
1519	 0.13106595489916 
1520	 0.131021455736451 
1521	 0.130981472157962 
1522	 0.130936338351038 
1523	 0.130899953590098 
1524	 0.130866651572503 
1525	 0.130837336680269 
1526	 0.130821254621285 
1527	 0.13078992571908 
1528	 0.130749735058888 
1529	 0.130715501013074 
1530	 0.130679917913021 
1531	 0.13063875007126 
1532	 0.130589185553585 
1533	 0.130557964217616 
1534	 0.13052763180718 
1535	 0.130502868995665 
1536	 0.130508793840875 
1537	 0.130489965355762 
1538	 0.130454372283475 
1539	 0.130424485447409 
1540	 0.130385613361905 
1541	 0.130351518514449 
1542	 0.130318253817677 
1543	 0.13028861813052 
1544	 0.130269811633262 
1545	 0.130242751830813 
1546	 0.1302190575413 
1547	 0.130182120107151 
1548	 0.130144284622282 
1549	 0.130096517477009 
1550	 0.130053422960443 
1551	 0.130027249961554 
1552	 0.129999923329061 
1553	 0.1299629312854 
1554	 0.129912801548825 
1555	 0.129854303003796 
1556	 0.129804828650968 
1557	 0.129763091915286 
1558	 0.12973222734542 
1559	 0.12970852225576 
1560	 0.129671078605224 
1561	 0.129629800956462 
1562	 0.129574031370808 
1563	 0.129503432998186 
1564	 0.129447942975254 
1565	 0.129382509618495 
1566	 0.129334481218199 
1567	 0.129311833530395 
1568	 0.12926147057367 
1569	 0.129203236892665 
1570	 0.129144681694503 
1571	 0.12906687439487 
1572	 0.129011626990492 
1573	 0.128969448335416 
1574	 0.128922436234883 
1575	 0.128887144167014 
1576	 0.128835700157326 
1577	 0.128771286720656 
1578	 0.128717251160151 
1579	 0.128664719569484 
1580	 0.128606907936225 
1581	 0.128551394711144 
1582	 0.12849357174585 
1583	 0.128427177112198 
1584	 0.128366894288651 
1585	 0.128309118633805 
1586	 0.128251983310137 
1587	 0.128197452524582 
1588	 0.128140940440931 
1589	 0.128084500844808 
1590	 0.128032899534809 
1591	 0.127982502558547 
1592	 0.127929541926521 
1593	 0.12787921908783 
1594	 0.127826569937563 
1595	 0.127777011558314 
1596	 0.127716766909271 
1597	 0.127644810090296 
1598	 0.127583040424075 
1599	 0.12752464684723 
1600	 0.127454602719444 
1601	 0.127381494336967 
1602	 0.127315314605822 
1603	 0.127244207423661 
1604	 0.127169950840623 
1605	 0.127099516853217 
1606	 0.127032090634244 
1607	 0.12695760445419 
1608	 0.126886879849863 
1609	 0.126826421292803 
1610	 0.126761782827102 
1611	 0.126678115122919 
1612	 0.126598081240131 
1613	 0.126529011487379 
1614	 0.126463684023886 
1615	 0.126421227606177 
1616	 0.126377430459766 
1617	 0.126312940092203 
1618	 0.126255117184623 
1619	 0.126189216665199 
1620	 0.126113119410281 
1621	 0.126046649301318 
1622	 0.125985524274995 
1623	 0.125923952400382 
1624	 0.12586606859429 
1625	 0.125798095546487 
1626	 0.125723940625216 
1627	 0.125663852958424 
1628	 0.125597777671892 
1629	 0.125548728200026 
1630	 0.12552605666465 
1631	 0.12547558847068 
1632	 0.125424279322231 
1633	 0.125354618382947 
1634	 0.125263826248966 
1635	 0.125183270384297 
1636	 0.125091221077306 
1637	 0.125014545745867 
1638	 0.124955114445818 
1639	 0.12487018008753 
1640	 0.124775185513033 
1641	 0.124691743430809 
1642	 0.124592318318415 
1643	 0.12451538380273 
1644	 0.124465255587345 
1645	 0.124394861302962 
1646	 0.124309304226847 
1647	 0.124254918552171 
1648	 0.124221326558316 
1649	 0.124159191067732 
1650	 0.124113704554504 
1651	 0.124036750089867 
1652	 0.123915923045442 
1653	 0.123820550648993 
1654	 0.123717507264745 
1655	 0.12364249649191 
1656	 0.123588423411542 
1657	 0.123520745796333 
1658	 0.123471516775482 
1659	 0.123402877688513 
1660	 0.123305317323214 
1661	 0.123237593901469 
1662	 0.123181241008243 
1663	 0.123125101731241 
1664	 0.123091044814228 
1665	 0.123030001216933 
1666	 0.122951411768868 
1667	 0.122885967978061 
1668	 0.122823276006957 
1669	 0.122742615552046 
1670	 0.122654628114621 
1671	 0.122577487268232 
1672	 0.122483548392988 
1673	 0.122406350279548 
1674	 0.122354817276209 
1675	 0.122289264425574 
1676	 0.122214369144795 
1677	 0.122147896341528 
1678	 0.122091372325154 
1679	 0.122022989881462 
1680	 0.121941317064056 
1681	 0.121880737243753 
1682	 0.12182732572728 
1683	 0.121769291348635 
1684	 0.121730464667453 
1685	 0.121671862603566 
1686	 0.12159551176675 
1687	 0.121523685359617 
1688	 0.121442735403174 
1689	 0.12137743361596 
1690	 0.121324517368355 
1691	 0.121256438074544 
1692	 0.12118708853608 
1693	 0.121122310935365 
1694	 0.121048125765506 
1695	 0.120978156656729 
1696	 0.120919112834653 
1697	 0.120858155047959 
1698	 0.120787010495057 
1699	 0.12072643041438 
1700	 0.120677654112614 
1701	 0.120626819045043 
1702	 0.120584196895679 
1703	 0.120523265173832 
1704	 0.120455971908392 
1705	 0.120387766251964 
1706	 0.120303615637924 
1707	 0.120231969518992 
1708	 0.120170149930441 
1709	 0.120102880133141 
1710	 0.120026232437657 
1711	 0.119964518438726 
1712	 0.119901844618664 
1713	 0.119860852189174 
1714	 0.119853813958912 
1715	 0.119811994980343 
1716	 0.119769063993441 
1717	 0.119718014240411 
1718	 0.119644400418317 
1719	 0.119575059058073 
1720	 0.119505278750022 
1721	 0.119440903068422 
1722	 0.1193647693121 
1723	 0.119305412388769 
1724	 0.119266125758396 
1725	 0.119216782500855 
1726	 0.119173123436608 
1727	 0.119109500743818 
1728	 0.119032289388854 
1729	 0.118970889253242 
1730	 0.118905250947489 
1731	 0.118838889408699 
1732	 0.11879008188508 
1733	 0.118713981314292 
1734	 0.118606986251707 
1735	 0.118529569575896 
1736	 0.11846277083335 
1737	 0.11838724104927 
1738	 0.118319596681599 
1739	 0.118249499625839 
1740	 0.118170741431741 
1741	 0.118091897258405 
1742	 0.118011893190461 
1743	 0.11794813366362 
1744	 0.117887612938005 
1745	 0.117826666208125 
1746	 0.117787766383437 
1747	 0.117699348913666 
1748	 0.117604672514195 
1749	 0.117509500012565 
1750	 0.117459350370134 
1751	 0.117444622648437 
1752	 0.117398014817659 
1753	 0.117335812017538 
1754	 0.117258630169668 
1755	 0.117141128358716 
1756	 0.117047795948136 
1757	 0.116982603182674 
1758	 0.116906136424367 
1759	 0.116848867353589 
1760	 0.11680322030771 
1761	 0.116742945534816 
1762	 0.116663242788491 
1763	 0.116573042740853 
1764	 0.116493023531811 
1765	 0.116414794609261 
1766	 0.116347905416566 
1767	 0.11630524108798 
1768	 0.116249558695628 
1769	 0.116189294126745 
1770	 0.116139696136093 
1771	 0.116081052370879 
1772	 0.116018821968832 
1773	 0.11594957548182 
1774	 0.115892526555161 
1775	 0.115837640461127 
1776	 0.115774810228002 
1777	 0.11571573900494 
1778	 0.115641590205417 
1779	 0.11557856567009 
1780	 0.115527844570423 
1781	 0.115493625703309 
1782	 0.115480269951284 
1783	 0.115441218037908 
1784	 0.115394647767354 
1785	 0.115326073945324 
1786	 0.115262288762992 
1787	 0.11519801139564 
1788	 0.115137036316022 
1789	 0.115078526481354 
1790	 0.11501722321754 
1791	 0.114959971523309 
1792	 0.114895854375356 
1793	 0.114811948591772 
1794	 0.114769993041315 
1795	 0.114750303817693 
1796	 0.114715460476196 
1797	 0.114702360562068 
1798	 0.114667704959316 
1799	 0.114609591857918 
1800	 0.11456359417379 
1801	 0.112298212983632 
1802	 0.112271873903433 
1803	 0.112261391581219 
1804	 0.112233258169975 
1805	 0.112186114505071 
1806	 0.112166002926008 
1807	 0.112163204340433 
1808	 0.112159710598871 
1809	 0.112188766134221 
1810	 0.112181700521024 
1811	 0.112160898982599 
1812	 0.112136012358038 
1813	 0.112094203396028 
1814	 0.112056298077311 
1815	 0.112013693003373 
1816	 0.111954376005459 
1817	 0.111912206440337 
1818	 0.111877614539607 
1819	 0.111834955615244 
1820	 0.111791877369227 
1821	 0.111760975577052 
1822	 0.111712593209405 
1823	 0.111670199524802 
1824	 0.111651547330269 
1825	 0.111628870674028 
1826	 0.111626720861974 
1827	 0.111604188230817 
1828	 0.111578779215487 
1829	 0.111561695267159 
1830	 0.111530197848616 
1831	 0.111484677832552 
1832	 0.111437781695182 
1833	 0.111380631722748 
1834	 0.111290166692806 
1835	 0.111208454061335 
1836	 0.111153879229966 
1837	 0.111125817832818 
1838	 0.11108758280896 
1839	 0.111053211332557 
1840	 0.111027794344019 
1841	 0.111000519011666 
1842	 0.110954671227435 
1843	 0.110939569833976 
1844	 0.110922268703383 
1845	 0.110885495207199 
1846	 0.11086412799268 
1847	 0.110828493715053 
1848	 0.1107725899842 
1849	 0.110712966400392 
1850	 0.110651306753126 
1851	 0.110570799582879 
1852	 0.110499344142756 
1853	 0.110461797010023 
1854	 0.110422718697962 
1855	 0.110376540889369 
1856	 0.110335066546255 
1857	 0.11027925704872 
1858	 0.110220742797242 
1859	 0.110173977683874 
1860	 0.110105336644051 
1861	 0.110027495767229 
1862	 0.109923086676929 
1863	 0.109821793625385 
1864	 0.10971891349107 
1865	 0.109621504234636 
1866	 0.109538923351912 
1867	 0.109440279677769 
1868	 0.10931784327622 
1869	 0.10918282397201 
1870	 0.109046287397348 
1871	 0.108917419929543 
1872	 0.108793184634964 
1873	 0.108675574890787 
1874	 0.108541461928874 
1875	 0.108392625401479 
1876	 0.108244168575767 
1877	 0.108087235676969 
1878	 0.107929246724185 
1879	 0.107764128999674 
1880	 0.107571460380566 
1881	 0.10732654117323 
1882	 0.107118091333997 
1883	 0.106913967382017 
1884	 0.106707300136322 
1885	 0.106491843911836 
1886	 0.106263647331676 
1887	 0.10599866570445 
1888	 0.105715918382139 
1889	 0.105423354749864 
1890	 0.105113809103272 
1891	 0.10478816469313 
1892	 0.10442341601268 
1893	 0.10407334005558 
1894	 0.103716110477985 
1895	 0.103366819242036 
1896	 0.103006027474514 
1897	 0.102644077710541 
1898	 0.102274148862793 
1899	 0.101870259301598 
1900	 0.101473379424475 
1901	 0.10110070377408 
1902	 0.100717186745774 
1903	 0.100331440393842 
1904	 9.99544345249162E-02 
1905	 9.95772967891236E-02 
1906	 9.91988449623244E-02 
1907	 9.88606749652022E-02 
1908	 9.85268826125761E-02 
1909	 9.82042846416362E-02 
1910	 9.78952477480039E-02 
1911	 9.75566475293381E-02 
1912	 9.72373785029527E-02 
1913	 9.69448485628205E-02 
1914	 9.66783496000724E-02 
1915	 0.09640281744483 
1916	 9.61461149587683E-02 
1917	 9.58977413673288E-02 
1918	 9.56121167322677E-02 
1919	 0.095338054254335 
1920	 9.50915370776717E-02 
1921	 9.48595921443038E-02 
1922	 9.46503019771651E-02 
1923	 9.44688454028648E-02 
1924	 9.42882608503274E-02 
1925	 9.41172469238032E-02 
1926	 9.39469890471241E-02 
1927	 9.37850448297726E-02 
1928	 9.36291748877665E-02 
1929	 9.34730317503958E-02 
1930	 9.33374728387611E-02 
1931	 9.31872353822961E-02 
1932	 0.093027114271203 
1933	 9.28712927419502E-02 
1934	 9.27103003262187E-02 
1935	 9.25653850754447E-02 
1936	 9.24419967243478E-02 
1937	 9.23057125082854E-02 
1938	 9.21835538177614E-02 
1939	 9.20355633600174E-02 
1940	 9.18615826872967E-02 
1941	 9.17013136568153E-02 
1942	 9.15464729418885E-02 
1943	 9.13984287702356E-02 
1944	 9.12669795122184E-02 
1945	 9.11521930976897E-02 
1946	 9.10245234886413E-02 
1947	 0.09087973819803 
1948	 9.07574461484302E-02 
1949	 9.06414386260128E-02 
1950	 9.05291316345506E-02 
1951	 0.090409629216 
1952	 9.03397725904559E-02 
1953	 9.02699786680327E-02 
1954	 9.01965335886151E-02 
1955	 9.01523587437879E-02 
1956	 9.01071643291128E-02 
1957	 9.00832421459642E-02 
1958	 9.00790435324181E-02 
1959	 9.00721288721816E-02 
1960	 9.00714248845009E-02 
1961	 9.00922706210774E-02 
1962	 9.01048087183319E-02 
1963	 0.090147457628528 
1964	 9.02287574078561E-02 
1965	 9.03157943066229E-02 
1966	 9.03945323636161E-02 
1967	 9.05011450452694E-02 
1968	 9.05905051056404E-02 
1969	 9.06679517368624E-02 
1970	 9.07643998589877E-02 
1971	 9.08760580082771E-02 
1972	 9.09723246756364E-02 
1973	 9.10695779947827E-02 
1974	 9.11694817762353E-02 
1975	 0.091267587484738 
1976	 0.091348849688929 
1977	 9.14490253579804E-02 
1978	 9.15655703331055E-02 
1979	 9.16532603310166E-02 
1980	 9.17422950603112E-02 
1981	 9.18300166523116E-02 
1982	 9.19101615468152E-02 
1983	 9.19888331743661E-02 
1984	 9.20680222815521E-02 
1985	 0.092146618277733 
1986	 9.22211227494767E-02 
1987	 9.22947482138025E-02 
1988	 9.23719693520677E-02 
1989	 9.24429843812857E-02 
1990	 9.25037225893064E-02 
1991	 9.25783662736632E-02 
1992	 9.26547891837281E-02 
1993	 9.27394910301778E-02 
1994	 9.28191792683061E-02 
1995	 9.28950494942727E-02 
1996	 9.29773526077716E-02 
1997	 9.30650507911875E-02 
1998	 9.31469768081658E-02 
1999	 9.32191611315783E-02 
2000	 9.33147381960124E-02 
2001	 9.34144870767871E-02 
2002	 9.35198017070825E-02 
2003	 9.36546555381782E-02 
2004	 0.093800105269324 
2005	 9.39288650374279E-02 
2006	 9.40629804294644E-02 
2007	 9.41759490017593E-02 
2008	 9.42651794168153E-02 
2009	 9.43732951046153E-02 
2010	 9.44805993892719E-02 
2011	 9.45835116653151E-02 
2012	 9.46922121317538E-02 
2013	 9.47987625717441E-02 
2014	 9.48927378279608E-02 
2015	 9.50013054870117E-02 
2016	 9.51130017412129E-02 
2017	 9.52076514453352E-02 
2018	 9.52877990430924E-02 
2019	 9.53463666249697E-02 
2020	 9.54134896151635E-02 
2021	 0.095469992400912 
2022	 9.55280260944105E-02 
2023	 9.55887271541686E-02 
2024	 9.56495623791447E-02 
2025	 9.57023895513621E-02 
2026	 9.57610359608365E-02 
2027	 9.58362693191158E-02 
2028	 0.095883694533498 
2029	 9.59494877064787E-02 
2030	 0.096027182010339 
2031	 9.60800583567506E-02 
2032	 9.61251483303897E-02 
2033	 9.61757146215102E-02 
2034	 9.62037020293055E-02 
2035	 9.62539967089529E-02 
2036	 9.63390888537762E-02 
2037	 9.63884764773529E-02 
2038	 9.64200204495144E-02 
2039	 9.64573811700411E-02 
2040	 9.64883464854061E-02 
2041	 9.65058435596232E-02 
2042	 9.65172720393575E-02 
2043	 9.65549575082823E-02 
2044	 9.65722915410325E-02 
2045	 9.65666496527892E-02 
2046	 0.096584171487611 
2047	 9.66165693331933E-02 
2048	 9.66348124469254E-02 
2049	 9.66580146946422E-02 
2050	 9.66755666054386E-02 
2051	 9.66822201809053E-02 
2052	 9.66893051968431E-02 
2053	 0.096697422623697 
2054	 0.096701753440431 
2055	 0.096701884020092 
2056	 9.66998139717849E-02 
2057	 0.096695772980516 
2058	 9.66789625288588E-02 
2059	 9.66866333353609E-02 
2060	 0.096701589973157 
2061	 9.67230220469384E-02 
2062	 9.67795510622083E-02 
2063	 9.67995633679509E-02 
2064	 0.096800835412478 
2065	 9.68058001598002E-02 
2066	 9.67877691342565E-02 
2067	 0.096785811261789 
2068	 0.096789798607188 
2069	 9.68027320393984E-02 
2070	 9.68189911211222E-02 
2071	 9.68461095106878E-02 
2072	 9.68615138724036E-02 
2073	 9.68826246846259E-02 
2074	 9.68888943336505E-02 
2075	 9.68773058310913E-02 
2076	 9.68792678293613E-02 
2077	 9.68846014074802E-02 
2078	 9.68836697628618E-02 
2079	 9.68691813589277E-02 
2080	 9.68809126024466E-02 
2081	 9.69003244204395E-02 
2082	 0.096921811923242 
2083	 9.69644107163526E-02 
2084	 9.70173645137461E-02 
2085	 9.70421237819209E-02 
2086	 9.70473617692701E-02 
2087	 9.70677947427222E-02 
2088	 9.70811535132605E-02 
2089	 9.71018358866658E-02 
2090	 9.71406630226023E-02 
2091	 9.71554740339015E-02 
2092	 9.71517266416896E-02 
2093	 9.71625359300374E-02 
2094	 9.71674245272355E-02 
2095	 9.71778582366504E-02 
2096	 9.72017848200631E-02 
2097	 9.72200247778613E-02 
2098	 9.72298742593523E-02 
2099	 9.72452485976105E-02 
2100	 9.72693117861184E-02 
2101	 9.72948320979877E-02 
2102	 9.73390171116627E-02 
2103	 9.74119712932268E-02 
2104	 9.74496053107843E-02 
2105	 9.74886871924229E-02 
2106	 0.097513040709302 
2107	 9.74910594860604E-02 
2108	 9.75117160389998E-02 
2109	 9.75601814946862E-02 
2110	 9.75923681407492E-02 
2111	 9.76381085317166E-02 
2112	 9.76734000881111E-02 
2113	 9.76954902035827E-02 
2114	 0.09770700038067 
2115	 9.77393580952291E-02 
2116	 9.77780480168498E-02 
2117	 9.78228081819365E-02 
2118	 9.78790167427209E-02 
2119	 9.79309799314932E-02 
2120	 9.79872248186331E-02 
2121	 9.80425441775882E-02 
2122	 9.81162696482591E-02 
2123	 9.81543469567845E-02 
2124	 9.81726372023672E-02 
2125	 9.81921989737923E-02 
2126	 9.81866726242535E-02 
2127	 9.81878826573233E-02 
2128	 9.81877060637452E-02 
2129	 9.81970332858661E-02 
2130	 9.81981482189201E-02 
2131	 9.82108419194315E-02 
2132	 9.82421939979547E-02 
2133	 9.83070810796274E-02 
2134	 9.83315911261538E-02 
2135	 9.83661965254137E-02 
2136	 9.83619363256976E-02 
2137	 9.83157368701195E-02 
2138	 9.82847349762624E-02 
2139	 9.82239574910397E-02 
2140	 9.81994072998283E-02 
2141	 9.82027235579363E-02 
2142	 0.098185040179462 
2143	 9.81829813519726E-02 
2144	 9.81655646531151E-02 
2145	 9.81222663658367E-02 
2146	 9.80848261741137E-02 
2147	 9.80556874436734E-02 
2148	 9.80109569116396E-02 
2149	 9.79669006231175E-02 
2150	 0.097924606172251 
2151	 9.78637439409854E-02 
2152	 0.097789730201507 
2153	 9.77162738591977E-02 
2154	 9.76277424063892E-02 
2155	 9.75459021324969E-02 
2156	 0.097459736985984 
2157	 9.73860331543587E-02 
2158	 9.73246764930449E-02 
2159	 9.72489545824248E-02 
2160	 9.71835806109102E-02 
2161	 9.71025403073503E-02 
2162	 9.69977261371023E-02 
2163	 9.69002051092728E-02 
2164	 0.09680008446162 
2165	 9.66960720612449E-02 
2166	 9.66036203787009E-02 
2167	 9.65149445288331E-02 
2168	 9.64273613577891E-02 
2169	 9.63450945964645E-02 
2170	 9.62675045091274E-02 
2171	 9.61938601100844E-02 
2172	 9.61188809869014E-02 
2173	 9.60530911823366E-02 
2174	 9.59785161522799E-02 
2175	 9.59044893057685E-02 
2176	 9.58187977003004E-02 
2177	 9.57085807119628E-02 
2178	 9.56246231213436E-02 
2179	 9.55438485186805E-02 
2180	 0.095468851169158 
2181	 9.54283076132073E-02 
2182	 9.53668508001229E-02 
2183	 9.52966851010418E-02 
2184	 9.52131931615779E-02 
2185	 9.51389206441626E-02 
2186	 9.50577179247969E-02 
2187	 9.49869698323933E-02 
2188	 9.49191685073328E-02 
2189	 9.48582062516005E-02 
2190	 9.48020814887175E-02 
2191	 9.47505836495527E-02 
2192	 9.47073531881096E-02 
2193	 9.46672894801594E-02 
2194	 9.46389138250243E-02 
2195	 9.45956397417073E-02 
2196	 9.45487028770434E-02 
2197	 9.45033820456485E-02 
2198	 9.44557186066756E-02 
2199	 9.44013943201954E-02 
2200	 9.43392358266803E-02 
2201	 9.42840352003816E-02 
2202	 9.42272515862095E-02 
2203	 0.094155998965671 
2204	 9.41199085224529E-02 
2205	 9.41091357432308E-02 
2206	 0.094084760229205 
2207	 9.40706466830507E-02 
2208	 9.40549295006292E-02 
2209	 9.40396704176271E-02 
2210	 9.40177533621384E-02 
2211	 9.40013162991628E-02 
2212	 9.39769413551432E-02 
2213	 0.093924213278956 
2214	 9.39025477855696E-02 
2215	 9.39085927748454E-02 
2216	 9.38940488236508E-02 
2217	 0.093889222188036 
2218	 9.38720373562537E-02 
2219	 9.38217919702596E-02 
2220	 9.37946902271293E-02 
2221	 9.37795509996922E-02 
2222	 9.37695723963863E-02 
2223	 9.37373210485163E-02 
2224	 9.37125356640719E-02 
2225	 9.36737573798271E-02 
2226	 9.35951470393762E-02 
2227	 9.35799820790838E-02 
2228	 9.35980669964982E-02 
2229	 0.093598603873339 
2230	 9.36307984347527E-02 
2231	 9.36268174824998E-02 
2232	 9.35848886709297E-02 
2233	 9.35786664692362E-02 
2234	 9.35894036547642E-02 
2235	 9.35849137384511E-02 
2236	 9.35869073513318E-02 
2237	 9.35801084512407E-02 
2238	 9.35506705232642E-02 
2239	 9.35367864999996E-02 
2240	 9.35417742537063E-02 
2241	 9.35357554301664E-02 
2242	 9.35244222967963E-02 
2243	 9.35109333481465E-02 
2244	 9.34883964886404E-02 
2245	 9.34748216348855E-02 
2246	 9.34491295987678E-02 
2247	 0.093429446014745 
2248	 0.093399420090442 
2249	 9.33572808299644E-02 
2250	 9.33258864924245E-02 
2251	 9.32925129242805E-02 
2252	 9.32681656521239E-02 
2253	 9.32505897453224E-02 
2254	 9.32352625083139E-02 
2255	 9.32232966541852E-02 
2256	 0.093214016833409 
2257	 9.32137209078611E-02 
2258	 9.32087621023046E-02 
2259	 9.32019388833597E-02 
2260	 9.32024969629177E-02 
2261	 9.32058896188392E-02 
2262	 9.32039659025038E-02 
2263	 9.32175653098781E-02 
2264	 9.32074696798233E-02 
2265	 9.31576466131105E-02 
2266	 9.31451001072127E-02 
2267	 9.31578712131607E-02 
2268	 9.31491770489285E-02 
2269	 9.31479916200169E-02 
2270	 9.31526511130216E-02 
2271	 9.31374658840635E-02 
2272	 9.30757788424147E-02 
2273	 9.30069061377553E-02 
2274	 9.29681976869386E-02 
2275	 9.29211209075831E-02 
2276	 9.28567410905543E-02 
2277	 9.28087748120599E-02 
2278	 9.27752010206263E-02 
2279	 9.27475891699952E-02 
2280	 9.27326565366598E-02 
2281	 9.27009332826129E-02 
2282	 9.26795275469729E-02 
2283	 9.26410780134982E-02 
2284	 9.25604928997135E-02 
2285	 9.25301431992762E-02 
2286	 9.25324598799464E-02 
2287	 9.25059830854416E-02 
2288	 0.092506134483433 
2289	 9.24692574810078E-02 
2290	 9.23723697740495E-02 
2291	 9.23175969621136E-02 
2292	 9.22816007408026E-02 
2293	 9.22299386741454E-02 
2294	 9.21825005112414E-02 
2295	 9.21455499968303E-02 
2296	 9.21116373458855E-02 
2297	 9.20541713682019E-02 
2298	 9.20211732936955E-02 
2299	 9.19967499580111E-02 
2300	 9.18986956388613E-02 
2301	 9.17961102727989E-02 
2302	 0.091722348343591 
2303	 9.16102759648428E-02 
2304	 9.15267536290931E-02 
2305	 9.14620374556638E-02 
2306	 9.13524820705288E-02 
2307	 9.11912482574649E-02 
2308	 9.10885314970761E-02 
2309	 9.09838113232755E-02 
2310	 9.09026393620952E-02 
2311	 9.08782122089882E-02 
2312	 0.090803073797541 
2313	 9.07193652029043E-02 
2314	 9.06210153797066E-02 
2315	 9.04642230080513E-02 
2316	 9.03863104148475E-02 
2317	 9.03588262807164E-02 
2318	 9.02829424741689E-02 
2319	 9.02232183621194E-02 
2320	 9.01671743830809E-02 
2321	 9.00735197575686E-02 
2322	 9.00011574766988E-02 
2323	 8.99772823547449E-02 
2324	 8.99215955077846E-02 
2325	 8.98247866857729E-02 
2326	 8.97569025307536E-02 
2327	 8.97071499017633E-02 
2328	 8.96366203940038E-02 
2329	 8.96055744626803E-02 
2330	 8.95677986899922E-02 
2331	 8.95322256442258E-02 
2332	 8.95507634735834E-02 
2333	 8.95452900526124E-02 
2334	 8.95262951758642E-02 
2335	 8.95330446876716E-02 
2336	 0.089488674887542 
2337	 0.089418936675318 
2338	 8.93931779628947E-02 
2339	 8.93158844823563E-02 
2340	 8.92287034867012E-02 
2341	 8.91898991669325E-02 
2342	 8.91269833973139E-02 
2343	 8.90912492082056E-02 
2344	 8.90992913489168E-02 
2345	 8.90966495440602E-02 
2346	 8.91262146336927E-02 
2347	 8.90917908719845E-02 
2348	 8.90372802220186E-02 
2349	 8.89723390464745E-02 
2350	 8.88337063001721E-02 
2351	 8.87890034817938E-02 
2352	 8.88021465634234E-02 
2353	 8.87497663964786E-02 
2354	 8.87312937687022E-02 
2355	 8.86563648576261E-02 
2356	 0.08848436669358 
2357	 8.83992397873307E-02 
2358	 8.83157160228051E-02 
2359	 8.82789388230136E-02 
2360	 8.83275743420411E-02 
2361	 8.83144949746427E-02 
2362	 8.83271006338428E-02 
2363	 8.82789143226958E-02 
2364	 8.81665963269785E-02 
2365	 8.80739318940459E-02 
2366	 8.79389814150768E-02 
2367	 8.78380615396467E-02 
2368	 8.77557188539248E-02 
2369	 0.087656010216705 
2370	 8.75452467743552E-02 
2371	 8.74735108301687E-02 
2372	 8.74390484792795E-02 
2373	 8.74210850693437E-02 
2374	 8.73812909027906E-02 
2375	 8.73419633087876E-02 
2376	 8.72514715536483E-02 
2377	 8.70899907496394E-02 
2378	 8.69422152777184E-02 
2379	 8.68409013714604E-02 
2380	 8.67598580405479E-02 
2381	 8.66845352980043E-02 
2382	 0.086535360268465 
2383	 8.64151623156188E-02 
2384	 8.63165749611727E-02 
2385	 8.61820546776728E-02 
2386	 8.61456784187231E-02 
2387	 8.61149689315227E-02 
2388	 8.59834624173823E-02 
2389	 8.58194965986044E-02 
2390	 8.57262047479451E-02 
2391	 0.085597798618706 
2392	 8.54521118026279E-02 
2393	 8.53460860119964E-02 
2394	 8.51773439284485E-02 
2395	 0.085062653219704 
2396	 8.49906877121311E-02 
2397	 8.49565349859807E-02 
2398	 8.49209099076021E-02 
2399	 8.47450287946879E-02 
2400	 8.45983909135855E-02 
2401	 8.44484878112506E-02 
2402	 0.084277924676897 
2403	 8.42585424244755E-02 
2404	 8.42759364853179E-02 
2405	 8.42469452246504E-02 
2406	 0.084195968987032 
2407	 8.41019338570752E-02 
2408	 8.39320916369572E-02 
2409	 8.37402339434898E-02 
2410	 8.36185680054467E-02 
2411	 8.35710934272593E-02 
2412	 8.35561001328282E-02 
2413	 8.35152492738811E-02 
2414	 8.33466810513054E-02 
2415	 8.31104956889786E-02 
2416	 8.29412455183462E-02 
2417	 8.26684557777199E-02 
2418	 8.25610453425906E-02 
2419	 8.26788704928413E-02 
2420	 8.25898750825613E-02 
2421	 8.24643453204008E-02 
2422	 8.24202195192953E-02 
2423	 8.23122468147559E-02 
2424	 8.22174374575615E-02 
2425	 8.22148457197954E-02 
2426	 8.21011333732667E-02 
2427	 8.18234682889543E-02 
2428	 8.17233491613496E-02 
2429	 8.17604944770491E-02 
2430	 8.16468842586318E-02 
2431	 8.15436378820599E-02 
2432	 8.14214227097386E-02 
2433	 8.11706606207983E-02 
2434	 8.09929210404083E-02 
2435	 8.08718275700212E-02 
2436	 8.07263026522603E-02 
2437	 8.05442575058095E-02 
2438	 0.08038632878459 
2439	 8.02673493555778E-02 
2440	 8.01438056537457E-02 
2441	 8.00313649876653E-02 
2442	 7.99080632581827E-02 
2443	 7.97690281335497E-02 
2444	 7.96451574043472E-02 
2445	 7.95385930641999E-02 
2446	 7.94536302036774E-02 
2447	 7.93982935177614E-02 
2448	 7.92929863467136E-02 
2449	 7.91670892103311E-02 
2450	 7.89983340823239E-02 
2451	 0.078773922349892 
2452	 7.86122726062178E-02 
2453	 7.84677619537241E-02 
2454	 7.82917884821059E-02 
2455	 0.07817498004105 
2456	 7.79545326693391E-02 
2457	 7.75341961405248E-02 
2458	 7.73892471277353E-02 
2459	 7.73337556143752E-02 
2460	 7.72521596708651E-02 
2461	 7.74480836502644E-02 
2462	 7.74019651710146E-02 
2463	 7.71511743427276E-02 
2464	 0.076978745318513 
2465	 7.67758092428509E-02 
2466	 7.65604196824616E-02 
2467	 0.076318992213312 
2468	 7.60683335253439E-02 
2469	 7.57662165308916E-02 
2470	 7.54963659731383E-02 
2471	 7.54215064276641E-02 
2472	 7.54414949604158E-02 
2473	 7.53678566579926E-02 
2474	 7.51930969284708E-02 
2475	 7.50950041441409E-02 
2476	 7.50281668181494E-02 
2477	 7.47567216774429E-02 
2478	 0.074633804504603 
2479	 7.45398881665169E-02 
2480	 0.074280968845579 
2481	 7.42002224601452E-02 
2482	 7.40844544569205E-02 
2483	 7.38929313991045E-02 
2484	 7.37639576042149E-02 
2485	 7.35217140788914E-02 
2486	 0.07340306634133 
2487	 7.33629887145189E-02 
2488	 7.31412096908932E-02 
2489	 7.28262269558891E-02 
2490	 7.25540348128027E-02 
2491	 7.24110714166333E-02 
2492	 7.22274311489031E-02 
2493	 7.22110094602003E-02 
2494	 7.21335897269089E-02 
2495	 7.17312551775022E-02 
2496	 0.07147998160642 
2497	 7.13370094341394E-02 
2498	 7.13115913857974E-02 
2499	 7.13955929479765E-02 
2500	 7.12638665780714E-02 
