Wavelength	LMW_2300001.asd
350	 7.64789835308689E-02 
351	 8.48971828123434E-02 
352	 8.49968450331165E-02 
353	 7.09070474813573E-02 
354	 7.63548054710403E-02 
355	 7.60129145653744E-02 
356	 7.51477441137214E-02 
357	 8.22935481962727E-02 
358	 9.01127221566089E-02 
359	 8.52775502944313E-02 
360	 7.61405912904601E-02 
361	 0.082027843708302 
362	 8.07510513647707E-02 
363	 7.90513963372431E-02 
364	 8.10956651886539E-02 
365	 8.13900699208867E-02 
366	 0.083874210417796 
367	 8.69023000815709E-02 
368	 8.78437690359221E-02 
369	 8.58118650976939E-02 
370	 8.67266804332372E-02 
371	 8.97201238277552E-02 
372	 0.089346619530579 
373	 8.48083448826931E-02 
374	 8.18738434478133E-02 
375	 0.083170974389287 
376	 8.49012857315159E-02 
377	 8.52090396067586E-02 
378	 8.47638828709844E-02 
379	 8.51165202349048E-02 
380	 8.75579600656343E-02 
381	 8.78848252916352E-02 
382	 8.69200195177314E-02 
383	 8.89258203480102E-02 
384	 0.089268331692603 
385	 8.85177545734871E-02 
386	 8.81553999395312E-02 
387	 0.090028912276758 
388	 9.12158550693312E-02 
389	 9.22043252824965E-02 
390	 9.36638225509193E-02 
391	 9.16009770612805E-02 
392	 8.97546657166765E-02 
393	 8.99133728619015E-02 
394	 9.17090050123104E-02 
395	 9.34639614398462E-02 
396	 9.44431387172472E-02 
397	 9.46597631430463E-02 
398	 9.52267006603283E-02 
399	 9.52459083867067E-02 
400	 9.53625800996242E-02 
401	 9.61776066405247E-02 
402	 0.094638107605738 
403	 9.44574935485041E-02 
404	 9.57789427470771E-02 
405	 0.09498675989492 
406	 9.68936132970404E-02 
407	 9.93423640587283E-02 
408	 9.97385804078262E-02 
409	 9.75567267543039E-02 
410	 9.65324761606717E-02 
411	 0.097398928606826 
412	 9.90093878917475E-02 
413	 9.87448738006968E-02 
414	 9.76160322400168E-02 
415	 9.70577094399103E-02 
416	 9.85904913215804E-02 
417	 9.89668571579587E-02 
418	 9.83201931054685E-02 
419	 9.77141419137516E-02 
420	 9.82444726634109E-02 
421	 0.09812603012973 
422	 9.78022371355347E-02 
423	 0.09885261754089 
424	 9.82543757849274E-02 
425	 9.75946170157475E-02 
426	 9.78228282261365E-02 
427	 9.76874977182132E-02 
428	 9.76167884253395E-02 
429	 0.097349342896437 
430	 9.66855779064177E-02 
431	 9.67391201833336E-02 
432	 0.096538445883751 
433	 9.61014362674519E-02 
434	 9.64187155609173E-02 
435	 9.62544442220185E-02 
436	 9.61187537106414E-02 
437	 9.63399838672178E-02 
438	 9.57221891994938E-02 
439	 9.61573927190441E-02 
440	 9.71271482657655E-02 
441	 0.097106749439634 
442	 9.71375186517829E-02 
443	 9.70945074008358E-02 
444	 9.69627440900879E-02 
445	 9.70498435416207E-02 
446	 9.73970660653457E-02 
447	 9.76734314390393E-02 
448	 9.76203404489413E-02 
449	 9.77558729241251E-02 
450	 9.80388994130665E-02 
451	 9.83250752954375E-02 
452	 9.84070780697187E-02 
453	 9.82524911188864E-02 
454	 9.80871663436462E-02 
455	 9.80538797456633E-02 
456	 9.79665824451373E-02 
457	 9.80367450410289E-02 
458	 0.098212525798367 
459	 9.83326745125634E-02 
460	 9.84358913931339E-02 
461	 0.098400890735516 
462	 9.82896398717935E-02 
463	 9.84335386831627E-02 
464	 9.84779552642293E-02 
465	 9.84338346870653E-02 
466	 9.84106904198568E-02 
467	 9.84641559788594E-02 
468	 9.86175946486292E-02 
469	 9.87361432114247E-02 
470	 9.85975328408682E-02 
471	 9.86701290742033E-02 
472	 9.87681805359456E-02 
473	 9.87127239323301E-02 
474	 9.86043886481167E-02 
475	 9.84210998780487E-02 
476	 9.83835858484534E-02 
477	 9.86827912513142E-02 
478	 9.85030081121971E-02 
479	 9.85141324032538E-02 
480	 9.88644949579079E-02 
481	 9.88119349336548E-02 
482	 0.098815482276085 
483	 9.89362303981079E-02 
484	 9.90474403047595E-02 
485	 0.098675726381002 
486	 9.85410762088157E-02 
487	 9.87020630760438E-02 
488	 9.86596989856232E-02 
489	 9.85534719217776E-02 
490	 9.86280550004112E-02 
491	 9.88993485522353E-02 
492	 9.87753944200956E-02 
493	 0.098599234069605 
494	 9.84952986860122E-02 
495	 9.84921921192514E-02 
496	 9.86827058806087E-02 
497	 9.87258597542008E-02 
498	 9.85754175625841E-02 
499	 0.098673083762026 
500	 9.87633405233621E-02 
501	 9.87259723011592E-02 
502	 9.85557353743249E-02 
503	 9.85701049854014E-02 
504	 9.85762540042291E-02 
505	 9.85309443379913E-02 
506	 9.85402676541114E-02 
507	 9.85711249290601E-02 
508	 9.86200674090026E-02 
509	 9.86555613738651E-02 
510	 9.85477557654198E-02 
511	 9.84616803781543E-02 
512	 9.84784915695224E-02 
513	 9.85976364508393E-02 
514	 9.85387861887456E-02 
515	 9.85100720823093E-02 
516	 9.86146314107826E-02 
517	 9.87037488796693E-02 
518	 9.85345595666488E-02 
519	 9.83579363690265E-02 
520	 9.84697562196743E-02 
521	 9.84353940804664E-02 
522	 0.098513094045201 
523	 9.86714381462973E-02 
524	 9.85498791176448E-02 
525	 9.84654035887096E-02 
526	 0.098437421982269 
527	 9.84373519591907E-02 
528	 9.85214602383905E-02 
529	 9.85309593452417E-02 
530	 9.84958848626422E-02 
531	 9.85570496534063E-02 
532	 9.85720126742673E-02 
533	 9.85791045374789E-02 
534	 9.86137611389803E-02 
535	 9.86585535889033E-02 
536	 9.86546757218809E-02 
537	 9.86507140545148E-02 
538	 9.87201811967496E-02 
539	 9.87916265884987E-02 
540	 9.87866776713084E-02 
541	 9.87298045167094E-02 
542	 9.87771625530065E-02 
543	 9.88687440334447E-02 
544	 9.89636913786831E-02 
545	 9.90398461859767E-02 
546	 9.91485436506992E-02 
547	 9.91959809236505E-02 
548	 9.92020968039058E-02 
549	 0.099278699981615 
550	 9.93210124828191E-02 
551	 9.93700658195362E-02 
552	 9.94829516550026E-02 
553	 0.099709478921939 
554	 9.98443594604796E-02 
555	 9.99455683644085E-02 
556	 0.10018524669452 
557	 0.100377354989346 
558	 0.1005746043502 
559	 0.100812140480917 
560	 0.101054844621973 
561	 0.101197577872517 
562	 0.101352032619877 
563	 0.101636073042275 
564	 0.101753121243688 
565	 0.101808936951741 
566	 0.101891127197663 
567	 0.102037993079279 
568	 0.102308822309509 
569	 0.102715026129458 
570	 0.103215884816175 
571	 0.103661884196108 
572	 0.10412224699696 
573	 0.10459973452801 
574	 0.105050607174336 
575	 0.105476537972853 
576	 0.105919301422995 
577	 0.106368798732283 
578	 0.106678373626088 
579	 0.106998204083759 
580	 0.107312527456481 
581	 0.107572368496409 
582	 0.108011856049017 
583	 0.108478091715117 
584	 0.108898691790056 
585	 0.109365706785987 
586	 0.109841663282007 
587	 0.110290074381396 
588	 0.110708729866658 
589	 0.111248415920411 
590	 0.11178671030523 
591	 0.112316914303354 
592	 0.112941333872895 
593	 0.113538053373855 
594	 0.114205255904049 
595	 0.11495196857866 
596	 0.115441873976634 
597	 0.115836184580059 
598	 0.116189713167934 
599	 0.116500925974872 
600	 0.116735021061249 
601	 0.11700552013004 
602	 0.117348541418752 
603	 0.117634745734054 
604	 0.117966688304613 
605	 0.118305199902978 
606	 0.118589898689479 
607	 0.118930572932839 
608	 0.119246904520767 
609	 0.119539729642733 
610	 0.119910446359796 
611	 0.120145919297379 
612	 0.120360264766559 
613	 0.12065932808436 
614	 0.120846965405143 
615	 0.120968267281528 
616	 0.121073637084013 
617	 0.121218526223243 
618	 0.121484456679863 
619	 0.121689572690153 
620	 0.121736712491439 
621	 0.121771835147561 
622	 0.12192296002204 
623	 0.122107225087262 
624	 0.122178727876381 
625	 0.122267125853968 
626	 0.122377542664871 
627	 0.122486228808944 
628	 0.122544066865492 
629	 0.122652496376232 
630	 0.122763876150584 
631	 0.122819853631008 
632	 0.122888781331761 
633	 0.122955504286711 
634	 0.123017388529484 
635	 0.123083902636879 
636	 0.123173277772127 
637	 0.123256365569589 
638	 0.123316972827192 
639	 0.123390065242418 
640	 0.123472849294101 
641	 0.123545894862194 
642	 0.123592981697818 
643	 0.123695242381662 
644	 0.123780389110826 
645	 0.12382967594563 
646	 0.123923686588166 
647	 0.123986814261608 
648	 0.124038768064495 
649	 0.124118068386405 
650	 0.124221610378107 
651	 0.124312198389618 
652	 0.124390321283851 
653	 0.124488835961881 
654	 0.124600397417507 
655	 0.124667117682815 
656	 0.124686032067052 
657	 0.124815326804179 
658	 0.124940922373069 
659	 0.125039183273512 
660	 0.125132586919145 
661	 0.125254542608447 
662	 0.125377490589586 
663	 0.125491881888028 
664	 0.125623182056006 
665	 0.12576087877916 
666	 0.125862788322062 
667	 0.125916992065493 
668	 0.12607172310357 
669	 0.126203604536151 
670	 0.126299209249203 
671	 0.126437330277896 
672	 0.126550822900832 
673	 0.126687273505837 
674	 0.126866960163701 
675	 0.126998837840951 
676	 0.127156845183794 
677	 0.127303764106128 
678	 0.12738113681202 
679	 0.127524893837141 
680	 0.127718342041231 
681	 0.127922655499749 
682	 0.128089804735638 
683	 0.128264580929698 
684	 0.128440510686191 
685	 0.128598461554429 
686	 0.128715829764085 
687	 0.128874303397609 
688	 0.129082829249502 
689	 0.129291805839569 
690	 0.129443374799275 
691	 0.129582915815702 
692	 0.129745061340575 
693	 0.129907127777222 
694	 0.130112039411051 
695	 0.130315206120211 
696	 0.130463727392956 
697	 0.130646704725566 
698	 0.130849918208902 
699	 0.131041620308063 
700	 0.131183255604766 
701	 0.131411040285988 
702	 0.131614499098387 
703	 0.131722210902452 
704	 0.131926800779259 
705	 0.132117081816698 
706	 0.132258287019841 
707	 0.132368242578613 
708	 0.132542480600793 
709	 0.132752887312164 
710	 0.132937567112251 
711	 0.133005486977979 
712	 0.133150851484166 
713	 0.133336712996591 
714	 0.13348689912148 
715	 0.13365082053512 
716	 0.133795899447124 
717	 0.133912013041858 
718	 0.134011472270204 
719	 0.134154016688395 
720	 0.134278391120538 
721	 0.134363391848402 
722	 0.134503469838223 
723	 0.134603565354337 
724	 0.134675292342833 
725	 0.134759209931141 
726	 0.134840332795499 
727	 0.134935501023917 
728	 0.135019488123162 
729	 0.135035228722233 
730	 0.135107720742108 
731	 0.135173681030823 
732	 0.135189584127282 
733	 0.135243325428291 
734	 0.135299795012874 
735	 0.135338109462635 
736	 0.1353508339074 
737	 0.135387564228503 
738	 0.13538643763347 
739	 0.135348889047982 
740	 0.135351200946316 
741	 0.135347141945907 
742	 0.135332850955979 
743	 0.135311598001439 
744	 0.13528265162352 
745	 0.135244438812164 
746	 0.135195764322825 
747	 0.135135362037407 
748	 0.135054008941837 
749	 0.134997135446808 
750	 0.134964771140179 
751	 0.134897901945258 
752	 0.134783864635092 
753	 0.134664310543815 
754	 0.134576725988666 
755	 0.13450569422835 
756	 0.134440861905381 
757	 0.134348574602638 
758	 0.134202292416576 
759	 0.134109784853963 
760	 0.134005996029486 
761	 0.133875875188242 
762	 0.133785965327107 
763	 0.133669563910438 
764	 0.133511801913909 
765	 0.133325445250044 
766	 0.1331566238552 
767	 0.133029215090599 
768	 0.132926038539027 
769	 0.132805476205634 
770	 0.132632165560311 
771	 0.132481670970501 
772	 0.132358946338523 
773	 0.132176289666889 
774	 0.132040545018865 
775	 0.13190820615389 
776	 0.131732672345596 
777	 0.131549555459412 
778	 0.131378822720354 
779	 0.131241334934744 
780	 0.131137941225842 
781	 0.13096023745261 
782	 0.130809465981306 
783	 0.130692797313129 
784	 0.130507744904413 
785	 0.130358067746163 
786	 0.130227469588355 
787	 0.130076662635313 
788	 0.129858799637928 
789	 0.129708647845698 
790	 0.129566997658644 
791	 0.12934522367781 
792	 0.129227239206397 
793	 0.1290765255689 
794	 0.128882949768118 
795	 0.128750170929649 
796	 0.128582099854283 
797	 0.128437557797674 
798	 0.128335030888387 
799	 0.128177430410606 
800	 0.128008942859361 
801	 0.127845353615041 
802	 0.127694729952554 
803	 0.127567084127905 
804	 0.127431070612584 
805	 0.127288281703137 
806	 0.127157157693322 
807	 0.126999507289167 
808	 0.126841900072298 
809	 0.126691312924334 
810	 0.126521444361955 
811	 0.126428892205895 
812	 0.126334068143836 
813	 0.126181311176107 
814	 0.126099794441101 
815	 0.1259416831369 
816	 0.125755081051145 
817	 0.125648920475601 
818	 0.125583116532319 
819	 0.125483687771267 
820	 0.125356066628225 
821	 0.125268477535099 
822	 0.12514766826183 
823	 0.125035265672604 
824	 0.124954759652424 
825	 0.124874245767999 
826	 0.12473141753469 
827	 0.124590616358654 
828	 0.124513429457929 
829	 0.124434950577768 
830	 0.124329301244714 
831	 0.124230188435223 
832	 0.124180383115322 
833	 0.124078802826502 
834	 0.123971348675409 
835	 0.123867001028308 
836	 0.123740290892534 
837	 0.123732719454408 
838	 0.123681427838939 
839	 0.123518863663214 
840	 0.12342095962744 
841	 0.123379450246974 
842	 0.123344183225059 
843	 0.123269201173756 
844	 0.123163694207143 
845	 0.123153652863519 
846	 0.123168670015404 
847	 0.123079720740388 
848	 0.123010682038576 
849	 0.122945096534888 
850	 0.122870351693205 
851	 0.122789102409842 
852	 0.122762098524856 
853	 0.122747423360199 
854	 0.122720505006106 
855	 0.122704404060588 
856	 0.122674510835282 
857	 0.122657897017399 
858	 0.122664308722292 
859	 0.12263073255975 
860	 0.122577056202753 
861	 0.122502929792668 
862	 0.122421614244827 
863	 0.122424609960504 
864	 0.12242166453724 
865	 0.122400497326424 
866	 0.122398378355149 
867	 0.122404197434596 
868	 0.12240664473823 
869	 0.122409201567981 
870	 0.12242789863365 
871	 0.122437116242376 
872	 0.122428461357516 
873	 0.122403912621464 
874	 0.122375994392864 
875	 0.122378396224995 
876	 0.12241247081874 
877	 0.122453695297713 
878	 0.122433952437612 
879	 0.122444314157589 
880	 0.122469057981615 
881	 0.122478005768486 
882	 0.122553126132631 
883	 0.122599152969847 
884	 0.122595779181271 
885	 0.122575450166799 
886	 0.122575412918354 
887	 0.122622361538966 
888	 0.122688037816739 
889	 0.122708525507748 
890	 0.122734200937625 
891	 0.122755075209574 
892	 0.122784827121208 
893	 0.122866870158094 
894	 0.122866671997175 
895	 0.122846407330683 
896	 0.122885207197981 
897	 0.123017301117385 
898	 0.12308344894364 
899	 0.123115697071756 
900	 0.123172655976459 
901	 0.123233130526806 
902	 0.123296642176971 
903	 0.123386516179772 
904	 0.123503017537797 
905	 0.123535965732494 
906	 0.12354241391714 
907	 0.123609820521887 
908	 0.123774025550213 
909	 0.123756824752573 
910	 0.12382412134913 
911	 0.124000363030163 
912	 0.124132764492718 
913	 0.124186502395846 
914	 0.124243331880129 
915	 0.12432287209099 
916	 0.12438461341482 
917	 0.124480580959092 
918	 0.12457626389726 
919	 0.124677330348138 
920	 0.124834257601306 
921	 0.124885070879774 
922	 0.124932904626152 
923	 0.125040492208036 
924	 0.12514338769509 
925	 0.125234321594316 
926	 0.125384584416427 
927	 0.125585064894226 
928	 0.125656393063735 
929	 0.12572454882251 
930	 0.125863729345944 
931	 0.126052431534946 
932	 0.126086962744997 
933	 0.126196985224211 
934	 0.126346681565632 
935	 0.126463156296333 
936	 0.126612189020119 
937	 0.126717835395447 
938	 0.126800644847429 
939	 0.126912750191702 
940	 0.127096748294642 
941	 0.127206983160913 
942	 0.127327497932447 
943	 0.127565363228452 
944	 0.127737236822751 
945	 0.127865358865874 
946	 0.127936604292378 
947	 0.127961537127224 
948	 0.128104210434415 
949	 0.128265353437081 
950	 0.128437748317915 
951	 0.128641513093031 
952	 0.128767951366877 
953	 0.128864834522404 
954	 0.128960052170515 
955	 0.129073667325268 
956	 0.129271637024603 
957	 0.12946653750348 
958	 0.129576806336033 
959	 0.129596772030133 
960	 0.129841989712461 
961	 0.130059157845551 
962	 0.130206450925539 
963	 0.130386146731086 
964	 0.130510807736758 
965	 0.130664631197131 
966	 0.130842295930005 
967	 0.130980512648071 
968	 0.13110296878334 
969	 0.131235396534213 
970	 0.131377973886022 
971	 0.131508411164184 
972	 0.131589659995198 
973	 0.131706392666773 
974	 0.131832136131372 
975	 0.131905887903759 
976	 0.132173843223865 
977	 0.132327876797321 
978	 0.132377550535253 
979	 0.132530210035245 
980	 0.132690645473264 
981	 0.132773814317938 
982	 0.132872200170254 
983	 0.133120479365655 
984	 0.133274807867399 
985	 0.133377308475144 
986	 0.133449080637579 
987	 0.133533286885769 
988	 0.133886022583529 
989	 0.134031300031529 
990	 0.134019132606617 
991	 0.134146655833861 
992	 0.134378364687239 
993	 0.134406496934127 
994	 0.134386071199852 
995	 0.134560606893461 
996	 0.134570192421504 
997	 0.134705925391125 
998	 0.134923789000055 
999	 0.13508189096158 
1000	 0.135237118845206 
1001	 0.131764936804012 
1002	 0.131874732181268 
1003	 0.131959875177457 
1004	 0.132055420328803 
1005	 0.132119032140334 
1006	 0.132164554549846 
1007	 0.132207924593212 
1008	 0.132269501375118 
1009	 0.132296448509866 
1010	 0.132322202131339 
1011	 0.132452287180778 
1012	 0.132607277341787 
1013	 0.132681180139771 
1014	 0.132742865343752 
1015	 0.132826870256779 
1016	 0.132898592378765 
1017	 0.132971547693445 
1018	 0.13308286233551 
1019	 0.133172801369778 
1020	 0.133211021626654 
1021	 0.133272986541886 
1022	 0.13333687844737 
1023	 0.133387080781191 
1024	 0.133427252283497 
1025	 0.133464532895286 
1026	 0.133534698933183 
1027	 0.133583088719577 
1028	 0.133639259354232 
1029	 0.133743183522191 
1030	 0.133773567013224 
1031	 0.133809111575355 
1032	 0.133854422964679 
1033	 0.133932836492055 
1034	 0.133953538376986 
1035	 0.13401775476252 
1036	 0.134081472463979 
1037	 0.134104654859398 
1038	 0.13413964799066 
1039	 0.13414445788747 
1040	 0.134188840207157 
1041	 0.1342553442302 
1042	 0.134255447899487 
1043	 0.134280565581508 
1044	 0.134330302929317 
1045	 0.134389778613909 
1046	 0.134440057753731 
1047	 0.134531599779495 
1048	 0.134590957574136 
1049	 0.134566815810759 
1050	 0.134578347545176 
1051	 0.134606352872553 
1052	 0.134616746943914 
1053	 0.134702830231891 
1054	 0.134724493281223 
1055	 0.134651289096457 
1056	 0.134654904529958 
1057	 0.134678318214265 
1058	 0.134702363866771 
1059	 0.134740676441328 
1060	 0.134848532991783 
1061	 0.134876595490512 
1062	 0.134922984688416 
1063	 0.134991531469632 
1064	 0.134966610507339 
1065	 0.134957358852804 
1066	 0.134919855002836 
1067	 0.1348409528225 
1068	 0.134860562699982 
1069	 0.134911792692854 
1070	 0.134941051624263 
1071	 0.134991470735626 
1072	 0.135000524316453 
1073	 0.134965651082168 
1074	 0.134974627507763 
1075	 0.134982471391056 
1076	 0.134982551821961 
1077	 0.135051229172975 
1078	 0.135115167307276 
1079	 0.135137847761211 
1080	 0.135193683496978 
1081	 0.135229206378566 
1082	 0.135188550319078 
1083	 0.135197191878198 
1084	 0.13523625972756 
1085	 0.135235826546359 
1086	 0.135248442960256 
1087	 0.135244537053926 
1088	 0.135224923839765 
1089	 0.135148634557914 
1090	 0.135123823083682 
1091	 0.135097176261288 
1092	 0.135121953294444 
1093	 0.13519621735382 
1094	 0.135235844377013 
1095	 0.135289563560344 
1096	 0.135338167439993 
1097	 0.135326675740049 
1098	 0.135337007109921 
1099	 0.135352926158831 
1100	 0.135374077055616 
1101	 0.135382617265956 
1102	 0.135414538778517 
1103	 0.135477337445633 
1104	 0.135507766357107 
1105	 0.135550322305378 
1106	 0.135599355384654 
1107	 0.135602775436491 
1108	 0.135608603502059 
1109	 0.135617262845318 
1110	 0.135635093878264 
1111	 0.135672849663563 
1112	 0.135753574440824 
1113	 0.135794505141573 
1114	 0.135823250703678 
1115	 0.135857202387683 
1116	 0.135877018961399 
1117	 0.135911262411037 
1118	 0.135960311892545 
1119	 0.136005709806578 
1120	 0.136028987603516 
1121	 0.136045256942694 
1122	 0.136073542917251 
1123	 0.136112385590349 
1124	 0.136154034487311 
1125	 0.136219076669419 
1126	 0.136261921179239 
1127	 0.13630033061631 
1128	 0.136326319270847 
1129	 0.136320339415956 
1130	 0.136356362881496 
1131	 0.136418929256773 
1132	 0.136457102215467 
1133	 0.136499968681256 
1134	 0.136552121696024 
1135	 0.136602898115901 
1136	 0.136626213205222 
1137	 0.13668212624288 
1138	 0.136730261846048 
1139	 0.136765357568528 
1140	 0.136774640027632 
1141	 0.136808743791402 
1142	 0.136847482860503 
1143	 0.136894479442621 
1144	 0.136968399243616 
1145	 0.137007604237468 
1146	 0.137018225377811 
1147	 0.13705463919222 
1148	 0.137099892992095 
1149	 0.13712407942531 
1150	 0.137145118608126 
1151	 0.137186494762035 
1152	 0.137193269043923 
1153	 0.137193744222266 
1154	 0.137218022095444 
1155	 0.137269255176581 
1156	 0.137294987601176 
1157	 0.137326303093251 
1158	 0.137336725149431 
1159	 0.137318013368748 
1160	 0.137323393661734 
1161	 0.137317075838065 
1162	 0.137336004691422 
1163	 0.137392069608113 
1164	 0.13742202594207 
1165	 0.137449898006228 
1166	 0.137479576493617 
1167	 0.137482837734817 
1168	 0.137499694947691 
1169	 0.137517968981621 
1170	 0.137541152812543 
1171	 0.137561285968558 
1172	 0.137584980812479 
1173	 0.137603266925089 
1174	 0.137615675708148 
1175	 0.137635391775389 
1176	 0.137658469271183 
1177	 0.13767716142334 
1178	 0.137697989170896 
1179	 0.137718288375292 
1180	 0.137724758363305 
1181	 0.137747766515963 
1182	 0.137788206189855 
1183	 0.137815500606388 
1184	 0.137855382020325 
1185	 0.137913111398824 
1186	 0.13794705317477 
1187	 0.137972889989319 
1188	 0.138001478369557 
1189	 0.138021602309791 
1190	 0.138042214365498 
1191	 0.138063194550402 
1192	 0.138086666072825 
1193	 0.138109281071836 
1194	 0.138128460437142 
1195	 0.138144453441782 
1196	 0.138167849822588 
1197	 0.138204803234773 
1198	 0.138220324451924 
1199	 0.138228916049362 
1200	 0.138235012921249 
1201	 0.138246845248082 
1202	 0.138237870184714 
1203	 0.138253717931744 
1204	 0.138295026329159 
1205	 0.138319800017802 
1206	 0.138338282226326 
1207	 0.138364059182163 
1208	 0.138402074134606 
1209	 0.138420357812395 
1210	 0.138421280216644 
1211	 0.138440790359746 
1212	 0.13846272280244 
1213	 0.138477462600816 
1214	 0.138508058010188 
1215	 0.138528266847331 
1216	 0.13854004037097 
1217	 0.138524216611888 
1218	 0.138545196333454 
1219	 0.138587163474688 
1220	 0.13860565082847 
1221	 0.138631931923872 
1222	 0.1386452303753 
1223	 0.138633378822338 
1224	 0.138637765400945 
1225	 0.138643506562151 
1226	 0.138658279808924 
1227	 0.138677676264497 
1228	 0.138700958447524 
1229	 0.138744264405839 
1230	 0.138771412499167 
1231	 0.138792643454719 
1232	 0.138811459100834 
1233	 0.138825331097929 
1234	 0.138824991280012 
1235	 0.138841819141629 
1236	 0.138863321702148 
1237	 0.138885628626583 
1238	 0.138921251423796 
1239	 0.138939909009877 
1240	 0.138950549647565 
1241	 0.138962346609631 
1242	 0.138971038236815 
1243	 0.138973336746883 
1244	 0.138955642364109 
1245	 0.138967661383831 
1246	 0.13899964362875 
1247	 0.139014606953393 
1248	 0.139033268039409 
1249	 0.139061574074018 
1250	 0.139094268925209 
1251	 0.139110343918419 
1252	 0.139124805092181 
1253	 0.13915446985793 
1254	 0.13917070658432 
1255	 0.139162003735852 
1256	 0.13916519699508 
1257	 0.139179079623059 
1258	 0.139186049977884 
1259	 0.139177272204476 
1260	 0.139186269587997 
1261	 0.139212629543796 
1262	 0.139226649215316 
1263	 0.139235648649918 
1264	 0.139252606097422 
1265	 0.139279803422441 
1266	 0.139290679753034 
1267	 0.139292318998559 
1268	 0.139303803257806 
1269	 0.139310503018538 
1270	 0.139293398010487 
1271	 0.139311043684576 
1272	 0.139353590650811 
1273	 0.13937855359885 
1274	 0.139420426281072 
1275	 0.139432532848101 
1276	 0.13941665439881 
1277	 0.139423522947199 
1278	 0.139410851049948 
1279	 0.139431376439685 
1280	 0.139494359617769 
1281	 0.139528271617783 
1282	 0.139575453799118 
1283	 0.139598352446765 
1284	 0.139584192319703 
1285	 0.139587358765605 
1286	 0.139587977587156 
1287	 0.139601182833725 
1288	 0.139622945085905 
1289	 0.139662229607297 
1290	 0.139688027369657 
1291	 0.139721686281666 
1292	 0.139736126792164 
1293	 0.139738272954623 
1294	 0.139744234252047 
1295	 0.139736769424843 
1296	 0.139741094898471 
1297	 0.139759195881547 
1298	 0.139763784244374 
1299	 0.139771587971341 
1300	 0.139763988419148 
1301	 0.139730813845686 
1302	 0.139714269438955 
1303	 0.13969872001965 
1304	 0.139684483651089 
1305	 0.139681185495588 
1306	 0.139655392744799 
1307	 0.139631152349773 
1308	 0.139624868756951 
1309	 0.139611000538847 
1310	 0.139601773550489 
1311	 0.13959810422941 
1312	 0.139584340287721 
1313	 0.139593256635251 
1314	 0.13963249121554 
1315	 0.139641719431084 
1316	 0.139646512731839 
1317	 0.139653817484812 
1318	 0.139634002481 
1319	 0.139640710788986 
1320	 0.139686522092601 
1321	 0.139698555126451 
1322	 0.139687086514807 
1323	 0.139702563907252 
1324	 0.139710955726415 
1325	 0.13970197354835 
1326	 0.139726359961805 
1327	 0.139757164161301 
1328	 0.139771283069653 
1329	 0.139784911875694 
1330	 0.139805121056863 
1331	 0.13982040515925 
1332	 0.139846760835296 
1333	 0.139885546997417 
1334	 0.139921187150893 
1335	 0.139961630781335 
1336	 0.140001268226192 
1337	 0.140045990081301 
1338	 0.140077991284288 
1339	 0.140110190734546 
1340	 0.140129987285494 
1341	 0.140128028736787 
1342	 0.140141047004646 
1343	 0.140154023496171 
1344	 0.140165570069379 
1345	 0.140197037603312 
1346	 0.140238620683266 
1347	 0.140267652399521 
1348	 0.140292761615916 
1349	 0.140313987011879 
1350	 0.140338243322556 
1351	 0.140366922239948 
1352	 0.140403693768922 
1353	 0.140436119484188 
1354	 0.14046658135715 
1355	 0.140497926051325 
1356	 0.140530460795908 
1357	 0.140566185416478 
1358	 0.140606380235812 
1359	 0.140643080399524 
1360	 0.140685721452743 
1361	 0.14071350064793 
1362	 0.140724723336023 
1363	 0.14074682938657 
1364	 0.140763494716094 
1365	 0.140786180418911 
1366	 0.140810460592645 
1367	 0.140854514501264 
1368	 0.140898869349373 
1369	 0.14093232211069 
1370	 0.1409494195317 
1371	 0.140955512546327 
1372	 0.140962445898567 
1373	 0.140984309277648 
1374	 0.140997038819901 
1375	 0.141025806679589 
1376	 0.141033625884446 
1377	 0.141017046208369 
1378	 0.141014712030086 
1379	 0.141015514094804 
1380	 0.14102043587336 
1381	 0.141028288918211 
1382	 0.141035383861981 
1383	 0.141059071286653 
1384	 0.141053641610328 
1385	 0.141029256716506 
1386	 0.141013990948928 
1387	 0.140988160643923 
1388	 0.140960357500848 
1389	 0.140939035454997 
1390	 0.140908553707592 
1391	 0.140879944999397 
1392	 0.140838907580827 
1393	 0.140794955502334 
1394	 0.140755902374507 
1395	 0.140695472129677 
1396	 0.140625544690578 
1397	 0.140548352149756 
1398	 0.140464477568859 
1399	 0.140371854597212 
1400	 0.140263618950863 
1401	 0.1401634803813 
1402	 0.140061498742442 
1403	 0.139955639031101 
1404	 0.139847629752481 
1405	 0.139742028948111 
1406	 0.139632626154647 
1407	 0.139528889840946 
1408	 0.139428916490907 
1409	 0.139330701062071 
1410	 0.13923320576353 
1411	 0.139136851936104 
1412	 0.139035816734253 
1413	 0.138950728613216 
1414	 0.138880900432581 
1415	 0.138812483534301 
1416	 0.138754736338147 
1417	 0.138702043293402 
1418	 0.138650406728174 
1419	 0.138612699617334 
1420	 0.138582308457649 
1421	 0.138549210925558 
1422	 0.138496408898074 
1423	 0.138446490245683 
1424	 0.138419050208006 
1425	 0.138402477764614 
1426	 0.138381855528508 
1427	 0.138381535074842 
1428	 0.138372910171693 
1429	 0.138351546151529 
1430	 0.13833656553128 
1431	 0.138332514257926 
1432	 0.138318434687027 
1433	 0.138295309134409 
1434	 0.138282987591529 
1435	 0.13826716383994 
1436	 0.138265919409424 
1437	 0.138279963526698 
1438	 0.138285698627732 
1439	 0.138298118556918 
1440	 0.138307539846245 
1441	 0.138310353009245 
1442	 0.138311855425341 
1443	 0.13832200384634 
1444	 0.138334915666983 
1445	 0.138353036209308 
1446	 0.138367051607242 
1447	 0.138378597981494 
1448	 0.138396504016182 
1449	 0.138411158482301 
1450	 0.13843337041162 
1451	 0.138455734938584 
1452	 0.138485317554088 
1453	 0.138506858361476 
1454	 0.138526808060287 
1455	 0.138542577009101 
1456	 0.138548449658598 
1457	 0.138566708340881 
1458	 0.138588834748359 
1459	 0.138610183124326 
1460	 0.138640366401245 
1461	 0.13866427107471 
1462	 0.138680245471452 
1463	 0.13870359707449 
1464	 0.138734432872165 
1465	 0.138756171172614 
1466	 0.13877677778909 
1467	 0.138797029813657 
1468	 0.138804216847806 
1469	 0.138822588523125 
1470	 0.138847128844337 
1471	 0.138876778074306 
1472	 0.138898933632507 
1473	 0.138932994746825 
1474	 0.138965751104566 
1475	 0.138981985675523 
1476	 0.139007437996594 
1477	 0.139042296123884 
1478	 0.139080052383939 
1479	 0.139131825651587 
1480	 0.139194722079533 
1481	 0.139255376118838 
1482	 0.13929728938223 
1483	 0.139326139383834 
1484	 0.139362009219383 
1485	 0.139381144315358 
1486	 0.13941554565723 
1487	 0.139473069991734 
1488	 0.139503470316866 
1489	 0.139518628691286 
1490	 0.139549849988146 
1491	 0.139569497487537 
1492	 0.139603234429124 
1493	 0.139653849440708 
1494	 0.139698686235828 
1495	 0.139748880310044 
1496	 0.139794543246261 
1497	 0.139841824149203 
1498	 0.139886123930549 
1499	 0.139925842916341 
1500	 0.139961343754468 
1501	 0.139994361699467 
1502	 0.140029598612303 
1503	 0.140065676140555 
1504	 0.14009348787733 
1505	 0.140118273230237 
1506	 0.140135134982351 
1507	 0.140149873217929 
1508	 0.140168842782128 
1509	 0.140198293701208 
1510	 0.140226237452525 
1511	 0.140242114044874 
1512	 0.140268413032263 
1513	 0.140294864148843 
1514	 0.140313533944635 
1515	 0.140360186526101 
1516	 0.140404456876968 
1517	 0.140429205976686 
1518	 0.140446111532054 
1519	 0.140471643661681 
1520	 0.140482629359264 
1521	 0.140501297243635 
1522	 0.140534308214663 
1523	 0.140558564822779 
1524	 0.140575569969866 
1525	 0.140591193765895 
1526	 0.140605522991585 
1527	 0.140626695328537 
1528	 0.140644022807411 
1529	 0.14066371966046 
1530	 0.140697385156268 
1531	 0.140719477372695 
1532	 0.14072918068974 
1533	 0.140745419027451 
1534	 0.14075427835161 
1535	 0.140780986160614 
1536	 0.140831959116749 
1537	 0.140860699312946 
1538	 0.140886745729556 
1539	 0.140911073329793 
1540	 0.140920274794776 
1541	 0.140928718482079 
1542	 0.140942787910151 
1543	 0.140956181701015 
1544	 0.140954377728192 
1545	 0.140964904874157 
1546	 0.140992817242309 
1547	 0.141009079663183 
1548	 0.141013099155246 
1549	 0.141010832331947 
1550	 0.141006445956755 
1551	 0.141001261072968 
1552	 0.141001974440671 
1553	 0.141014126161713 
1554	 0.141019863413134 
1555	 0.141025431894701 
1556	 0.141044118405756 
1557	 0.141048701001948 
1558	 0.141057435670956 
1559	 0.141085340227644 
1560	 0.141111663506535 
1561	 0.141146979227616 
1562	 0.141173686605366 
1563	 0.141203372600519 
1564	 0.141222110633002 
1565	 0.141235175697786 
1566	 0.141244310193209 
1567	 0.141244107907199 
1568	 0.141249211444819 
1569	 0.141249319918637 
1570	 0.141256827912664 
1571	 0.141268967621403 
1572	 0.141284229520209 
1573	 0.141312449613374 
1574	 0.141314304003406 
1575	 0.141301824374175 
1576	 0.141303213711227 
1577	 0.14128937702804 
1578	 0.14129428728972 
1579	 0.141330615851631 
1580	 0.141336201572212 
1581	 0.141320307622664 
1582	 0.141324246600614 
1583	 0.141330600033675 
1584	 0.141332347226135 
1585	 0.141342011107378 
1586	 0.141351799509964 
1587	 0.141351314865412 
1588	 0.141357466191733 
1589	 0.141369486954434 
1590	 0.141390238508145 
1591	 0.141420671926299 
1592	 0.141439640833323 
1593	 0.141462334666017 
1594	 0.141484423194319 
1595	 0.14149581431768 
1596	 0.141509570975145 
1597	 0.141536112600448 
1598	 0.141548492662848 
1599	 0.141548945488386 
1600	 0.141549262174315 
1601	 0.141545684073483 
1602	 0.141538239991537 
1603	 0.141526845179004 
1604	 0.141511825499119 
1605	 0.141476390517994 
1606	 0.141465928358004 
1607	 0.141468569816075 
1608	 0.141472915666533 
1609	 0.141490697454217 
1610	 0.141509516132682 
1611	 0.141515022523864 
1612	 0.141529096261164 
1613	 0.141553231796705 
1614	 0.141569588673893 
1615	 0.141588660586293 
1616	 0.141601194487742 
1617	 0.141585937891268 
1618	 0.141575272897842 
1619	 0.141583839900278 
1620	 0.141583126657435 
1621	 0.14158045770338 
1622	 0.141591551750808 
1623	 0.141591337511197 
1624	 0.141576265133357 
1625	 0.141561018695533 
1626	 0.141544607965745 
1627	 0.141543586555975 
1628	 0.14154088863047 
1629	 0.14153275741705 
1630	 0.141537525881009 
1631	 0.141539875040389 
1632	 0.141526143352609 
1633	 0.141528432354658 
1634	 0.14155436330608 
1635	 0.14155876221444 
1636	 0.141547511590252 
1637	 0.141549403196742 
1638	 0.141557288524065 
1639	 0.1415558830394 
1640	 0.141551961587341 
1641	 0.141553469721165 
1642	 0.141552321729809 
1643	 0.141550000671562 
1644	 0.141552048884864 
1645	 0.141554600731849 
1646	 0.141550590231452 
1647	 0.141553886970557 
1648	 0.141567521714513 
1649	 0.141573020227252 
1650	 0.141575118464688 
1651	 0.141578080519221 
1652	 0.141579118558234 
1653	 0.141584070818916 
1654	 0.141593049461924 
1655	 0.141594612256004 
1656	 0.141592079613854 
1657	 0.14159539967267 
1658	 0.141591847560198 
1659	 0.141601501366758 
1660	 0.141628309234015 
1661	 0.141640565368416 
1662	 0.141654212448324 
1663	 0.141659582592152 
1664	 0.141653732841778 
1665	 0.141651856728474 
1666	 0.141648746385237 
1667	 0.141644061314764 
1668	 0.141633803069856 
1669	 0.141632979830291 
1670	 0.141642154193463 
1671	 0.141635397439367 
1672	 0.141618387866843 
1673	 0.141619479655458 
1674	 0.141613223854708 
1675	 0.141622440465155 
1676	 0.141663312654764 
1677	 0.141680133878753 
1678	 0.14169746607137 
1679	 0.141693548590058 
1680	 0.141661456135536 
1681	 0.141655958952071 
1682	 0.141650383307988 
1683	 0.141642130404062 
1684	 0.141646060772479 
1685	 0.141651047182122 
1686	 0.141654023422736 
1687	 0.141646704438092 
1688	 0.141646600651875 
1689	 0.141637242532646 
1690	 0.141597555180501 
1691	 0.141588014261078 
1692	 0.141595283165272 
1693	 0.141602270423082 
1694	 0.141626831319909 
1695	 0.14163211286643 
1696	 0.141629966229281 
1697	 0.141632810278092 
1698	 0.141623424544531 
1699	 0.141625976152065 
1700	 0.141643906880469 
1701	 0.141648109403037 
1702	 0.141646017291699 
1703	 0.141652030267323 
1704	 0.141664182235959 
1705	 0.14166000747983 
1706	 0.14164786180837 
1707	 0.141643127884895 
1708	 0.141634176583299 
1709	 0.141617382141182 
1710	 0.141609185982687 
1711	 0.141588045971103 
1712	 0.141536321550839 
1713	 0.14151581905004 
1714	 0.141511664949508 
1715	 0.14150196260604 
1716	 0.141505167545851 
1717	 0.141494802736365 
1718	 0.141468881494592 
1719	 0.141462411158586 
1720	 0.141462948341803 
1721	 0.141462487387258 
1722	 0.141479516866003 
1723	 0.141475006192305 
1724	 0.141457678616718 
1725	 0.141440716293068 
1726	 0.141417482517645 
1727	 0.141385209875167 
1728	 0.141340902721123 
1729	 0.141315590089399 
1730	 0.141288197442926 
1731	 0.141274262572139 
1732	 0.141279250356468 
1733	 0.141274608540176 
1734	 0.141276540794558 
1735	 0.141258565284053 
1736	 0.141230617047223 
1737	 0.141209960313925 
1738	 0.141180603688815 
1739	 0.14114842393644 
1740	 0.141129126018519 
1741	 0.141088565544315 
1742	 0.141011495166538 
1743	 0.140981195147113 
1744	 0.140967186910795 
1745	 0.140949084487491 
1746	 0.140958025600403 
1747	 0.14093793664731 
1748	 0.140911267822635 
1749	 0.140893422255126 
1750	 0.14087703223361 
1751	 0.140874164218106 
1752	 0.140872774509266 
1753	 0.140848697426766 
1754	 0.140832373676972 
1755	 0.140811638443807 
1756	 0.140761392492709 
1757	 0.140725264995063 
1758	 0.140709436802873 
1759	 0.140687304803546 
1760	 0.140673725523014 
1761	 0.140663559322017 
1762	 0.140648269597078 
1763	 0.140633218240086 
1764	 0.140610922748587 
1765	 0.14060120852577 
1766	 0.140590216333187 
1767	 0.140575856719598 
1768	 0.140579644797488 
1769	 0.140564003326671 
1770	 0.14051978057661 
1771	 0.140481136474953 
1772	 0.140451193901935 
1773	 0.140427273756788 
1774	 0.140416575463056 
1775	 0.140409632298826 
1776	 0.140401180656307 
1777	 0.140380236902699 
1778	 0.140358862696956 
1779	 0.140362807853738 
1780	 0.140327694271487 
1781	 0.140271988043245 
1782	 0.140274899648272 
1783	 0.140240716152092 
1784	 0.140218784799147 
1785	 0.14022705846807 
1786	 0.140208134288875 
1787	 0.140170123934633 
1788	 0.140151650912568 
1789	 0.140133691788264 
1790	 0.140131942095744 
1791	 0.140150755925722 
1792	 0.140153905968495 
1793	 0.14016741506624 
1794	 0.140149452177616 
1795	 0.140103200839161 
1796	 0.140077272218329 
1797	 0.140028055133389 
1798	 0.140028744492832 
1799	 0.140070715328919 
1800	 0.140087116047019 
1801	 0.136296388084087 
1802	 0.136342266038089 
1803	 0.13635407550472 
1804	 0.136379204118364 
1805	 0.136437365687544 
1806	 0.136499854941662 
1807	 0.136547220482389 
1808	 0.13657786504589 
1809	 0.136589835100463 
1810	 0.136602263155208 
1811	 0.136590479310709 
1812	 0.136606286446349 
1813	 0.136626188768619 
1814	 0.136628867821296 
1815	 0.136630670949607 
1816	 0.136644740094747 
1817	 0.136665237173541 
1818	 0.136701609282432 
1819	 0.136716216887838 
1820	 0.136720559865108 
1821	 0.13674685851905 
1822	 0.136769019258564 
1823	 0.136786660620526 
1824	 0.13681788151149 
1825	 0.136836226978964 
1826	 0.136840532937247 
1827	 0.136855853006258 
1828	 0.136850882274173 
1829	 0.13683432866425 
1830	 0.136819732329493 
1831	 0.136794300448669 
1832	 0.136755520510546 
1833	 0.136732567665525 
1834	 0.136739638727914 
1835	 0.136725421468951 
1836	 0.136715645102084 
1837	 0.136712931847211 
1838	 0.136692255850144 
1839	 0.136680596932084 
1840	 0.136668677014265 
1841	 0.136656388383692 
1842	 0.136649964021019 
1843	 0.136663288556462 
1844	 0.136656035722492 
1845	 0.136628900255595 
1846	 0.136623690166742 
1847	 0.136623325470267 
1848	 0.136617838531212 
1849	 0.136618708045579 
1850	 0.136606125586626 
1851	 0.136580426900449 
1852	 0.136542084258329 
1853	 0.136515943372152 
1854	 0.136510459043835 
1855	 0.136504496864339 
1856	 0.136472568173428 
1857	 0.136438402269268 
1858	 0.136397467218786 
1859	 0.136355315660413 
1860	 0.136302753536969 
1861	 0.136249986446172 
1862	 0.136179065318857 
1863	 0.136113346745922 
1864	 0.136043713095611 
1865	 0.135984859348227 
1866	 0.135943817661154 
1867	 0.13588871880245 
1868	 0.135820174279615 
1869	 0.135730519765314 
1870	 0.135624725275471 
1871	 0.135518479381127 
1872	 0.135403029863853 
1873	 0.135277776863719 
1874	 0.135146218424902 
1875	 0.134996680064869 
1876	 0.134822943024127 
1877	 0.134651377746767 
1878	 0.13448124919974 
1879	 0.134310573036888 
1880	 0.134115396815415 
1881	 0.133908969655499 
1882	 0.133675612456607 
1883	 0.133416992685289 
1884	 0.133142808099442 
1885	 0.132863663668488 
1886	 0.13257501968363 
1887	 0.132270792925146 
1888	 0.131958577602388 
1889	 0.131623109417149 
1890	 0.131275320838323 
1891	 0.130916238190973 
1892	 0.130543734648067 
1893	 0.130155171887766 
1894	 0.12975344987614 
1895	 0.129338237126704 
1896	 0.128897232711746 
1897	 0.128459684370025 
1898	 0.128009814509171 
1899	 0.127543966877128 
1900	 0.127095113081178 
1901	 0.126656988516924 
1902	 0.12623978206787 
1903	 0.12585336911273 
1904	 0.12546027916853 
1905	 0.125076659221896 
1906	 0.124705820863872 
1907	 0.124330358390612 
1908	 0.123963171102652 
1909	 0.123622750100009 
1910	 0.123286427375881 
1911	 0.122968310076291 
1912	 0.122695961609338 
1913	 0.122434948621884 
1914	 0.122203120534414 
1915	 0.121978304009314 
1916	 0.121776338692668 
1917	 0.121565163069162 
1918	 0.121375257502632 
1919	 0.121216465218232 
1920	 0.121068207072906 
1921	 0.120916479126414 
1922	 0.120789489038672 
1923	 0.12067748654409 
1924	 0.120573878179911 
1925	 0.12049995973302 
1926	 0.120417280213866 
1927	 0.120341355490481 
1928	 0.120248186121699 
1929	 0.120176973946521 
1930	 0.120119123871263 
1931	 0.120067067161255 
1932	 0.120040457600496 
1933	 0.120030183492235 
1934	 0.120018329474696 
1935	 0.120010332284923 
1936	 0.120012839608145 
1937	 0.120021016538247 
1938	 0.120029439929851 
1939	 0.120044973516474 
1940	 0.120068351772065 
1941	 0.120097155168144 
1942	 0.12014879434796 
1943	 0.120207062293336 
1944	 0.120257706426387 
1945	 0.120331056380018 
1946	 0.120400116526068 
1947	 0.120457092725265 
1948	 0.120525631902648 
1949	 0.120622755328164 
1950	 0.120692005010501 
1951	 0.120746303448711 
1952	 0.120801608933024 
1953	 0.120853230299855 
1954	 0.120916010686332 
1955	 0.121005798653905 
1956	 0.121099144580347 
1957	 0.121191362714544 
1958	 0.121284312733019 
1959	 0.12139254664507 
1960	 0.121508000451986 
1961	 0.121627405763043 
1962	 0.121777218117978 
1963	 0.121899257671579 
1964	 0.122002384161429 
1965	 0.122106835032023 
1966	 0.122221673415557 
1967	 0.122348788016963 
1968	 0.122484352487168 
1969	 0.122655685162671 
1970	 0.122790407641888 
1971	 0.122910606480059 
1972	 0.123035636189817 
1973	 0.123148974137586 
1974	 0.123262970275219 
1975	 0.123379600280424 
1976	 0.123494611593099 
1977	 0.123598758652066 
1978	 0.123721588229692 
1979	 0.123837054898457 
1980	 0.123960997737361 
1981	 0.124087144043056 
1982	 0.124213164352129 
1983	 0.124344387950924 
1984	 0.124490970302924 
1985	 0.124621794046605 
1986	 0.124740159600553 
1987	 0.124870279495817 
1988	 0.124999641319194 
1989	 0.12512799073337 
1990	 0.125265547501686 
1991	 0.125433494977689 
1992	 0.125583453613288 
1993	 0.125736234972348 
1994	 0.125881220481921 
1995	 0.126020368189858 
1996	 0.126156137521023 
1997	 0.126288005708168 
1998	 0.126420926846167 
1999	 0.126541389631773 
2000	 0.126676315297352 
2001	 0.126820327687136 
2002	 0.126965746029541 
2003	 0.127101839612372 
2004	 0.12724687011701 
2005	 0.127384756537047 
2006	 0.12751412008183 
2007	 0.127641287437772 
2008	 0.127773507581103 
2009	 0.127895858399289 
2010	 0.128005759813838 
2011	 0.128117402475 
2012	 0.128225006940648 
2013	 0.128333621445329 
2014	 0.128434116136218 
2015	 0.128543152141445 
2016	 0.128658374516218 
2017	 0.128779189152435 
2018	 0.128915390710135 
2019	 0.12907791899171 
2020	 0.129214431417863 
2021	 0.129365779243443 
2022	 0.129485093588868 
2023	 0.129565637953073 
2024	 0.129669206421966 
2025	 0.129751486277237 
2026	 0.12986108048321 
2027	 0.129996358496393 
2028	 0.130133126579287 
2029	 0.130264892899145 
2030	 0.130417904484202 
2031	 0.130536763531247 
2032	 0.13063313970231 
2033	 0.130739768817504 
2034	 0.130831120563106 
2035	 0.130931581478777 
2036	 0.131047404899626 
2037	 0.131149024966962 
2038	 0.131241582570578 
2039	 0.131335521607711 
2040	 0.131434480739638 
2041	 0.131509085511383 
2042	 0.131581073537759 
2043	 0.131685728109694 
2044	 0.13177458531204 
2045	 0.131864152030941 
2046	 0.13194674925931 
2047	 0.132024753183592 
2048	 0.13210375472186 
2049	 0.132176160460015 
2050	 0.132254965464263 
2051	 0.13234519229904 
2052	 0.132421792925828 
2053	 0.132494304678662 
2054	 0.132562100804071 
2055	 0.13260633385859 
2056	 0.132679548389378 
2057	 0.132736650843528 
2058	 0.132786337757156 
2059	 0.132847427346007 
2060	 0.132907826488169 
2061	 0.132973266636614 
2062	 0.133053458487199 
2063	 0.133122557552368 
2064	 0.133184952501615 
2065	 0.133252938069283 
2066	 0.133321916431404 
2067	 0.133389705812561 
2068	 0.133459792552185 
2069	 0.133528413143472 
2070	 0.133601431021134 
2071	 0.133677470139779 
2072	 0.133740374679452 
2073	 0.133804271655131 
2074	 0.133863024902214 
2075	 0.133901468344759 
2076	 0.1339591192075 
2077	 0.134023095751605 
2078	 0.134092382117765 
2079	 0.134173822596492 
2080	 0.134247653189493 
2081	 0.134341302893025 
2082	 0.13440562437184 
2083	 0.134441134519533 
2084	 0.134483864581672 
2085	 0.134537053618911 
2086	 0.134570466644062 
2087	 0.134637051103936 
2088	 0.13474160047314 
2089	 0.134820612891907 
2090	 0.134900213885586 
2091	 0.13497674650368 
2092	 0.135053631496178 
2093	 0.135114857784789 
2094	 0.135164368979698 
2095	 0.135220433404882 
2096	 0.135248784450976 
2097	 0.135308470245969 
2098	 0.135401598560582 
2099	 0.135476094340182 
2100	 0.13556306684668 
2101	 0.135674556627125 
2102	 0.135752095871741 
2103	 0.135821118381551 
2104	 0.135880306011738 
2105	 0.135905274280795 
2106	 0.135965581059021 
2107	 0.136043401290397 
2108	 0.136103959481842 
2109	 0.136164619442925 
2110	 0.136236591797288 
2111	 0.13628389007676 
2112	 0.136363382708121 
2113	 0.136473388234756 
2114	 0.136604836129128 
2115	 0.136696445215523 
2116	 0.136791602017595 
2117	 0.136862674971451 
2118	 0.136889138598554 
2119	 0.136957573128611 
2120	 0.137047793940365 
2121	 0.137108404513677 
2122	 0.137169011506616 
2123	 0.137225522211558 
2124	 0.137252050299901 
2125	 0.13729923742386 
2126	 0.137368242490221 
2127	 0.13742403969335 
2128	 0.137479740114261 
2129	 0.137527343195056 
2130	 0.137572766995968 
2131	 0.137599942126259 
2132	 0.137641598986899 
2133	 0.137692314451617 
2134	 0.137713659027361 
2135	 0.13772937417971 
2136	 0.137736602655101 
2137	 0.137711764269734 
2138	 0.137704580231496 
2139	 0.137706487535065 
2140	 0.137704429281544 
2141	 0.137717233666563 
2142	 0.13769717932734 
2143	 0.137663644221457 
2144	 0.13761987054492 
2145	 0.137526476336091 
2146	 0.137466005599253 
2147	 0.137419764263584 
2148	 0.137374652076056 
2149	 0.137337552121051 
2150	 0.137337995354302 
2151	 0.137275215527776 
2152	 0.137176504062004 
2153	 0.13710457228201 
2154	 0.13700856504129 
2155	 0.136926805348438 
2156	 0.136873233446032 
2157	 0.136805655860075 
2158	 0.136722469114447 
2159	 0.136646133838641 
2160	 0.136592710745856 
2161	 0.136508671748829 
2162	 0.136414095936101 
2163	 0.136304252992993 
2164	 0.136159970078883 
2165	 0.136025726627772 
2166	 0.135894170164116 
2167	 0.135743555501454 
2168	 0.135636480337256 
2169	 0.135563408083699 
2170	 0.135461317993888 
2171	 0.135367688641786 
2172	 0.135272003686885 
2173	 0.135152386099109 
2174	 0.135056114804598 
2175	 0.134989032025345 
2176	 0.134903083447749 
2177	 0.134805150211552 
2178	 0.134719513055462 
2179	 0.134640339546623 
2180	 0.134553930651745 
2181	 0.134479567025344 
2182	 0.134391957871124 
2183	 0.13429115538815 
2184	 0.134180792660322 
2185	 0.134081818241522 
2186	 0.133971580996911 
2187	 0.133890411176794 
2188	 0.133825047437656 
2189	 0.13376275007656 
2190	 0.133735535291618 
2191	 0.133667571337883 
2192	 0.133570552871924 
2193	 0.133501986277213 
2194	 0.133421250385202 
2195	 0.133357483575653 
2196	 0.133329298466034 
2197	 0.133286067476548 
2198	 0.133233940198602 
2199	 0.13318716440444 
2200	 0.133131108037979 
2201	 0.133097668679452 
2202	 0.133101779748359 
2203	 0.133070344352021 
2204	 0.133036332461495 
2205	 0.133006210450849 
2206	 0.132969985007607 
2207	 0.132909664075643 
2208	 0.132871442966962 
2209	 0.13283751069126 
2210	 0.132826368204609 
2211	 0.132830795297446 
2212	 0.1328262714387 
2213	 0.132856604360757 
2214	 0.132849266749101 
2215	 0.132797787646315 
2216	 0.132779143806927 
2217	 0.132766927783855 
2218	 0.132753169815394 
2219	 0.132761957123605 
2220	 0.132754735738312 
2221	 0.132723565760532 
2222	 0.132700413407764 
2223	 0.132738005692843 
2224	 0.132753510938982 
2225	 0.132762009209228 
2226	 0.132785630652879 
2227	 0.132813590517029 
2228	 0.132816267218997 
2229	 0.132843418368191 
2230	 0.132913902095358 
2231	 0.132944955742085 
2232	 0.132956745957686 
2233	 0.132967495632741 
2234	 0.132969296149434 
2235	 0.132975239688728 
2236	 0.132982448659015 
2237	 0.132972437767044 
2238	 0.132944032988851 
2239	 0.132936241429468 
2240	 0.132921744416909 
2241	 0.132913805834889 
2242	 0.132935630608955 
2243	 0.132938659907128 
2244	 0.132920161476393 
2245	 0.132914879742392 
2246	 0.13291520026571 
2247	 0.132913307872501 
2248	 0.132919353955237 
2249	 0.132934782944604 
2250	 0.132949043267372 
2251	 0.132968140903286 
2252	 0.132979972329498 
2253	 0.133002472226916 
2254	 0.132991458071884 
2255	 0.132951671226823 
2256	 0.132933624816247 
2257	 0.132893530370925 
2258	 0.132885962568111 
2259	 0.13290855989246 
2260	 0.132926601137223 
2261	 0.132956547421353 
2262	 0.132984350663386 
2263	 0.133024095427918 
2264	 0.133043376003021 
2265	 0.13303324662996 
2266	 0.133057195352967 
2267	 0.133100482543341 
2268	 0.133132582138619 
2269	 0.133194540620591 
2270	 0.133225012281661 
2271	 0.133249504518357 
2272	 0.133267892985932 
2273	 0.133259986634928 
2274	 0.133269463779351 
2275	 0.133281305693564 
2276	 0.133269619882693 
2277	 0.133289208680629 
2278	 0.133347093106666 
2279	 0.133379263346064 
2280	 0.133403182285634 
2281	 0.133435191398613 
2282	 0.133472799240175 
2283	 0.133501638197816 
2284	 0.133543668522326 
2285	 0.133555793362587 
2286	 0.133525004395736 
2287	 0.133529965991092 
2288	 0.133539878745709 
2289	 0.133549923905968 
2290	 0.133581581693989 
2291	 0.133608707930415 
2292	 0.133622605249336 
2293	 0.13364211504076 
2294	 0.133682903869779 
2295	 0.133710489785081 
2296	 0.133718406674814 
2297	 0.133740494847071 
2298	 0.133787083453191 
2299	 0.13380508859996 
2300	 0.133846994352163 
2301	 0.133876383813743 
2302	 0.133880333363204 
2303	 0.133877223224996 
2304	 0.133851660509166 
2305	 0.133831874738284 
2306	 0.133788948710368 
2307	 0.133705837602394 
2308	 0.13368132372906 
2309	 0.133670774365411 
2310	 0.13365935512197 
2311	 0.13369519575816 
2312	 0.133682737848455 
2313	 0.133623965474659 
2314	 0.133611406885558 
2315	 0.133596322570052 
2316	 0.133607907341184 
2317	 0.133682134217278 
2318	 0.133695539531312 
2319	 0.133693103310796 
2320	 0.133689609861335 
2321	 0.133659664741638 
2322	 0.133620636155027 
2323	 0.133542413862439 
2324	 0.133536197737 
2325	 0.133538186741345 
2326	 0.133562438187501 
2327	 0.133657638908079 
2328	 0.133750488561548 
2329	 0.133786254403652 
2330	 0.133840148785764 
2331	 0.133877662112662 
2332	 0.133851598972968 
2333	 0.133799080405635 
2334	 0.133769128972259 
2335	 0.133734182343553 
2336	 0.133737006722637 
2337	 0.133780717836534 
2338	 0.133791086667978 
2339	 0.133793373633377 
2340	 0.133797065319392 
2341	 0.133788463097927 
2342	 0.133798094746304 
2343	 0.133883823756332 
2344	 0.133951124516539 
2345	 0.133969757434787 
2346	 0.133985413429185 
2347	 0.133976842804497 
2348	 0.133901803489901 
2349	 0.133852469405712 
2350	 0.133819599230256 
2351	 0.133766194608008 
2352	 0.133684157039884 
2353	 0.133610601880158 
2354	 0.133550503875026 
2355	 0.133451852312818 
2356	 0.133282407984654 
2357	 0.133222595689161 
2358	 0.133211531290028 
2359	 0.133188659750681 
2360	 0.133262782205177 
2361	 0.13325491504757 
2362	 0.133158521841988 
2363	 0.133092848518531 
2364	 0.13300927831939 
2365	 0.132970671552618 
2366	 0.133001942920237 
2367	 0.132952465803161 
2368	 0.132905123686187 
2369	 0.132824443144951 
2370	 0.132650103311764 
2371	 0.132499811371891 
2372	 0.132456209678653 
2373	 0.132380726080922 
2374	 0.132315249742753 
2375	 0.132294858932642 
2376	 0.132285316216532 
2377	 0.132209818787718 
2378	 0.132108163405264 
2379	 0.132073358507467 
2380	 0.13197253920442 
2381	 0.13188778142066 
2382	 0.131911698602897 
2383	 0.131892125879402 
2384	 0.131907284278653 
2385	 0.131932129716019 
2386	 0.131873111859653 
2387	 0.131817964292971 
2388	 0.131719856843732 
2389	 0.131585543044813 
2390	 0.131488787307759 
2391	 0.131371164425766 
2392	 0.131212703615162 
2393	 0.131086090560049 
2394	 0.131050331101766 
2395	 0.131048832793026 
2396	 0.131076650992248 
2397	 0.131084800349479 
2398	 0.130894047535858 
2399	 0.130703700105409 
2400	 0.13058134889678 
2401	 0.130416972293406 
2402	 0.130344464539496 
2403	 0.130274081774756 
2404	 0.130234283758448 
2405	 0.130275224048598 
2406	 0.130287939290721 
2407	 0.13028145973512 
2408	 0.130279718969527 
2409	 0.130298417709348 
2410	 0.130251319077578 
2411	 0.130144199961785 
2412	 0.130062197167668 
2413	 0.129937085187116 
2414	 0.129817970419445 
2415	 0.129838452682517 
2416	 0.129750719954221 
2417	 0.129497760634006 
2418	 0.129396376174205 
2419	 0.129404672525855 
2420	 0.129316440389878 
2421	 0.129281303312032 
2422	 0.129238736076963 
2423	 0.129058141179219 
2424	 0.128959661277671 
2425	 0.128959844172614 
2426	 0.128891419433288 
2427	 0.128857694444939 
2428	 0.128701611950618 
2429	 0.128399150963285 
2430	 0.12825025032823 
2431	 0.128068377855235 
2432	 0.127976159045798 
2433	 0.128074775660535 
2434	 0.128065097489148 
2435	 0.128020646548644 
2436	 0.127960237355612 
2437	 0.127908086893557 
2438	 0.12778241103836 
2439	 0.127546894892061 
2440	 0.127450867575015 
2441	 0.127369011371839 
2442	 0.127290055879062 
2443	 0.127307530012072 
2444	 0.12727632280562 
2445	 0.127248943039699 
2446	 0.127138935968099 
2447	 0.126960295600088 
2448	 0.126836600172869 
2449	 0.126685534285275 
2450	 0.126511760778513 
2451	 0.126368102964447 
2452	 0.12624145419164 
2453	 0.126013508425119 
2454	 0.125857709154598 
2455	 0.125876640573325 
2456	 0.125771190623626 
2457	 0.125564929484058 
2458	 0.125473643194262 
2459	 0.125438236861273 
2460	 0.125229924983794 
2461	 0.124969145373523 
2462	 0.124825021740501 
2463	 0.124559907589257 
2464	 0.124373421144745 
2465	 0.124415737616772 
2466	 0.124298720940293 
2467	 0.124048514640433 
2468	 0.123895293595977 
2469	 0.123740018584621 
2470	 0.123601476052217 
2471	 0.123571648508734 
2472	 0.123602401756876 
2473	 0.123502513279087 
2474	 0.123342663983447 
2475	 0.123280150153208 
2476	 0.123043927194331 
2477	 0.122786050722611 
2478	 0.122651427917967 
2479	 0.122517554811183 
2480	 0.122464539952819 
2481	 0.122514227920851 
2482	 0.122507172697177 
2483	 0.122481939287655 
2484	 0.122598445898984 
2485	 0.122611642511639 
2486	 0.122686204619838 
2487	 0.122762940104005 
2488	 0.122649292093961 
2489	 0.12264234950846 
2490	 0.122630341898393 
2491	 0.122515043829049 
2492	 0.122509716972659 
2493	 0.122508495077646 
2494	 0.1224218500771 
2495	 0.122297071009496 
2496	 0.12225660373048 
2497	 0.122346010293718 
2498	 0.122168439486167 
2499	 0.122113304278612 
2500	 0.122200003508216 
