Wavelength	LMW_1700009.asd
350	 6.72413010415478E-02 
351	 6.71480585703764E-02 
352	 5.65910634530594E-02 
353	 4.52905598470793E-02 
354	 4.99497360587703E-02 
355	 5.80027565036566E-02 
356	 6.27650563001718E-02 
357	 6.17562437414351E-02 
358	 0.061167369929465 
359	 5.85755633441106E-02 
360	 0.056398342490969 
361	 5.91773018322899E-02 
362	 5.78993444402404E-02 
363	 0.053779501952583 
364	 5.13783974963827E-02 
365	 5.89705774230539E-02 
366	 0.057472375682559 
367	 5.41142347537171E-02 
368	 0.058606925555619 
369	 6.06783217549502E-02 
370	 5.71222000541136E-02 
371	 5.25380429457374E-02 
372	 5.56109591926886E-02 
373	 6.01959712196547E-02 
374	 6.24018327117492E-02 
375	 6.13480246911892E-02 
376	 6.03453963939918E-02 
377	 5.93288937391775E-02 
378	 6.08057906748951E-02 
379	 6.55815621034133E-02 
380	 6.54814993153453E-02 
381	 6.39859721774914E-02 
382	 6.35292104765999E-02 
383	 6.51403232189341E-02 
384	 6.71037740466193E-02 
385	 6.69158300769744E-02 
386	 6.50412683133313E-02 
387	 6.77047962515327E-02 
388	 7.01070160752849E-02 
389	 7.04227016991844E-02 
390	 6.86831034694305E-02 
391	 6.87803755129217E-02 
392	 0.068249665257164 
393	 6.80869951633535E-02 
394	 7.19098865516381E-02 
395	 7.38413037792804E-02 
396	 7.41640599588809E-02 
397	 7.42561889744883E-02 
398	 7.54984742597436E-02 
399	 7.64688900087633E-02 
400	 7.68475229517011E-02 
401	 7.68974356592474E-02 
402	 7.75263087884475E-02 
403	 7.84914930123296E-02 
404	 7.92871774475485E-02 
405	 7.93026184538607E-02 
406	 8.05474922373175E-02 
407	 8.19239759463662E-02 
408	 0.082087996262684 
409	 8.03284707752942E-02 
410	 8.01835351778193E-02 
411	 8.17721416898786E-02 
412	 8.34466855688219E-02 
413	 8.42456653039094E-02 
414	 8.41828690548605E-02 
415	 8.39626481424059E-02 
416	 8.49816550545783E-02 
417	 8.54572992495693E-02 
418	 8.53081487121688E-02 
419	 8.51357319536434E-02 
420	 8.64372709228876E-02 
421	 8.65780053301696E-02 
422	 8.61448699337712E-02 
423	 8.74944846977909E-02 
424	 8.78627015307679E-02 
425	 8.75351017722407E-02 
426	 8.73043313779354E-02 
427	 8.82121340340906E-02 
428	 8.85355153063674E-02 
429	 8.85593426381119E-02 
430	 8.90117327662686E-02 
431	 0.089253842807162 
432	 8.98238692255971E-02 
433	 9.06446165997997E-02 
434	 9.10337438269318E-02 
435	 9.10923699797766E-02 
436	 9.10491142737006E-02 
437	 9.10695797854754E-02 
438	 9.10081026347379E-02 
439	 9.14203517074421E-02 
440	 9.20875836491949E-02 
441	 9.24559048521026E-02 
442	 9.27494312796411E-02 
443	 9.30137457288041E-02 
444	 9.32079128871991E-02 
445	 9.31611906693031E-02 
446	 9.35351096738388E-02 
447	 9.38404380971083E-02 
448	 9.35817974993535E-02 
449	 9.36591335366859E-02 
450	 9.42684156884017E-02 
451	 9.50201483434684E-02 
452	 9.51116927961368E-02 
453	 9.50633307403092E-02 
454	 9.51241319100627E-02 
455	 9.54198588750876E-02 
456	 9.59640940560527E-02 
457	 0.096177076283898 
458	 9.62211449939481E-02 
459	 9.65252236079198E-02 
460	 9.66221912747123E-02 
461	 9.67548026647677E-02 
462	 0.097041515548377 
463	 9.73437817715829E-02 
464	 9.76296677452665E-02 
465	 9.78804100293969E-02 
466	 9.80940256162975E-02 
467	 9.82790265924003E-02 
468	 9.86047942368319E-02 
469	 9.89514583974504E-02 
470	 9.90005453719209E-02 
471	 9.91651406918134E-02 
472	 9.94112272741094E-02 
473	 9.97005308549547E-02 
474	 0.100227349184768 
475	 0.100392640916174 
476	 0.100420928465012 
477	 0.100787174764791 
478	 0.100813781825125 
479	 0.101015311198459 
480	 0.101467410942382 
481	 0.101506251207181 
482	 0.10167738755866 
483	 0.101971526585405 
484	 0.102270775741694 
485	 0.102701440433209 
486	 0.102931163441103 
487	 0.102923019410543 
488	 0.102907642237313 
489	 0.10314109254101 
490	 0.103522582271995 
491	 0.103874381181778 
492	 0.104003702940562 
493	 0.104153833839764 
494	 0.104267843766178 
495	 0.104215571807033 
496	 0.104450394010113 
497	 0.104687680326523 
498	 0.104855067523959 
499	 0.105314277249847 
500	 0.105510511891885 
501	 0.105544630065475 
502	 0.105665224410163 
503	 0.105831750472634 
504	 0.105989605664984 
505	 0.106168472400299 
506	 0.106458688825493 
507	 0.106450830731655 
508	 0.106604534225212 
509	 0.10712706891229 
510	 0.107094836131083 
511	 0.107067473433128 
512	 0.107194715519565 
513	 0.10739327002813 
514	 0.107534334964796 
515	 0.107759349010997 
516	 0.108047236510655 
517	 0.108036367507373 
518	 0.108091396317773 
519	 0.108232572482802 
520	 0.108392900616405 
521	 0.108716120303861 
522	 0.108827848195176 
523	 0.10873702781779 
524	 0.108868431788042 
525	 0.109003425927315 
526	 0.109096054919049 
527	 0.109183484946003 
528	 0.109478949278468 
529	 0.109608487870671 
530	 0.109616539408104 
531	 0.109801027536968 
532	 0.109928050138024 
533	 0.110058893809378 
534	 0.110222644676366 
535	 0.110291574959454 
536	 0.110355178859775 
537	 0.110471287847738 
538	 0.110661457142621 
539	 0.110795983029995 
540	 0.110893454546037 
541	 0.11099383863792 
542	 0.111148388605194 
543	 0.11125503600005 
544	 0.111346038873345 
545	 0.111472913244316 
546	 0.11161264041962 
547	 0.111697710475358 
548	 0.111770503394522 
549	 0.111950492356427 
550	 0.111934961864769 
551	 0.111944963562626 
552	 0.11213158385055 
553	 0.112207393035867 
554	 0.112330572724809 
555	 0.112506473669358 
556	 0.112660669044978 
557	 0.112743106468166 
558	 0.112898846579177 
559	 0.113165521026982 
560	 0.113367362914745 
561	 0.113443376467058 
562	 0.113465641171826 
563	 0.113539916724994 
564	 0.11363072842598 
565	 0.113682087085213 
566	 0.113669598189658 
567	 0.113607815070184 
568	 0.113689078508102 
569	 0.11381949257561 
570	 0.113912137980826 
571	 0.114173128075807 
572	 0.114393565564254 
573	 0.1145123090245 
574	 0.114585253045917 
575	 0.114684048035825 
576	 0.114809570194709 
577	 0.114920248866571 
578	 0.114903845367454 
579	 0.11490217440667 
580	 0.114845062665351 
581	 0.114632461589536 
582	 0.11461751982112 
583	 0.114643081544675 
584	 0.114665630116925 
585	 0.114870550054895 
586	 0.115091289436379 
587	 0.115259735678739 
588	 0.115354191384103 
589	 0.115405863658812 
590	 0.115514369494213 
591	 0.115694564250657 
592	 0.115881232619023 
593	 0.116052253732722 
594	 0.116224466534448 
595	 0.11637564780777 
596	 0.116347025313088 
597	 0.116281536821541 
598	 0.11619891708204 
599	 0.116071327835574 
600	 0.116077825548339 
601	 0.116124323619575 
602	 0.11613838796077 
603	 0.116140528308024 
604	 0.116199296149021 
605	 0.116273404402463 
606	 0.116304667855115 
607	 0.116381994048896 
608	 0.116495720182836 
609	 0.116632580412855 
610	 0.116781191604958 
611	 0.116850496066367 
612	 0.116863894915014 
613	 0.116878223501531 
614	 0.116954486477491 
615	 0.11700813206309 
616	 0.117046647849739 
617	 0.117133041970886 
618	 0.117161273274992 
619	 0.117197435285732 
620	 0.117276579156271 
621	 0.117312307797074 
622	 0.117329533201099 
623	 0.11735956523055 
624	 0.117432858873132 
625	 0.117538505878878 
626	 0.117624189465185 
627	 0.117666233204139 
628	 0.117681426427247 
629	 0.117728746976387 
630	 0.117810610423588 
631	 0.117897763115787 
632	 0.117912253709682 
633	 0.117937114227732 
634	 0.117996069999813 
635	 0.118061810203763 
636	 0.118156825500112 
637	 0.118237175424292 
638	 0.118278923872157 
639	 0.118330611439913 
640	 0.11839289124747 
641	 0.118452784476538 
642	 0.118498763779459 
643	 0.118600685067796 
644	 0.118669472053607 
645	 0.118692336184212 
646	 0.118788549329092 
647	 0.118864634094976 
648	 0.11892905227188 
649	 0.119002312203946 
650	 0.119020151449107 
651	 0.119088750876148 
652	 0.11920050810544 
653	 0.119250053851221 
654	 0.119284111175466 
655	 0.119325982148865 
656	 0.119385436455306 
657	 0.119447909410293 
658	 0.119512290502771 
659	 0.119586736260532 
660	 0.119674206011729 
661	 0.11969793445214 
662	 0.119751030129351 
663	 0.119852805168565 
664	 0.119892077545122 
665	 0.11997308336712 
666	 0.120042771749129 
667	 0.120049516776461 
668	 0.120138299472818 
669	 0.120211877135265 
670	 0.120251346232662 
671	 0.120306957444112 
672	 0.12036278812372 
673	 0.120450409420925 
674	 0.120569005075636 
675	 0.120625609840621 
676	 0.120668296840205 
677	 0.120713517360265 
678	 0.120764571322342 
679	 0.120823575253138 
680	 0.120860406029892 
681	 0.120879976631775 
682	 0.120935216381758 
683	 0.120987977719696 
684	 0.121067281026705 
685	 0.121181429456805 
686	 0.121202999078621 
687	 0.121235998576908 
688	 0.121296687945774 
689	 0.121334732461236 
690	 0.121321308479161 
691	 0.121330870884881 
692	 0.121400011463296 
693	 0.1214647978312 
694	 0.121500770033719 
695	 0.121527144380841 
696	 0.121571267472713 
697	 0.121589736800868 
698	 0.121615891054184 
699	 0.121660093161049 
700	 0.121704035389702 
701	 0.121745679045166 
702	 0.121774546741496 
703	 0.121788223671303 
704	 0.121805362351971 
705	 0.12185561658542 
706	 0.121899180337152 
707	 0.12187579415923 
708	 0.12187848168711 
709	 0.12193930027238 
710	 0.122023923375113 
711	 0.122013228511762 
712	 0.122050016036472 
713	 0.122084363604219 
714	 0.122058312150559 
715	 0.122097634955146 
716	 0.122121965190162 
717	 0.122127861505656 
718	 0.122166646093442 
719	 0.122206073238996 
720	 0.122221847540796 
721	 0.122214402257539 
722	 0.122228136474314 
723	 0.122245828240593 
724	 0.122254850994444 
725	 0.122242944650847 
726	 0.122187624924681 
727	 0.122191029998859 
728	 0.122246944260211 
729	 0.122248525902819 
730	 0.122250375171844 
731	 0.122255716250579 
732	 0.12225665371769 
733	 0.12223501611332 
734	 0.122241161897396 
735	 0.122255299711309 
736	 0.122234390171257 
737	 0.122187620854877 
738	 0.122177584585191 
739	 0.122198476708542 
740	 0.122169305179319 
741	 0.122167812832437 
742	 0.122162679306363 
743	 0.122128009411839 
744	 0.122116652417313 
745	 0.12208847275942 
746	 0.122080063942791 
747	 0.122137526072467 
748	 0.122108862679403 
749	 0.122068978450802 
750	 0.122055941996942 
751	 0.122037955266198 
752	 0.121990566184191 
753	 0.121945648151299 
754	 0.121935085833777 
755	 0.121954451250421 
756	 0.121943840497646 
757	 0.121919044724041 
758	 0.121926993406906 
759	 0.121922991888014 
760	 0.121887064552394 
761	 0.12184318312993 
762	 0.121864095348282 
763	 0.121882699698622 
764	 0.121880322806157 
765	 0.121859431449883 
766	 0.121847963947211 
767	 0.121828717399629 
768	 0.121808257780603 
769	 0.121800569416182 
770	 0.121781592641229 
771	 0.12176974801856 
772	 0.12176234533066 
773	 0.121729225197837 
774	 0.121758241447178 
775	 0.12176724987247 
776	 0.121701016348984 
777	 0.121683844404791 
778	 0.121654873053082 
779	 0.121640708536972 
780	 0.121682305073394 
781	 0.121656429081399 
782	 0.121639109402546 
783	 0.121636402081778 
784	 0.121570080538845 
785	 0.12153301066745 
786	 0.121532445670836 
787	 0.121543332121947 
788	 0.121502146020883 
789	 0.121504383893737 
790	 0.121510878337697 
791	 0.121462720903678 
792	 0.121490898777111 
793	 0.121463095192687 
794	 0.121383395216068 
795	 0.121376798577194 
796	 0.12138483942393 
797	 0.121378141130346 
798	 0.121355352984122 
799	 0.12136019982526 
800	 0.121339172560531 
801	 0.121296752994652 
802	 0.121258382649922 
803	 0.121256928418723 
804	 0.121227525871586 
805	 0.121190813355497 
806	 0.121207182361634 
807	 0.121167772026677 
808	 0.121145494906822 
809	 0.12116099945701 
810	 0.121143034582306 
811	 0.121123969748444 
812	 0.121102414491171 
813	 0.121081866216816 
814	 0.121104111893852 
815	 0.121074006911326 
816	 0.121014668779034 
817	 0.120993050933364 
818	 0.121011898741238 
819	 0.121026026990545 
820	 0.120998531234374 
821	 0.120917320730014 
822	 0.120924789659224 
823	 0.120929173379849 
824	 0.120886686558277 
825	 0.120892309008151 
826	 0.120880249064606 
827	 0.120852123171511 
828	 0.120828388392897 
829	 0.120834639764215 
830	 0.120789937587893 
831	 0.120739271507812 
832	 0.120764411930023 
833	 0.120760482821884 
834	 0.120726723268981 
835	 0.120682943717405 
836	 0.120660818198847 
837	 0.120675035464869 
838	 0.120691716991551 
839	 0.120675038136294 
840	 0.120600399702366 
841	 0.120566080563411 
842	 0.120563348556915 
843	 0.120557232375577 
844	 0.120530838849896 
845	 0.120573213328803 
846	 0.120623581370256 
847	 0.120580108555059 
848	 0.120546787844608 
849	 0.120516513910788 
850	 0.120481110266329 
851	 0.120442724506418 
852	 0.120479050143325 
853	 0.120480403009225 
854	 0.120423010439734 
855	 0.120442026106713 
856	 0.120443396654364 
857	 0.120447952830097 
858	 0.120471260221603 
859	 0.120446252188173 
860	 0.120437642932667 
861	 0.120414652684765 
862	 0.120346359101051 
863	 0.120353472407019 
864	 0.120337144856002 
865	 0.120311412993973 
866	 0.120348969080026 
867	 0.12038481897177 
868	 0.120397085284836 
869	 0.120383201366969 
870	 0.120358188220109 
871	 0.120345835025122 
872	 0.120315668283692 
873	 0.1202754737636 
874	 0.120306257059616 
875	 0.120317779701774 
876	 0.120294959303684 
877	 0.120249884797611 
878	 0.120202757387256 
879	 0.120235518147328 
880	 0.120271579443896 
881	 0.120227094713392 
882	 0.120242863349301 
883	 0.120266434689989 
884	 0.120248149085071 
885	 0.120169772226983 
886	 0.120159930383679 
887	 0.120198221272228 
888	 0.120231819122246 
889	 0.120207488043784 
890	 0.120249475615789 
891	 0.120219221147563 
892	 0.120115497050124 
893	 0.120135465878092 
894	 0.120153986380176 
895	 0.120179363935088 
896	 0.120207195590291 
897	 0.12016848518283 
898	 0.120171886920234 
899	 0.120208426427045 
900	 0.12023318242792 
901	 0.12019098014137 
902	 0.120208450275849 
903	 0.120229631702279 
904	 0.120177037387666 
905	 0.120140175702829 
906	 0.120175557756023 
907	 0.120203643166633 
908	 0.120142134236606 
909	 0.120264990653145 
910	 0.120247129728292 
911	 0.120128107565005 
912	 0.120168535018995 
913	 0.120222058177224 
914	 0.120270430986318 
915	 0.12027005761764 
916	 0.12017449591775 
917	 0.120163457112266 
918	 0.120192138573626 
919	 0.120195712655479 
920	 0.120136420516557 
921	 0.120152199351158 
922	 0.120196498001921 
923	 0.120243051371689 
924	 0.120337894608905 
925	 0.120296412540687 
926	 0.120239865058451 
927	 0.120264967644925 
928	 0.120296775925804 
929	 0.120288696338897 
930	 0.120258351284488 
931	 0.120257639268569 
932	 0.120371405437406 
933	 0.120406549763317 
934	 0.120354529533396 
935	 0.120284570264713 
936	 0.120307364290384 
937	 0.120272096820829 
938	 0.120249644122685 
939	 0.120328329690937 
940	 0.120392200069506 
941	 0.120437713166391 
942	 0.120470417651161 
943	 0.120486848220034 
944	 0.120417328640988 
945	 0.120375402754163 
946	 0.120417004505679 
947	 0.120516348261873 
948	 0.1204646467027 
949	 0.120382194521729 
950	 0.120336406408087 
951	 0.120349385669329 
952	 0.120411583140774 
953	 0.120462923237799 
954	 0.120498518173324 
955	 0.120535361930049 
956	 0.12050785464103 
957	 0.120492684085321 
958	 0.120488915076643 
959	 0.12045327344066 
960	 0.120421015745342 
961	 0.12042250539161 
962	 0.12042879583863 
963	 0.12039516340609 
964	 0.120410956779684 
965	 0.120513010714967 
966	 0.120598352851289 
967	 0.12053099719468 
968	 0.120527294699419 
969	 0.120562920583834 
970	 0.120525924986267 
971	 0.120335753055119 
972	 0.120353070540508 
973	 0.120435330875702 
974	 0.120520563338511 
975	 0.120612947188471 
976	 0.12061264095417 
977	 0.120617854265991 
978	 0.120625949051208 
979	 0.120578449668032 
980	 0.120549216557658 
981	 0.120561372338991 
982	 0.120564335055893 
983	 0.120504862619193 
984	 0.120560958190975 
985	 0.1205193741876 
986	 0.120442961158861 
987	 0.120495473800354 
988	 0.120436918366382 
989	 0.120454901509992 
990	 0.120515723827949 
991	 0.120491996998161 
992	 0.120440733584057 
993	 0.120380005951621 
994	 0.120406629931251 
995	 0.120558925252235 
996	 0.120530272790987 
997	 0.120580527518536 
998	 0.120647364855594 
999	 0.120641457388012 
1000	 0.120891645353393 
1001	 0.11925738559582 
1002	 0.119339809937531 
1003	 0.11933778787873 
1004	 0.119341578764559 
1005	 0.119360650780301 
1006	 0.119346060127851 
1007	 0.11924355423804 
1008	 0.11932221938512 
1009	 0.119386953984088 
1010	 0.119373826073362 
1011	 0.119392859986432 
1012	 0.119371058207076 
1013	 0.119307593143835 
1014	 0.119345359680925 
1015	 0.119399658688496 
1016	 0.119371344446991 
1017	 0.119362696195949 
1018	 0.119354115009465 
1019	 0.119340250650854 
1020	 0.119334222087813 
1021	 0.119360225268103 
1022	 0.119325769913408 
1023	 0.11929138460659 
1024	 0.119285390055733 
1025	 0.119253126672412 
1026	 0.119270150993984 
1027	 0.119282868713694 
1028	 0.119255880058631 
1029	 0.119267561133263 
1030	 0.119305023285899 
1031	 0.11932382523454 
1032	 0.119362910749801 
1033	 0.119364186572776 
1034	 0.11932909125594 
1035	 0.119291544609031 
1036	 0.119222800671156 
1037	 0.119187974922548 
1038	 0.119244761695601 
1039	 0.119307908062958 
1040	 0.119346476236535 
1041	 0.119361616536841 
1042	 0.11933602509568 
1043	 0.119296042006804 
1044	 0.119277422285289 
1045	 0.119277055399374 
1046	 0.119291922629169 
1047	 0.119296321461475 
1048	 0.119337378114616 
1049	 0.119358615839571 
1050	 0.119381745905696 
1051	 0.119429685505386 
1052	 0.119436875072509 
1053	 0.119411735851215 
1054	 0.119423727557792 
1055	 0.119476771720063 
1056	 0.119445038341984 
1057	 0.119449681713921 
1058	 0.119508352124757 
1059	 0.119533921884437 
1060	 0.119525440861128 
1061	 0.119549320985482 
1062	 0.119575542547498 
1063	 0.119563650064373 
1064	 0.119613998833722 
1065	 0.119676429152571 
1066	 0.119690374378643 
1067	 0.119722596588904 
1068	 0.119724141059827 
1069	 0.119668173663187 
1070	 0.119658336261489 
1071	 0.11969180079681 
1072	 0.119689198889773 
1073	 0.119693341865102 
1074	 0.119677503424411 
1075	 0.119631918740307 
1076	 0.119594429980523 
1077	 0.119600085237508 
1078	 0.119594156243092 
1079	 0.119591007143034 
1080	 0.119595670025902 
1081	 0.119544012091016 
1082	 0.119485677145195 
1083	 0.119463443587075 
1084	 0.11946448317062 
1085	 0.119451973097125 
1086	 0.119448079193287 
1087	 0.119462401785147 
1088	 0.119491107779008 
1089	 0.119499490009806 
1090	 0.11951584245632 
1091	 0.119519587269412 
1092	 0.119497011100344 
1093	 0.119492532802275 
1094	 0.119504170407478 
1095	 0.11949255652954 
1096	 0.11944758092285 
1097	 0.119414260207191 
1098	 0.119404336369204 
1099	 0.119408779793409 
1100	 0.119401827400264 
1101	 0.119410547731708 
1102	 0.119415208469501 
1103	 0.119412036037851 
1104	 0.119397140132338 
1105	 0.11939891526282 
1106	 0.119416777787548 
1107	 0.119422969464614 
1108	 0.11941512302928 
1109	 0.119421281620453 
1110	 0.119439783624083 
1111	 0.119461884672519 
1112	 0.119483397065157 
1113	 0.119532296491217 
1114	 0.119617849463546 
1115	 0.119659361055787 
1116	 0.119692031882953 
1117	 0.119725081211962 
1118	 0.119741955218452 
1119	 0.119746785609941 
1120	 0.119765949533851 
1121	 0.119815095835352 
1122	 0.119866176165334 
1123	 0.119923703488561 
1124	 0.119966018222149 
1125	 0.12002070683812 
1126	 0.120052261120685 
1127	 0.120045057054091 
1128	 0.120080401834467 
1129	 0.120126515742168 
1130	 0.120178311863993 
1131	 0.120274005370643 
1132	 0.120321395077394 
1133	 0.120335653588195 
1134	 0.120370056117205 
1135	 0.120397789706817 
1136	 0.120409522100217 
1137	 0.12045400420952 
1138	 0.120511158477914 
1139	 0.120546089999806 
1140	 0.12056695743694 
1141	 0.120600824975983 
1142	 0.120639749243858 
1143	 0.120664677340552 
1144	 0.120690701171715 
1145	 0.120710539364851 
1146	 0.120701257059756 
1147	 0.12071875773283 
1148	 0.120763338151994 
1149	 0.120787348681497 
1150	 0.120807193875428 
1151	 0.120831383317727 
1152	 0.120849458926727 
1153	 0.120857812317084 
1154	 0.120881839384038 
1155	 0.120917023523227 
1156	 0.120955337094981 
1157	 0.121008347113624 
1158	 0.121035662082251 
1159	 0.121067341496096 
1160	 0.121079683672276 
1161	 0.121051593634096 
1162	 0.121057028402506 
1163	 0.121071817503462 
1164	 0.121084694690925 
1165	 0.121109992060485 
1166	 0.121133322326138 
1167	 0.121148196959156 
1168	 0.121163947124293 
1169	 0.121193545177286 
1170	 0.121232910704737 
1171	 0.121267222207523 
1172	 0.121315181183383 
1173	 0.121346470157638 
1174	 0.121367863200017 
1175	 0.121391885253471 
1176	 0.121400788896814 
1177	 0.12142860977617 
1178	 0.12146747054653 
1179	 0.121504025633195 
1180	 0.121561170432786 
1181	 0.12159882065488 
1182	 0.121624937703422 
1183	 0.121638314548441 
1184	 0.12167778331888 
1185	 0.121725711957186 
1186	 0.121757026554653 
1187	 0.121802067725189 
1188	 0.121829530245052 
1189	 0.121827335130638 
1190	 0.121844597841462 
1191	 0.12186254501314 
1192	 0.121894972015345 
1193	 0.121948305785533 
1194	 0.121979369269637 
1195	 0.122013901929291 
1196	 0.122042005642734 
1197	 0.122038290975212 
1198	 0.122056028554316 
1199	 0.122082389274027 
1200	 0.122122290686636 
1201	 0.122153745791071 
1202	 0.122188877966268 
1203	 0.122227179214187 
1204	 0.122273496248929 
1205	 0.122299903356224 
1206	 0.122319431263175 
1207	 0.122343937614094 
1208	 0.122349527553371 
1209	 0.122371501622949 
1210	 0.122416053839633 
1211	 0.122445494183447 
1212	 0.122463338537218 
1213	 0.122491112970659 
1214	 0.12251034797046 
1215	 0.122545232297061 
1216	 0.122590146027628 
1217	 0.122653225939233 
1218	 0.12269997507026 
1219	 0.12276037465399 
1220	 0.122791436164953 
1221	 0.122796349030492 
1222	 0.122819501969823 
1223	 0.122833528332417 
1224	 0.122857219807717 
1225	 0.12289023872865 
1226	 0.122925491755494 
1227	 0.122965115645307 
1228	 0.123002060080473 
1229	 0.123049273787064 
1230	 0.123087373156949 
1231	 0.12311989334641 
1232	 0.123147731869122 
1233	 0.12317121361884 
1234	 0.123183319741593 
1235	 0.123214362937088 
1236	 0.123245572415416 
1237	 0.123285532465588 
1238	 0.123354402970377 
1239	 0.123387151382678 
1240	 0.123398639763054 
1241	 0.123426775344203 
1242	 0.123444205813062 
1243	 0.123467672334565 
1244	 0.123504095468912 
1245	 0.123538172220026 
1246	 0.12356922219311 
1247	 0.123601078372212 
1248	 0.12364355620879 
1249	 0.123678832202065 
1250	 0.123703674897202 
1251	 0.12370593492432 
1252	 0.123729019515544 
1253	 0.12374980143498 
1254	 0.123777659812934 
1255	 0.123822761177327 
1256	 0.123849950425512 
1257	 0.123863507936669 
1258	 0.123889833115453 
1259	 0.123921229812399 
1260	 0.123946864925292 
1261	 0.123985342871787 
1262	 0.124002857035009 
1263	 0.123989275063367 
1264	 0.123999873607514 
1265	 0.124013131486234 
1266	 0.124030744114195 
1267	 0.124062060941562 
1268	 0.124096081286405 
1269	 0.1241313344148 
1270	 0.124163286774266 
1271	 0.124200761640571 
1272	 0.124248501963565 
1273	 0.124290099481923 
1274	 0.124333441467196 
1275	 0.12436984837305 
1276	 0.124400494703909 
1277	 0.124432155726242 
1278	 0.12445991392619 
1279	 0.124487130223523 
1280	 0.124503812594309 
1281	 0.124542185297419 
1282	 0.12458251338952 
1283	 0.124635139969242 
1284	 0.124701167050377 
1285	 0.124793318954256 
1286	 0.124861787883852 
1287	 0.124923862425358 
1288	 0.124997274402353 
1289	 0.125066599827408 
1290	 0.125142071700795 
1291	 0.125243095337701 
1292	 0.125302302397609 
1293	 0.125345451457273 
1294	 0.125383671516896 
1295	 0.125395161788119 
1296	 0.125418760706071 
1297	 0.125441120714873 
1298	 0.125463349184647 
1299	 0.125494585491903 
1300	 0.125506777406859 
1301	 0.125501352893908 
1302	 0.125510342234109 
1303	 0.125520505059963 
1304	 0.125515186616705 
1305	 0.125535599861095 
1306	 0.125557316901003 
1307	 0.125542107101539 
1308	 0.125526187673767 
1309	 0.125519655165434 
1310	 0.125496486055071 
1311	 0.125504286472315 
1312	 0.125546019354308 
1313	 0.125558058093789 
1314	 0.125575110263543 
1315	 0.12557595867051 
1316	 0.125552371031827 
1317	 0.125539886903485 
1318	 0.125518631828829 
1319	 0.125515069641656 
1320	 0.12551877571359 
1321	 0.125525130355673 
1322	 0.125548063055401 
1323	 0.125564466841354 
1324	 0.125562719598246 
1325	 0.12557884823079 
1326	 0.12559118794922 
1327	 0.125602973450419 
1328	 0.125620869889305 
1329	 0.125646911746502 
1330	 0.125677494757625 
1331	 0.125712182810423 
1332	 0.125742541164913 
1333	 0.12578385093015 
1334	 0.125814696084616 
1335	 0.125827761129628 
1336	 0.125866364339149 
1337	 0.125915897638177 
1338	 0.125960427891151 
1339	 0.126017375420937 
1340	 0.126067639187979 
1341	 0.126111480029016 
1342	 0.126155806447781 
1343	 0.126196377528788 
1344	 0.126246259618417 
1345	 0.126293504262922 
1346	 0.126353754915929 
1347	 0.126418894160186 
1348	 0.126474761672698 
1349	 0.126528749556549 
1350	 0.126589979065338 
1351	 0.126648898543124 
1352	 0.126704204021058 
1353	 0.12676730891301 
1354	 0.12683829926705 
1355	 0.12689796498557 
1356	 0.126959682116665 
1357	 0.127020230866898 
1358	 0.127066730398163 
1359	 0.127128527443806 
1360	 0.127205330786548 
1361	 0.127266247780344 
1362	 0.127327707684104 
1363	 0.127383419531075 
1364	 0.127424921413584 
1365	 0.127470941332589 
1366	 0.127516294014752 
1367	 0.127567240793549 
1368	 0.127615439029084 
1369	 0.127664593591672 
1370	 0.127700327054066 
1371	 0.127725561343795 
1372	 0.127745585784821 
1373	 0.127754973222943 
1374	 0.127770807710641 
1375	 0.127785983958055 
1376	 0.127807594570003 
1377	 0.127831961049657 
1378	 0.12785730295671 
1379	 0.127893520325071 
1380	 0.127915698908519 
1381	 0.127929983449054 
1382	 0.127946194746116 
1383	 0.127956158600593 
1384	 0.127966990246075 
1385	 0.127986877246848 
1386	 0.127992786403805 
1387	 0.127987741813442 
1388	 0.12798503205046 
1389	 0.127978346333342 
1390	 0.127966471917212 
1391	 0.127961155578832 
1392	 0.127942871780288 
1393	 0.127905051797552 
1394	 0.127855254573102 
1395	 0.127811232225366 
1396	 0.127760541591822 
1397	 0.127709074928388 
1398	 0.127668021681086 
1399	 0.127612304650301 
1400	 0.127543113038946 
1401	 0.127474979482731 
1402	 0.127403789577635 
1403	 0.127327815809537 
1404	 0.127239552207474 
1405	 0.127168694031145 
1406	 0.127097464512073 
1407	 0.127036968988157 
1408	 0.126990874681639 
1409	 0.126943769377359 
1410	 0.126901913218721 
1411	 0.126861006122365 
1412	 0.126822686305392 
1413	 0.126783760059935 
1414	 0.12675648784457 
1415	 0.126743909933549 
1416	 0.126744893474035 
1417	 0.126768762453013 
1418	 0.126791148087704 
1419	 0.12680557564726 
1420	 0.126818411133663 
1421	 0.126821370951194 
1422	 0.126819932213292 
1423	 0.12683436552849 
1424	 0.126849172756182 
1425	 0.12686979195721 
1426	 0.126885493646689 
1427	 0.126906730751208 
1428	 0.126920233297817 
1429	 0.126926361811861 
1430	 0.126941992808776 
1431	 0.126957508162044 
1432	 0.126969147105755 
1433	 0.126979792344301 
1434	 0.127000437656802 
1435	 0.127025176846999 
1436	 0.12705177780232 
1437	 0.12708396969938 
1438	 0.12711768028761 
1439	 0.12714819653151 
1440	 0.127185885146744 
1441	 0.127235226783404 
1442	 0.127276776147107 
1443	 0.127320784854563 
1444	 0.127353944957482 
1445	 0.127368313494991 
1446	 0.127400417239652 
1447	 0.127431293449776 
1448	 0.127454406670861 
1449	 0.127480778923142 
1450	 0.127516583447174 
1451	 0.127550976554177 
1452	 0.127578730707125 
1453	 0.127619226902381 
1454	 0.127673892148156 
1455	 0.127713968488182 
1456	 0.127761014894441 
1457	 0.12779043339342 
1458	 0.127800690846145 
1459	 0.127822490511873 
1460	 0.127835649890458 
1461	 0.127859641853905 
1462	 0.127896886380161 
1463	 0.127926248858698 
1464	 0.127948142433434 
1465	 0.127983734931067 
1466	 0.128023730135515 
1467	 0.128064731442314 
1468	 0.128124061598026 
1469	 0.128169070097013 
1470	 0.128205140923617 
1471	 0.12824296755309 
1472	 0.128276078474213 
1473	 0.128307902404704 
1474	 0.128326173369835 
1475	 0.128347514881743 
1476	 0.128378425967292 
1477	 0.128397783298437 
1478	 0.128426739662181 
1479	 0.12845402263357 
1480	 0.128469957204199 
1481	 0.128489435790663 
1482	 0.128514091650393 
1483	 0.128542644161425 
1484	 0.128576395381146 
1485	 0.128614992775124 
1486	 0.128653762517516 
1487	 0.128698125666599 
1488	 0.128740127961122 
1489	 0.128788481431343 
1490	 0.128823954516137 
1491	 0.128852870956625 
1492	 0.128882096676742 
1493	 0.128897162401214 
1494	 0.128922841040744 
1495	 0.1289584316797 
1496	 0.128987805942261 
1497	 0.129020542606596 
1498	 0.129048077264292 
1499	 0.129065028486143 
1500	 0.129090288102628 
1501	 0.129116732060659 
1502	 0.12914343574485 
1503	 0.129171846447564 
1504	 0.12920911663162 
1505	 0.129239000775764 
1506	 0.129260977350465 
1507	 0.129289106233647 
1508	 0.129307709839773 
1509	 0.129324369111287 
1510	 0.129354131605218 
1511	 0.129374867605684 
1512	 0.12939430406155 
1513	 0.129411866125291 
1514	 0.129422280686698 
1515	 0.129443892280151 
1516	 0.129468778583567 
1517	 0.129484824584279 
1518	 0.129500400675058 
1519	 0.129516095703151 
1520	 0.129523929684409 
1521	 0.129536280673403 
1522	 0.129550955301582 
1523	 0.129570248331231 
1524	 0.129595135988283 
1525	 0.129610288317393 
1526	 0.129622652027031 
1527	 0.129644061119853 
1528	 0.129662708389937 
1529	 0.129675918615793 
1530	 0.129697562622116 
1531	 0.129714207501772 
1532	 0.129712516938759 
1533	 0.12973268752891 
1534	 0.129777808337134 
1535	 0.129800563695556 
1536	 0.12982027982587 
1537	 0.129831706876588 
1538	 0.129823280064367 
1539	 0.129825500458073 
1540	 0.129828409652048 
1541	 0.129838599751464 
1542	 0.129860964524021 
1543	 0.129867132607568 
1544	 0.129866270047369 
1545	 0.129872370022974 
1546	 0.129870118070834 
1547	 0.129873856316849 
1548	 0.12988954519808 
1549	 0.129896696187018 
1550	 0.129910796449519 
1551	 0.12992935019061 
1552	 0.129945984972874 
1553	 0.129963921634864 
1554	 0.129974021021776 
1555	 0.129986257371629 
1556	 0.130007254549506 
1557	 0.13002709149559 
1558	 0.130040042599543 
1559	 0.130052779424686 
1560	 0.13006273533897 
1561	 0.13006434275056 
1562	 0.130074335213305 
1563	 0.130087999132887 
1564	 0.130098873093803 
1565	 0.130119383405461 
1566	 0.130119891068753 
1567	 0.130103319933372 
1568	 0.13010397740925 
1569	 0.130101334938736 
1570	 0.130100767849747 
1571	 0.13011071961594 
1572	 0.130119752991782 
1573	 0.130117689211445 
1574	 0.130131213294003 
1575	 0.130166612612161 
1576	 0.130184026215665 
1577	 0.130196408819442 
1578	 0.130211720810791 
1579	 0.130221404586519 
1580	 0.130231442174649 
1581	 0.130251780484377 
1582	 0.130254970078413 
1583	 0.130244798822955 
1584	 0.130238818998649 
1585	 0.130217105623459 
1586	 0.130214238179147 
1587	 0.130226572151643 
1588	 0.130229887067529 
1589	 0.13023272065245 
1590	 0.130244890950585 
1591	 0.130257158309019 
1592	 0.130271763993654 
1593	 0.130300662547814 
1594	 0.130320570022709 
1595	 0.130337634636726 
1596	 0.130349080566751 
1597	 0.130356259264568 
1598	 0.130363773201212 
1599	 0.130363992289079 
1600	 0.130365475168623 
1601	 0.130359772138718 
1602	 0.130368201027947 
1603	 0.130398142654625 
1604	 0.130406483484599 
1605	 0.130409914146246 
1606	 0.130414628720384 
1607	 0.130405286159197 
1608	 0.130391508429282 
1609	 0.13038942584741 
1610	 0.130393181217416 
1611	 0.130409410691197 
1612	 0.130412795353034 
1613	 0.130401674530286 
1614	 0.13040920113319 
1615	 0.130397876074316 
1616	 0.130378116646434 
1617	 0.130386365699421 
1618	 0.130395600139734 
1619	 0.130420539664566 
1620	 0.130451084779571 
1621	 0.130466984037553 
1622	 0.130486539324361 
1623	 0.130493715512809 
1624	 0.130484300493853 
1625	 0.130482929210643 
1626	 0.13047833804272 
1627	 0.13048678400436 
1628	 0.13049961487091 
1629	 0.130506371325692 
1630	 0.130521712463247 
1631	 0.130529989775237 
1632	 0.130525424381575 
1633	 0.130537110034751 
1634	 0.130560934762992 
1635	 0.130572852612584 
1636	 0.130588247568703 
1637	 0.1305900558358 
1638	 0.130581634366847 
1639	 0.130573905736981 
1640	 0.130550560003323 
1641	 0.130551404273111 
1642	 0.130564574988049 
1643	 0.130568803098527 
1644	 0.130574509961679 
1645	 0.13059866778344 
1646	 0.130630926527894 
1647	 0.130648866296009 
1648	 0.130688867620684 
1649	 0.130697241891072 
1650	 0.130666458819125 
1651	 0.130663927286201 
1652	 0.130670662980641 
1653	 0.130666288066804 
1654	 0.130655701704544 
1655	 0.130662200305083 
1656	 0.130672143507201 
1657	 0.130678806572892 
1658	 0.130709833608168 
1659	 0.1307075649786 
1660	 0.130668689417481 
1661	 0.130665199122785 
1662	 0.130671554845264 
1663	 0.130667008851718 
1664	 0.130669814340449 
1665	 0.130677911099 
1666	 0.130672972856067 
1667	 0.130682868958684 
1668	 0.130728826219372 
1669	 0.1307340481397 
1670	 0.130704438676911 
1671	 0.130710982003736 
1672	 0.130724871217931 
1673	 0.130727476528583 
1674	 0.130756694604084 
1675	 0.130753512618137 
1676	 0.130702178379597 
1677	 0.13069465536484 
1678	 0.130702044340014 
1679	 0.13070610631477 
1680	 0.130732669821462 
1681	 0.130741316223437 
1682	 0.130730523064693 
1683	 0.130739773031184 
1684	 0.130763685981382 
1685	 0.130769333329432 
1686	 0.13076466101158 
1687	 0.130780883608663 
1688	 0.130811990316347 
1689	 0.130809103413191 
1690	 0.130801844726131 
1691	 0.13080097730679 
1692	 0.130760524871104 
1693	 0.130757280002884 
1694	 0.130797240712196 
1695	 0.130812569360808 
1696	 0.130834167885002 
1697	 0.130827168705605 
1698	 0.130795503549703 
1699	 0.130780542602093 
1700	 0.130738211524222 
1701	 0.130735173680847 
1702	 0.130777370628598 
1703	 0.130784216822486 
1704	 0.130792689786192 
1705	 0.130790529172588 
1706	 0.130752422613089 
1707	 0.130754109418119 
1708	 0.130777876621468 
1709	 0.130790574907888 
1710	 0.130822991585125 
1711	 0.130831720363611 
1712	 0.13082150898472 
1713	 0.13082246379055 
1714	 0.130813859492903 
1715	 0.130821406876917 
1716	 0.1308460989494 
1717	 0.130854240319182 
1718	 0.130860252113342 
1719	 0.130870543481959 
1720	 0.130873530880951 
1721	 0.130876073483314 
1722	 0.130898401978668 
1723	 0.130884159979694 
1724	 0.130836885375002 
1725	 0.130816873142911 
1726	 0.130783867691459 
1727	 0.130773369558866 
1728	 0.130795830042412 
1729	 0.130793395034894 
1730	 0.130786758895971 
1731	 0.130776497619648 
1732	 0.130752347737556 
1733	 0.130745436522234 
1734	 0.130745451494309 
1735	 0.130738588209637 
1736	 0.13074277604381 
1737	 0.130730550166479 
1738	 0.130701545308005 
1739	 0.130684068137453 
1740	 0.130668103960651 
1741	 0.130650600327328 
1742	 0.130633245539151 
1743	 0.130617288891715 
1744	 0.130602369557152 
1745	 0.130582911784292 
1746	 0.13056243506043 
1747	 0.130552882642105 
1748	 0.130526761060714 
1749	 0.130515345231881 
1750	 0.130518237174541 
1751	 0.130531494053381 
1752	 0.130535515761719 
1753	 0.130518004096524 
1754	 0.130516707198845 
1755	 0.130501228680857 
1756	 0.130490824742609 
1757	 0.130503616734261 
1758	 0.130511566245532 
1759	 0.130534203329382 
1760	 0.130530223064718 
1761	 0.130517071361979 
1762	 0.130514002017424 
1763	 0.130491927403908 
1764	 0.130487044130931 
1765	 0.13047211189159 
1766	 0.130457114924635 
1767	 0.130451645385595 
1768	 0.130445414715417 
1769	 0.130464815036583 
1770	 0.130463258696198 
1771	 0.130460766655007 
1772	 0.130485761476937 
1773	 0.130490122459166 
1774	 0.130490979004148 
1775	 0.130486363643682 
1776	 0.130444132759316 
1777	 0.130422085561672 
1778	 0.130421868862305 
1779	 0.130393787871877 
1780	 0.130377187209902 
1781	 0.130374936620747 
1782	 0.130375215863426 
1783	 0.130427941302921 
1784	 0.130440385018561 
1785	 0.130430211346582 
1786	 0.130423657845101 
1787	 0.130397946338757 
1788	 0.130380347884766 
1789	 0.130353497575968 
1790	 0.130357151878686 
1791	 0.130380611326167 
1792	 0.13039797633899 
1793	 0.130436521223419 
1794	 0.130460952961019 
1795	 0.130477450654801 
1796	 0.13049058699349 
1797	 0.130509537315681 
1798	 0.130527035088575 
1799	 0.13051470358071 
1800	 0.13051988195333 
1801	 0.127938942230393 
1802	 0.127935428352804 
1803	 0.127935116973952 
1804	 0.127940031923996 
1805	 0.127935460388207 
1806	 0.127925263302942 
1807	 0.127926328708434 
1808	 0.127923996840976 
1809	 0.127895956917464 
1810	 0.127915022809994 
1811	 0.127980755709951 
1812	 0.12799805123404 
1813	 0.128012292636531 
1814	 0.128050618234765 
1815	 0.128049088453388 
1816	 0.128063888387695 
1817	 0.128075973725382 
1818	 0.128097968525412 
1819	 0.128101741435465 
1820	 0.128091509028053 
1821	 0.128081508687827 
1822	 0.128100108848936 
1823	 0.128150981265891 
1824	 0.128204469438781 
1825	 0.128270752405309 
1826	 0.128322830369369 
1827	 0.128347422424158 
1828	 0.128363275507717 
1829	 0.12836314651138 
1830	 0.128366811641885 
1831	 0.128349351708863 
1832	 0.128350925621989 
1833	 0.128381577500521 
1834	 0.128390761604936 
1835	 0.128394753644939 
1836	 0.128412885162017 
1837	 0.128422931901413 
1838	 0.128446494849574 
1839	 0.128456156076117 
1840	 0.128474344878196 
1841	 0.128463838320069 
1842	 0.128454148561515 
1843	 0.128434876842858 
1844	 0.128417140047816 
1845	 0.12841224196733 
1846	 0.128426635432001 
1847	 0.128448516585242 
1848	 0.128461849974872 
1849	 0.128488091778215 
1850	 0.128490093562873 
1851	 0.128467795303529 
1852	 0.128428660261635 
1853	 0.128407252542066 
1854	 0.128383910280702 
1855	 0.128379396756776 
1856	 0.128389426015519 
1857	 0.128371038717577 
1858	 0.128342275291663 
1859	 0.128324372301517 
1860	 0.128291129422296 
1861	 0.128237159451852 
1862	 0.128198186264856 
1863	 0.128178059857106 
1864	 0.128133665348657 
1865	 0.128093078033609 
1866	 0.128077537762702 
1867	 0.128064080217246 
1868	 0.128038922547348 
1869	 0.128006978699941 
1870	 0.127976087904591 
1871	 0.127934564818727 
1872	 0.12788047700011 
1873	 0.127819675597914 
1874	 0.127749698152436 
1875	 0.127648843698664 
1876	 0.127529575532675 
1877	 0.127426011973048 
1878	 0.127344534979975 
1879	 0.1272440881257 
1880	 0.127117419727531 
1881	 0.126977856950669 
1882	 0.126823211341413 
1883	 0.126631036756939 
1884	 0.126446668432523 
1885	 0.126284136969489 
1886	 0.126111024423761 
1887	 0.125920379297206 
1888	 0.125731204670927 
1889	 0.125533821542993 
1890	 0.125312748707793 
1891	 0.125075590030732 
1892	 0.124813497033661 
1893	 0.124558568125809 
1894	 0.124285790131766 
1895	 0.124015922873933 
1896	 0.123766834111552 
1897	 0.12352544009949 
1898	 0.123255957362702 
1899	 0.122982560618591 
1900	 0.122693028650908 
1901	 0.12238034017752 
1902	 0.122090793727843 
1903	 0.121799271284498 
1904	 0.121532407638946 
1905	 0.121286184339466 
1906	 0.12105169043974 
1907	 0.120813440524283 
1908	 0.120573690905678 
1909	 0.120334733155174 
1910	 0.120098788991394 
1911	 0.119851987868987 
1912	 0.119650751602322 
1913	 0.119466296814063 
1914	 0.119302804276176 
1915	 0.119133747606959 
1916	 0.118991350086772 
1917	 0.118844395832476 
1918	 0.118684875808968 
1919	 0.118531399716473 
1920	 0.118403153588606 
1921	 0.118285447275892 
1922	 0.118185002270245 
1923	 0.118098894214102 
1924	 0.118009200442892 
1925	 0.117939004485744 
1926	 0.11785363573221 
1927	 0.117750547948248 
1928	 0.117662613025395 
1929	 0.117604132330198 
1930	 0.117533451625336 
1931	 0.117463371318179 
1932	 0.11742104638981 
1933	 0.117376552395617 
1934	 0.117361496233679 
1935	 0.117364182365371 
1936	 0.117420595256336 
1937	 0.117438908457492 
1938	 0.117444019677325 
1939	 0.117461069279167 
1940	 0.117468987898048 
1941	 0.11749110004727 
1942	 0.117535001572801 
1943	 0.11759132355419 
1944	 0.117633315352934 
1945	 0.117679650780236 
1946	 0.117728686444637 
1947	 0.117765807736015 
1948	 0.117822819088471 
1949	 0.117899794575977 
1950	 0.117969029429127 
1951	 0.118034277661083 
1952	 0.118117787376287 
1953	 0.118209136157714 
1954	 0.118284770013381 
1955	 0.118364035326814 
1956	 0.118441253598789 
1957	 0.118520928718833 
1958	 0.118606264035497 
1959	 0.118676715510852 
1960	 0.118738861285961 
1961	 0.118806277179578 
1962	 0.118861558112646 
1963	 0.118919247455732 
1964	 0.11897625884916 
1965	 0.119051312488979 
1966	 0.119123619678633 
1967	 0.119187350234029 
1968	 0.119252021820037 
1969	 0.119314025683271 
1970	 0.119389341507091 
1971	 0.119469792892386 
1972	 0.119549182091756 
1973	 0.119642412834173 
1974	 0.119728255593983 
1975	 0.119812125126019 
1976	 0.11987835678811 
1977	 0.119964979124908 
1978	 0.120061185243147 
1979	 0.120148628823215 
1980	 0.120236353613054 
1981	 0.120318752694893 
1982	 0.120392143371393 
1983	 0.120472161503826 
1984	 0.120548638546137 
1985	 0.120632221256641 
1986	 0.120732355705922 
1987	 0.120811579372419 
1988	 0.120881804288923 
1989	 0.120960328074534 
1990	 0.121012380730305 
1991	 0.121049700782168 
1992	 0.121106254461812 
1993	 0.121154918543321 
1994	 0.12123331767774 
1995	 0.121344939602111 
1996	 0.121428464139679 
1997	 0.121524213374621 
1998	 0.121599569400996 
1999	 0.121627949231657 
2000	 0.121701442775045 
2001	 0.121801559146648 
2002	 0.121889752476161 
2003	 0.121988145361995 
2004	 0.122091464647805 
2005	 0.122171210883797 
2006	 0.122223324995544 
2007	 0.122292325251708 
2008	 0.122354415114656 
2009	 0.122423078321418 
2010	 0.122492431745262 
2011	 0.122569368673602 
2012	 0.122647649747709 
2013	 0.122740391811629 
2014	 0.12285093427329 
2015	 0.12295372889295 
2016	 0.123064488502547 
2017	 0.123173879318005 
2018	 0.123282094469599 
2019	 0.123379748275653 
2020	 0.123495125584057 
2021	 0.123619212007245 
2022	 0.123744302841564 
2023	 0.123888797487218 
2024	 0.12401426371653 
2025	 0.124136414281255 
2026	 0.124249126265091 
2027	 0.124348394485726 
2028	 0.12444115049534 
2029	 0.124545107679881 
2030	 0.124646435818024 
2031	 0.12475744223848 
2032	 0.12488020237067 
2033	 0.124995633248658 
2034	 0.125116761110918 
2035	 0.125227061757203 
2036	 0.125330543569752 
2037	 0.125433581766491 
2038	 0.125530648536335 
2039	 0.125626695831424 
2040	 0.125716453982249 
2041	 0.125816709433607 
2042	 0.125907062798864 
2043	 0.126003104577207 
2044	 0.126094174688981 
2045	 0.126193588293003 
2046	 0.12626808030916 
2047	 0.12632795793967 
2048	 0.12638848622065 
2049	 0.126419426838127 
2050	 0.126482411931653 
2051	 0.126563991760528 
2052	 0.126639688588835 
2053	 0.126724318202168 
2054	 0.126812070285882 
2055	 0.126903382234609 
2056	 0.126994243984464 
2057	 0.127070562925363 
2058	 0.127152998450484 
2059	 0.127210811969527 
2060	 0.127237015798262 
2061	 0.12728370662983 
2062	 0.127317430147185 
2063	 0.127377443199195 
2064	 0.127459624857749 
2065	 0.127531062540749 
2066	 0.127611173188044 
2067	 0.127691044628408 
2068	 0.127765650425216 
2069	 0.127841741677952 
2070	 0.127924064663552 
2071	 0.12802490674124 
2072	 0.128091228945266 
2073	 0.128148148784693 
2074	 0.128196114104758 
2075	 0.128216088424176 
2076	 0.128254756622331 
2077	 0.128282554457702 
2078	 0.128337085404916 
2079	 0.12840959090632 
2080	 0.128479287660816 
2081	 0.128579695575347 
2082	 0.128655448424975 
2083	 0.12870382196522 
2084	 0.128777377287458 
2085	 0.128837255699654 
2086	 0.12888794680969 
2087	 0.128940762226086 
2088	 0.128999332157376 
2089	 0.129042287007376 
2090	 0.129059822345904 
2091	 0.129110458856714 
2092	 0.129169253172874 
2093	 0.12923159816802 
2094	 0.129313775125882 
2095	 0.129395161312153 
2096	 0.129474957293964 
2097	 0.129554792784577 
2098	 0.129640309793747 
2099	 0.12973601367622 
2100	 0.129817181433675 
2101	 0.12989584807416 
2102	 0.129964569397333 
2103	 0.130026855786872 
2104	 0.130081537184621 
2105	 0.130108758349594 
2106	 0.130170739190278 
2107	 0.130254260819404 
2108	 0.130318550995034 
2109	 0.130378872969133 
2110	 0.130456140349089 
2111	 0.130528888021821 
2112	 0.130605877632713 
2113	 0.130688309246267 
2114	 0.130807072873565 
2115	 0.130902771233493 
2116	 0.130990136002925 
2117	 0.13107468622819 
2118	 0.131174177585085 
2119	 0.131235692557068 
2120	 0.131261221608815 
2121	 0.13131063254605 
2122	 0.131350254692448 
2123	 0.131398346527293 
2124	 0.131462596650036 
2125	 0.131518147969292 
2126	 0.13156697311829 
2127	 0.13161559809473 
2128	 0.131672734121381 
2129	 0.131717937618502 
2130	 0.131748009382446 
2131	 0.131782669074442 
2132	 0.131824620065269 
2133	 0.131867481624659 
2134	 0.131905480778028 
2135	 0.131958895167849 
2136	 0.131986063675189 
2137	 0.131993913142868 
2138	 0.132003482294058 
2139	 0.131997808720705 
2140	 0.132002870682929 
2141	 0.13203242452605 
2142	 0.13201947455472 
2143	 0.131982556870664 
2144	 0.131949690277021 
2145	 0.13187836143775 
2146	 0.131825723575826 
2147	 0.131791060778442 
2148	 0.131758312155158 
2149	 0.131713512674098 
2150	 0.131669417232317 
2151	 0.131609616932327 
2152	 0.131521098102235 
2153	 0.13147482798273 
2154	 0.131447723472557 
2155	 0.13139905266797 
2156	 0.131381412521834 
2157	 0.131322698566714 
2158	 0.131216948426803 
2159	 0.131128996070611 
2160	 0.131035975549557 
2161	 0.130943106875002 
2162	 0.130852444183265 
2163	 0.130758207464999 
2164	 0.130659358404229 
2165	 0.130564780540168 
2166	 0.130457780131796 
2167	 0.130337240620061 
2168	 0.130233951378361 
2169	 0.130125446537506 
2170	 0.130032659167477 
2171	 0.129959018418034 
2172	 0.129879285320776 
2173	 0.129806796394896 
2174	 0.129725967569264 
2175	 0.129644656786912 
2176	 0.129559603757071 
2177	 0.129463986787369 
2178	 0.129377047034294 
2179	 0.129303593478876 
2180	 0.129212303046671 
2181	 0.129110100813569 
2182	 0.129011642593288 
2183	 0.128897530645469 
2184	 0.128789978364564 
2185	 0.128695868505349 
2186	 0.128617367912005 
2187	 0.128534076661581 
2188	 0.128455948572361 
2189	 0.128377128699801 
2190	 0.128292654986677 
2191	 0.128224407050219 
2192	 0.128160952395099 
2193	 0.128109915345496 
2194	 0.128084216808287 
2195	 0.128039570830155 
2196	 0.127999483629217 
2197	 0.127951022504184 
2198	 0.12786265415169 
2199	 0.127819690267436 
2200	 0.127817778526809 
2201	 0.12778916257579 
2202	 0.127763896975841 
2203	 0.127757911682868 
2204	 0.127726075508099 
2205	 0.12765631575909 
2206	 0.127627792146509 
2207	 0.127605913454975 
2208	 0.127608475908342 
2209	 0.127643940525515 
2210	 0.127655120784311 
2211	 0.127671477897985 
2212	 0.127690905627171 
2213	 0.127695388743661 
2214	 0.12771178490262 
2215	 0.127749697918549 
2216	 0.127777201469655 
2217	 0.127801707834354 
2218	 0.127827166227909 
2219	 0.127863663531918 
2220	 0.127878558471896 
2221	 0.12789009322411 
2222	 0.127870888417695 
2223	 0.12786671610869 
2224	 0.127866160803343 
2225	 0.127860202012995 
2226	 0.127862346378023 
2227	 0.127865164745536 
2228	 0.127841326300141 
2229	 0.127863587892949 
2230	 0.127926884994254 
2231	 0.127959420812313 
2232	 0.128000265522486 
2233	 0.128042273497162 
2234	 0.128079521817667 
2235	 0.128102413311178 
2236	 0.128115230940029 
2237	 0.128144663501849 
2238	 0.128162461857629 
2239	 0.128188988050072 
2240	 0.128258407903965 
2241	 0.128292230367736 
2242	 0.128302597392201 
2243	 0.128310034896369 
2244	 0.128303824066985 
2245	 0.128281882954148 
2246	 0.128271686256889 
2247	 0.128291217546484 
2248	 0.12833402777917 
2249	 0.128416699105336 
2250	 0.128467331575911 
2251	 0.128529437683438 
2252	 0.128577842551018 
2253	 0.12861120028976 
2254	 0.128645779226516 
2255	 0.128680861174559 
2256	 0.128711051413095 
2257	 0.128726501594512 
2258	 0.128747761175513 
2259	 0.128778568233387 
2260	 0.128804542774676 
2261	 0.128832749241787 
2262	 0.128846077455665 
2263	 0.128823041278554 
2264	 0.128840922054156 
2265	 0.128889969715437 
2266	 0.128917185040484 
2267	 0.128962308388562 
2268	 0.129002329149394 
2269	 0.129038778982903 
2270	 0.129021225699006 
2271	 0.129049579225366 
2272	 0.129101666969622 
2273	 0.129133671780733 
2274	 0.129179481632689 
2275	 0.129200627049164 
2276	 0.12921278793184 
2277	 0.129210890643538 
2278	 0.129185930240819 
2279	 0.129174669734823 
2280	 0.129147450004597 
2281	 0.129156904360229 
2282	 0.129197933941188 
2283	 0.129209441576634 
2284	 0.12921444120558 
2285	 0.129244500388093 
2286	 0.129262827567196 
2287	 0.129300723607587 
2288	 0.129390385970533 
2289	 0.129441690704432 
2290	 0.129472660768386 
2291	 0.129508533157087 
2292	 0.129539116808207 
2293	 0.129573514513611 
2294	 0.129617241695752 
2295	 0.129645314945229 
2296	 0.129670957125166 
2297	 0.129670976045972 
2298	 0.129687071093603 
2299	 0.129686401189929 
2300	 0.129681089185957 
2301	 0.129682140401633 
2302	 0.129696361352159 
2303	 0.129731458267776 
2304	 0.129758710595643 
2305	 0.129797508069838 
2306	 0.129799383875021 
2307	 0.129754451899848 
2308	 0.129729915249946 
2309	 0.129701654412346 
2310	 0.129675979608486 
2311	 0.129645809385298 
2312	 0.129649502878477 
2313	 0.129675610699192 
2314	 0.12966782585528 
2315	 0.129663335541439 
2316	 0.129652480211375 
2317	 0.129614459043584 
2318	 0.129597276363144 
2319	 0.129603828519567 
2320	 0.129598378167937 
2321	 0.129572966506297 
2322	 0.129565231275252 
2323	 0.129575808119681 
2324	 0.12957753802772 
2325	 0.129571320541354 
2326	 0.129582064075096 
2327	 0.129598153563406 
2328	 0.129611678434026 
2329	 0.129673295700632 
2330	 0.129719230997689 
2331	 0.129738579759153 
2332	 0.129768864516041 
2333	 0.129797081077403 
2334	 0.129825658221478 
2335	 0.1298403858205 
2336	 0.129834224664093 
2337	 0.129796283219429 
2338	 0.129769758807948 
2339	 0.129775447831718 
2340	 0.129768183899622 
2341	 0.129750986747284 
2342	 0.129730553007172 
2343	 0.129718491363359 
2344	 0.129699321662491 
2345	 0.129659002293373 
2346	 0.129595627584711 
2347	 0.129569022551217 
2348	 0.129530025271125 
2349	 0.129513309430107 
2350	 0.129552831031937 
2351	 0.129522768736083 
2352	 0.129451982278434 
2353	 0.129420824568111 
2354	 0.129397273839948 
2355	 0.129338111326553 
2356	 0.129251561090172 
2357	 0.129223682228559 
2358	 0.12921511583598 
2359	 0.129174259081317 
2360	 0.129184900578595 
2361	 0.129150357798008 
2362	 0.12902613581577 
2363	 0.128934755617811 
2364	 0.128876536374412 
2365	 0.12878572192342 
2366	 0.128639319847303 
2367	 0.128580114036556 
2368	 0.128573808352326 
2369	 0.128536866993097 
2370	 0.128562148500496 
2371	 0.128504593633041 
2372	 0.12837993356718 
2373	 0.128302841663249 
2374	 0.128246625229617 
2375	 0.128192640133551 
2376	 0.128127543389254 
2377	 0.128086891755342 
2378	 0.128025858041262 
2379	 0.127916185491622 
2380	 0.127906702494531 
2381	 0.127878714784924 
2382	 0.127752857455359 
2383	 0.127703259806625 
2384	 0.127653094639682 
2385	 0.127550830981463 
2386	 0.12746101415991 
2387	 0.127397087041918 
2388	 0.127313991995348 
2389	 0.127147342350084 
2390	 0.127061139475899 
2391	 0.127047890342017 
2392	 0.126982637370883 
2393	 0.126955684251496 
2394	 0.126915282511891 
2395	 0.12683152354868 
2396	 0.126742195072293 
2397	 0.126664710781572 
2398	 0.126663904139057 
2399	 0.126673182249931 
2400	 0.126662700745982 
2401	 0.126644448489023 
2402	 0.126542577724481 
2403	 0.126420928052451 
2404	 0.126329521441511 
2405	 0.126299590932522 
2406	 0.126256791153634 
2407	 0.126117928658964 
2408	 0.126083787987654 
2409	 0.126033053815347 
2410	 0.125901221438102 
2411	 0.125834070581708 
2412	 0.125706138918754 
2413	 0.125603318116892 
2414	 0.125616275754873 
2415	 0.125585587496927 
2416	 0.125513086576041 
2417	 0.125383716015186 
2418	 0.125324796965409 
2419	 0.125247961996841 
2420	 0.125215615148758 
2421	 0.125232785262798 
2422	 0.125241918527831 
2423	 0.125327467496868 
2424	 0.125265926226242 
2425	 0.125154046182834 
2426	 0.125027133786965 
2427	 0.124712414849076 
2428	 0.124564581100853 
2429	 0.124570841139551 
2430	 0.124493349179441 
2431	 0.124436016434999 
2432	 0.124311840467652 
2433	 0.124071287509819 
2434	 0.123943370864976 
2435	 0.123852457320477 
2436	 0.123796692864269 
2437	 0.123813612392736 
2438	 0.123768207823368 
2439	 0.123728490271187 
2440	 0.123614704651853 
2441	 0.123442908798386 
2442	 0.123391674090737 
2443	 0.123320419087829 
2444	 0.123287957973888 
2445	 0.123338890713961 
2446	 0.123320072976462 
2447	 0.1233356122997 
2448	 0.123304714523089 
2449	 0.123269225835458 
2450	 0.123194663996924 
2451	 0.122996354763523 
2452	 0.122840152601311 
2453	 0.122724509773769 
2454	 0.122536635373009 
2455	 0.122258024161159 
2456	 0.122179293099845 
2457	 0.122150693631928 
2458	 0.122123311169509 
2459	 0.122256443289693 
2460	 0.122186292663097 
2461	 0.121973552065302 
2462	 0.121891811895256 
2463	 0.121904662919884 
2464	 0.12185284817679 
2465	 0.121725062908042 
2466	 0.121676992368869 
2467	 0.121585480490629 
2468	 0.121572268594951 
2469	 0.121789221792517 
2470	 0.121728079698394 
2471	 0.121462923972661 
2472	 0.121203631808031 
2473	 0.121063471771898 
2474	 0.120951493365645 
2475	 0.1209186160728 
2476	 0.120893747188167 
2477	 0.120917413088168 
2478	 0.120887480896742 
2479	 0.120737071477804 
2480	 0.120547720008122 
2481	 0.120336276817927 
2482	 0.120263222542461 
2483	 0.120299459885429 
2484	 0.120240882501093 
2485	 0.120161117319845 
2486	 0.120148505219014 
2487	 0.120042664940783 
2488	 0.119992451905523 
2489	 0.11997189606156 
2490	 0.119762192573368 
2491	 0.119707856601645 
2492	 0.119832378916948 
2493	 0.119886346816808 
2494	 0.120066578264783 
2495	 0.120272149786982 
2496	 0.1202086346627 
2497	 0.12012333753385 
2498	 0.120093410485587 
2499	 0.119990019491919 
2500	 0.11993684656762 
