Wavelength	LMW_13_a00002.asd
350	 6.53519470100145E-02 
351	 6.25088630149927E-02 
352	 5.27773263498862E-02 
353	 4.19766208708335E-02 
354	 5.22808270479695E-02 
355	 5.17029392094391E-02 
356	 4.68107614413658E-02 
357	 4.94192123268382E-02 
358	 5.16092364717741E-02 
359	 4.64700245904139E-02 
360	 3.99175769189229E-02 
361	 4.41778287307026E-02 
362	 4.57123756690396E-02 
363	 4.58172561339184E-02 
364	 4.62520443204552E-02 
365	 4.65965930171013E-02 
366	 4.45334048056953E-02 
367	 4.35929014880922E-02 
368	 4.65715560827096E-02 
369	 0.04760229276087 
370	 4.50136991053935E-02 
371	 4.31196196785873E-02 
372	 4.87280590332076E-02 
373	 4.84201676425751E-02 
374	 0.044204580316192 
375	 4.09645594598226E-02 
376	 4.49677292056555E-02 
377	 4.82649785906209E-02 
378	 5.02770773566801E-02 
379	 5.19158320437202E-02 
380	 5.02895494201825E-02 
381	 0.049269896888069 
382	 5.01345750898522E-02 
383	 5.16901267906055E-02 
384	 5.00189276167208E-02 
385	 4.92052668942595E-02 
386	 5.11619520588816E-02 
387	 5.15002730952156E-02 
388	 5.27319270528517E-02 
389	 5.36716039876069E-02 
390	 5.28204880474627E-02 
391	 5.26247362196472E-02 
392	 5.23555096560304E-02 
393	 0.053326686163563 
394	 5.80537874940481E-02 
395	 5.75387975893518E-02 
396	 0.056939722733167 
397	 5.97356102480837E-02 
398	 6.07416292836803E-02 
399	 6.17721445509243E-02 
400	 6.26203861446921E-02 
401	 6.25317234779819E-02 
402	 6.12139793242221E-02 
403	 6.19570010347321E-02 
404	 6.40632055392742E-02 
405	 6.29717106541379E-02 
406	 6.51824624619839E-02 
407	 6.75880847538631E-02 
408	 6.71409107599269E-02 
409	 6.54207537855899E-02 
410	 6.49894649162911E-02 
411	 6.55120445130289E-02 
412	 6.54723593530062E-02 
413	 6.63624748670637E-02 
414	 6.61785085274159E-02 
415	 6.46721007817664E-02 
416	 6.41135244933374E-02 
417	 6.40688757173053E-02 
418	 6.39425263677877E-02 
419	 6.34563833425412E-02 
420	 6.37363849173928E-02 
421	 0.063326632800207 
422	 6.25275265404177E-02 
423	 6.26059845549538E-02 
424	 6.20375321929689E-02 
425	 6.08827959652394E-02 
426	 5.97096003964849E-02 
427	 5.96305759253229E-02 
428	 0.059592551461476 
429	 0.059224607097202 
430	 5.85819790233264E-02 
431	 5.86132053891745E-02 
432	 5.86961187148723E-02 
433	 5.86892896228533E-02 
434	 5.89774566604533E-02 
435	 5.95903376506789E-02 
436	 6.03630310871461E-02 
437	 6.10633044043921E-02 
438	 6.13067613508944E-02 
439	 6.21173765678104E-02 
440	 6.32661418858914E-02 
441	 0.064018679177166 
442	 6.51756319557314E-02 
443	 6.63289754099815E-02 
444	 6.73018694497514E-02 
445	 6.84436136039415E-02 
446	 6.93475427475247E-02 
447	 7.02653900800717E-02 
448	 7.14581042778277E-02 
449	 7.23948460833013E-02 
450	 7.33628266405936E-02 
451	 7.44965937023689E-02 
452	 7.57600022517557E-02 
453	 7.68067980669691E-02 
454	 7.76235666926881E-02 
455	 7.83584843051194E-02 
456	 7.94028675573137E-02 
457	 8.03320686299212E-02 
458	 8.11944677995976E-02 
459	 8.22027463773861E-02 
460	 8.30577353617326E-02 
461	 8.38344540359876E-02 
462	 8.46594537290347E-02 
463	 8.56839383234556E-02 
464	 8.65365715122475E-02 
465	 8.73426789389878E-02 
466	 8.82908267457661E-02 
467	 8.92317193939382E-02 
468	 9.00772668705242E-02 
469	 9.08909018156544E-02 
470	 9.18335351860018E-02 
471	 9.26073299333768E-02 
472	 9.33032970566362E-02 
473	 0.094021660487186 
474	 9.47287493667953E-02 
475	 9.52945484543928E-02 
476	 9.59374036947586E-02 
477	 9.69160588340926E-02 
478	 9.75732910147905E-02 
479	 9.83148090985483E-02 
480	 9.92067264462135E-02 
481	 9.97149504344171E-02 
482	 0.100484955003918 
483	 0.10127073938889 
484	 0.101730538903895 
485	 0.102181693965362 
486	 0.102587209227511 
487	 0.103011384443009 
488	 0.103586271898992 
489	 0.104024830512763 
490	 0.104376836750034 
491	 0.10472006600763 
492	 0.105037449748839 
493	 0.105368295733033 
494	 0.105717294929348 
495	 0.106078054334549 
496	 0.106535340213247 
497	 0.10680867519166 
498	 0.106909234835301 
499	 0.107334782083449 
500	 0.107456680338837 
501	 0.10751880734784 
502	 0.107862463053054 
503	 0.108076092922514 
504	 0.108234730811674 
505	 0.108354324765668 
506	 0.108392869536373 
507	 0.10858356319491 
508	 0.108819436774968 
509	 0.108958612588278 
510	 0.108942208529472 
511	 0.108943999741398 
512	 0.109037970980117 
513	 0.109219334083086 
514	 0.109341493622991 
515	 0.109413350977455 
516	 0.109459788581042 
517	 0.109500063574172 
518	 0.109464318621793 
519	 0.109435111140561 
520	 0.109524693638905 
521	 0.109747780017658 
522	 0.109808861313884 
523	 0.109688097958318 
524	 0.109665396558472 
525	 0.109831754192485 
526	 0.109945093158252 
527	 0.10986848184043 
528	 0.110062993450794 
529	 0.110189912929187 
530	 0.110222569663995 
531	 0.110326236975356 
532	 0.110313387478184 
533	 0.110288833945713 
534	 0.110344060641499 
535	 0.110474319002271 
536	 0.11054542186833 
537	 0.110576730116252 
538	 0.110650775473424 
539	 0.110799878487135 
540	 0.110919957128157 
541	 0.111004149418266 
542	 0.111188394133081 
543	 0.111319038432869 
544	 0.111415929318595 
545	 0.111543176619207 
546	 0.111741211680192 
547	 0.1119342086792 
548	 0.112089413143354 
549	 0.112215449072538 
550	 0.112310402204171 
551	 0.112437282814198 
552	 0.112628827533564 
553	 0.112823884096679 
554	 0.112949288008347 
555	 0.113088027923985 
556	 0.113373313351574 
557	 0.113563119870531 
558	 0.1137137980959 
559	 0.113923421572237 
560	 0.114318599813525 
561	 0.114586973064059 
562	 0.11478697567642 
563	 0.115077314640573 
564	 0.115387773071009 
565	 0.115613323381098 
566	 0.115816971385493 
567	 0.116244329161426 
568	 0.116726361724124 
569	 0.117103620602054 
570	 0.117308431056744 
571	 0.117540818216871 
572	 0.117887696255591 
573	 0.118318729299566 
574	 0.118720361187971 
575	 0.119100463822504 
576	 0.119545504092354 
577	 0.12006997552896 
578	 0.120492251106801 
579	 0.120979828471025 
580	 0.12154126090185 
581	 0.122119512852349 
582	 0.12273331042184 
583	 0.123197229715322 
584	 0.12350499386246 
585	 0.123922381091435 
586	 0.124373370358513 
587	 0.124846234933091 
588	 0.125354800075725 
589	 0.125985815819942 
590	 0.126589643324551 
591	 0.127111102784049 
592	 0.127595040556432 
593	 0.128069924765181 
594	 0.128687094445199 
595	 0.129487818568055 
596	 0.130197825008522 
597	 0.130793691323324 
598	 0.131308702054949 
599	 0.131814692708897 
600	 0.132322158424008 
601	 0.132740530428583 
602	 0.13307959771943 
603	 0.133553589746331 
604	 0.134053278156543 
605	 0.134552181235804 
606	 0.135063900745031 
607	 0.135687966364893 
608	 0.136261546348058 
609	 0.136720101728266 
610	 0.137129987845599 
611	 0.137444808932156 
612	 0.137777882593047 
613	 0.1381994251685 
614	 0.138520266814024 
615	 0.138787269868571 
616	 0.139063437744386 
617	 0.139408144394862 
618	 0.139707951730423 
619	 0.139977237063306 
620	 0.140238469560502 
621	 0.140481292238654 
622	 0.14075814001221 
623	 0.141038359162878 
624	 0.141268828309926 
625	 0.141500790488407 
626	 0.141725180137281 
627	 0.141939952537327 
628	 0.142157088467508 
629	 0.142411667786409 
630	 0.142627988619032 
631	 0.142754921692384 
632	 0.142949433786982 
633	 0.143196641587121 
634	 0.14342230277807 
635	 0.143525964120699 
636	 0.143751704946905 
637	 0.144011221838173 
638	 0.144206206736252 
639	 0.144356192022958 
640	 0.14454272577624 
641	 0.14475469526533 
642	 0.144942880553419 
643	 0.145158369458724 
644	 0.145340179394348 
645	 0.145479641960931 
646	 0.145656744759878 
647	 0.145847840909498 
648	 0.146018169860415 
649	 0.146156501848305 
650	 0.146369545499032 
651	 0.146577395166834 
652	 0.146766197294027 
653	 0.146983676497515 
654	 0.147238555706056 
655	 0.147445636677004 
656	 0.147567612890622 
657	 0.147717075862191 
658	 0.147929822128738 
659	 0.148168203828607 
660	 0.148363264359326 
661	 0.148549180983373 
662	 0.148723466449712 
663	 0.148900773206145 
664	 0.149122775521021 
665	 0.149430099199283 
666	 0.149653141397904 
667	 0.149685937548673 
668	 0.149932044655686 
669	 0.150194367056107 
670	 0.150395532335516 
671	 0.150573475573345 
672	 0.150741158999001 
673	 0.15096630830649 
674	 0.151253563199975 
675	 0.151436957932645 
676	 0.151660457524235 
677	 0.151903548687455 
678	 0.152094244259437 
679	 0.152334656060358 
680	 0.152528475647712 
681	 0.152676865040436 
682	 0.152926923416165 
683	 0.153193312549611 
684	 0.15343799290265 
685	 0.153649547241348 
686	 0.153863288275903 
687	 0.154110648581695 
688	 0.154371681313068 
689	 0.154596468989709 
690	 0.154858625127274 
691	 0.155092665054516 
692	 0.155273442751028 
693	 0.155494879764677 
694	 0.155712920297275 
695	 0.155953036867412 
696	 0.156242059138305 
697	 0.156489061034444 
698	 0.156702519550147 
699	 0.156916588632346 
700	 0.157180883671077 
701	 0.157367259101135 
702	 0.157562768386182 
703	 0.157830156638306 
704	 0.15802747181473 
705	 0.158254724730946 
706	 0.158500843602259 
707	 0.158703439038786 
708	 0.158888963680959 
709	 0.159111910041237 
710	 0.159362487209419 
711	 0.159536181505117 
712	 0.159710032652136 
713	 0.159898822748071 
714	 0.160091831146899 
715	 0.160239171652434 
716	 0.160456348002998 
717	 0.160700140987222 
718	 0.160824337951357 
719	 0.160949660526919 
720	 0.161101364479944 
721	 0.16125952907824 
722	 0.161339465178925 
723	 0.161471735293099 
724	 0.161630792424915 
725	 0.161748857057169 
726	 0.161843828731525 
727	 0.161936537826163 
728	 0.162018983750996 
729	 0.162058957634442 
730	 0.16209033718574 
731	 0.162166112510769 
732	 0.16227232444705 
733	 0.162220417201951 
734	 0.162227884685928 
735	 0.162233210333022 
736	 0.162111942415237 
737	 0.162107629041627 
738	 0.162121290520926 
739	 0.162088882587197 
740	 0.162014627392403 
741	 0.161942233132087 
742	 0.161854537682593 
743	 0.16172855522084 
744	 0.161558549110126 
745	 0.161394612085263 
746	 0.161268652477146 
747	 0.161176885861186 
748	 0.160954456137721 
749	 0.160738578607145 
750	 0.160588484232815 
751	 0.16043548939562 
752	 0.160232042290494 
753	 0.160001702813521 
754	 0.15976898138997 
755	 0.159494623148083 
756	 0.159260556153253 
757	 0.159043361106838 
758	 0.158773366745481 
759	 0.158488859432517 
760	 0.158169018742211 
761	 0.157836726781538 
762	 0.157571556545856 
763	 0.157272648934619 
764	 0.156971401351015 
765	 0.156702139488934 
766	 0.156418577565629 
767	 0.156084270502964 
768	 0.155725499199819 
769	 0.155393355349305 
770	 0.155052310937691 
771	 0.154734608390012 
772	 0.154433753748799 
773	 0.154092108331207 
774	 0.153692498290696 
775	 0.153337614465896 
776	 0.153073367232459 
777	 0.15271560695802 
778	 0.152389518844926 
779	 0.152085755894592 
780	 0.151746480431115 
781	 0.151429914434563 
782	 0.151060103780511 
783	 0.15065030739779 
784	 0.150313809229901 
785	 0.150020133618405 
786	 0.149698216036569 
787	 0.149328796354572 
788	 0.149040510672109 
789	 0.148711051986375 
790	 0.148357556586215 
791	 0.148030606190768 
792	 0.14765234174915 
793	 0.147357649364409 
794	 0.147122210347297 
795	 0.146789429075281 
796	 0.146463048378894 
797	 0.146128035537867 
798	 0.145789610142042 
799	 0.145523706710181 
800	 0.145230276763855 
801	 0.144891913605744 
802	 0.144550249862501 
803	 0.144366247351736 
804	 0.144142374057368 
805	 0.143826941536658 
806	 0.143481867390724 
807	 0.143205822834861 
808	 0.142935706951848 
809	 0.142661693271596 
810	 0.142463976479877 
811	 0.142246618917569 
812	 0.141980319529772 
813	 0.141675901440189 
814	 0.14139656028567 
815	 0.141167961044103 
816	 0.140961549751824 
817	 0.140734477779717 
818	 0.140517694410533 
819	 0.1403087347853 
820	 0.140087543888221 
821	 0.13982878018729 
822	 0.139599437874436 
823	 0.139424786016358 
824	 0.139278174692629 
825	 0.139064324535878 
826	 0.138822507129702 
827	 0.138599827283852 
828	 0.138435614613825 
829	 0.138345625894134 
830	 0.138174584580014 
831	 0.13796136664633 
832	 0.137823286898222 
833	 0.137698234528709 
834	 0.137536062017176 
835	 0.13735687575048 
836	 0.137237366786533 
837	 0.137091905294551 
838	 0.136965988362817 
839	 0.136863690662819 
840	 0.13668241684221 
841	 0.136577619676475 
842	 0.136472720709704 
843	 0.136301586419036 
844	 0.136249055720854 
845	 0.136150034200046 
846	 0.13599227664477 
847	 0.135849382025717 
848	 0.135817381043152 
849	 0.135779450606165 
850	 0.135690919924627 
851	 0.135588573154576 
852	 0.13553890693036 
853	 0.135491682715699 
854	 0.135428949495311 
855	 0.135404054439325 
856	 0.135348844660494 
857	 0.135291301325071 
858	 0.135256159782251 
859	 0.135196139989042 
860	 0.135173009469095 
861	 0.135152152024651 
862	 0.135091081669015 
863	 0.135066801841031 
864	 0.135090043890581 
865	 0.135121391383665 
866	 0.135098942261041 
867	 0.135025066349878 
868	 0.135004167857444 
869	 0.135053693622542 
870	 0.135095303397845 
871	 0.135137208282982 
872	 0.135216448924508 
873	 0.135317202904167 
874	 0.135334496004633 
875	 0.135296650762803 
876	 0.135238239395622 
877	 0.135214004493978 
878	 0.135327178840662 
879	 0.135423807767961 
880	 0.135499534687794 
881	 0.13559907165239 
882	 0.135728247591768 
883	 0.135825220050208 
884	 0.135891977552469 
885	 0.135974226407817 
886	 0.136131260746201 
887	 0.136254229677995 
888	 0.136334894329819 
889	 0.136455412492977 
890	 0.136587218401217 
891	 0.136673267394591 
892	 0.136725839689782 
893	 0.1368423186213 
894	 0.137000094452313 
895	 0.13716307729834 
896	 0.137300122227184 
897	 0.137395584459735 
898	 0.137642767523365 
899	 0.13789117994314 
900	 0.13800833101017 
901	 0.138156997324155 
902	 0.138339035317614 
903	 0.138530526901307 
904	 0.138700518070962 
905	 0.138839299673947 
906	 0.139076500127502 
907	 0.139333641050755 
908	 0.139485024946464 
909	 0.139724056701484 
910	 0.139961251963125 
911	 0.140183898965519 
912	 0.140431388450301 
913	 0.140670041287702 
914	 0.140878503383618 
915	 0.141089638738663 
916	 0.14137368958026 
917	 0.14170797444786 
918	 0.14197604166232 
919	 0.14217831276871 
920	 0.142453061098844 
921	 0.142759622683798 
922	 0.143029678332108 
923	 0.143274780405707 
924	 0.143620425511959 
925	 0.143842318266713 
926	 0.144085154160557 
927	 0.144449915469575 
928	 0.144809769655513 
929	 0.145200843200766 
930	 0.145546776896523 
931	 0.145813587224766 
932	 0.146113846986632 
933	 0.146514465525567 
934	 0.146914525886764 
935	 0.147224318687694 
936	 0.147543942991611 
937	 0.147881052061571 
938	 0.148258424793768 
939	 0.148684831477136 
940	 0.149129888728146 
941	 0.149515347592733 
942	 0.149873973966951 
943	 0.150269578126504 
944	 0.15068474948814 
945	 0.1510639535746 
946	 0.151474457569299 
947	 0.151966816025967 
948	 0.152259691584692 
949	 0.152611419711504 
950	 0.153100482442972 
951	 0.153650886641917 
952	 0.154025184013957 
953	 0.154409057151924 
954	 0.154863397336354 
955	 0.155346573000972 
956	 0.155770709916182 
957	 0.156279202874002 
958	 0.156780100332076 
959	 0.157110654188933 
960	 0.157598563401757 
961	 0.158128227747548 
962	 0.158681344423287 
963	 0.159290211242594 
964	 0.159802387968518 
965	 0.160345849940748 
966	 0.160839033977442 
967	 0.161138721574862 
968	 0.161654145170824 
969	 0.162231878449306 
970	 0.162723407622814 
971	 0.163093547290767 
972	 0.163749298414 
973	 0.164326418367555 
974	 0.164740578324019 
975	 0.165159859131918 
976	 0.165744762002946 
977	 0.166316646391452 
978	 0.166819745912279 
979	 0.167310006205265 
980	 0.167856313264982 
981	 0.16843592990238 
982	 0.169047975726286 
983	 0.169696417643348 
984	 0.170324624123914 
985	 0.170870664367378 
986	 0.171364430213146 
987	 0.171864924737947 
988	 0.172274634066926 
989	 0.172803825964324 
990	 0.1733952069627 
991	 0.173912251036967 
992	 0.174589597501638 
993	 0.17513918887782 
994	 0.175664678692637 
995	 0.176329999506138 
996	 0.176731056804804 
997	 0.17726703709582 
998	 0.177980600961612 
999	 0.178732890108072 
1000	 0.179384748407007 
1001	 0.178846004737317 
1002	 0.179349978485821 
1003	 0.179800586015296 
1004	 0.180294698812631 
1005	 0.180786457483976 
1006	 0.181278676267742 
1007	 0.181770864055033 
1008	 0.182337898066347 
1009	 0.182847041535754 
1010	 0.183327882363463 
1011	 0.18383331715003 
1012	 0.1844051522106 
1013	 0.184990038325595 
1014	 0.185521209804796 
1015	 0.18610884316078 
1016	 0.18659171046591 
1017	 0.187061849687789 
1018	 0.187461159690608 
1019	 0.188008494945909 
1020	 0.188474183248814 
1021	 0.188886193877633 
1022	 0.189355854735669 
1023	 0.189721096800165 
1024	 0.190031724745438 
1025	 0.190426035697204 
1026	 0.190865751290433 
1027	 0.191292093553256 
1028	 0.191724978283148 
1029	 0.192156191786099 
1030	 0.192518898376238 
1031	 0.192857937555437 
1032	 0.193155202660129 
1033	 0.193484623706896 
1034	 0.193815486856883 
1035	 0.194103618570122 
1036	 0.194421190609145 
1037	 0.194765570890258 
1038	 0.195061336967847 
1039	 0.195374299540113 
1040	 0.195723578931764 
1041	 0.196033937891285 
1042	 0.196314441970131 
1043	 0.196601793063831 
1044	 0.196870154355591 
1045	 0.197096638001526 
1046	 0.197344140891768 
1047	 0.197631229063754 
1048	 0.197889157616271 
1049	 0.198160733529132 
1050	 0.19846490331483 
1051	 0.198751848674613 
1052	 0.199043715752914 
1053	 0.199372246004506 
1054	 0.199678558666535 
1055	 0.199972462710352 
1056	 0.200310805271525 
1057	 0.200639512936498 
1058	 0.200941961444314 
1059	 0.201266576242182 
1060	 0.20159799491179 
1061	 0.201987904985393 
1062	 0.202323122073216 
1063	 0.202685758837141 
1064	 0.203088625936959 
1065	 0.203425914733895 
1066	 0.203813138040776 
1067	 0.204280422242706 
1068	 0.204695001381979 
1069	 0.205094931794058 
1070	 0.205533401437697 
1071	 0.205978287571129 
1072	 0.206406094376605 
1073	 0.206866790951428 
1074	 0.207312847698268 
1075	 0.207729905035201 
1076	 0.208156385065287 
1077	 0.208578424699401 
1078	 0.208991141275016 
1079	 0.209400095925672 
1080	 0.209839004041853 
1081	 0.210305179017149 
1082	 0.210763499415636 
1083	 0.211222548079282 
1084	 0.211690927413589 
1085	 0.212120740985355 
1086	 0.21253895826309 
1087	 0.212952424240211 
1088	 0.213331612941694 
1089	 0.213740771978144 
1090	 0.21415307253838 
1091	 0.21453169586905 
1092	 0.214912710638697 
1093	 0.215267926414361 
1094	 0.21562006943731 
1095	 0.215990577442266 
1096	 0.216327960173765 
1097	 0.21661959586614 
1098	 0.216901219497297 
1099	 0.217118760111844 
1100	 0.217388405935034 
1101	 0.217693516947659 
1102	 0.217967268205311 
1103	 0.218246309964654 
1104	 0.218515005465797 
1105	 0.218761763325763 
1106	 0.218939743236294 
1107	 0.219113048377315 
1108	 0.219287294093047 
1109	 0.21944150865331 
1110	 0.219612205509472 
1111	 0.219771779064038 
1112	 0.219947549337125 
1113	 0.220084041867668 
1114	 0.220200390440734 
1115	 0.220306696372915 
1116	 0.220387682808869 
1117	 0.22047672819439 
1118	 0.220569930367903 
1119	 0.220635752355488 
1120	 0.220716026223441 
1121	 0.220771792980928 
1122	 0.220818688262138 
1123	 0.220900968506701 
1124	 0.220955416841118 
1125	 0.221013894015037 
1126	 0.221047209371349 
1127	 0.221044421863747 
1128	 0.221065625332525 
1129	 0.221074333042435 
1130	 0.221105509660257 
1131	 0.221173692258023 
1132	 0.221216669082969 
1133	 0.221270649002333 
1134	 0.221298157350826 
1135	 0.221300921740254 
1136	 0.221287007488427 
1137	 0.221316371562547 
1138	 0.221314304781593 
1139	 0.221314636320444 
1140	 0.221329597887566 
1141	 0.221331496877945 
1142	 0.22130926886908 
1143	 0.221304245216392 
1144	 0.221313085285003 
1145	 0.221311996460454 
1146	 0.221289050151961 
1147	 0.22129165556812 
1148	 0.221321941958678 
1149	 0.221328614556292 
1150	 0.221329434456261 
1151	 0.221341668272962 
1152	 0.221346239882528 
1153	 0.221346718850925 
1154	 0.22136308988384 
1155	 0.221401072787706 
1156	 0.221430296596864 
1157	 0.221460285692443 
1158	 0.221486801404028 
1159	 0.221502351895555 
1160	 0.221542685616146 
1161	 0.221587188186771 
1162	 0.221643942646715 
1163	 0.22172399523951 
1164	 0.221802352024984 
1165	 0.221897974109122 
1166	 0.221967895618063 
1167	 0.222040115993462 
1168	 0.222132312043257 
1169	 0.222223142675536 
1170	 0.22231226694251 
1171	 0.222409863464285 
1172	 0.222522004697513 
1173	 0.222625439698189 
1174	 0.222726391320452 
1175	 0.22282736736535 
1176	 0.222928520484872 
1177	 0.223029303196115 
1178	 0.223111203763213 
1179	 0.223226589054206 
1180	 0.223370248548418 
1181	 0.223499287366643 
1182	 0.223641540310825 
1183	 0.223785590564786 
1184	 0.223913523365698 
1185	 0.224015649241594 
1186	 0.224144886557432 
1187	 0.224284760007852 
1188	 0.224417407685249 
1189	 0.224565273922654 
1190	 0.22469056559631 
1191	 0.224796691382606 
1192	 0.224911434639107 
1193	 0.225016043545702 
1194	 0.225129907899995 
1195	 0.225257339463437 
1196	 0.22537501344737 
1197	 0.225496252563034 
1198	 0.225606294760517 
1199	 0.225709114316586 
1200	 0.225796586381008 
1201	 0.225903434600869 
1202	 0.226007545780177 
1203	 0.226123710269791 
1204	 0.226261843071384 
1205	 0.226378974876214 
1206	 0.226491993925489 
1207	 0.226602992983241 
1208	 0.226701155862118 
1209	 0.226808801732337 
1210	 0.226922310765684 
1211	 0.227032224130434 
1212	 0.227152794154038 
1213	 0.22725673234472 
1214	 0.227349969941148 
1215	 0.227441435196414 
1216	 0.227526917230956 
1217	 0.227601462971389 
1218	 0.227676955591634 
1219	 0.227748963128757 
1220	 0.227823615551582 
1221	 0.227887992716495 
1222	 0.227969574867995 
1223	 0.228074145266776 
1224	 0.228151394936077 
1225	 0.228219423521696 
1226	 0.228293334473745 
1227	 0.22836024752609 
1228	 0.228420199913667 
1229	 0.228476477935723 
1230	 0.228542348453594 
1231	 0.228592198420551 
1232	 0.228657756008363 
1233	 0.228735044310147 
1234	 0.228845379654776 
1235	 0.228912065029732 
1236	 0.228965907390239 
1237	 0.229023966796956 
1238	 0.229061994607023 
1239	 0.229113553861738 
1240	 0.229178619885779 
1241	 0.229234603274986 
1242	 0.229278238748882 
1243	 0.229335485920525 
1244	 0.229388295501036 
1245	 0.22946081450314 
1246	 0.229569231079336 
1247	 0.229647273547241 
1248	 0.22971414141555 
1249	 0.229798434899262 
1250	 0.229844432448697 
1251	 0.229882111261822 
1252	 0.229929288126391 
1253	 0.229976389613235 
1254	 0.230028508923305 
1255	 0.230090915272951 
1256	 0.230134031026165 
1257	 0.230172282020851 
1258	 0.230210337962973 
1259	 0.230235353645725 
1260	 0.230262925647008 
1261	 0.230288197783058 
1262	 0.230322522358972 
1263	 0.230356849370087 
1264	 0.230393348808583 
1265	 0.230451455978339 
1266	 0.230491491983033 
1267	 0.23052351037992 
1268	 0.230538603515011 
1269	 0.230569346708661 
1270	 0.23060145723774 
1271	 0.230624008208971 
1272	 0.230650005089057 
1273	 0.230672947169165 
1274	 0.230682535035359 
1275	 0.230698027074802 
1276	 0.230719182413473 
1277	 0.230738476011647 
1278	 0.230755420116756 
1279	 0.230770391351889 
1280	 0.230793203439873 
1281	 0.230803769410272 
1282	 0.23078812461589 
1283	 0.230799353260546 
1284	 0.230809005989697 
1285	 0.230833331101648 
1286	 0.230894490834541 
1287	 0.230977464837072 
1288	 0.231079918261478 
1289	 0.231206652074059 
1290	 0.231350335674947 
1291	 0.231518676298031 
1292	 0.231692509139654 
1293	 0.231888960120179 
1294	 0.232084183840978 
1295	 0.232281598966427 
1296	 0.232495849967255 
1297	 0.232716077803725 
1298	 0.232956193656139 
1299	 0.233227115764835 
1300	 0.233486312822439 
1301	 0.233758045859128 
1302	 0.234020534140519 
1303	 0.234280928651424 
1304	 0.234525137247337 
1305	 0.23476977205566 
1306	 0.235026931053369 
1307	 0.235301925715571 
1308	 0.23556496116212 
1309	 0.235811204139979 
1310	 0.236060480012289 
1311	 0.236284770469468 
1312	 0.236485513618867 
1313	 0.236677347630284 
1314	 0.236869401261903 
1315	 0.237024942230455 
1316	 0.237152837296863 
1317	 0.237262415196655 
1318	 0.237349437470169 
1319	 0.237416908548268 
1320	 0.237473709376964 
1321	 0.237497208444254 
1322	 0.237494979720313 
1323	 0.237462432137401 
1324	 0.237416949441283 
1325	 0.237359039591807 
1326	 0.23727919229253 
1327	 0.237184088317069 
1328	 0.237065944452168 
1329	 0.23691242224553 
1330	 0.236745282668954 
1331	 0.236560308261364 
1332	 0.236358883339354 
1333	 0.236138235021873 
1334	 0.235898724706075 
1335	 0.235643152883338 
1336	 0.235369613181344 
1337	 0.235067491091419 
1338	 0.234768759343666 
1339	 0.234464789824442 
1340	 0.234148239193441 
1341	 0.233824517186209 
1342	 0.233489577299255 
1343	 0.23314082511145 
1344	 0.232780264894955 
1345	 0.232430477468556 
1346	 0.232086130980301 
1347	 0.231729482119171 
1348	 0.23136356362576 
1349	 0.230982192650639 
1350	 0.230588723737131 
1351	 0.230209448352319 
1352	 0.22983821491477 
1353	 0.229455591425294 
1354	 0.229076617558892 
1355	 0.228686815215855 
1356	 0.228266753098686 
1357	 0.227885754779687 
1358	 0.227493313323929 
1359	 0.227151702798871 
1360	 0.226857205695741 
1361	 0.226562990701475 
1362	 0.226290343207581 
1363	 0.226036414408612 
1364	 0.225798584676142 
1365	 0.22556726162793 
1366	 0.225349281573356 
1367	 0.22516170910736 
1368	 0.224971216607578 
1369	 0.224766337022535 
1370	 0.224572138760716 
1371	 0.224367487892135 
1372	 0.224136486775621 
1373	 0.223892611599251 
1374	 0.223608209482654 
1375	 0.223300625541056 
1376	 0.222947134284327 
1377	 0.222544913745827 
1378	 0.222134776730635 
1379	 0.221663476129231 
1380	 0.221241526639922 
1381	 0.220818842908262 
1382	 0.220408756981372 
1383	 0.220034072031091 
1384	 0.219641765771588 
1385	 0.219263203878912 
1386	 0.218858062136111 
1387	 0.218456911936114 
1388	 0.218014414907718 
1389	 0.217559277413167 
1390	 0.217053548004366 
1391	 0.216485377685363 
1392	 0.215889826382149 
1393	 0.215236565523159 
1394	 0.214545836598822 
1395	 0.213853158295621 
1396	 0.213136652414258 
1397	 0.212391211637042 
1398	 0.211617502643009 
1399	 0.210831783101151 
1400	 0.210017839145947 
1401	 0.209193589315207 
1402	 0.208356460685529 
1403	 0.207516111732869 
1404	 0.206649360183294 
1405	 0.205799732165286 
1406	 0.20496130837236 
1407	 0.204100109820605 
1408	 0.203222651241681 
1409	 0.202361235241585 
1410	 0.201474086931496 
1411	 0.200630952805196 
1412	 0.199804211877032 
1413	 0.199014720139719 
1414	 0.198253230613047 
1415	 0.197515757056106 
1416	 0.196800674701878 
1417	 0.196106697545178 
1418	 0.195435562307861 
1419	 0.194778398620987 
1420	 0.194155789722144 
1421	 0.193565443652386 
1422	 0.193006657954065 
1423	 0.192483819629676 
1424	 0.191960982582606 
1425	 0.191455180251782 
1426	 0.19096628397453 
1427	 0.190478416378382 
1428	 0.190027460006979 
1429	 0.189609077858409 
1430	 0.189209914767196 
1431	 0.18885391935549 
1432	 0.188472018980309 
1433	 0.188086445563108 
1434	 0.187716861287363 
1435	 0.187339628666171 
1436	 0.186980595876598 
1437	 0.186661164654267 
1438	 0.186321025419756 
1439	 0.185971861985352 
1440	 0.18562468535821 
1441	 0.185277344608737 
1442	 0.184940246695133 
1443	 0.184637676183215 
1444	 0.184346283517725 
1445	 0.184092322306782 
1446	 0.183872449811326 
1447	 0.183644121106544 
1448	 0.183442694175091 
1449	 0.183271129288786 
1450	 0.183132651594762 
1451	 0.183059441421114 
1452	 0.183050809730812 
1453	 0.183069118138646 
1454	 0.183135546482876 
1455	 0.18322780860689 
1456	 0.183369937055941 
1457	 0.183509810020876 
1458	 0.183679175172322 
1459	 0.183849876838655 
1460	 0.184037108416671 
1461	 0.184213222153015 
1462	 0.184413643841436 
1463	 0.184578856996442 
1464	 0.184738883626109 
1465	 0.184860886996397 
1466	 0.184935544650254 
1467	 0.185022113054448 
1468	 0.185073042503611 
1469	 0.185147285467438 
1470	 0.185240475425846 
1471	 0.185338390561586 
1472	 0.185398737118456 
1473	 0.185463919596901 
1474	 0.185506923618908 
1475	 0.185543156531859 
1476	 0.185620732350649 
1477	 0.185699863739055 
1478	 0.185783935242905 
1479	 0.185877634397688 
1480	 0.18597554737639 
1481	 0.186073880474388 
1482	 0.186165824007062 
1483	 0.186263566299152 
1484	 0.186353757588539 
1485	 0.186423687373935 
1486	 0.186519451265121 
1487	 0.186631630949344 
1488	 0.186730114672794 
1489	 0.186836334719908 
1490	 0.186934746257764 
1491	 0.187018670125785 
1492	 0.187112662182324 
1493	 0.187208904817555 
1494	 0.187310916099635 
1495	 0.187421549416492 
1496	 0.187522094253519 
1497	 0.187630881922906 
1498	 0.187720850064531 
1499	 0.187798109942506 
1500	 0.187871709288092 
1501	 0.18792593667507 
1502	 0.187992839247185 
1503	 0.188058718412155 
1504	 0.188126854007679 
1505	 0.188212203223941 
1506	 0.188297857599412 
1507	 0.18838622262988 
1508	 0.188462395739382 
1509	 0.188525537171009 
1510	 0.188583436764174 
1511	 0.188634378059582 
1512	 0.18868421314294 
1513	 0.188727237596254 
1514	 0.188792212416687 
1515	 0.188889347791966 
1516	 0.188991603981219 
1517	 0.189073060278549 
1518	 0.189171491555817 
1519	 0.189230952601714 
1520	 0.189241947996366 
1521	 0.189295478043002 
1522	 0.189353453315442 
1523	 0.189415969241093 
1524	 0.189502065077057 
1525	 0.189560750744501 
1526	 0.189607700841084 
1527	 0.189658033619678 
1528	 0.189700214050533 
1529	 0.189745113755954 
1530	 0.189786825409185 
1531	 0.189833462948469 
1532	 0.189887742987322 
1533	 0.18992992197246 
1534	 0.189967654591202 
1535	 0.190011231554801 
1536	 0.190043844196298 
1537	 0.1900823763607 
1538	 0.190134020547925 
1539	 0.190178692759403 
1540	 0.190220403787262 
1541	 0.190262111498093 
1542	 0.190307559632752 
1543	 0.190343621872715 
1544	 0.190363475477854 
1545	 0.19039650854583 
1546	 0.190427304358476 
1547	 0.190470049743294 
1548	 0.190521061889812 
1549	 0.190572078135078 
1550	 0.19060345560798 
1551	 0.190615514628281 
1552	 0.190624839977201 
1553	 0.190642302242092 
1554	 0.190665792497209 
1555	 0.190683156941652 
1556	 0.190694324916259 
1557	 0.190711445542278 
1558	 0.190738816782384 
1559	 0.190765088679799 
1560	 0.190784100726134 
1561	 0.190804876667492 
1562	 0.190819789918029 
1563	 0.190820736505358 
1564	 0.190837156524756 
1565	 0.190859475260284 
1566	 0.190887070811384 
1567	 0.190929367550492 
1568	 0.190945192425436 
1569	 0.190955882638308 
1570	 0.190960261853189 
1571	 0.190945071428531 
1572	 0.190938123381103 
1573	 0.190933420810419 
1574	 0.190925280669263 
1575	 0.190910294545656 
1576	 0.190903290971621 
1577	 0.190901409360617 
1578	 0.190896116312117 
1579	 0.190894317484457 
1580	 0.190884363922285 
1581	 0.19086477165854 
1582	 0.190859211539078 
1583	 0.19085809518175 
1584	 0.190852954391015 
1585	 0.190856188904886 
1586	 0.190849918148137 
1587	 0.190838160030348 
1588	 0.190821237097278 
1589	 0.190791949188875 
1590	 0.190777738956943 
1591	 0.19077684954143 
1592	 0.190754402918182 
1593	 0.190733556767477 
1594	 0.190704373418207 
1595	 0.190650434003273 
1596	 0.190601312505062 
1597	 0.190553162778665 
1598	 0.19050661141221 
1599	 0.190452345191144 
1600	 0.19040687900696 
1601	 0.190368761606159 
1602	 0.190331230573624 
1603	 0.190302060586001 
1604	 0.190265022888102 
1605	 0.190229556610783 
1606	 0.190189020052399 
1607	 0.190141136792552 
1608	 0.190090426101012 
1609	 0.190042738449768 
1610	 0.189982271590616 
1611	 0.189925227917279 
1612	 0.189882460620988 
1613	 0.189829700798454 
1614	 0.189762500003751 
1615	 0.189704911026693 
1616	 0.189631664571755 
1617	 0.189547093981536 
1618	 0.189500573563403 
1619	 0.189435583397653 
1620	 0.18934938450138 
1621	 0.189265818532591 
1622	 0.18917378837971 
1623	 0.189089422551565 
1624	 0.189006520640982 
1625	 0.188915673894583 
1626	 0.188821990492668 
1627	 0.188742283095561 
1628	 0.188660340899338 
1629	 0.188577440591282 
1630	 0.188508365959551 
1631	 0.188432799044668 
1632	 0.188343067995287 
1633	 0.188268773786278 
1634	 0.188210185942119 
1635	 0.188138497535932 
1636	 0.188067395773282 
1637	 0.187983829345011 
1638	 0.187892137979565 
1639	 0.187799380124917 
1640	 0.187686373037156 
1641	 0.187609027674219 
1642	 0.187560619653733 
1643	 0.187472022654838 
1644	 0.187376888987769 
1645	 0.187292973273498 
1646	 0.187190026252975 
1647	 0.187092518043527 
1648	 0.187023600274933 
1649	 0.186924021104918 
1650	 0.18678701144328 
1651	 0.186680400772193 
1652	 0.186578006005831 
1653	 0.186489749628781 
1654	 0.186416833521583 
1655	 0.186339496068813 
1656	 0.186280721050286 
1657	 0.186196013387059 
1658	 0.186097505316377 
1659	 0.186001692337191 
1660	 0.185893774596399 
1661	 0.185790673467927 
1662	 0.185690819000167 
1663	 0.185587752228552 
1664	 0.185481947095763 
1665	 0.18537401638047 
1666	 0.185263501348391 
1667	 0.185156193725714 
1668	 0.185034541081735 
1669	 0.184944611101116 
1670	 0.18488568080438 
1671	 0.184797878705634 
1672	 0.184705725417232 
1673	 0.184630458888379 
1674	 0.184542277352875 
1675	 0.184470334878833 
1676	 0.184446298180963 
1677	 0.184370418348316 
1678	 0.18426463183606 
1679	 0.184167120372521 
1680	 0.184048335056478 
1681	 0.183942660651301 
1682	 0.183843730181001 
1683	 0.183744307319329 
1684	 0.183644132883714 
1685	 0.183548274601968 
1686	 0.183450565541242 
1687	 0.183368028045524 
1688	 0.183308070768404 
1689	 0.183217670955479 
1690	 0.183115550456975 
1691	 0.183028426204171 
1692	 0.182937887600619 
1693	 0.182833045137696 
1694	 0.182731936085912 
1695	 0.182635989369982 
1696	 0.182505563288732 
1697	 0.182419167046145 
1698	 0.182387283520728 
1699	 0.182311619395188 
1700	 0.182228733653077 
1701	 0.182141944944996 
1702	 0.182039487854941 
1703	 0.181936338066038 
1704	 0.181832297177341 
1705	 0.181726089076539 
1706	 0.181594118765893 
1707	 0.181499572043596 
1708	 0.181431330813356 
1709	 0.181353160981012 
1710	 0.181300924151572 
1711	 0.181216602935234 
1712	 0.181095512826815 
1713	 0.181014656295494 
1714	 0.180944554558126 
1715	 0.180868581454115 
1716	 0.180818297828326 
1717	 0.180746185719528 
1718	 0.180655807028822 
1719	 0.180564826105243 
1720	 0.180473350276912 
1721	 0.180376303249447 
1722	 0.180271658527827 
1723	 0.180156866571302 
1724	 0.18003450610703 
1725	 0.179919264888189 
1726	 0.179789791741002 
1727	 0.179682776255958 
1728	 0.17958850309342 
1729	 0.179492925336929 
1730	 0.179402064272788 
1731	 0.179317920893746 
1732	 0.179248307788908 
1733	 0.179163157224411 
1734	 0.179077542454654 
1735	 0.178991744696254 
1736	 0.178903287503817 
1737	 0.178798762387246 
1738	 0.178687169546971 
1739	 0.178577384116098 
1740	 0.178437680861077 
1741	 0.178350411092876 
1742	 0.178293452320736 
1743	 0.178230576791047 
1744	 0.178186083071468 
1745	 0.178142901606808 
1746	 0.17810971738554 
1747	 0.178049218413772 
1748	 0.177997134969007 
1749	 0.17791514776927 
1750	 0.177814341613518 
1751	 0.177731664240408 
1752	 0.177638913847672 
1753	 0.177552011677915 
1754	 0.177488460196533 
1755	 0.177406780561167 
1756	 0.177320743229584 
1757	 0.177217971571555 
1758	 0.177086999829731 
1759	 0.176977433109257 
1760	 0.176888398890348 
1761	 0.176835638806885 
1762	 0.176799130229958 
1763	 0.17674734220111 
1764	 0.17669769421328 
1765	 0.176633024455234 
1766	 0.176561925263269 
1767	 0.176510702711281 
1768	 0.176460810657908 
1769	 0.1763806812032 
1770	 0.176298605693148 
1771	 0.176246470400494 
1772	 0.17617748193563 
1773	 0.176122918256256 
1774	 0.176084750021681 
1775	 0.175983724891887 
1776	 0.17588367571973 
1777	 0.175791712350899 
1778	 0.175680934242405 
1779	 0.175610358199761 
1780	 0.175562471391061 
1781	 0.17551573932622 
1782	 0.175494482917145 
1783	 0.175479972559504 
1784	 0.175457606945138 
1785	 0.175460317351556 
1786	 0.175422187398778 
1787	 0.175354196862452 
1788	 0.175290938410093 
1789	 0.175195382644536 
1790	 0.175123076795784 
1791	 0.175058885405077 
1792	 0.175010177314742 
1793	 0.174978490604566 
1794	 0.174952213772609 
1795	 0.174944981819916 
1796	 0.174922164100607 
1797	 0.174889936997456 
1798	 0.1748608571972 
1799	 0.174835745427366 
1800	 0.174798494882604 
1801	 0.170730984360423 
1802	 0.170842381284915 
1803	 0.170951653772504 
1804	 0.171100776999844 
1805	 0.171261257191627 
1806	 0.171382304259407 
1807	 0.17149683020827 
1808	 0.171609319257536 
1809	 0.171714493834057 
1810	 0.171793487619353 
1811	 0.17186248688579 
1812	 0.17193896026209 
1813	 0.17196036006337 
1814	 0.171964603874682 
1815	 0.171983703184786 
1816	 0.172002468470422 
1817	 0.172030214585713 
1818	 0.172077481467974 
1819	 0.172104588747102 
1820	 0.172134866844704 
1821	 0.172140450838344 
1822	 0.172130469013164 
1823	 0.172145881199795 
1824	 0.172167098040264 
1825	 0.172183147778618 
1826	 0.172209554781662 
1827	 0.172188423728231 
1828	 0.17216731571768 
1829	 0.172121680816925 
1830	 0.172098804975834 
1831	 0.172076239175629 
1832	 0.172058768475907 
1833	 0.172040688582287 
1834	 0.172006469955491 
1835	 0.17195257541919 
1836	 0.171903528075631 
1837	 0.171864845100677 
1838	 0.171825318157515 
1839	 0.171795635509957 
1840	 0.171777434228106 
1841	 0.171756137310587 
1842	 0.171745087137997 
1843	 0.171728321129819 
1844	 0.17171685318182 
1845	 0.171730459860178 
1846	 0.171728094398796 
1847	 0.171728627187859 
1848	 0.171717228440755 
1849	 0.171692674651656 
1850	 0.171686477968681 
1851	 0.171698254200707 
1852	 0.171696300713264 
1853	 0.17166796824536 
1854	 0.171633464278192 
1855	 0.171564485344466 
1856	 0.171467555680025 
1857	 0.171388760561081 
1858	 0.171289860556944 
1859	 0.17115487833907 
1860	 0.171019341500389 
1861	 0.170883104739493 
1862	 0.17071142386738 
1863	 0.170503345580952 
1864	 0.170300418755333 
1865	 0.170059698965867 
1866	 0.169759750328475 
1867	 0.169477634431948 
1868	 0.169183813420492 
1869	 0.168844438150601 
1870	 0.168521196691227 
1871	 0.16820514399055 
1872	 0.167893736379298 
1873	 0.167560271117983 
1874	 0.167256588512327 
1875	 0.166978160295438 
1876	 0.166658312145392 
1877	 0.166341934744855 
1878	 0.165982352974397 
1879	 0.165567436578004 
1880	 0.165114749627897 
1881	 0.164632244184896 
1882	 0.164079046637128 
1883	 0.163484710602832 
1884	 0.16280484290848 
1885	 0.162074433903826 
1886	 0.161331146145172 
1887	 0.160533098315271 
1888	 0.159713767867097 
1889	 0.158857264738379 
1890	 0.157940098848914 
1891	 0.157007864275441 
1892	 0.156058798418069 
1893	 0.155055150231657 
1894	 0.154013101716593 
1895	 0.152927458316464 
1896	 0.151816031548313 
1897	 0.150651548683849 
1898	 0.149467044000285 
1899	 0.14831495528695 
1900	 0.147140137442701 
1901	 0.14595729256577 
1902	 0.144836969048544 
1903	 0.143770194030737 
1904	 0.142704691736573 
1905	 0.141656936558838 
1906	 0.140668271852719 
1907	 0.139685964371734 
1908	 0.138728650596588 
1909	 0.137826352582385 
1910	 0.13694258726074 
1911	 0.136075562894211 
1912	 0.135228510953232 
1913	 0.134417221720296 
1914	 0.133617154719221 
1915	 0.132871366491633 
1916	 0.132167719082105 
1917	 0.131497936083408 
1918	 0.130867908458627 
1919	 0.130277503090873 
1920	 0.129742042456383 
1921	 0.129261805613924 
1922	 0.128790559910202 
1923	 0.128357034284357 
1924	 0.12794648067776 
1925	 0.127548682516773 
1926	 0.127184388668927 
1927	 0.126856510032915 
1928	 0.126555308586982 
1929	 0.126263230159676 
1930	 0.125984958611859 
1931	 0.125746080984974 
1932	 0.125529082898378 
1933	 0.125317589236805 
1934	 0.125144209583644 
1935	 0.124985072668388 
1936	 0.124835831831365 
1937	 0.124706101690109 
1938	 0.124611031222766 
1939	 0.124516668780647 
1940	 0.124420289015591 
1941	 0.124352539362839 
1942	 0.124310602857404 
1943	 0.124295900909624 
1944	 0.124318492360843 
1945	 0.124371666600152 
1946	 0.124441537895512 
1947	 0.124542094807847 
1948	 0.124652167337199 
1949	 0.124778909118906 
1950	 0.124920204992135 
1951	 0.125087709376859 
1952	 0.12525572652657 
1953	 0.125417484880162 
1954	 0.125587890950266 
1955	 0.125741087332714 
1956	 0.125909858954638 
1957	 0.126093087818046 
1958	 0.126297440283548 
1959	 0.126491841943158 
1960	 0.126705910015134 
1961	 0.126891698096272 
1962	 0.12706437185454 
1963	 0.127235474703425 
1964	 0.127386135743862 
1965	 0.127551064259025 
1966	 0.127713905823327 
1967	 0.127879673106223 
1968	 0.1280550735418 
1969	 0.128249240273856 
1970	 0.128415617101932 
1971	 0.12858256001449 
1972	 0.128738117093173 
1973	 0.128850832949801 
1974	 0.129004264180268 
1975	 0.129178231962409 
1976	 0.129345546006869 
1977	 0.129523510150561 
1978	 0.129719889196638 
1979	 0.129895666967665 
1980	 0.13008107063968 
1981	 0.130275866984975 
1982	 0.130487061435136 
1983	 0.130690618695965 
1984	 0.130901588280286 
1985	 0.131100133391824 
1986	 0.131290902822524 
1987	 0.131481140230258 
1988	 0.131663651568693 
1989	 0.131857578105804 
1990	 0.132035895820883 
1991	 0.132202407985361 
1992	 0.132389465683122 
1993	 0.132573888876845 
1994	 0.132771867727617 
1995	 0.132995522734891 
1996	 0.13320481939885 
1997	 0.133416466427392 
1998	 0.133618160596654 
1999	 0.133820576848015 
2000	 0.134010547720792 
2001	 0.134181113790603 
2002	 0.134357964287736 
2003	 0.134539532123661 
2004	 0.134717992459337 
2005	 0.134913362988844 
2006	 0.135125117248919 
2007	 0.135335314623572 
2008	 0.135559045275741 
2009	 0.135770160303992 
2010	 0.135977748751198 
2011	 0.136186753703815 
2012	 0.136386695470569 
2013	 0.136596070527491 
2014	 0.136815185610901 
2015	 0.137032953358362 
2016	 0.137245588553133 
2017	 0.137461192747116 
2018	 0.137664231206214 
2019	 0.13784526670688 
2020	 0.13805583622508 
2021	 0.138271155898398 
2022	 0.13849067713752 
2023	 0.13875096883582 
2024	 0.138968184735228 
2025	 0.139155384543721 
2026	 0.13935457940628 
2027	 0.139540228720627 
2028	 0.13972233721228 
2029	 0.139919029639252 
2030	 0.140128265940111 
2031	 0.140339022996125 
2032	 0.140551546925512 
2033	 0.14076978455285 
2034	 0.141008259561406 
2035	 0.14122244394029 
2036	 0.141436803549521 
2037	 0.141634605587209 
2038	 0.141807876740019 
2039	 0.141989074263711 
2040	 0.142166908465176 
2041	 0.142338697464294 
2042	 0.142504308601347 
2043	 0.14267003524786 
2044	 0.142848556667677 
2045	 0.143027609985435 
2046	 0.143208775017362 
2047	 0.143406362313813 
2048	 0.143594786568222 
2049	 0.143779940728592 
2050	 0.143960447512201 
2051	 0.144144782637449 
2052	 0.144318344951497 
2053	 0.144465635618722 
2054	 0.144634118002306 
2055	 0.144815724376804 
2056	 0.144996883527391 
2057	 0.145158321757886 
2058	 0.145320494943937 
2059	 0.145480385093242 
2060	 0.145604517426476 
2061	 0.145770734737374 
2062	 0.145978856098626 
2063	 0.146150312454303 
2064	 0.146320089056223 
2065	 0.146485878854665 
2066	 0.146625338540033 
2067	 0.146779109423118 
2068	 0.146949020670227 
2069	 0.147109256761821 
2070	 0.147259159779068 
2071	 0.147403906138601 
2072	 0.147546371355138 
2073	 0.147675052737311 
2074	 0.147812728213788 
2075	 0.147952994942493 
2076	 0.148091498344283 
2077	 0.148228550905565 
2078	 0.148370584259913 
2079	 0.148517619354206 
2080	 0.148660233316703 
2081	 0.14879821240609 
2082	 0.148943386066529 
2083	 0.149088475154226 
2084	 0.149239438993796 
2085	 0.149384326261712 
2086	 0.149532068272678 
2087	 0.149681402477473 
2088	 0.149828256811408 
2089	 0.149972444620851 
2090	 0.150121469968878 
2091	 0.15026748809721 
2092	 0.150399366325206 
2093	 0.150546444467895 
2094	 0.15071861442735 
2095	 0.150864093206565 
2096	 0.150999996875316 
2097	 0.151134601459859 
2098	 0.151262393178356 
2099	 0.151373784354007 
2100	 0.151482375416192 
2101	 0.151589899373219 
2102	 0.151693872887534 
2103	 0.151767699523577 
2104	 0.151886381965517 
2105	 0.152023060891405 
2106	 0.152166808011079 
2107	 0.152344210301202 
2108	 0.152501885129177 
2109	 0.152650147281895 
2110	 0.152812754220293 
2111	 0.152981551792459 
2112	 0.153147216526842 
2113	 0.153335529136699 
2114	 0.153502991473432 
2115	 0.153649013979829 
2116	 0.153776770168031 
2117	 0.153902435424133 
2118	 0.154001478341826 
2119	 0.154122802440907 
2120	 0.154252917270573 
2121	 0.154373104673945 
2122	 0.154494272820114 
2123	 0.154612130620287 
2124	 0.15472229667928 
2125	 0.154835693879305 
2126	 0.154968622837252 
2127	 0.155069186996889 
2128	 0.155144197584599 
2129	 0.15522601213017 
2130	 0.15528201591386 
2131	 0.155348894214311 
2132	 0.155432808574163 
2133	 0.15554818732645 
2134	 0.155619503228691 
2135	 0.155684837609353 
2136	 0.155741311827927 
2137	 0.155772366831337 
2138	 0.155806466685463 
2139	 0.155844455571698 
2140	 0.155870643835357 
2141	 0.155880250019321 
2142	 0.155890419579815 
2143	 0.155901136325395 
2144	 0.155903051590946 
2145	 0.155896309882212 
2146	 0.155886373975501 
2147	 0.155865661644636 
2148	 0.155846531380871 
2149	 0.155832180987342 
2150	 0.155824425003293 
2151	 0.155798367215311 
2152	 0.155777767919873 
2153	 0.155730723555283 
2154	 0.155656461932097 
2155	 0.155589358138734 
2156	 0.15550162499415 
2157	 0.155434462604686 
2158	 0.155369691967988 
2159	 0.155315163703959 
2160	 0.15527496849284 
2161	 0.155234663026943 
2162	 0.155221859717945 
2163	 0.155176661403209 
2164	 0.15510734992527 
2165	 0.155055591771097 
2166	 0.154976674033754 
2167	 0.154870330260457 
2168	 0.154772080714429 
2169	 0.154663832438229 
2170	 0.154570014637099 
2171	 0.154475266637082 
2172	 0.154381589954428 
2173	 0.15429330133232 
2174	 0.154212499261703 
2175	 0.154142479440935 
2176	 0.1540569041916 
2177	 0.153980563050848 
2178	 0.153887511996697 
2179	 0.153767253980747 
2180	 0.153654385204584 
2181	 0.153533836875072 
2182	 0.153424272486649 
2183	 0.153321247717904 
2184	 0.153221081692944 
2185	 0.153106904187538 
2186	 0.152994273679926 
2187	 0.152874754410138 
2188	 0.152729190930764 
2189	 0.152614433730253 
2190	 0.152517398874726 
2191	 0.152413018849682 
2192	 0.152314387716438 
2193	 0.152221087156837 
2194	 0.152124784101625 
2195	 0.152037547538684 
2196	 0.151966177564897 
2197	 0.151886130581219 
2198	 0.151792303961725 
2199	 0.151721201750151 
2200	 0.151659791679383 
2201	 0.151605160452141 
2202	 0.151568265980449 
2203	 0.151535106297935 
2204	 0.151509256110059 
2205	 0.151490346777866 
2206	 0.151465468925958 
2207	 0.151448197817376 
2208	 0.151429401554659 
2209	 0.151394147264573 
2210	 0.151388228271518 
2211	 0.151414655397174 
2212	 0.151406940005393 
2213	 0.1513905099514 
2214	 0.151387045969162 
2215	 0.151359174546479 
2216	 0.151360605206798 
2217	 0.151422536518651 
2218	 0.151423966708148 
2219	 0.151388270657677 
2220	 0.15137354489202 
2221	 0.151323090240246 
2222	 0.151296528712494 
2223	 0.151331406127876 
2224	 0.151369513230517 
2225	 0.151409767384755 
2226	 0.151478094036825 
2227	 0.151509152497649 
2228	 0.151532706162562 
2229	 0.151542054761291 
2230	 0.151520708175308 
2231	 0.151528612172773 
2232	 0.151534793456832 
2233	 0.151551196605504 
2234	 0.151601570852582 
2235	 0.151616488587383 
2236	 0.151624937963128 
2237	 0.151614503044242 
2238	 0.151565426974349 
2239	 0.151535217573123 
2240	 0.151496355155904 
2241	 0.151473978776292 
2242	 0.151478477408471 
2243	 0.151464990820966 
2244	 0.151467847697422 
2245	 0.151428337768504 
2246	 0.151381489846567 
2247	 0.151341491957761 
2248	 0.151289379635176 
2249	 0.1512272010488 
2250	 0.151175348197025 
2251	 0.151117619686067 
2252	 0.151065757787605 
2253	 0.151022223145703 
2254	 0.150973009126749 
2255	 0.150922549974998 
2256	 0.150870166368537 
2257	 0.150812392699584 
2258	 0.150762986494096 
2259	 0.150718496983294 
2260	 0.150669134193685 
2261	 0.150620961555202 
2262	 0.150578661246711 
2263	 0.15053026180281 
2264	 0.15048961775784 
2265	 0.150463151727624 
2266	 0.150432247594438 
2267	 0.150387520257975 
2268	 0.150366551854291 
2269	 0.150379832083352 
2270	 0.150359583105792 
2271	 0.150333577344028 
2272	 0.150316322671908 
2273	 0.150289363890472 
2274	 0.150255151838259 
2275	 0.150214216248661 
2276	 0.15019451629413 
2277	 0.150126627705742 
2278	 0.150003370333199 
2279	 0.14993764956322 
2280	 0.149869359932454 
2281	 0.149821685895382 
2282	 0.149831704446285 
2283	 0.149781144473187 
2284	 0.149699077915307 
2285	 0.149640235362004 
2286	 0.149573461620482 
2287	 0.149501729721131 
2288	 0.149440227390819 
2289	 0.149368014172753 
2290	 0.149279125843591 
2291	 0.149188333608751 
2292	 0.149084983411167 
2293	 0.14900907825579 
2294	 0.148945724409162 
2295	 0.148870316297274 
2296	 0.148824722281844 
2297	 0.148754906783247 
2298	 0.148626311082613 
2299	 0.148502335448107 
2300	 0.148349510804343 
2301	 0.148232898001381 
2302	 0.148195046706805 
2303	 0.148095999884352 
2304	 0.14797122508674 
2305	 0.147882229987187 
2306	 0.147770772839912 
2307	 0.147615630390445 
2308	 0.147491331516147 
2309	 0.147392480342082 
2310	 0.147273350049137 
2311	 0.147151379137919 
2312	 0.147012004806832 
2313	 0.146874619198621 
2314	 0.146715182392665 
2315	 0.14649962085109 
2316	 0.146324515359496 
2317	 0.146169508838638 
2318	 0.14600572194749 
2319	 0.145853984485646 
2320	 0.145702956998363 
2321	 0.145545974907458 
2322	 0.145392881113572 
2323	 0.145234179939926 
2324	 0.145103542691803 
2325	 0.14500369347907 
2326	 0.144857593534635 
2327	 0.144708379971278 
2328	 0.144554656863186 
2329	 0.144360435446779 
2330	 0.144225636046291 
2331	 0.144108362231403 
2332	 0.143988265261992 
2333	 0.143836065787758 
2334	 0.143693433766458 
2335	 0.143559208930285 
2336	 0.143387087309343 
2337	 0.143215415371418 
2338	 0.143032161176457 
2339	 0.142870624837028 
2340	 0.142736681851194 
2341	 0.142603220130871 
2342	 0.142441394244211 
2343	 0.142219611506702 
2344	 0.141997845656545 
2345	 0.141797086221629 
2346	 0.141609279780927 
2347	 0.141409629654826 
2348	 0.141227655405446 
2349	 0.141003127228387 
2350	 0.140744314793978 
2351	 0.140473775184147 
2352	 0.140170131195031 
2353	 0.139903786498801 
2354	 0.13964765202212 
2355	 0.139390906884419 
2356	 0.13914596356026 
2357	 0.13891497369679 
2358	 0.138671373744707 
2359	 0.138444305534874 
2360	 0.138263994224595 
2361	 0.138034069495308 
2362	 0.137792706630152 
2363	 0.137542183425403 
2364	 0.137259197771877 
2365	 0.136999655959917 
2366	 0.136759366384693 
2367	 0.136482134174045 
2368	 0.136183491607446 
2369	 0.135875282409947 
2370	 0.135539067005173 
2371	 0.13519983349106 
2372	 0.134879970670875 
2373	 0.134646298983106 
2374	 0.134419397302097 
2375	 0.134153001271564 
2376	 0.13389136280939 
2377	 0.133616111200112 
2378	 0.13336201934313 
2379	 0.133182333671593 
2380	 0.132970992180715 
2381	 0.132772661404662 
2382	 0.132583853575609 
2383	 0.132296243555171 
2384	 0.131996546879962 
2385	 0.131703357175613 
2386	 0.13137844436685 
2387	 0.131104686421818 
2388	 0.130850212924828 
2389	 0.130575415780421 
2390	 0.130372408813202 
2391	 0.130143493744087 
2392	 0.129950471627607 
2393	 0.12982627349727 
2394	 0.129590742486007 
2395	 0.129321965774781 
2396	 0.129039906239681 
2397	 0.128734082117181 
2398	 0.128526367043657 
2399	 0.128376755008562 
2400	 0.128229048479518 
2401	 0.128111865696581 
2402	 0.127952392209012 
2403	 0.127733878037552 
2404	 0.127545946159786 
2405	 0.127363376108084 
2406	 0.127067408175682 
2407	 0.126817072802143 
2408	 0.126612208559525 
2409	 0.126282296347881 
2410	 0.126079193543891 
2411	 0.1259146116653 
2412	 0.125666582479765 
2413	 0.125579693306914 
2414	 0.125518447442086 
2415	 0.125398004405983 
2416	 0.125250084387039 
2417	 0.125087555514711 
2418	 0.124860029100221 
2419	 0.124525053805462 
2420	 0.124328942111116 
2421	 0.124182994761084 
2422	 0.12403204783742 
2423	 0.123953638637881 
2424	 0.12381755311766 
2425	 0.123615722480709 
2426	 0.1234594840678 
2427	 0.123314617797025 
2428	 0.123196726270165 
2429	 0.123174356727058 
2430	 0.123023400626424 
2431	 0.122803484307064 
2432	 0.122615142630092 
2433	 0.122346515242955 
2434	 0.122128426162627 
2435	 0.121978493435174 
2436	 0.121802267891045 
2437	 0.121578234379027 
2438	 0.121394614644454 
2439	 0.121265614738692 
2440	 0.121085266442637 
2441	 0.120925021590359 
2442	 0.120700691772189 
2443	 0.120360135154302 
2444	 0.120182868902383 
2445	 0.12008785283906 
2446	 0.119880560983104 
2447	 0.119703832925293 
2448	 0.119536739941306 
2449	 0.119230980617168 
2450	 0.119018931997869 
2451	 0.119018840636186 
2452	 0.118852410206124 
2453	 0.118542515933414 
2454	 0.11834782366193 
2455	 0.118149849974296 
2456	 0.117951746383334 
2457	 0.117798700929208 
2458	 0.117590837842767 
2459	 0.11735380396471 
2460	 0.117121863474293 
2461	 0.116907681904974 
2462	 0.116763674170759 
2463	 0.116628159956185 
2464	 0.116497567124561 
2465	 0.116386383023491 
2466	 0.116249019677908 
2467	 0.116109387012391 
2468	 0.116009427786201 
2469	 0.115931955542415 
2470	 0.115701041958996 
2471	 0.115525425709335 
2472	 0.115286027632945 
2473	 0.11508583585356 
2474	 0.115049907431737 
2475	 0.115022070745466 
2476	 0.114953065136434 
2477	 0.114863896160205 
2478	 0.114632509296177 
2479	 0.11447532753144 
2480	 0.114319533259923 
2481	 0.114101832630976 
2482	 0.114060048304534 
2483	 0.113979968436997 
2484	 0.113759093357137 
2485	 0.11356474383121 
2486	 0.113402276155989 
2487	 0.113052626061262 
2488	 0.112665124233099 
2489	 0.112548838126529 
2490	 0.11252544353353 
2491	 0.112595309184292 
2492	 0.112806124699468 
2493	 0.112716679542508 
2494	 0.11229739612516 
2495	 0.111937363800935 
2496	 0.111557958876806 
2497	 0.111324406334088 
2498	 0.111329635206864 
2499	 0.111296214526269 
2500	 0.111286783641665 
