Wavelength	MM_3100002.asd
350	 0.040486810166632 
351	 5.13478083285153E-02 
352	 5.09083257398228E-02 
353	 4.11132095311148E-02 
354	 4.69271918588198E-02 
355	 4.71359438740991E-02 
356	 4.64991824451868E-02 
357	 5.15530314225788E-02 
358	 4.98534729069239E-02 
359	 4.83393832577776E-02 
360	 4.95944596377711E-02 
361	 5.24663583839941E-02 
362	 5.15743016947427E-02 
363	 5.16104425381607E-02 
364	 5.39212455693856E-02 
365	 5.27769866328589E-02 
366	 5.13209273412275E-02 
367	 5.02642994657797E-02 
368	 0.049852936977116 
369	 5.15926803886355E-02 
370	 4.98826411645935E-02 
371	 4.86874796334446E-02 
372	 5.66692399355626E-02 
373	 5.71890119246962E-02 
374	 5.54427596095116E-02 
375	 0.055947404996538 
376	 0.057063662173241 
377	 5.56618606018275E-02 
378	 5.53090453696408E-02 
379	 5.91362720563413E-02 
380	 6.01752862978114E-02 
381	 5.72942908605975E-02 
382	 5.40559198948442E-02 
383	 0.056543847325904 
384	 5.76637818743653E-02 
385	 5.75951071891502E-02 
386	 5.73238316469257E-02 
387	 5.70355243209792E-02 
388	 0.059150257199071 
389	 0.062023231246621 
390	 6.29710421476857E-02 
391	 0.061554971035195 
392	 0.059957845781871 
393	 5.99164293777672E-02 
394	 6.22689503162127E-02 
395	 6.23419525316103E-02 
396	 6.20511820318126E-02 
397	 6.31242453481313E-02 
398	 6.47270728263006E-02 
399	 6.41344513674353E-02 
400	 6.40461733110121E-02 
401	 6.75476863246081E-02 
402	 6.79483335000837E-02 
403	 6.74471009835794E-02 
404	 6.70268166632382E-02 
405	 6.59263391576772E-02 
406	 6.66476542884972E-02 
407	 6.84267270456073E-02 
408	 6.96256554185038E-02 
409	 6.78866889342978E-02 
410	 6.75063104800135E-02 
411	 6.84094617365132E-02 
412	 6.86625542001401E-02 
413	 0.069587086693557 
414	 6.94637003190323E-02 
415	 0.06840604906074 
416	 6.91045803841513E-02 
417	 6.93826944131989E-02 
418	 6.97280256598533E-02 
419	 7.05986526159431E-02 
420	 0.070115284343989 
421	 6.97943318430121E-02 
422	 6.99922236543617E-02 
423	 7.02459482587365E-02 
424	 7.02909384209263E-02 
425	 7.03553383269919E-02 
426	 7.05947856189431E-02 
427	 7.09616873726483E-02 
428	 0.070878357326806 
429	 7.07446649537141E-02 
430	 7.10805862369302E-02 
431	 7.13143846832402E-02 
432	 7.12702726898819E-02 
433	 7.10464375512844E-02 
434	 0.070967747765501 
435	 7.11116757292179E-02 
436	 7.14898800433212E-02 
437	 0.071954720305626 
438	 7.20105804472352E-02 
439	 7.19057452349968E-02 
440	 7.19742099954737E-02 
441	 7.24608330733856E-02 
442	 7.25324240003344E-02 
443	 7.25456024743216E-02 
444	 7.26992361421091E-02 
445	 0.072766712496966 
446	 7.29536431761878E-02 
447	 7.31735076790624E-02 
448	 7.32850627327263E-02 
449	 7.32242163659456E-02 
450	 7.36626006525904E-02 
451	 7.42918154299175E-02 
452	 7.40582781528527E-02 
453	 7.41771081796959E-02 
454	 7.44917935559668E-02 
455	 7.46908052388985E-02 
456	 7.46928697610181E-02 
457	 7.45856035115031E-02 
458	 7.47022792888528E-02 
459	 7.53080344194099E-02 
460	 7.53479154264504E-02 
461	 7.51584450822165E-02 
462	 7.51935350338821E-02 
463	 0.075898991856081 
464	 0.075954345304912 
465	 7.58281144482718E-02 
466	 7.62046249100492E-02 
467	 7.64593109444979E-02 
468	 7.67169598574426E-02 
469	 0.07688808911148 
470	 7.67402546919039E-02 
471	 7.67322841768949E-02 
472	 7.68472988962191E-02 
473	 7.70205556717006E-02 
474	 7.73103931804233E-02 
475	 7.74969913042461E-02 
476	 7.75687542879807E-02 
477	 7.76150901771863E-02 
478	 7.76598362521837E-02 
479	 7.77761444868208E-02 
480	 7.79731314134146E-02 
481	 7.81729208611562E-02 
482	 7.83839571949525E-02 
483	 7.85098990699085E-02 
484	 7.85122603231653E-02 
485	 7.86798080745828E-02 
486	 7.88286879489637E-02 
487	 7.89021009660106E-02 
488	 7.89618113200192E-02 
489	 7.90360378063744E-02 
490	 7.91915590637522E-02 
491	 7.94216245207615E-02 
492	 7.95519610276571E-02 
493	 7.95049380154514E-02 
494	 7.94723683914224E-02 
495	 7.97169303228698E-02 
496	 7.99480297413199E-02 
497	 8.00681657446545E-02 
498	 8.01022908177949E-02 
499	 8.02259259101977E-02 
500	 8.02079352244601E-02 
501	 8.01948155203898E-02 
502	 8.03524952226682E-02 
503	 8.04307938899736E-02 
504	 8.04811497784652E-02 
505	 8.05497830826239E-02 
506	 8.06644927764114E-02 
507	 0.08075165091869 
508	 8.09295598088709E-02 
509	 8.11827897130553E-02 
510	 0.081022401776294 
511	 8.09131134224829E-02 
512	 0.080930003761654 
513	 0.080949163832242 
514	 8.10846840028438E-02 
515	 8.12112247475982E-02 
516	 0.08127935386451 
517	 8.14182228859824E-02 
518	 8.14519105338851E-02 
519	 8.14389759910719E-02 
520	 8.14899520342501E-02 
521	 8.15519269571059E-02 
522	 8.15892641332696E-02 
523	 8.16155552784833E-02 
524	 8.16931171387838E-02 
525	 8.17935168534625E-02 
526	 8.18875088599492E-02 
527	 8.19512523786164E-02 
528	 8.19813340820574E-02 
529	 8.19608629852242E-02 
530	 8.19535312055386E-02 
531	 8.20617865688067E-02 
532	 8.21953076996196E-02 
533	 8.22761871062819E-02 
534	 0.08229094438699 
535	 0.082343684131215 
536	 8.24481654658682E-02 
537	 8.25276984010414E-02 
538	 8.24994910530581E-02 
539	 8.25219742821146E-02 
540	 0.08256024682411 
541	 8.25914699076925E-02 
542	 8.26285208209357E-02 
543	 8.27421373229283E-02 
544	 0.082847541222491 
545	 8.28638717506603E-02 
546	 8.29128633305365E-02 
547	 8.29090678595805E-02 
548	 8.28995885649929E-02 
549	 8.30320150338816E-02 
550	 8.30758221577274E-02 
551	 8.30647761711059E-02 
552	 8.30883823814515E-02 
553	 8.32703916838116E-02 
554	 8.33102609477691E-02 
555	 0.083280483627105 
556	 8.34225832335814E-02 
557	 8.35486921368081E-02 
558	 8.36552486601873E-02 
559	 8.37535799188718E-02 
560	 0.083844242892306 
561	 8.39176358814447E-02 
562	 8.39922221720615E-02 
563	 8.40842032411026E-02 
564	 8.41489566034892E-02 
565	 0.084159060207486 
566	 8.41361978242944E-02 
567	 8.41539575436082E-02 
568	 8.43094180277638E-02 
569	 8.45089510949952E-02 
570	 8.46582544530407E-02 
571	 8.48313666502002E-02 
572	 8.50473107420682E-02 
573	 8.52400848195447E-02 
574	 8.52989291135829E-02 
575	 8.53617416459614E-02 
576	 8.54400192783486E-02 
577	 8.55183240410363E-02 
578	 8.55640245565045E-02 
579	 8.56609583669909E-02 
580	 8.56806995054968E-02 
581	 8.54788438133732E-02 
582	 8.54748986777465E-02 
583	 8.55075420750218E-02 
584	 8.55064576017134E-02 
585	 8.56036709625845E-02 
586	 0.085777477661921 
587	 8.59362050729081E-02 
588	 8.60212671777079E-02 
589	 8.62257633615079E-02 
590	 8.64121903184037E-02 
591	 8.65457821061738E-02 
592	 0.086695515336924 
593	 8.68562850585569E-02 
594	 8.70204216371147E-02 
595	 8.71653837479081E-02 
596	 8.72373799860268E-02 
597	 8.72525480752348E-02 
598	 8.72163998913195E-02 
599	 8.71426533565303E-02 
600	 8.71534426496207E-02 
601	 8.71824101958337E-02 
602	 8.71825336226859E-02 
603	 0.087176676501946 
604	 0.087254255760146 
605	 8.73513892006313E-02 
606	 8.73709411889367E-02 
607	 8.73689061080289E-02 
608	 8.74153050693291E-02 
609	 8.75259017015074E-02 
610	 8.76529489311638E-02 
611	 8.76868951786677E-02 
612	 8.76915662497862E-02 
613	 8.77309762977032E-02 
614	 8.77019426803287E-02 
615	 8.77038437040574E-02 
616	 8.77311439207398E-02 
617	 8.77135023878144E-02 
618	 8.77638672189778E-02 
619	 8.77796702215194E-02 
620	 8.77230083687671E-02 
621	 0.087765082253288 
622	 8.78096556731239E-02 
623	 8.78223251745982E-02 
624	 8.78081536730172E-02 
625	 0.087884358258581 
626	 8.79198996352023E-02 
627	 8.78814379612009E-02 
628	 0.087888764030286 
629	 8.79016411660869E-02 
630	 8.79197571786117E-02 
631	 8.79471821529912E-02 
632	 8.79744598377031E-02 
633	 8.79830644152206E-02 
634	 8.79954735639432E-02 
635	 0.088059556498441 
636	 8.80613658625134E-02 
637	 8.80827140730163E-02 
638	 8.81627748213176E-02 
639	 8.81475340488964E-02 
640	 0.088155446641637 
641	 8.81959856264558E-02 
642	 0.088230144738615 
643	 8.82592170111548E-02 
644	 8.82716470707031E-02 
645	 8.82748096450129E-02 
646	 8.83036440328467E-02 
647	 8.83501914255285E-02 
648	 8.83850413181781E-02 
649	 8.83842218007891E-02 
650	 8.83629300334809E-02 
651	 8.84410486646226E-02 
652	 8.85445237161646E-02 
653	 8.84526037029234E-02 
654	 8.84759031823959E-02 
655	 8.85297778773482E-02 
656	 8.85243556476858E-02 
657	 8.85380364470599E-02 
658	 8.85909316113877E-02 
659	 8.86619257282865E-02 
660	 8.87094747610724E-02 
661	 8.87309895201973E-02 
662	 8.87420254568968E-02 
663	 8.87671211817666E-02 
664	 8.88424237384263E-02 
665	 8.88679372277004E-02 
666	 8.88467087190042E-02 
667	 8.88215815855156E-02 
668	 8.88549691076018E-02 
669	 8.88919151215849E-02 
670	 8.89153115740424E-02 
671	 0.088943093998388 
672	 8.89863486149382E-02 
673	 8.90185603734764E-02 
674	 8.90302120154136E-02 
675	 8.90701954668002E-02 
676	 8.90897976038148E-02 
677	 8.90965869874987E-02 
678	 0.08911885224424 
679	 8.91417851316174E-02 
680	 8.91726308213352E-02 
681	 8.92121426682366E-02 
682	 8.92507143158254E-02 
683	 8.92928905858706E-02 
684	 0.089342361089544 
685	 8.93880402675886E-02 
686	 8.93580327945231E-02 
687	 8.93855182396829E-02 
688	 8.94648410077977E-02 
689	 8.94913877833102E-02 
690	 8.94687155902774E-02 
691	 8.94592948005716E-02 
692	 8.94915433967592E-02 
693	 8.95098520858782E-02 
694	 8.95155905471808E-02 
695	 8.95103802176418E-02 
696	 8.95037285358898E-02 
697	 8.95297493212188E-02 
698	 8.95794167615176E-02 
699	 8.96142989346982E-02 
700	 8.95750449688874E-02 
701	 0.089628412920775 
702	 8.97042869245058E-02 
703	 0.089713049258338 
704	 8.96499004953332E-02 
705	 8.96466265492041E-02 
706	 8.96783684136668E-02 
707	 8.96526703880799E-02 
708	 8.96817250341349E-02 
709	 8.97163081165383E-02 
710	 8.97181071018077E-02 
711	 8.96873460701585E-02 
712	 8.96954042379345E-02 
713	 8.97102543018342E-02 
714	 8.96937353405553E-02 
715	 8.97088214744995E-02 
716	 8.97142329084129E-02 
717	 8.96878787590084E-02 
718	 8.96326784650328E-02 
719	 8.96505760896639E-02 
720	 8.96771445521913E-02 
721	 8.96649029299133E-02 
722	 8.96474180791211E-02 
723	 8.96230781619755E-02 
724	 8.95998323112639E-02 
725	 8.95849234672063E-02 
726	 8.95691231657079E-02 
727	 8.95672918096179E-02 
728	 8.95644846372053E-02 
729	 8.95212998835547E-02 
730	 0.089485420202364 
731	 8.94589337220141E-02 
732	 8.94417800835498E-02 
733	 8.94557059963826E-02 
734	 8.94447883761932E-02 
735	 8.93888735822321E-02 
736	 8.93013845028547E-02 
737	 8.92840913360226E-02 
738	 8.92648355583379E-02 
739	 8.92272194571305E-02 
740	 8.92277383538399E-02 
741	 8.92024651328031E-02 
742	 8.91673481168882E-02 
743	 0.089137921012524 
744	 8.90767016181431E-02 
745	 8.90313980152729E-02 
746	 8.90136374848791E-02 
747	 8.90080503913514E-02 
748	 0.088952864035642 
749	 8.88941586219069E-02 
750	 8.88581890343741E-02 
751	 8.88341555875675E-02 
752	 8.87782028755387E-02 
753	 8.87106956104864E-02 
754	 8.86604215732963E-02 
755	 8.86341283732906E-02 
756	 8.85947483727334E-02 
757	 8.85512458855895E-02 
758	 8.85317623080011E-02 
759	 8.85168357269956E-02 
760	 8.84587990994006E-02 
761	 8.83754396177687E-02 
762	 8.83655412684048E-02 
763	 8.83383769579704E-02 
764	 8.82941447215535E-02 
765	 8.82526476755745E-02 
766	 8.82282363651998E-02 
767	 8.81814041081495E-02 
768	 8.81276484610878E-02 
769	 8.80998316467067E-02 
770	 8.80325278416934E-02 
771	 8.79873009192763E-02 
772	 8.79715147866679E-02 
773	 8.79172105854317E-02 
774	 8.79032868499512E-02 
775	 8.78635074193101E-02 
776	 8.77605149035623E-02 
777	 8.77265991102515E-02 
778	 8.76571490676081E-02 
779	 8.75938607800412E-02 
780	 8.76125203152318E-02 
781	 8.75568983738994E-02 
782	 8.75087089334161E-02 
783	 8.74840737656128E-02 
784	 8.74143917097005E-02 
785	 8.73516606770547E-02 
786	 8.73146972196648E-02 
787	 8.72951848323682E-02 
788	 8.72337909766664E-02 
789	 8.72035552237232E-02 
790	 8.71615794384943E-02 
791	 8.70565627280115E-02 
792	 8.70319739764653E-02 
793	 0.087010203390867 
794	 8.69599720083411E-02 
795	 8.69011749562219E-02 
796	 8.68337811225941E-02 
797	 8.67984304860308E-02 
798	 0.086792730005915 
799	 8.67264381201324E-02 
800	 8.66664517908022E-02 
801	 8.66365631671732E-02 
802	 0.086629828608615 
803	 8.65769784736539E-02 
804	 8.65305312893295E-02 
805	 8.64926573533448E-02 
806	 0.08643785485147 
807	 8.64121956341498E-02 
808	 8.63582744577481E-02 
809	 8.62729893901776E-02 
810	 8.62355367358179E-02 
811	 8.62373399670495E-02 
812	 8.62142142800318E-02 
813	 8.61371038618845E-02 
814	 8.61074722613232E-02 
815	 8.60657219985171E-02 
816	 8.60074085520339E-02 
817	 8.59500960633014E-02 
818	 8.58995710876024E-02 
819	 8.58623459898075E-02 
820	 8.58285777874307E-02 
821	 8.57784002778912E-02 
822	 8.57438032836525E-02 
823	 8.57100273624545E-02 
824	 8.56701270650076E-02 
825	 8.56415425131123E-02 
826	 8.56159629369168E-02 
827	 8.55808780161938E-02 
828	 8.55309532392688E-02 
829	 8.54860563076333E-02 
830	 8.54414897324244E-02 
831	 8.53974802273568E-02 
832	 8.53596508392254E-02 
833	 8.53553102622262E-02 
834	 0.085326859646279 
835	 8.52600649520101E-02 
836	 0.085192734128871 
837	 8.52086775962797E-02 
838	 8.52170198235576E-02 
839	 0.085153436457215 
840	 8.50484245648005E-02 
841	 8.50148169045776E-02 
842	 8.50129624626206E-02 
843	 8.49889141201451E-02 
844	 8.49983942704893E-02 
845	 0.085016144910459 
846	 8.49802726879501E-02 
847	 0.084856723474279 
848	 8.48542301407726E-02 
849	 8.48331537149554E-02 
850	 8.47583680822574E-02 
851	 8.47029431512794E-02 
852	 8.46826729421929E-02 
853	 8.46881088136249E-02 
854	 8.46956209858266E-02 
855	 8.46713899165099E-02 
856	 8.46630016845164E-02 
857	 0.084664065653528 
858	 8.46476962142318E-02 
859	 8.45611046126806E-02 
860	 0.084535527731408 
861	 8.45354189672486E-02 
862	 8.44934623397491E-02 
863	 8.44963504438265E-02 
864	 0.084490683339051 
865	 8.44556473316747E-02 
866	 8.44037770057408E-02 
867	 8.44044440300554E-02 
868	 8.43913335092978E-02 
869	 8.43515904623667E-02 
870	 8.43355304152406E-02 
871	 8.43001680861955E-02 
872	 8.42713560268866E-02 
873	 8.42617175162824E-02 
874	 8.42457704641609E-02 
875	 8.42000160808414E-02 
876	 8.41590671655003E-02 
877	 8.41449053990137E-02 
878	 8.40996206756228E-02 
879	 8.41259952916074E-02 
880	 8.41494020958177E-02 
881	 8.40874400929385E-02 
882	 8.41015080865557E-02 
883	 8.40889990208645E-02 
884	 8.40539709568844E-02 
885	 8.40509408977434E-02 
886	 0.084027845044686 
887	 8.40176314906525E-02 
888	 8.40201610108693E-02 
889	 8.40052049526875E-02 
890	 8.39879107529866E-02 
891	 0.083962015753474 
892	 8.39282861714558E-02 
893	 8.38974244223998E-02 
894	 8.38258090452016E-02 
895	 8.38344768685092E-02 
896	 8.39343420909286E-02 
897	 8.38905050012606E-02 
898	 8.38879146392856E-02 
899	 8.38602474022707E-02 
900	 8.37702623092873E-02 
901	 0.083834861149427 
902	 8.38488683581898E-02 
903	 8.38185446386562E-02 
904	 8.38087363552101E-02 
905	 8.38071087535951E-02 
906	 8.38121794303297E-02 
907	 8.38072988271695E-02 
908	 8.37817868739925E-02 
909	 8.37895509181923E-02 
910	 8.37801737355595E-02 
911	 8.37651160863707E-02 
912	 8.37854537973036E-02 
913	 8.37645511525215E-02 
914	 0.083750026452276 
915	 8.37382988561903E-02 
916	 8.36831794424842E-02 
917	 8.36716491949022E-02 
918	 8.36556818648594E-02 
919	 8.36344360805966E-02 
920	 8.36714317988353E-02 
921	 8.36730573472859E-02 
922	 8.36524576675519E-02 
923	 8.36585271448646E-02 
924	 8.37526424718883E-02 
925	 8.37022371885328E-02 
926	 8.36755265429135E-02 
927	 8.37513870491533E-02 
928	 8.36890276739634E-02 
929	 8.36855266859946E-02 
930	 8.37391240760317E-02 
931	 8.37747244459471E-02 
932	 8.36697700460083E-02 
933	 8.36716290743544E-02 
934	 8.36922235568535E-02 
935	 8.36263007952939E-02 
936	 8.36278561238489E-02 
937	 8.35796303072714E-02 
938	 8.35272433868115E-02 
939	 8.35430961968854E-02 
940	 8.35971218191659E-02 
941	 8.36580371312938E-02 
942	 8.36926064930528E-02 
943	 0.083680741943613 
944	 8.36383381411279E-02 
945	 8.36140257762442E-02 
946	 8.36272255337652E-02 
947	 0.083661398147954 
948	 8.36278824921587E-02 
949	 8.36026546225632E-02 
950	 0.083595850918169 
951	 8.35986114129359E-02 
952	 8.37156176249387E-02 
953	 8.37461348622264E-02 
954	 8.36711833896392E-02 
955	 8.36046747261332E-02 
956	 8.36905741044092E-02 
957	 8.37135484646774E-02 
958	 8.36321141077649E-02 
959	 8.35532712901231E-02 
960	 8.36668501237227E-02 
961	 8.36128839273599E-02 
962	 8.34748448266607E-02 
963	 0.083557573146306 
964	 8.35048882637215E-02 
965	 8.35277019659514E-02 
966	 8.36368896326212E-02 
967	 8.36948911327661E-02 
968	 8.37114678775449E-02 
969	 8.36799774816174E-02 
970	 0.083643176974304 
971	 8.36493386293995E-02 
972	 8.35662340393808E-02 
973	 0.083632832458168 
974	 8.37513574184193E-02 
975	 8.36644383774171E-02 
976	 8.36940676508741E-02 
977	 8.36880895780274E-02 
978	 8.36231413945368E-02 
979	 8.35893656519927E-02 
980	 8.36825466698713E-02 
981	 8.37276319910419E-02 
982	 8.36883389041727E-02 
983	 8.36313488981873E-02 
984	 8.35709145493786E-02 
985	 8.35782849265533E-02 
986	 8.35858412521967E-02 
987	 8.35025099219401E-02 
988	 8.35393531152949E-02 
989	 8.35241441954671E-02 
990	 8.34946228306666E-02 
991	 8.35717324147744E-02 
992	 8.36981520115398E-02 
993	 8.36709352885803E-02 
994	 0.083611027065189 
995	 8.36908235777583E-02 
996	 8.36315926635897E-02 
997	 8.35822822061384E-02 
998	 8.35623931066162E-02 
999	 0.08354538489407 
1000	 8.35378521356891E-02 
1001	 8.22127726100001E-02 
1002	 0.082199420958576 
1003	 8.21690973443915E-02 
1004	 8.21442144537304E-02 
1005	 8.21154049367864E-02 
1006	 8.21071454606061E-02 
1007	 8.21110645252928E-02 
1008	 8.20880128454212E-02 
1009	 8.21339056719296E-02 
1010	 8.21403728489469E-02 
1011	 8.20910057257715E-02 
1012	 8.20990476686981E-02 
1013	 0.082057024766581 
1014	 8.20169378500321E-02 
1015	 8.20610694771298E-02 
1016	 8.20821013502128E-02 
1017	 8.20977690065066E-02 
1018	 8.21138821941288E-02 
1019	 8.21401171141156E-02 
1020	 8.21150267006875E-02 
1021	 8.21103590667479E-02 
1022	 8.21125000201355E-02 
1023	 8.20827763798895E-02 
1024	 8.20648521657765E-02 
1025	 8.20581836663669E-02 
1026	 8.20219405689784E-02 
1027	 8.19624636181297E-02 
1028	 8.19478168485376E-02 
1029	 8.19330909955549E-02 
1030	 8.19156993561136E-02 
1031	 8.19120690884133E-02 
1032	 8.19505685840969E-02 
1033	 8.19621691431333E-02 
1034	 8.19183430215992E-02 
1035	 8.18372785400484E-02 
1036	 8.17558996552579E-02 
1037	 8.16859725804017E-02 
1038	 8.16290032618165E-02 
1039	 8.16154337220757E-02 
1040	 8.16407406618081E-02 
1041	 8.16647160661187E-02 
1042	 8.17026735714972E-02 
1043	 8.17430306567147E-02 
1044	 8.17401929789782E-02 
1045	 8.16927499334693E-02 
1046	 0.08165676783383 
1047	 8.16448832669261E-02 
1048	 8.16293409632904E-02 
1049	 8.16571810245282E-02 
1050	 0.081653093624294 
1051	 8.16177987473057E-02 
1052	 0.081613208977218 
1053	 8.15877060205602E-02 
1054	 8.15833165254988E-02 
1055	 8.16040824254202E-02 
1056	 8.16017707289428E-02 
1057	 8.16069503990289E-02 
1058	 8.16104434556474E-02 
1059	 0.081630989518527 
1060	 8.16610876044752E-02 
1061	 8.16951541315736E-02 
1062	 8.17340641471228E-02 
1063	 8.17521006082903E-02 
1064	 0.081728799582553 
1065	 8.17155837902414E-02 
1066	 8.16850871893603E-02 
1067	 8.17286915808799E-02 
1068	 8.17918610832729E-02 
1069	 8.17924413242429E-02 
1070	 8.18083432841018E-02 
1071	 8.18328275354036E-02 
1072	 8.18130989740403E-02 
1073	 8.17351942044814E-02 
1074	 8.17398173199536E-02 
1075	 8.17632728718089E-02 
1076	 8.17845231298878E-02 
1077	 8.18530971301409E-02 
1078	 8.19337351406675E-02 
1079	 8.19169144555824E-02 
1080	 8.18893194296774E-02 
1081	 8.18788281184725E-02 
1082	 8.18542682821433E-02 
1083	 8.18488891999688E-02 
1084	 8.18956884050076E-02 
1085	 8.18819017836011E-02 
1086	 8.18237285602675E-02 
1087	 0.081786244461118 
1088	 8.17299745064794E-02 
1089	 8.16941745924432E-02 
1090	 8.16693123564874E-02 
1091	 8.16624206480812E-02 
1092	 8.17013354732329E-02 
1093	 8.17045811359332E-02 
1094	 0.081682975933735 
1095	 8.17086012212054E-02 
1096	 0.081717244022488 
1097	 8.16943604829159E-02 
1098	 8.16761652265073E-02 
1099	 8.16604784443743E-02 
1100	 8.16580086584845E-02 
1101	 8.16342293485586E-02 
1102	 8.16363118282406E-02 
1103	 8.16773072030033E-02 
1104	 8.16973973670401E-02 
1105	 8.16927649495384E-02 
1106	 8.16927304357109E-02 
1107	 8.16791613757084E-02 
1108	 8.16678499041013E-02 
1109	 8.16458419678079E-02 
1110	 8.16344915423407E-02 
1111	 8.16394231147487E-02 
1112	 0.081655317998758 
1113	 0.081662457611491 
1114	 8.16893954674978E-02 
1115	 8.17003736908265E-02 
1116	 8.16808338974002E-02 
1117	 8.16855638422603E-02 
1118	 8.17074980597876E-02 
1119	 8.17253824492573E-02 
1120	 8.17135498853374E-02 
1121	 8.17183902160264E-02 
1122	 8.17187365878011E-02 
1123	 8.17254884667912E-02 
1124	 8.17472213923247E-02 
1125	 0.081804373386854 
1126	 8.18300083456849E-02 
1127	 8.18438292298093E-02 
1128	 8.18568672208288E-02 
1129	 0.081863193932017 
1130	 8.18774398821337E-02 
1131	 8.18898553013634E-02 
1132	 8.19086430712284E-02 
1133	 8.19363352416637E-02 
1134	 8.19513214116877E-02 
1135	 8.19639996160422E-02 
1136	 8.19805505776042E-02 
1137	 0.081979085027451 
1138	 8.19799321848948E-02 
1139	 8.19660962179226E-02 
1140	 8.19283027637266E-02 
1141	 8.19221863396496E-02 
1142	 8.19209241801813E-02 
1143	 8.19195920541219E-02 
1144	 8.19381368799701E-02 
1145	 8.19502187579823E-02 
1146	 8.19635175451363E-02 
1147	 8.19608473462016E-02 
1148	 8.19333329721953E-02 
1149	 8.19367722324473E-02 
1150	 8.19433214515854E-02 
1151	 8.19607454795933E-02 
1152	 8.19744590052206E-02 
1153	 8.20050571862776E-02 
1154	 8.20132524593013E-02 
1155	 8.19921685073922E-02 
1156	 8.19880256494857E-02 
1157	 8.19922768146946E-02 
1158	 8.19919793854009E-02 
1159	 8.19863823235813E-02 
1160	 0.081977638585777 
1161	 8.19683625055978E-02 
1162	 8.19656915345056E-02 
1163	 8.19653492719199E-02 
1164	 8.19602493212781E-02 
1165	 8.19654783926854E-02 
1166	 8.19455415508743E-02 
1167	 8.19458386349495E-02 
1168	 8.19648884326068E-02 
1169	 8.19719450187971E-02 
1170	 8.19927795816406E-02 
1171	 8.20061139856462E-02 
1172	 8.20076701423275E-02 
1173	 8.20142043692541E-02 
1174	 0.082033079758895 
1175	 8.20392144246792E-02 
1176	 8.20235774912358E-02 
1177	 8.20297532657386E-02 
1178	 8.20492840933168E-02 
1179	 8.20621350657647E-02 
1180	 8.20816990934229E-02 
1181	 8.20986508503874E-02 
1182	 8.21072071333264E-02 
1183	 8.21208859817456E-02 
1184	 8.21359282264142E-02 
1185	 8.21598176543745E-02 
1186	 8.21720832324342E-02 
1187	 8.21752046185334E-02 
1188	 8.21884722303992E-02 
1189	 0.08219670163399 
1190	 8.22171534196512E-02 
1191	 8.22575485811389E-02 
1192	 8.22808369749676E-02 
1193	 8.23009990589217E-02 
1194	 8.23206659612685E-02 
1195	 8.23339359139097E-02 
1196	 8.23444601238621E-02 
1197	 8.23449014483979E-02 
1198	 8.23600004306867E-02 
1199	 8.23799759973927E-02 
1200	 8.24022775508841E-02 
1201	 8.24200790548133E-02 
1202	 8.24485260266325E-02 
1203	 8.24691277517527E-02 
1204	 8.24757724216004E-02 
1205	 8.24944996660586E-02 
1206	 8.25196585770877E-02 
1207	 8.25467864754292E-02 
1208	 8.25798536865071E-02 
1209	 8.26066209585005E-02 
1210	 8.26444337122503E-02 
1211	 8.26641505480087E-02 
1212	 8.26608642525938E-02 
1213	 8.26715171124631E-02 
1214	 8.26797783752355E-02 
1215	 8.26895803212987E-02 
1216	 8.27029353785176E-02 
1217	 8.27252677891564E-02 
1218	 8.27452999202219E-02 
1219	 0.082763688080646 
1220	 8.27835136597826E-02 
1221	 8.28081312730926E-02 
1222	 8.28307131061004E-02 
1223	 8.28576306813197E-02 
1224	 8.28714013769351E-02 
1225	 8.28727286564403E-02 
1226	 8.28873674685165E-02 
1227	 8.28977303750939E-02 
1228	 8.29122544092908E-02 
1229	 8.29358076832381E-02 
1230	 8.29637761088499E-02 
1231	 8.29983828202689E-02 
1232	 8.30243538039393E-02 
1233	 8.30496810472431E-02 
1234	 8.30843755814758E-02 
1235	 0.083104190497509 
1236	 8.31059090924173E-02 
1237	 8.31234190447677E-02 
1238	 8.31488366741374E-02 
1239	 8.31636363383795E-02 
1240	 8.31770029354961E-02 
1241	 8.31917807461765E-02 
1242	 8.31977280853604E-02 
1243	 8.32098240544379E-02 
1244	 8.32304952574365E-02 
1245	 8.32459977891945E-02 
1246	 8.32565370276525E-02 
1247	 8.32716333385837E-02 
1248	 0.083291388389395 
1249	 8.33070551203502E-02 
1250	 0.083311613697565 
1251	 8.33308283123793E-02 
1252	 8.33481504366284E-02 
1253	 8.33652941733085E-02 
1254	 8.33790112757862E-02 
1255	 8.33984769652597E-02 
1256	 0.083411548538349 
1257	 8.34063896518797E-02 
1258	 8.34253026124899E-02 
1259	 8.34775071906975E-02 
1260	 8.34852234798556E-02 
1261	 8.34812977755202E-02 
1262	 8.34756082977869E-02 
1263	 8.34221792269766E-02 
1264	 8.34054337305328E-02 
1265	 0.08341163337609 
1266	 8.34194208103253E-02 
1267	 8.34466452212487E-02 
1268	 8.34652231272714E-02 
1269	 0.083480111027367 
1270	 8.34916820711349E-02 
1271	 8.35100050454752E-02 
1272	 8.35293947728249E-02 
1273	 8.35457822026169E-02 
1274	 8.35643907220223E-02 
1275	 8.35883093554124E-02 
1276	 8.36020654982549E-02 
1277	 8.36310746435673E-02 
1278	 8.36849507499402E-02 
1279	 8.37190306687638E-02 
1280	 8.37382906782985E-02 
1281	 8.37764633106065E-02 
1282	 8.38163761166579E-02 
1283	 8.38581717615908E-02 
1284	 8.39090386885329E-02 
1285	 8.39725477260732E-02 
1286	 8.40304890604229E-02 
1287	 8.40817161073949E-02 
1288	 8.41272537553323E-02 
1289	 0.084171273954418 
1290	 8.42228601975161E-02 
1291	 8.42669153040286E-02 
1292	 8.43186761032565E-02 
1293	 8.43861335796643E-02 
1294	 8.44368988753985E-02 
1295	 8.44825231045691E-02 
1296	 8.45205290218313E-02 
1297	 8.45554209498398E-02 
1298	 8.45856225141055E-02 
1299	 8.45869356155528E-02 
1300	 8.46201661624749E-02 
1301	 8.46800362844074E-02 
1302	 8.47152783314045E-02 
1303	 0.084752346316071 
1304	 8.47992894232255E-02 
1305	 8.48049439662597E-02 
1306	 0.08480265949951 
1307	 0.084799733373015 
1308	 8.48049716808121E-02 
1309	 8.48163272638715E-02 
1310	 8.48352003824622E-02 
1311	 8.48416864862444E-02 
1312	 8.48500940096767E-02 
1313	 8.48534936309422E-02 
1314	 8.48393511294237E-02 
1315	 8.48445454700746E-02 
1316	 8.48677722682615E-02 
1317	 8.48770834767993E-02 
1318	 8.48751552768833E-02 
1319	 8.48897593862179E-02 
1320	 8.49146823883903E-02 
1321	 8.49280427192948E-02 
1322	 8.49463271962353E-02 
1323	 8.49666748647771E-02 
1324	 8.49644414126557E-02 
1325	 0.084959817059323 
1326	 8.49701269291383E-02 
1327	 8.49735147223592E-02 
1328	 8.49797497282339E-02 
1329	 8.49951993205824E-02 
1330	 0.085002928848458 
1331	 8.50072117599584E-02 
1332	 8.50147758395362E-02 
1333	 8.50236207280419E-02 
1334	 8.50269600138833E-02 
1335	 8.50246107717482E-02 
1336	 8.50347985478565E-02 
1337	 8.50395622038338E-02 
1338	 0.085058452686499 
1339	 8.50929933670166E-02 
1340	 8.51254608829519E-02 
1341	 8.51766673557999E-02 
1342	 8.52084576236876E-02 
1343	 8.52320543005153E-02 
1344	 8.52545633401345E-02 
1345	 8.52663926095427E-02 
1346	 0.085264396166262 
1347	 8.52856239554357E-02 
1348	 8.53108767265984E-02 
1349	 0.085350447431899 
1350	 8.53985633436127E-02 
1351	 8.54343944237974E-02 
1352	 8.54759570896588E-02 
1353	 8.55031669051501E-02 
1354	 8.55131725387665E-02 
1355	 8.55329018015668E-02 
1356	 8.55455095140614E-02 
1357	 8.55679283638871E-02 
1358	 8.55971693598097E-02 
1359	 8.56271850343692E-02 
1360	 8.56742528673915E-02 
1361	 8.57001291472607E-02 
1362	 8.57112736145216E-02 
1363	 0.085728168907013 
1364	 8.57313363072866E-02 
1365	 8.57440691614732E-02 
1366	 8.57622089738027E-02 
1367	 8.57938321533026E-02 
1368	 0.085815323309088 
1369	 8.58219796067755E-02 
1370	 8.58260849061532E-02 
1371	 8.58290819855695E-02 
1372	 8.58319495638257E-02 
1373	 8.58370859359981E-02 
1374	 8.58418828330509E-02 
1375	 0.085849091619217 
1376	 8.58489114850227E-02 
1377	 0.085847026154865 
1378	 8.58403065740145E-02 
1379	 8.58215684986176E-02 
1380	 8.58170672517637E-02 
1381	 8.58262492058905E-02 
1382	 8.58169715135896E-02 
1383	 8.57987609154092E-02 
1384	 8.57894642786867E-02 
1385	 8.57705590541929E-02 
1386	 8.57562932607691E-02 
1387	 8.57554965498937E-02 
1388	 8.57507325870437E-02 
1389	 8.57431268506062E-02 
1390	 8.57361023093882E-02 
1391	 0.085719049803258 
1392	 8.56973236609475E-02 
1393	 8.56636087903695E-02 
1394	 8.56182853765672E-02 
1395	 8.55670821254389E-02 
1396	 8.55072885566613E-02 
1397	 8.54596858853494E-02 
1398	 8.54096416045726E-02 
1399	 8.53647511823428E-02 
1400	 8.53367698996223E-02 
1401	 8.52887153165163E-02 
1402	 8.52282762598364E-02 
1403	 8.51664746036006E-02 
1404	 8.50943656278783E-02 
1405	 8.50353697631658E-02 
1406	 8.49802554332105E-02 
1407	 8.49243770427485E-02 
1408	 8.48698625567128E-02 
1409	 8.48217639192173E-02 
1410	 8.47659211625678E-02 
1411	 8.47275171997546E-02 
1412	 8.47052697127897E-02 
1413	 8.46846506975422E-02 
1414	 0.084669899409309 
1415	 8.46611887486485E-02 
1416	 8.46485724913989E-02 
1417	 8.46435743094349E-02 
1418	 8.46274753666111E-02 
1419	 0.084613129896373 
1420	 8.46197926942239E-02 
1421	 8.46210860057866E-02 
1422	 8.46274822978673E-02 
1423	 8.46450733806777E-02 
1424	 8.46509392166466E-02 
1425	 8.46415619877781E-02 
1426	 8.46490174990913E-02 
1427	 8.46604843561302E-02 
1428	 8.46764101394749E-02 
1429	 8.47013687883442E-02 
1430	 8.47193137475957E-02 
1431	 8.47373574966637E-02 
1432	 8.47582265387007E-02 
1433	 8.47813832508911E-02 
1434	 8.47999809850172E-02 
1435	 8.48184695885903E-02 
1436	 8.48371076585712E-02 
1437	 8.48453981562025E-02 
1438	 8.48638621316535E-02 
1439	 0.084886769351496 
1440	 0.08491788362687 
1441	 8.49514893065134E-02 
1442	 8.49883689782882E-02 
1443	 8.50145865583401E-02 
1444	 8.50263451958773E-02 
1445	 8.50449913858646E-02 
1446	 8.50749868824999E-02 
1447	 8.51195798608565E-02 
1448	 8.51568242629546E-02 
1449	 8.51792739025429E-02 
1450	 8.52010836149529E-02 
1451	 8.52310771995134E-02 
1452	 8.52628304156988E-02 
1453	 8.52939688255666E-02 
1454	 8.53330890950132E-02 
1455	 8.53638575270319E-02 
1456	 8.53864556626909E-02 
1457	 8.54116078794827E-02 
1458	 8.54379732715915E-02 
1459	 8.54648107758782E-02 
1460	 8.54911153050588E-02 
1461	 0.085513170943533 
1462	 8.55310244948215E-02 
1463	 8.55568760428519E-02 
1464	 8.55736485356174E-02 
1465	 8.56086717590594E-02 
1466	 8.56727005126017E-02 
1467	 8.57140307016215E-02 
1468	 8.57539956307534E-02 
1469	 8.57904788432769E-02 
1470	 8.58152254394376E-02 
1471	 8.58345510814979E-02 
1472	 0.085862173305649 
1473	 0.085890019997981 
1474	 8.59204857346929E-02 
1475	 8.59553755330836E-02 
1476	 8.60085219627252E-02 
1477	 8.60594227344704E-02 
1478	 8.60970040649814E-02 
1479	 8.61437989075654E-02 
1480	 8.61694607866908E-02 
1481	 8.61954331112771E-02 
1482	 8.62290974442969E-02 
1483	 8.62625166881464E-02 
1484	 8.63011121148854E-02 
1485	 8.63511323399889E-02 
1486	 8.63929011412868E-02 
1487	 8.64359630531003E-02 
1488	 8.64735944470175E-02 
1489	 8.65088016264564E-02 
1490	 8.65351967666331E-02 
1491	 0.086548844030361 
1492	 8.65809359749099E-02 
1493	 0.086614524640535 
1494	 8.66474644457619E-02 
1495	 8.66976452624037E-02 
1496	 8.67317949693674E-02 
1497	 8.67509441115961E-02 
1498	 8.67763894913814E-02 
1499	 8.68011770147077E-02 
1500	 8.68279090909344E-02 
1501	 8.68608994546478E-02 
1502	 8.68865285626544E-02 
1503	 8.69117940633546E-02 
1504	 8.69238713833945E-02 
1505	 0.086940718355624 
1506	 8.69748921208334E-02 
1507	 8.70243450209076E-02 
1508	 8.70757931641409E-02 
1509	 8.71203698905952E-02 
1510	 8.71362092096115E-02 
1511	 8.71460940290136E-02 
1512	 8.71713847252178E-02 
1513	 8.71911230752219E-02 
1514	 8.72300505359779E-02 
1515	 8.72745051781452E-02 
1516	 0.087292893058798 
1517	 8.73200375150612E-02 
1518	 8.73521168963776E-02 
1519	 8.73694979349049E-02 
1520	 8.73774528247482E-02 
1521	 8.73957380512849E-02 
1522	 8.74015897907639E-02 
1523	 8.74281650427291E-02 
1524	 8.74737289628145E-02 
1525	 8.75044067483969E-02 
1526	 8.75407150625463E-02 
1527	 8.75689027606106E-02 
1528	 8.75888676499359E-02 
1529	 8.76108957830165E-02 
1530	 8.76241172506789E-02 
1531	 8.76515310824446E-02 
1532	 0.08769365043715 
1533	 8.77136100609074E-02 
1534	 8.77287025673844E-02 
1535	 8.77493080752173E-02 
1536	 8.77539328640645E-02 
1537	 8.77690388098426E-02 
1538	 8.78005495635981E-02 
1539	 8.78232634469475E-02 
1540	 8.78399075440208E-02 
1541	 8.78589289184446E-02 
1542	 8.78791150657357E-02 
1543	 8.78984819543506E-02 
1544	 8.79157510570758E-02 
1545	 0.087933768271083 
1546	 8.79492139490364E-02 
1547	 8.79740672901081E-02 
1548	 8.79940691828265E-02 
1549	 8.80075545725629E-02 
1550	 8.80244780797545E-02 
1551	 8.80442526102272E-02 
1552	 8.80651619874531E-02 
1553	 8.80832431659472E-02 
1554	 8.81012073571531E-02 
1555	 8.81155408871304E-02 
1556	 8.81321800385685E-02 
1557	 8.81555700230158E-02 
1558	 8.81718039879856E-02 
1559	 8.81874511795281E-02 
1560	 8.82078103792329E-02 
1561	 0.088229225648529 
1562	 0.088246592286629 
1563	 0.088269676107739 
1564	 8.82820717545593E-02 
1565	 8.82830017802982E-02 
1566	 8.82890517813794E-02 
1567	 8.82939435442405E-02 
1568	 8.83007067884787E-02 
1569	 8.83070856995644E-02 
1570	 8.83165550452279E-02 
1571	 0.08832661475118 
1572	 8.83419719704797E-02 
1573	 0.088364965749757 
1574	 0.088376941394484 
1575	 8.83865727615086E-02 
1576	 8.83979795467632E-02 
1577	 8.83987260674854E-02 
1578	 8.84136363407642E-02 
1579	 8.84439638570131E-02 
1580	 8.84614678528725E-02 
1581	 8.84820109713074E-02 
1582	 8.84942394461492E-02 
1583	 8.84880847626796E-02 
1584	 8.84983491835126E-02 
1585	 8.85137727168306E-02 
1586	 0.08852631487862 
1587	 8.85546086760214E-02 
1588	 8.85677203822482E-02 
1589	 8.85626985225929E-02 
1590	 8.85702634806394E-02 
1591	 0.088575746889572 
1592	 8.85868735409474E-02 
1593	 8.86116700787201E-02 
1594	 8.86269899966425E-02 
1595	 8.86379986306532E-02 
1596	 8.86492363881002E-02 
1597	 8.86584625473974E-02 
1598	 8.86688695997046E-02 
1599	 0.088683024983655 
1600	 8.86920714222495E-02 
1601	 8.86901500588209E-02 
1602	 8.86967135639506E-02 
1603	 8.87099190366379E-02 
1604	 8.87177109907328E-02 
1605	 8.87288666397485E-02 
1606	 8.87383147732189E-02 
1607	 0.08874041969625 
1608	 8.87435257878368E-02 
1609	 8.87608724679635E-02 
1610	 8.87746154348639E-02 
1611	 0.088783559585788 
1612	 0.088782117235352 
1613	 8.87813405024705E-02 
1614	 8.87873702753882E-02 
1615	 8.87857946207783E-02 
1616	 8.87973542554286E-02 
1617	 8.88147136500397E-02 
1618	 8.88168061069674E-02 
1619	 8.88263173079012E-02 
1620	 8.88331731735795E-02 
1621	 8.88379492569702E-02 
1622	 8.88272209143389E-02 
1623	 8.88405263328991E-02 
1624	 8.88746954919301E-02 
1625	 8.88793649847136E-02 
1626	 8.88817275411806E-02 
1627	 8.88750327621858E-02 
1628	 8.88364402358873E-02 
1629	 8.88422431347752E-02 
1630	 8.88676755961402E-02 
1631	 8.88870418395017E-02 
1632	 8.89307936076565E-02 
1633	 8.89429468172597E-02 
1634	 0.088937623811385 
1635	 8.89399345236125E-02 
1636	 8.89287787567306E-02 
1637	 8.89375356081678E-02 
1638	 8.89630927340855E-02 
1639	 8.89663899677099E-02 
1640	 0.088967661568135 
1641	 8.89687272935649E-02 
1642	 8.89492891062273E-02 
1643	 0.08895517088907 
1644	 0.088980357536281 
1645	 8.89940453849236E-02 
1646	 8.90126914727028E-02 
1647	 8.90248101458929E-02 
1648	 8.90321452353511E-02 
1649	 8.90368603885798E-02 
1650	 8.90369631920531E-02 
1651	 8.90418358951912E-02 
1652	 0.089044558699058 
1653	 8.90502641932757E-02 
1654	 8.90618792834298E-02 
1655	 8.90681913954047E-02 
1656	 8.90663907216346E-02 
1657	 8.90788533816396E-02 
1658	 8.91033069434061E-02 
1659	 8.91129096161003E-02 
1660	 8.91226545267724E-02 
1661	 8.91332166337311E-02 
1662	 8.91338343865666E-02 
1663	 8.91374792476179E-02 
1664	 8.91515394112447E-02 
1665	 8.91538109761376E-02 
1666	 8.91387067447611E-02 
1667	 8.91417039008853E-02 
1668	 8.91512908778416E-02 
1669	 8.91603394133929E-02 
1670	 8.91858920497862E-02 
1671	 8.91886443434761E-02 
1672	 8.91751360395251E-02 
1673	 8.91722952240607E-02 
1674	 0.089160466367592 
1675	 8.91579019584087E-02 
1676	 8.91695109030033E-02 
1677	 8.91705667340538E-02 
1678	 8.91636752497957E-02 
1679	 8.91663210336182E-02 
1680	 0.089171711019347 
1681	 8.91763463320677E-02 
1682	 8.91869407397807E-02 
1683	 8.91934471455164E-02 
1684	 8.91951478651153E-02 
1685	 8.92017822046203E-02 
1686	 8.92104047525808E-02 
1687	 8.92199642261261E-02 
1688	 8.92387196131198E-02 
1689	 8.92398998349962E-02 
1690	 8.92275721688783E-02 
1691	 8.92287374595563E-02 
1692	 8.92261409063417E-02 
1693	 8.92254792531122E-02 
1694	 8.92299857807688E-02 
1695	 8.92423406560143E-02 
1696	 8.92591754033936E-02 
1697	 8.92686272858902E-02 
1698	 8.92927398893374E-02 
1699	 8.92984573851288E-02 
1700	 8.92771061114754E-02 
1701	 8.92758121865254E-02 
1702	 8.92782745550691E-02 
1703	 8.92870143016557E-02 
1704	 8.93101370499411E-02 
1705	 8.93197807794248E-02 
1706	 0.089332555122733 
1707	 8.93281753523825E-02 
1708	 8.93039140164342E-02 
1709	 0.089297095683556 
1710	 8.92778274377233E-02 
1711	 8.92858256700873E-02 
1712	 8.93210364020242E-02 
1713	 0.089338819642847 
1714	 8.93725641678689E-02 
1715	 8.93842193142498E-02 
1716	 8.93742358047256E-02 
1717	 8.93752277448689E-02 
1718	 8.93752158002212E-02 
1719	 8.93625603705243E-02 
1720	 8.93388596759187E-02 
1721	 8.93333868428008E-02 
1722	 8.93308968252554E-02 
1723	 8.93259152289299E-02 
1724	 8.93423549806497E-02 
1725	 8.93316143989646E-02 
1726	 8.92879217270991E-02 
1727	 8.92714300382289E-02 
1728	 8.92538458376877E-02 
1729	 8.92541009033097E-02 
1730	 8.92759016108687E-02 
1731	 8.92934041433153E-02 
1732	 8.93310077475042E-02 
1733	 8.93333861500608E-02 
1734	 8.93194809368417E-02 
1735	 8.93066172020323E-02 
1736	 0.089272594280009 
1737	 8.92501969108013E-02 
1738	 0.08923388331384 
1739	 8.92233710636417E-02 
1740	 8.92147071205338E-02 
1741	 8.91951943490124E-02 
1742	 8.91767161879701E-02 
1743	 8.91602692174153E-02 
1744	 8.91294566106665E-02 
1745	 8.91225732249311E-02 
1746	 8.91372279989733E-02 
1747	 8.91331165049859E-02 
1748	 8.91383145148958E-02 
1749	 8.91518783163134E-02 
1750	 8.91544583684386E-02 
1751	 8.91567613842448E-02 
1752	 8.91518301844184E-02 
1753	 0.089116678055251 
1754	 8.90788555386837E-02 
1755	 8.90385549407704E-02 
1756	 8.89929967197212E-02 
1757	 0.088980838343345 
1758	 8.89749934600548E-02 
1759	 8.89839437179305E-02 
1760	 8.90076652276268E-02 
1761	 8.90194007361216E-02 
1762	 8.90174177564063E-02 
1763	 8.89846264259467E-02 
1764	 8.89613345889005E-02 
1765	 8.89413402708864E-02 
1766	 8.89153706344998E-02 
1767	 8.89228137640048E-02 
1768	 8.89495684962206E-02 
1769	 8.89551165885284E-02 
1770	 8.89413501485482E-02 
1771	 8.89300860145382E-02 
1772	 0.088893808398322 
1773	 8.88575313006095E-02 
1774	 8.88457152105847E-02 
1775	 8.88333896467097E-02 
1776	 8.88101004518461E-02 
1777	 8.87811646891805E-02 
1778	 8.87804115071151E-02 
1779	 8.87802368333135E-02 
1780	 8.87769909169184E-02 
1781	 8.87998694234508E-02 
1782	 8.88152619020561E-02 
1783	 8.88235476087021E-02 
1784	 8.88137974912139E-02 
1785	 8.87712103153896E-02 
1786	 8.87511414243138E-02 
1787	 8.87339482342802E-02 
1788	 8.87193295706771E-02 
1789	 8.87035362010139E-02 
1790	 8.87034305087272E-02 
1791	 8.87192262252555E-02 
1792	 8.87270489368768E-02 
1793	 0.088760463418878 
1794	 8.87725040211335E-02 
1795	 8.87516322797519E-02 
1796	 8.87464354316286E-02 
1797	 8.87357879373313E-02 
1798	 8.87406706538986E-02 
1799	 8.87607796573796E-02 
1800	 8.87808719166643E-02 
1801	 8.47943159678788E-02 
1802	 8.48298184464501E-02 
1803	 8.48748522671537E-02 
1804	 8.49001628751695E-02 
1805	 8.49189462604462E-02 
1806	 8.49548022699968E-02 
1807	 8.50011429062175E-02 
1808	 8.50473873976933E-02 
1809	 8.51162375575005E-02 
1810	 8.51665803212051E-02 
1811	 8.52181981224856E-02 
1812	 8.52476199181983E-02 
1813	 8.52677835975327E-02 
1814	 8.52854760584672E-02 
1815	 8.52888641134275E-02 
1816	 8.52869347301806E-02 
1817	 8.53034310271659E-02 
1818	 8.53335918654827E-02 
1819	 8.53561620642847E-02 
1820	 8.53847852441463E-02 
1821	 8.54124775217561E-02 
1822	 8.54382439137131E-02 
1823	 0.085446817034955 
1824	 8.54528998074487E-02 
1825	 8.54614128009922E-02 
1826	 8.54599408521392E-02 
1827	 8.54550073128514E-02 
1828	 0.085469885565156 
1829	 8.55065700518636E-02 
1830	 8.55376342998189E-02 
1831	 8.55840313181852E-02 
1832	 8.56124962327715E-02 
1833	 8.56256610003247E-02 
1834	 8.56164228046597E-02 
1835	 8.56162401783789E-02 
1836	 8.56414708522187E-02 
1837	 8.56648024867784E-02 
1838	 8.56994582875889E-02 
1839	 8.57157424963353E-02 
1840	 8.57160028640095E-02 
1841	 8.57128230588067E-02 
1842	 8.57341300456852E-02 
1843	 8.57211985359751E-02 
1844	 8.57111452493762E-02 
1845	 8.56956895929484E-02 
1846	 8.56650842238483E-02 
1847	 8.56539215399728E-02 
1848	 0.08564547635941 
1849	 8.56575366816466E-02 
1850	 8.56601771964142E-02 
1851	 8.56646299022749E-02 
1852	 0.08565079609798 
1853	 8.56436264036249E-02 
1854	 8.56212548579565E-02 
1855	 8.56099055002003E-02 
1856	 8.56187191836253E-02 
1857	 0.08558842815455 
1858	 8.55595378797634E-02 
1859	 8.55601855141911E-02 
1860	 8.55448998460658E-02 
1861	 8.55198059805405E-02 
1862	 8.55078440275045E-02 
1863	 8.54946848047716E-02 
1864	 8.54383004773165E-02 
1865	 0.085375556970322 
1866	 8.53507194344637E-02 
1867	 8.53389484901143E-02 
1868	 8.53118500980252E-02 
1869	 8.52587953280301E-02 
1870	 8.52002756706216E-02 
1871	 8.51339509945506E-02 
1872	 8.50468586631016E-02 
1873	 0.084956376288589 
1874	 8.48802469574786E-02 
1875	 8.47807727090994E-02 
1876	 8.46710972213795E-02 
1877	 8.45407255538266E-02 
1878	 8.44041428658437E-02 
1879	 8.42818662353428E-02 
1880	 8.41382048277033E-02 
1881	 8.39767146675749E-02 
1882	 8.38281489943733E-02 
1883	 8.36842592406035E-02 
1884	 8.35087909804026E-02 
1885	 8.33440562106311E-02 
1886	 8.31504938417481E-02 
1887	 0.082929178902644 
1888	 8.26876284399659E-02 
1889	 8.24257048190757E-02 
1890	 8.21926251170998E-02 
1891	 8.19494702380734E-02 
1892	 0.081703484720105 
1893	 8.14458305258389E-02 
1894	 8.11899950872499E-02 
1895	 8.09103415969566E-02 
1896	 8.06235404492751E-02 
1897	 8.03730642466751E-02 
1898	 8.01187553521963E-02 
1899	 7.98702102875266E-02 
1900	 7.96331741010481E-02 
1901	 7.93739346168746E-02 
1902	 0.079134949749478 
1903	 7.89143708480901E-02 
1904	 7.86916336065032E-02 
1905	 7.84618791263317E-02 
1906	 7.82665724622067E-02 
1907	 7.80724811312818E-02 
1908	 7.78669302871224E-02 
1909	 7.77135746464895E-02 
1910	 7.75642632418246E-02 
1911	 0.077407595614956 
1912	 7.72794807620432E-02 
1913	 7.71410101528557E-02 
1914	 7.69801531283575E-02 
1915	 7.68440888293451E-02 
1916	 7.67215103481275E-02 
1917	 0.076605666721808 
1918	 7.64946805559796E-02 
1919	 7.64146489130135E-02 
1920	 7.63500429542414E-02 
1921	 7.62750031262871E-02 
1922	 7.62205768766777E-02 
1923	 7.62014537162691E-02 
1924	 7.61701469665292E-02 
1925	 7.61499583652714E-02 
1926	 7.61222104767984E-02 
1927	 7.60956768753257E-02 
1928	 7.60547291779458E-02 
1929	 7.60203215200683E-02 
1930	 7.60268623963012E-02 
1931	 7.60359212087987E-02 
1932	 7.60380757390866E-02 
1933	 7.60515285708085E-02 
1934	 7.60606686036345E-02 
1935	 7.60818186215363E-02 
1936	 7.61226120881648E-02 
1937	 7.61470176622308E-02 
1938	 7.61666768004848E-02 
1939	 7.61948935693111E-02 
1940	 7.62189262210569E-02 
1941	 7.62429768216936E-02 
1942	 7.62834188366048E-02 
1943	 7.63264882542594E-02 
1944	 7.63840626358619E-02 
1945	 7.64527682483857E-02 
1946	 7.65118020033257E-02 
1947	 7.65849065803163E-02 
1948	 7.66405990128514E-02 
1949	 0.076665358054022 
1950	 7.67157124483006E-02 
1951	 7.67758274617042E-02 
1952	 7.68352436383527E-02 
1953	 7.68939831517082E-02 
1954	 7.69730331516523E-02 
1955	 7.70363781742881E-02 
1956	 7.71036514803967E-02 
1957	 7.71754442695209E-02 
1958	 7.72441811844432E-02 
1959	 7.73302811085328E-02 
1960	 7.74384088178342E-02 
1961	 7.75250265308819E-02 
1962	 7.76284795038641E-02 
1963	 0.077709346822964 
1964	 7.77591586722932E-02 
1965	 7.78077274742136E-02 
1966	 7.78881325355508E-02 
1967	 7.79703392321906E-02 
1968	 7.80692021180978E-02 
1969	 0.078214517864066 
1970	 7.83134762273886E-02 
1971	 7.83935827934918E-02 
1972	 0.078480420188356 
1973	 7.85535509961613E-02 
1974	 7.86298761847026E-02 
1975	 7.86967402904019E-02 
1976	 7.87946947348731E-02 
1977	 7.88823237922416E-02 
1978	 7.89584184959474E-02 
1979	 7.90710701422682E-02 
1980	 7.91639173439333E-02 
1981	 7.92523322920242E-02 
1982	 0.079336715335619 
1983	 7.94251029357137E-02 
1984	 7.95011086745227E-02 
1985	 7.95881572504606E-02 
1986	 7.96818171415957E-02 
1987	 7.97778499844433E-02 
1988	 7.98773743754611E-02 
1989	 7.99823516362378E-02 
1990	 8.00703193992722E-02 
1991	 8.01630836182469E-02 
1992	 8.02643657521145E-02 
1993	 8.03628196751788E-02 
1994	 8.04599028398722E-02 
1995	 8.05761827676628E-02 
1996	 8.06726220009807E-02 
1997	 8.07466172895961E-02 
1998	 8.08361383436986E-02 
1999	 8.09290095166349E-02 
2000	 8.10201168821446E-02 
2001	 8.11107245332669E-02 
2002	 8.12086396763144E-02 
2003	 8.13029511206831E-02 
2004	 8.14009447612399E-02 
2005	 8.14926333022599E-02 
2006	 8.15853780364728E-02 
2007	 8.16684493442228E-02 
2008	 8.17382804007354E-02 
2009	 8.18192131075676E-02 
2010	 0.081898977613677 
2011	 8.19868157069335E-02 
2012	 8.20879028677579E-02 
2013	 8.21784077185563E-02 
2014	 8.22765137648993E-02 
2015	 8.23547074107904E-02 
2016	 8.24165302789196E-02 
2017	 8.25002877719583E-02 
2018	 8.25820411951715E-02 
2019	 8.26639217908874E-02 
2020	 8.27450423763939E-02 
2021	 8.28329396097724E-02 
2022	 8.29170742144509E-02 
2023	 8.29944020211142E-02 
2024	 8.30815668236188E-02 
2025	 8.31673680749197E-02 
2026	 8.32644252634654E-02 
2027	 8.33784537654417E-02 
2028	 8.34889056072964E-02 
2029	 8.35756532650895E-02 
2030	 0.083664157444951 
2031	 0.083732911496352 
2032	 8.37587730121846E-02 
2033	 8.38219995503795E-02 
2034	 8.38949634172783E-02 
2035	 8.39699535310434E-02 
2036	 8.40604503814458E-02 
2037	 8.41427370645011E-02 
2038	 0.084223728093788 
2039	 8.43034816687741E-02 
2040	 8.43885861553366E-02 
2041	 8.44649238821728E-02 
2042	 8.45309572067816E-02 
2043	 8.45852054449994E-02 
2044	 8.46306549601764E-02 
2045	 8.46505924589174E-02 
2046	 8.46932225293347E-02 
2047	 8.47350065703822E-02 
2048	 8.47837082409415E-02 
2049	 8.48416379845527E-02 
2050	 8.49032006453884E-02 
2051	 8.49704580274311E-02 
2052	 8.50362377612341E-02 
2053	 8.51185570477273E-02 
2054	 8.51828626417202E-02 
2055	 8.52313403381596E-02 
2056	 8.52825079613193E-02 
2057	 8.53391221713609E-02 
2058	 8.53938723201019E-02 
2059	 8.54440408581166E-02 
2060	 8.55006044224634E-02 
2061	 8.55482303403507E-02 
2062	 8.55810524978608E-02 
2063	 8.56226061953882E-02 
2064	 8.56640224918226E-02 
2065	 8.57131140982647E-02 
2066	 8.57715164635113E-02 
2067	 8.58214181026941E-02 
2068	 8.58659647046984E-02 
2069	 8.59187805133763E-02 
2070	 8.59804163532337E-02 
2071	 0.086049129284628 
2072	 8.60956028172914E-02 
2073	 8.61435632555902E-02 
2074	 8.61928735702254E-02 
2075	 8.62154795950801E-02 
2076	 8.62630937549026E-02 
2077	 8.63351081859467E-02 
2078	 8.63965853833246E-02 
2079	 8.64510216665872E-02 
2080	 8.65159542189192E-02 
2081	 8.66014730243346E-02 
2082	 8.66677322908589E-02 
2083	 8.67348136107329E-02 
2084	 8.67920224508485E-02 
2085	 8.68303606780787E-02 
2086	 8.68411884383258E-02 
2087	 8.68685765042081E-02 
2088	 8.68861544489926E-02 
2089	 8.69150560448947E-02 
2090	 8.69473102714838E-02 
2091	 0.086989438698398 
2092	 0.087036008964727 
2093	 8.70890689407991E-02 
2094	 8.71660884278782E-02 
2095	 8.72234760671518E-02 
2096	 0.087265535501217 
2097	 8.73213668363587E-02 
2098	 8.73769146705864E-02 
2099	 8.74322848035479E-02 
2100	 8.74912229283757E-02 
2101	 0.087569209547431 
2102	 8.76221530255085E-02 
2103	 8.76603582520205E-02 
2104	 8.77037383551057E-02 
2105	 8.77352217623125E-02 
2106	 8.77813413223949E-02 
2107	 8.78414846732966E-02 
2108	 8.78860269218996E-02 
2109	 8.79186578927038E-02 
2110	 8.79674634363998E-02 
2111	 8.80097769453976E-02 
2112	 0.08806571212488 
2113	 0.088140058131264 
2114	 8.82259256954354E-02 
2115	 8.82942279786746E-02 
2116	 8.83612194348425E-02 
2117	 8.84206534680336E-02 
2118	 8.84663792062921E-02 
2119	 8.85254509559081E-02 
2120	 8.85891437015064E-02 
2121	 0.088644806320541 
2122	 8.87052387989434E-02 
2123	 8.87581547042013E-02 
2124	 8.87964439415688E-02 
2125	 8.88446632034104E-02 
2126	 8.89114148535255E-02 
2127	 8.89502817522927E-02 
2128	 8.89647701964544E-02 
2129	 8.89961867803865E-02 
2130	 8.90216385594091E-02 
2131	 0.089042268383946 
2132	 8.90725033559443E-02 
2133	 8.91302497111914E-02 
2134	 8.91543824321416E-02 
2135	 8.91659366264766E-02 
2136	 8.91681009990865E-02 
2137	 0.089148630855242 
2138	 8.91427511891469E-02 
2139	 8.91319237777054E-02 
2140	 8.91245340138854E-02 
2141	 8.91417856356538E-02 
2142	 8.91247421229777E-02 
2143	 8.90705716062004E-02 
2144	 8.90428395280685E-02 
2145	 8.90129908926729E-02 
2146	 8.89817112432387E-02 
2147	 8.89487320697828E-02 
2148	 8.89519717020282E-02 
2149	 8.89357943403141E-02 
2150	 8.89124326324065E-02 
2151	 8.88843708715126E-02 
2152	 8.88689360358142E-02 
2153	 8.88252259439339E-02 
2154	 8.87401768297355E-02 
2155	 8.86959719078184E-02 
2156	 8.86625234404095E-02 
2157	 8.86259996946286E-02 
2158	 8.86136596577502E-02 
2159	 8.85858348557897E-02 
2160	 8.85551337470597E-02 
2161	 8.85066149351595E-02 
2162	 8.84441570951181E-02 
2163	 8.83838102724287E-02 
2164	 8.83091722210553E-02 
2165	 8.82290051117903E-02 
2166	 8.81595937890698E-02 
2167	 0.08809731410373 
2168	 8.80344028327053E-02 
2169	 8.79692316859963E-02 
2170	 8.79140705757556E-02 
2171	 8.78685998356123E-02 
2172	 0.087820141839285 
2173	 8.77835948004815E-02 
2174	 8.77300622369344E-02 
2175	 8.76657633474889E-02 
2176	 8.76038289165186E-02 
2177	 8.75227794975026E-02 
2178	 8.74636797299641E-02 
2179	 8.74306371742229E-02 
2180	 0.087377516458986 
2181	 8.73276560392331E-02 
2182	 8.72701845852067E-02 
2183	 8.72014415912119E-02 
2184	 8.71109323236138E-02 
2185	 8.70465879643562E-02 
2186	 8.69875718186793E-02 
2187	 8.69379030201782E-02 
2188	 8.69023341956283E-02 
2189	 8.68644949374463E-02 
2190	 8.68379699269536E-02 
2191	 8.67965869444502E-02 
2192	 8.67467830399801E-02 
2193	 8.67036953663275E-02 
2194	 8.66558925164733E-02 
2195	 8.66135054123748E-02 
2196	 0.086574491307505 
2197	 8.65427264728917E-02 
2198	 8.65072881841816E-02 
2199	 8.64847383866158E-02 
2200	 8.64983560328637E-02 
2201	 8.64795789719895E-02 
2202	 8.64541476021271E-02 
2203	 0.086416580366737 
2204	 8.63728468716456E-02 
2205	 8.62813319058059E-02 
2206	 8.62799980714948E-02 
2207	 8.63179202759407E-02 
2208	 8.63430813538883E-02 
2209	 8.64260030456911E-02 
2210	 8.64569467987611E-02 
2211	 8.64633512717124E-02 
2212	 8.64596931862648E-02 
2213	 8.64311835096483E-02 
2214	 8.64197796250003E-02 
2215	 8.63893761149982E-02 
2216	 8.63832902839317E-02 
2217	 8.64087713677093E-02 
2218	 8.64201376747441E-02 
2219	 8.64348088930292E-02 
2220	 8.64411639409149E-02 
2221	 8.64445595587624E-02 
2222	 8.64396544803859E-02 
2223	 8.64208207189972E-02 
2224	 8.64170733542163E-02 
2225	 8.64350009961445E-02 
2226	 8.64692126608366E-02 
2227	 8.64919073616013E-02 
2228	 8.65306992967789E-02 
2229	 8.65620299478043E-02 
2230	 8.65966149715118E-02 
2231	 8.66048781836605E-02 
2232	 8.65927714187495E-02 
2233	 8.66078639365819E-02 
2234	 8.66049274418207E-02 
2235	 8.66175426216856E-02 
2236	 8.66764950672393E-02 
2237	 8.67056797130397E-02 
2238	 8.67147054015357E-02 
2239	 8.67252765733005E-02 
2240	 8.67260734739447E-02 
2241	 8.67356172262795E-02 
2242	 8.67319681900877E-02 
2243	 8.67531596175977E-02 
2244	 8.67965784504553E-02 
2245	 8.68483432372082E-02 
2246	 8.68824110439919E-02 
2247	 8.69081828310852E-02 
2248	 8.69232398563283E-02 
2249	 8.69100023119014E-02 
2250	 8.69206077010714E-02 
2251	 8.69364196804843E-02 
2252	 0.086947858115263 
2253	 8.69628630107829E-02 
2254	 0.086974950242576 
2255	 8.69846786960973E-02 
2256	 8.69970037471571E-02 
2257	 8.70020137770624E-02 
2258	 8.70254673435872E-02 
2259	 8.70658053997062E-02 
2260	 8.70923237951948E-02 
2261	 8.71295565567706E-02 
2262	 8.71516334320748E-02 
2263	 8.71446935794558E-02 
2264	 8.71620506117608E-02 
2265	 8.71969215681725E-02 
2266	 8.72191332354897E-02 
2267	 8.72415368549977E-02 
2268	 0.087265335900603 
2269	 8.72774972773859E-02 
2270	 8.72998395891688E-02 
2271	 8.73298238163382E-02 
2272	 8.73503383096152E-02 
2273	 8.73827022851179E-02 
2274	 8.74165039253195E-02 
2275	 8.74245475621313E-02 
2276	 8.74277834751461E-02 
2277	 8.74188928249962E-02 
2278	 8.73718411718724E-02 
2279	 8.73593753489051E-02 
2280	 8.73538267252573E-02 
2281	 8.73561597441538E-02 
2282	 8.73764374130928E-02 
2283	 8.73935618307672E-02 
2284	 8.74158858181795E-02 
2285	 8.74444456707751E-02 
2286	 8.74837446221019E-02 
2287	 0.087504453656391 
2288	 8.75043728907603E-02 
2289	 8.75320223831528E-02 
2290	 8.75733641883588E-02 
2291	 8.76037860680561E-02 
2292	 8.76614979216148E-02 
2293	 8.76921777358229E-02 
2294	 8.76612639641625E-02 
2295	 8.76915394552661E-02 
2296	 8.77652798147868E-02 
2297	 8.78198158193479E-02 
2298	 8.78561148478319E-02 
2299	 8.78961823138427E-02 
2300	 8.78977665937246E-02 
2301	 8.78889876050122E-02 
2302	 8.78970589804525E-02 
2303	 8.79039059406811E-02 
2304	 8.78825727566315E-02 
2305	 8.78875463492276E-02 
2306	 8.78987812087354E-02 
2307	 8.79324986225131E-02 
2308	 8.79519609796079E-02 
2309	 8.79650877385155E-02 
2310	 8.79949211473583E-02 
2311	 8.80483823849079E-02 
2312	 0.088068416698553 
2313	 8.80914608895843E-02 
2314	 8.80842664383043E-02 
2315	 8.80125601113215E-02 
2316	 8.80101499180053E-02 
2317	 8.80343750567912E-02 
2318	 8.80525251252793E-02 
2319	 8.81081281359268E-02 
2320	 8.81423671075411E-02 
2321	 8.81565054667443E-02 
2322	 8.81810749838425E-02 
2323	 8.82122761640539E-02 
2324	 8.82382636682604E-02 
2325	 8.82561596707074E-02 
2326	 8.82794205123477E-02 
2327	 8.82940968179319E-02 
2328	 8.83326908661918E-02 
2329	 8.83968565744038E-02 
2330	 8.84541895537317E-02 
2331	 8.85222678645289E-02 
2332	 8.85736306071024E-02 
2333	 8.85428130087171E-02 
2334	 8.84707221399974E-02 
2335	 8.83914864274522E-02 
2336	 8.83618875034528E-02 
2337	 8.83927678006381E-02 
2338	 8.84601797311697E-02 
2339	 8.85328861951123E-02 
2340	 8.85900208486129E-02 
2341	 8.86184932079988E-02 
2342	 8.86170563016574E-02 
2343	 8.86087246427982E-02 
2344	 8.85563969243825E-02 
2345	 8.85297470199822E-02 
2346	 8.85063575201038E-02 
2347	 8.84770282494091E-02 
2348	 8.84426144589944E-02 
2349	 8.84473418265963E-02 
2350	 8.84712800333029E-02 
2351	 8.84654101796864E-02 
2352	 8.84789227926855E-02 
2353	 8.84711228094238E-02 
2354	 0.08841965401621 
2355	 0.088406189882801 
2356	 8.84099577452074E-02 
2357	 8.84113563884707E-02 
2358	 8.84258913417759E-02 
2359	 8.84224780689172E-02 
2360	 8.84213926843945E-02 
2361	 8.84180546029317E-02 
2362	 8.83976089397569E-02 
2363	 8.83784512371365E-02 
2364	 8.83705421405514E-02 
2365	 8.83448793389889E-02 
2366	 8.82571839524658E-02 
2367	 8.82595087513555E-02 
2368	 8.83306218001398E-02 
2369	 8.83680985659846E-02 
2370	 8.84723570845931E-02 
2371	 8.85121150168561E-02 
2372	 8.84392391677831E-02 
2373	 8.83295325500814E-02 
2374	 8.82081343284682E-02 
2375	 8.81403582298657E-02 
2376	 8.81304982260887E-02 
2377	 8.81642552127445E-02 
2378	 8.82210526054257E-02 
2379	 8.82705684682312E-02 
2380	 8.83080657095645E-02 
2381	 8.82926544856664E-02 
2382	 8.82585715396207E-02 
2383	 8.82257349129109E-02 
2384	 8.82176307096376E-02 
2385	 8.81877449212362E-02 
2386	 8.80980907645317E-02 
2387	 8.80157457689651E-02 
2388	 0.087915924797732 
2389	 8.78554784211027E-02 
2390	 8.78730323983842E-02 
2391	 8.78711432719454E-02 
2392	 8.78521533899989E-02 
2393	 8.78512835866438E-02 
2394	 8.78101479539691E-02 
2395	 8.77311324990056E-02 
2396	 8.76800849329948E-02 
2397	 8.76449065992312E-02 
2398	 8.76037222344659E-02 
2399	 8.76119542765352E-02 
2400	 8.76538841114293E-02 
2401	 8.76591187096203E-02 
2402	 8.76281869990877E-02 
2403	 8.76171722832613E-02 
2404	 8.76495555087426E-02 
2405	 8.75905690786004E-02 
2406	 0.087522085264303 
2407	 8.75123982458059E-02 
2408	 8.74252915921349E-02 
2409	 8.73774748666234E-02 
2410	 8.73716675500769E-02 
2411	 8.73286751103814E-02 
2412	 8.72654032592356E-02 
2413	 0.08718453156053 
2414	 8.71436107515946E-02 
2415	 8.71285848594788E-02 
2416	 8.71246621541597E-02 
2417	 8.71596285236371E-02 
2418	 8.71926238797742E-02 
2419	 8.72776497451013E-02 
2420	 8.72546550411288E-02 
2421	 8.72080587466651E-02 
2422	 8.70862652494757E-02 
2423	 8.67713870640002E-02 
2424	 8.66925329024549E-02 
2425	 8.66890461385597E-02 
2426	 8.67048038112446E-02 
2427	 8.69093296490491E-02 
2428	 8.69082836678611E-02 
2429	 8.68100952596098E-02 
2430	 8.67766514007854E-02 
2431	 8.66870940284454E-02 
2432	 8.66017819481462E-02 
2433	 8.65096329375448E-02 
2434	 8.64422938072575E-02 
2435	 0.08636412216582 
2436	 8.63608035042264E-02 
2437	 8.64369294446665E-02 
2438	 8.64766861540236E-02 
2439	 8.66194320930824E-02 
2440	 8.65625702302107E-02 
2441	 8.63209859035547E-02 
2442	 8.62683778723815E-02 
2443	 8.61536375842579E-02 
2444	 8.60586423909314E-02 
2445	 8.61573985887748E-02 
2446	 8.61286889089409E-02 
2447	 8.59617238936408E-02 
2448	 8.58928992772667E-02 
2449	 8.58785589335224E-02 
2450	 8.58172960178785E-02 
2451	 8.57647762819651E-02 
2452	 0.085693468818333 
2453	 8.56018823569405E-02 
2454	 8.55258570697663E-02 
2455	 8.54538737705602E-02 
2456	 8.53444775515596E-02 
2457	 8.51565138839562E-02 
2458	 8.50791519513367E-02 
2459	 8.50675882193681E-02 
2460	 8.50080256404291E-02 
2461	 8.49465201598172E-02 
2462	 8.50098011264745E-02 
2463	 0.085151233593526 
2464	 0.08516931386339 
2465	 8.52740180534203E-02 
2466	 8.52355294324425E-02 
2467	 0.08492125591553 
2468	 8.47880745335337E-02 
2469	 0.084801751257998 
2470	 8.46085503674015E-02 
2471	 8.45173970676121E-02 
2472	 0.084348716799144 
2473	 8.42991672644542E-02 
2474	 0.084442971791889 
2475	 8.44623754096404E-02 
2476	 8.46805699931373E-02 
2477	 8.48755118468956E-02 
2478	 0.084774128648439 
2479	 8.47023088594467E-02 
2480	 8.45732718013455E-02 
2481	 0.084272274743297 
2482	 0.084016549633652 
2483	 8.39247302243183E-02 
2484	 8.38800675162852E-02 
2485	 8.38490981677339E-02 
2486	 0.083824624208655 
2487	 8.37156019704952E-02 
2488	 8.36165105304593E-02 
2489	 8.35732549781152E-02 
2490	 0.083548163030261 
2491	 8.34701352293463E-02 
2492	 8.34582083774182E-02 
2493	 8.34990427150517E-02 
2494	 8.33407930632639E-02 
2495	 8.35059301732372E-02 
2496	 8.37781366424127E-02 
2497	 8.35837306690549E-02 
2498	 8.34678891850654E-02 
2499	 8.34739399081768E-02 
2500	 0.083393598369037 
