Wavelength	MM_3400008.asd
350	 4.19783184575139E-02 
351	 5.51655408178935E-02 
352	 5.79195959220787E-02 
353	 0.042006787431689 
354	 4.31345494489036E-02 
355	 0.047579241347394 
356	 5.25429045702285E-02 
357	 5.62409933470756E-02 
358	 5.06502229393843E-02 
359	 4.59957661518372E-02 
360	 4.68752995910106E-02 
361	 5.26026233541707E-02 
362	 5.16690528137455E-02 
363	 4.96008870245454E-02 
364	 4.94675170262564E-02 
365	 0.046678897400398 
366	 4.87322369279667E-02 
367	 5.19313419561914E-02 
368	 5.12516995590821E-02 
369	 4.85967829633568E-02 
370	 5.06712191916308E-02 
371	 5.53332400242464E-02 
372	 0.055002167503893 
373	 5.35480522316004E-02 
374	 5.26840679120868E-02 
375	 5.27540981820698E-02 
376	 5.22637329810693E-02 
377	 5.22193215098553E-02 
378	 5.43584364064478E-02 
379	 5.86020590730212E-02 
380	 5.72330795637691E-02 
381	 5.31186513100788E-02 
382	 5.14278629377055E-02 
383	 5.72914690409232E-02 
384	 0.057122265313714 
385	 5.56043702424214E-02 
386	 0.056463913105577 
387	 5.62251755073877E-02 
388	 5.80494531352089E-02 
389	 0.059845360432837 
390	 5.89948456461435E-02 
391	 5.85668224419673E-02 
392	 5.92953976096356E-02 
393	 6.03980199388608E-02 
394	 6.01598377260928E-02 
395	 6.17865512560295E-02 
396	 0.061812573219539 
397	 5.95886148774966E-02 
398	 6.31588460819311E-02 
399	 0.064156977933351 
400	 6.33383052640686E-02 
401	 6.39990307289394E-02 
402	 6.32306476000808E-02 
403	 6.24274019267782E-02 
404	 6.22087506052389E-02 
405	 0.062172543385488 
406	 6.31199925169809E-02 
407	 6.41653233726382E-02 
408	 6.44049315685336E-02 
409	 6.36691325134183E-02 
410	 6.24391855576086E-02 
411	 6.19748225154716E-02 
412	 6.33995478836791E-02 
413	 6.47306048354246E-02 
414	 6.44282236878978E-02 
415	 6.32414211223642E-02 
416	 6.46610094859665E-02 
417	 6.45634929456159E-02 
418	 6.37574376282183E-02 
419	 6.38039152214308E-02 
420	 6.46577215437369E-02 
421	 6.44480749301581E-02 
422	 6.36631015138534E-02 
423	 6.41111171924379E-02 
424	 6.41325484041992E-02 
425	 6.41942610457458E-02 
426	 0.064486692847974 
427	 6.41641009950822E-02 
428	 6.42243019064305E-02 
429	 6.43453723798677E-02 
430	 6.40327419215006E-02 
431	 6.41674973455528E-02 
432	 6.43362472847522E-02 
433	 6.43694152477256E-02 
434	 6.43890145550525E-02 
435	 6.42405972979493E-02 
436	 6.41205306827614E-02 
437	 6.41301839799647E-02 
438	 6.38933794726822E-02 
439	 6.41507717020254E-02 
440	 6.45224037065238E-02 
441	 6.42409990450114E-02 
442	 6.43527224241503E-02 
443	 6.44590672994685E-02 
444	 6.43537269674266E-02 
445	 6.43367856638696E-02 
446	 6.41712749554291E-02 
447	 0.064022254740983 
448	 0.064055076427753 
449	 6.39050733858547E-02 
450	 6.40668437061999E-02 
451	 6.43957415801427E-02 
452	 6.42330516739149E-02 
453	 0.064056038838198 
454	 6.39113316860204E-02 
455	 6.38496579739631E-02 
456	 6.41700574526352E-02 
457	 0.064273791209881 
458	 0.064128919982216 
459	 0.063977213976901 
460	 6.39125668252739E-02 
461	 6.37986740836817E-02 
462	 6.36795513470304E-02 
463	 0.063885296602987 
464	 6.40194835195848E-02 
465	 6.41330090176658E-02 
466	 6.42954795692147E-02 
467	 6.41132828288557E-02 
468	 6.39993849793704E-02 
469	 6.40615115556925E-02 
470	 6.41273522029515E-02 
471	 6.39326774057998E-02 
472	 6.37004676122425E-02 
473	 6.36270922156465E-02 
474	 6.36381499195284E-02 
475	 6.37833309658442E-02 
476	 6.39406950542677E-02 
477	 6.39388090033333E-02 
478	 6.38301415651197E-02 
479	 0.063791268486143 
480	 6.38453870906549E-02 
481	 6.37930825996472E-02 
482	 6.37490048590828E-02 
483	 6.38518594130049E-02 
484	 6.41016660975813E-02 
485	 6.39246343708709E-02 
486	 6.37959441875557E-02 
487	 6.37845516753022E-02 
488	 6.36209782296052E-02 
489	 6.36016630474691E-02 
490	 6.37366811351573E-02 
491	 6.38968440343334E-02 
492	 6.37277343572533E-02 
493	 6.35975179955266E-02 
494	 0.063601512254135 
495	 6.36827336596126E-02 
496	 6.36978870033111E-02 
497	 6.36519107062278E-02 
498	 6.36175175738359E-02 
499	 6.37491363177307E-02 
500	 6.37368467038888E-02 
501	 6.36498227088078E-02 
502	 6.36385100479814E-02 
503	 6.36762095377259E-02 
504	 6.36526205293216E-02 
505	 6.35794018918425E-02 
506	 6.35747817096631E-02 
507	 6.35240002428993E-02 
508	 6.35427900913515E-02 
509	 6.36871371088651E-02 
510	 6.37711804643035E-02 
511	 6.36341011153852E-02 
512	 6.34289408547152E-02 
513	 6.34407239428322E-02 
514	 6.34229186789046E-02 
515	 0.063448878829576 
516	 6.35431676193095E-02 
517	 6.35998119080262E-02 
518	 6.35187206144418E-02 
519	 6.33899382805906E-02 
520	 6.33429530691645E-02 
521	 6.33177896601016E-02 
522	 6.33390811316579E-02 
523	 6.33643704207971E-02 
524	 6.32824154804981E-02 
525	 6.32585052392057E-02 
526	 6.32828173441093E-02 
527	 6.33050083137643E-02 
528	 6.32751116943273E-02 
529	 6.33034777377799E-02 
530	 6.33610062591396E-02 
531	 6.33356437663565E-02 
532	 6.32922097551194E-02 
533	 0.063318791316813 
534	 0.063408537886835 
535	 6.33439476922717E-02 
536	 6.33214357306414E-02 
537	 6.33732100692946E-02 
538	 6.34482913898416E-02 
539	 6.34037467430809E-02 
540	 6.33689904503531E-02 
541	 6.33951742844001E-02 
542	 6.34023097359041E-02 
543	 6.33705456371166E-02 
544	 6.33735084165388E-02 
545	 6.34629165840129E-02 
546	 6.34937528802298E-02 
547	 6.35281503070263E-02 
548	 6.35600749389549E-02 
549	 0.063527443995472 
550	 6.35184854720451E-02 
551	 6.35305128559985E-02 
552	 6.35672762790439E-02 
553	 6.37263815136404E-02 
554	 6.36923139651883E-02 
555	 6.35949458943141E-02 
556	 6.37557214118536E-02 
557	 6.38880110294264E-02 
558	 6.39647519406855E-02 
559	 6.40264870531084E-02 
560	 6.41827604100264E-02 
561	 6.43001216671963E-02 
562	 6.43948320438064E-02 
563	 6.45223057775337E-02 
564	 6.46536732764688E-02 
565	 6.47477295798212E-02 
566	 6.47926673650742E-02 
567	 6.48114245894628E-02 
568	 6.49856171914894E-02 
569	 6.52153233207705E-02 
570	 6.53924272043942E-02 
571	 6.56380730068239E-02 
572	 6.58776152025784E-02 
573	 6.60891942559019E-02 
574	 0.066292535557991 
575	 6.65046449184632E-02 
576	 6.67915195453265E-02 
577	 6.71391986977348E-02 
578	 6.73426852551129E-02 
579	 6.75330021586043E-02 
580	 6.77211385303628E-02 
581	 6.78942810768698E-02 
582	 6.82285324986212E-02 
583	 6.85131415707781E-02 
584	 6.86862223005191E-02 
585	 0.068939772752003 
586	 6.92832220215649E-02 
587	 6.96435826338037E-02 
588	 6.99509497850825E-02 
589	 7.02926878477838E-02 
590	 7.06442652074005E-02 
591	 7.10111124445297E-02 
592	 7.14270737791286E-02 
593	 7.18475535456931E-02 
594	 7.22776278989781E-02 
595	 7.26902487218559E-02 
596	 7.29370728743065E-02 
597	 7.31799601807209E-02 
598	 7.34504294822167E-02 
599	 7.37111514289529E-02 
600	 7.39868878832086E-02 
601	 0.074224028991494 
602	 7.44161593824793E-02 
603	 7.46541992738538E-02 
604	 7.49369652090475E-02 
605	 7.52184657594944E-02 
606	 7.54442533332122E-02 
607	 7.56242128215183E-02 
608	 7.58283146413437E-02 
609	 7.60986897151262E-02 
610	 7.64383602493875E-02 
611	 7.66239790229868E-02 
612	 7.67627052749631E-02 
613	 7.69623284313432E-02 
614	 7.70236093225689E-02 
615	 7.71364792539783E-02 
616	 7.73223253771643E-02 
617	 7.74808372850005E-02 
618	 7.76053548448408E-02 
619	 7.76749946341147E-02 
620	 7.77134867918168E-02 
621	 7.78429395424439E-02 
622	 7.79717975541192E-02 
623	 7.80676488190321E-02 
624	 7.81289255339061E-02 
625	 7.81982118444768E-02 
626	 7.82810697016446E-02 
627	 0.078372240307428 
628	 7.84572497011019E-02 
629	 7.85447629255027E-02 
630	 7.86051347115021E-02 
631	 7.86270209728984E-02 
632	 7.87057541653652E-02 
633	 7.87898069990768E-02 
634	 7.88469567594655E-02 
635	 7.88699930861251E-02 
636	 7.89484058124873E-02 
637	 7.90172461111896E-02 
638	 7.90380683031904E-02 
639	 7.91037687467323E-02 
640	 7.91904548799812E-02 
641	 7.92673215171274E-02 
642	 7.93110107125251E-02 
643	 7.94019004976052E-02 
644	 7.94939276619576E-02 
645	 7.95517355049078E-02 
646	 7.95712375732582E-02 
647	 7.96371673013954E-02 
648	 7.97207021899052E-02 
649	 7.97773447692871E-02 
650	 7.98597982231013E-02 
651	 7.99119453958562E-02 
652	 7.99496295078266E-02 
653	 8.00484983520547E-02 
654	 8.01675524317583E-02 
655	 0.080232707964295 
656	 8.02369667314138E-02 
657	 8.03539813532906E-02 
658	 0.080484648109818 
659	 8.05725045011284E-02 
660	 8.06010286535596E-02 
661	 8.07060963998406E-02 
662	 8.08374867466058E-02 
663	 8.09452773285474E-02 
664	 8.10067634308825E-02 
665	 8.10836674055169E-02 
666	 8.11999339223785E-02 
667	 8.13399059396376E-02 
668	 8.13747201222012E-02 
669	 8.14729860039001E-02 
670	 8.16355735317077E-02 
671	 8.17243521604788E-02 
672	 8.18152980265995E-02 
673	 8.19424960735515E-02 
674	 8.21034542981774E-02 
675	 8.22303579927182E-02 
676	 8.23222299153965E-02 
677	 0.082412562770378 
678	 8.25418914975455E-02 
679	 8.26605947654601E-02 
680	 8.28038615821528E-02 
681	 8.29652343527229E-02 
682	 8.30762431395693E-02 
683	 0.083189339213498 
684	 8.33175819473712E-02 
685	 8.34590710691062E-02 
686	 8.35967985716825E-02 
687	 0.083743647231002 
688	 8.38955466064786E-02 
689	 8.40364236323131E-02 
690	 8.41667787943175E-02 
691	 8.42861308624972E-02 
692	 8.44097365214445E-02 
693	 8.45896795041495E-02 
694	 8.47328159341357E-02 
695	 8.48582692958851E-02 
696	 8.50166541078604E-02 
697	 8.51860244719398E-02 
698	 8.53281429833071E-02 
699	 8.54591332181944E-02 
700	 8.56482116893616E-02 
701	 8.57749992772917E-02 
702	 8.58946369241203E-02 
703	 8.60568654964175E-02 
704	 0.086186966461926 
705	 8.63200431514105E-02 
706	 8.64653538934443E-02 
707	 8.66152024940628E-02 
708	 8.67356936736509E-02 
709	 8.69015564967683E-02 
710	 8.71072445869506E-02 
711	 8.72164703126763E-02 
712	 8.73550982053366E-02 
713	 0.087491638451644 
714	 8.75870612836644E-02 
715	 8.77480859017635E-02 
716	 8.78795839834838E-02 
717	 8.79782107004061E-02 
718	 8.81060001410529E-02 
719	 8.82201643388252E-02 
720	 8.83395712544568E-02 
721	 8.84656927358726E-02 
722	 8.85479530430838E-02 
723	 8.86435789870105E-02 
724	 8.87690707720256E-02 
725	 8.89101679966983E-02 
726	 8.89792719611106E-02 
727	 8.90659184275463E-02 
728	 8.91722087539166E-02 
729	 8.92181423255271E-02 
730	 8.93173137656806E-02 
731	 8.94098302252257E-02 
732	 8.94525276519667E-02 
733	 8.95183483014234E-02 
734	 0.089574852836065 
735	 8.96235998571064E-02 
736	 8.96738526585734E-02 
737	 8.96982861756641E-02 
738	 8.97207223716202E-02 
739	 8.97600155898786E-02 
740	 8.98229879279639E-02 
741	 8.98360828070933E-02 
742	 8.98351750450548E-02 
743	 8.98576389792247E-02 
744	 8.98790223603625E-02 
745	 8.98751518600459E-02 
746	 8.98692915955759E-02 
747	 8.98916424402922E-02 
748	 8.98434603034926E-02 
749	 0.089784310484775 
750	 8.97557941610971E-02 
751	 8.97589317985341E-02 
752	 8.97572257896744E-02 
753	 8.97132313294842E-02 
754	 8.96249841085277E-02 
755	 8.95855425824265E-02 
756	 8.95552041256537E-02 
757	 8.95245313235023E-02 
758	 8.94962514965106E-02 
759	 8.94557172791692E-02 
760	 8.93668685646868E-02 
761	 8.92525970216666E-02 
762	 8.92074979063296E-02 
763	 8.91421053554504E-02 
764	 8.90787573504619E-02 
765	 8.90357153188575E-02 
766	 8.89376210458872E-02 
767	 8.88592453251425E-02 
768	 8.87948939487735E-02 
769	 8.87023513882228E-02 
770	 8.85992739477278E-02 
771	 8.84974035745498E-02 
772	 8.84114541041498E-02 
773	 8.83582804219498E-02 
774	 8.82855200107702E-02 
775	 0.088190059325085 
776	 8.80823980993619E-02 
777	 8.79709503640688E-02 
778	 8.78833677873433E-02 
779	 8.78133875282628E-02 
780	 8.77376858732408E-02 
781	 0.08764302758372 
782	 0.087566052790909 
783	 8.74874489492698E-02 
784	 8.73324267301464E-02 
785	 0.087217160748461 
786	 8.71483965166196E-02 
787	 8.70893020464201E-02 
788	 8.69489312958291E-02 
789	 8.68546317859495E-02 
790	 0.086784924164447 
791	 8.66788897338806E-02 
792	 8.65925998905757E-02 
793	 8.65052324659253E-02 
794	 8.64073525873242E-02 
795	 8.63020345450585E-02 
796	 8.61717167279707E-02 
797	 8.60705040738653E-02 
798	 8.60126432948541E-02 
799	 8.59208048728448E-02 
800	 8.58376674919991E-02 
801	 8.57557952746805E-02 
802	 8.56616306092806E-02 
803	 8.55725679251696E-02 
804	 8.55066208047352E-02 
805	 8.54527078250597E-02 
806	 8.53813773513141E-02 
807	 8.52822347336969E-02 
808	 8.51753535275038E-02 
809	 8.50757180791396E-02 
810	 8.49858628176084E-02 
811	 8.49103698874435E-02 
812	 8.48558467455304E-02 
813	 8.48086402372913E-02 
814	 8.46968022220618E-02 
815	 8.46159353723765E-02 
816	 8.45690342603119E-02 
817	 8.45200395459555E-02 
818	 8.44579124706782E-02 
819	 8.43928866339209E-02 
820	 8.43251358747295E-02 
821	 8.42469707430475E-02 
822	 8.41744311080345E-02 
823	 8.41289304451938E-02 
824	 8.41004897633138E-02 
825	 8.40284673846288E-02 
826	 8.39841639855956E-02 
827	 8.39445296350638E-02 
828	 8.38841760966614E-02 
829	 8.38600101034939E-02 
830	 8.37976095173128E-02 
831	 8.37199713219404E-02 
832	 8.36879078577483E-02 
833	 8.36706172079901E-02 
834	 8.36426210828874E-02 
835	 8.35955009392176E-02 
836	 8.35400841130972E-02 
837	 0.083510357538904 
838	 8.34943746542428E-02 
839	 0.083465597081202 
840	 8.33866969781512E-02 
841	 8.33617933330428E-02 
842	 8.33675459058288E-02 
843	 8.33541082912359E-02 
844	 8.33077908995109E-02 
845	 8.33010729163214E-02 
846	 8.33135362666388E-02 
847	 8.32930998510975E-02 
848	 8.32875453657956E-02 
849	 8.32851260991077E-02 
850	 8.32601119578488E-02 
851	 8.31888628722819E-02 
852	 8.31571657789374E-02 
853	 8.31724288578568E-02 
854	 8.32021908797807E-02 
855	 8.31787877619775E-02 
856	 8.31629014460054E-02 
857	 8.31926148756541E-02 
858	 8.32547955274589E-02 
859	 8.32227056289105E-02 
860	 8.31819413074675E-02 
861	 8.31793023044644E-02 
862	 8.32226061327312E-02 
863	 8.32228815940736E-02 
864	 8.31907519048075E-02 
865	 8.31842926244396E-02 
866	 8.32636121957835E-02 
867	 8.33092444966495E-02 
868	 8.33220668428158E-02 
869	 8.33204229852864E-02 
870	 8.33287430155004E-02 
871	 8.33639314301125E-02 
872	 8.34108060151082E-02 
873	 8.34476055630311E-02 
874	 8.34539100947335E-02 
875	 8.34383397897985E-02 
876	 8.34618769550583E-02 
877	 8.35461717861302E-02 
878	 8.35816844128302E-02 
879	 8.36003758128573E-02 
880	 8.36421583901327E-02 
881	 8.37292504506623E-02 
882	 8.37987110769544E-02 
883	 8.38350724949837E-02 
884	 8.38568163966212E-02 
885	 8.38931013675761E-02 
886	 8.39045493124908E-02 
887	 8.39425812616772E-02 
888	 0.084014475540397 
889	 8.40849117673804E-02 
890	 8.41535350326338E-02 
891	 8.42006215400452E-02 
892	 8.42314090724278E-02 
893	 8.42819993377816E-02 
894	 8.43466260842346E-02 
895	 8.44142885469068E-02 
896	 0.084481458192846 
897	 8.45607898802912E-02 
898	 8.46566480062905E-02 
899	 8.47410075429556E-02 
900	 8.47991453652466E-02 
901	 8.48743584181703E-02 
902	 8.49290887395305E-02 
903	 8.49942166348314E-02 
904	 8.51040629541234E-02 
905	 8.52199685702014E-02 
906	 8.53159151280304E-02 
907	 8.53782539910865E-02 
908	 8.54202753985399E-02 
909	 8.55382886068377E-02 
910	 8.56436573872394E-02 
911	 8.57334695951483E-02 
912	 8.58511977186684E-02 
913	 8.58929100069898E-02 
914	 8.59706675879777E-02 
915	 0.0860742521174 
916	 8.60942869965927E-02 
917	 8.62058429863263E-02 
918	 8.63677621019683E-02 
919	 8.65048904570097E-02 
920	 8.65529402840409E-02 
921	 8.66600606755104E-02 
922	 8.67611361635711E-02 
923	 8.68320189188999E-02 
924	 8.69575005928416E-02 
925	 8.70401755289166E-02 
926	 8.72004001680289E-02 
927	 8.74390283931402E-02 
928	 0.087468074897126 
929	 8.75182053374609E-02 
930	 8.76498430523565E-02 
931	 8.78350259062738E-02 
932	 0.087952356438152 
933	 8.81138395948718E-02 
934	 8.82459036058204E-02 
935	 8.82903903704379E-02 
936	 8.83814954414853E-02 
937	 8.85409682103411E-02 
938	 0.088700058253546 
939	 8.87963608215364E-02 
940	 8.89028443459263E-02 
941	 8.91036783872735E-02 
942	 8.93062633023329E-02 
943	 0.08939857178841 
944	 8.94960752700517E-02 
945	 0.089588708449254 
946	 8.96808657680499E-02 
947	 8.97884754967542E-02 
948	 8.99503338157878E-02 
949	 9.01443957023503E-02 
950	 9.03052466139714E-02 
951	 0.090399675906431 
952	 9.06506916213915E-02 
953	 9.07489814911395E-02 
954	 9.08068487403585E-02 
955	 9.10886931115081E-02 
956	 9.12422239905018E-02 
957	 9.13563479687221E-02 
958	 9.14524070269542E-02 
959	 9.15296163767279E-02 
960	 0.091776694489693 
961	 9.19762710516006E-02 
962	 9.20905530290486E-02 
963	 9.22059321291179E-02 
964	 0.092250687092078 
965	 0.092432575124695 
966	 9.27157066949401E-02 
967	 9.29151821061076E-02 
968	 9.31195293020295E-02 
969	 9.31647150979681E-02 
970	 9.31517801119673E-02 
971	 9.33085364151811E-02 
972	 9.34177099104506E-02 
973	 9.35694024713485E-02 
974	 9.37259153825825E-02 
975	 9.38087482827116E-02 
976	 9.41058590844055E-02 
977	 9.43119882697789E-02 
978	 9.43714253495397E-02 
979	 9.44349207200395E-02 
980	 9.46226971725896E-02 
981	 9.47614396895357E-02 
982	 9.48603862370028E-02 
983	 9.50284569391589E-02 
984	 0.095180204401197 
985	 9.52972846062501E-02 
986	 9.54247834479114E-02 
987	 9.56118889493326E-02 
988	 0.095751245574835 
989	 9.59265040236888E-02 
990	 9.60680892214752E-02 
991	 9.60870537142314E-02 
992	 9.61880448851078E-02 
993	 9.62464303263276E-02 
994	 9.64212208922562E-02 
995	 9.67953825029859E-02 
996	 9.66274543655281E-02 
997	 0.096722212803703 
998	 9.69457209029183E-02 
999	 9.69499906611331E-02 
1000	 9.71280609963234E-02 
1001	 9.58597765261907E-02 
1002	 9.59699737363051E-02 
1003	 9.60630423358318E-02 
1004	 9.61629484376619E-02 
1005	 9.62027831975409E-02 
1006	 9.62675737561194E-02 
1007	 9.63356737717611E-02 
1008	 9.64928645320159E-02 
1009	 9.66208038109236E-02 
1010	 9.66845488906194E-02 
1011	 9.68112350074803E-02 
1012	 9.69176148020454E-02 
1013	 9.69385045143454E-02 
1014	 9.70446674593026E-02 
1015	 0.097148607994508 
1016	 9.71864187672671E-02 
1017	 9.72914198582447E-02 
1018	 9.74437234781384E-02 
1019	 9.75863512406724E-02 
1020	 9.76702456889234E-02 
1021	 9.77520015409638E-02 
1022	 9.77842070262278E-02 
1023	 9.77733451030079E-02 
1024	 9.78391856464433E-02 
1025	 9.78971145227343E-02 
1026	 9.79037036654812E-02 
1027	 9.79535456760494E-02 
1028	 9.79652479574227E-02 
1029	 9.80077655751843E-02 
1030	 9.81284189953827E-02 
1031	 9.81807329135977E-02 
1032	 9.81957538283383E-02 
1033	 9.82001568917498E-02 
1034	 9.82695624777595E-02 
1035	 9.83199224105106E-02 
1036	 9.84053126636532E-02 
1037	 9.85141889304232E-02 
1038	 9.85151269357653E-02 
1039	 9.85149479829477E-02 
1040	 9.85592376449789E-02 
1041	 9.85965533350839E-02 
1042	 0.098668366297524 
1043	 9.86964269824953E-02 
1044	 0.098718099354969 
1045	 9.86993331999038E-02 
1046	 9.87293848196938E-02 
1047	 9.87729933584762E-02 
1048	 9.88336157428667E-02 
1049	 9.88905916100175E-02 
1050	 9.89285804018308E-02 
1051	 9.89738508291264E-02 
1052	 9.89655034799738E-02 
1053	 9.89848038990047E-02 
1054	 9.90362126372363E-02 
1055	 0.099020412391073 
1056	 9.90886531966083E-02 
1057	 9.91671775655704E-02 
1058	 9.92841013997197E-02 
1059	 9.93549357125386E-02 
1060	 9.94496259480216E-02 
1061	 9.94823961604888E-02 
1062	 9.94949082434753E-02 
1063	 9.95397959270779E-02 
1064	 0.09959256198686 
1065	 9.97057753639627E-02 
1066	 9.98132001182778E-02 
1067	 9.98683979341749E-02 
1068	 9.98861739346116E-02 
1069	 9.98823288350489E-02 
1070	 9.99151810907453E-02 
1071	 9.99521929220561E-02 
1072	 9.99956483245603E-02 
1073	 0.100065278544392 
1074	 0.100118135937858 
1075	 0.100148086919677 
1076	 0.100212257369943 
1077	 0.100271290769646 
1078	 0.100344851760439 
1079	 0.10040892969175 
1080	 0.100455259057863 
1081	 0.100533648398021 
1082	 0.100603454966215 
1083	 0.100673909463308 
1084	 0.1007686217258 
1085	 0.100833475023647 
1086	 0.100882297942972 
1087	 0.100930665598493 
1088	 0.100972505089126 
1089	 0.101001270023608 
1090	 0.101047318144602 
1091	 0.101083992234747 
1092	 0.101135462271646 
1093	 0.101189406708077 
1094	 0.101235887468237 
1095	 0.101281521954165 
1096	 0.101318725790094 
1097	 0.101360606394979 
1098	 0.101404287045337 
1099	 0.101443204893402 
1100	 0.101487206972427 
1101	 0.101545011783601 
1102	 0.101584538212436 
1103	 0.101614201128241 
1104	 0.10164729402184 
1105	 0.101664378862351 
1106	 0.101693631330363 
1107	 0.101731949821638 
1108	 0.101737693589859 
1109	 0.10178572688006 
1110	 0.101831789038442 
1111	 0.101838013652105 
1112	 0.101822958365965 
1113	 0.101834992489178 
1114	 0.101831600554721 
1115	 0.101818568795268 
1116	 0.101802472691884 
1117	 0.10180909041122 
1118	 0.101801565887503 
1119	 0.101812948584083 
1120	 0.101855035947619 
1121	 0.101915386812142 
1122	 0.101950524355242 
1123	 0.101968182462777 
1124	 0.10198494768391 
1125	 0.101989506107491 
1126	 0.102011954872538 
1127	 0.102039520548946 
1128	 0.102057564134578 
1129	 0.102093469701475 
1130	 0.102110583784825 
1131	 0.102100678375936 
1132	 0.10210351527616 
1133	 0.102114163645969 
1134	 0.10211642566437 
1135	 0.102120422424062 
1136	 0.102107977399254 
1137	 0.102102708754683 
1138	 0.102095888474937 
1139	 0.102102666634935 
1140	 0.10211956533035 
1141	 0.102136849427169 
1142	 0.102166023511118 
1143	 0.102181828595181 
1144	 0.102192975828483 
1145	 0.102209200518959 
1146	 0.102224406302738 
1147	 0.102235690847574 
1148	 0.102259205275351 
1149	 0.102264216843577 
1150	 0.10225053399721 
1151	 0.102240292821047 
1152	 0.102236434632606 
1153	 0.102215579443809 
1154	 0.102220040722758 
1155	 0.102244307548163 
1156	 0.102254745073176 
1157	 0.102269455446507 
1158	 0.102283851767919 
1159	 0.1022911868214 
1160	 0.102301520318045 
1161	 0.102316813171344 
1162	 0.102330634064799 
1163	 0.102346618049243 
1164	 0.102359524125553 
1165	 0.102380622515598 
1166	 0.10238287617416 
1167	 0.102385289973031 
1168	 0.102382571450369 
1169	 0.102382236593144 
1170	 0.102373721552681 
1171	 0.102383711944805 
1172	 0.102408036441292 
1173	 0.102416437203461 
1174	 0.102422100733731 
1175	 0.102438715869108 
1176	 0.102447074113676 
1177	 0.102464558124792 
1178	 0.102505988937893 
1179	 0.102532350540348 
1180	 0.102548695537471 
1181	 0.102569238996099 
1182	 0.102595246001326 
1183	 0.102603018667381 
1184	 0.102631656447845 
1185	 0.102670318143554 
1186	 0.102700828976111 
1187	 0.102745984220469 
1188	 0.102764454926192 
1189	 0.102754779608604 
1190	 0.102770981645655 
1191	 0.102791444653096 
1192	 0.102804802234059 
1193	 0.102825854545432 
1194	 0.102847841499135 
1195	 0.10285345607377 
1196	 0.102874077778599 
1197	 0.102921132022203 
1198	 0.102951671951524 
1199	 0.102977555858057 
1200	 0.103003307509363 
1201	 0.103016128598078 
1202	 0.103007715853354 
1203	 0.103025971835055 
1204	 0.103050655539817 
1205	 0.103071095033098 
1206	 0.103102899535252 
1207	 0.103130653734593 
1208	 0.103150667161193 
1209	 0.103173686379882 
1210	 0.103209804899594 
1211	 0.10323202044891 
1212	 0.103240833180063 
1213	 0.103254636278643 
1214	 0.103263736206737 
1215	 0.103275873933061 
1216	 0.103289767051325 
1217	 0.103308780544767 
1218	 0.103320815462838 
1219	 0.103331636134265 
1220	 0.103340888857576 
1221	 0.103344145986912 
1222	 0.103353461741124 
1223	 0.103364429298046 
1224	 0.103375967178394 
1225	 0.103393175279813 
1226	 0.103403975741517 
1227	 0.103406586581572 
1228	 0.103419065876071 
1229	 0.103436834179214 
1230	 0.103450133683874 
1231	 0.103470686966604 
1232	 0.10348543134689 
1233	 0.103495975253692 
1234	 0.103494054633323 
1235	 0.103508628770997 
1236	 0.103530299495518 
1237	 0.103545594306932 
1238	 0.103573680625437 
1239	 0.103578855729746 
1240	 0.103563816250742 
1241	 0.10356173566787 
1242	 0.103547369624151 
1243	 0.103549006585391 
1244	 0.103574028165814 
1245	 0.103580219911213 
1246	 0.103583467376854 
1247	 0.103584862675383 
1248	 0.103579523063443 
1249	 0.103563833599136 
1250	 0.10356338169558 
1251	 0.10356676670953 
1252	 0.103574843490412 
1253	 0.103594563900911 
1254	 0.103600641441106 
1255	 0.103605681318245 
1256	 0.103608287013117 
1257	 0.103604217658103 
1258	 0.103598738353737 
1259	 0.103590104077979 
1260	 0.10358474259702 
1261	 0.103577159507915 
1262	 0.103569329540639 
1263	 0.103567654501528 
1264	 0.103561687875511 
1265	 0.103547323243184 
1266	 0.103537315409676 
1267	 0.103537961531097 
1268	 0.103519444970841 
1269	 0.103509438457029 
1270	 0.103497363691756 
1271	 0.103498507448524 
1272	 0.10350471198267 
1273	 0.10351136693617 
1274	 0.103535002328489 
1275	 0.10353789995136 
1276	 0.103516110038981 
1277	 0.103527167695768 
1278	 0.103551225787583 
1279	 0.103566897941564 
1280	 0.10359282347784 
1281	 0.103623613968759 
1282	 0.103645937855281 
1283	 0.103675759581058 
1284	 0.103715418950406 
1285	 0.103771607550849 
1286	 0.103811017563196 
1287	 0.103851314454829 
1288	 0.103884455052864 
1289	 0.103915255026662 
1290	 0.103940952211422 
1291	 0.103956018453859 
1292	 0.103982831473379 
1293	 0.104003942271006 
1294	 0.104047348485396 
1295	 0.104116180664448 
1296	 0.10415575154403 
1297	 0.104193073384685 
1298	 0.104234153016204 
1299	 0.104256313277358 
1300	 0.104291153562204 
1301	 0.104348665284963 
1302	 0.104391400544888 
1303	 0.104429602734707 
1304	 0.10445498565298 
1305	 0.104486879177096 
1306	 0.104506920699247 
1307	 0.104536073471783 
1308	 0.104578222574715 
1309	 0.104611533758514 
1310	 0.104650410081031 
1311	 0.104682248667735 
1312	 0.104704644534897 
1313	 0.104728961397395 
1314	 0.104755118082505 
1315	 0.104777603529171 
1316	 0.104801277443618 
1317	 0.104819607548107 
1318	 0.104832264748124 
1319	 0.104842675372198 
1320	 0.104849079567688 
1321	 0.104852393026022 
1322	 0.104852934151094 
1323	 0.104853285082932 
1324	 0.104858343218294 
1325	 0.104838084185568 
1326	 0.104801347447562 
1327	 0.104783220479488 
1328	 0.104770200248676 
1329	 0.104772545602044 
1330	 0.10476395698105 
1331	 0.104767476515368 
1332	 0.104762446698534 
1333	 0.104745870140914 
1334	 0.104730353329504 
1335	 0.104721867818134 
1336	 0.104702697517827 
1337	 0.104673052003454 
1338	 0.104642767612322 
1339	 0.104606696285152 
1340	 0.104579615031133 
1341	 0.104558182314609 
1342	 0.104527239035579 
1343	 0.104490963924152 
1344	 0.104463277827082 
1345	 0.104439638847137 
1346	 0.104403909014571 
1347	 0.104377568410403 
1348	 0.104352161872914 
1349	 0.104321162145548 
1350	 0.104297592224686 
1351	 0.104270695365572 
1352	 0.104248329074842 
1353	 0.104224364556494 
1354	 0.104196325616951 
1355	 0.104169692463004 
1356	 0.104145953769504 
1357	 0.104123806908532 
1358	 0.104103169708025 
1359	 0.104076752015972 
1360	 0.104050286962584 
1361	 0.104025865559344 
1362	 0.103990947918351 
1363	 0.103967782360923 
1364	 0.103957635454461 
1365	 0.103938599708186 
1366	 0.10391750520992 
1367	 0.103903716418284 
1368	 0.103883260173226 
1369	 0.103863563287791 
1370	 0.10383723331495 
1371	 0.103789405832403 
1372	 0.103740391959973 
1373	 0.103692882843948 
1374	 0.103641782459348 
1375	 0.103585615573464 
1376	 0.103547364114377 
1377	 0.103514006871216 
1378	 0.103476607938933 
1379	 0.103452677640421 
1380	 0.103416956105838 
1381	 0.103371802491398 
1382	 0.10332303475635 
1383	 0.103279491860814 
1384	 0.103227319563794 
1385	 0.103155612416351 
1386	 0.103096861351494 
1387	 0.103040308677209 
1388	 0.102983298550562 
1389	 0.102932725461068 
1390	 0.102881485105729 
1391	 0.102825852131086 
1392	 0.102763538305998 
1393	 0.102686985485573 
1394	 0.102610121319188 
1395	 0.102519308885921 
1396	 0.102423192751165 
1397	 0.102329252866855 
1398	 0.102234020686186 
1399	 0.102130910997739 
1400	 0.102025501673534 
1401	 0.101917790476467 
1402	 0.101798323970723 
1403	 0.101689775756032 
1404	 0.101581885367588 
1405	 0.101480493677213 
1406	 0.101384603094555 
1407	 0.101290650809312 
1408	 0.101202862987332 
1409	 0.101117185120043 
1410	 0.101031278432996 
1411	 0.100951514796468 
1412	 0.100874489721007 
1413	 0.100805068268937 
1414	 0.100741739906824 
1415	 0.100677770199241 
1416	 0.100632810441907 
1417	 0.100592187775529 
1418	 0.100544380993663 
1419	 0.100516374763531 
1420	 0.100491769346727 
1421	 0.100452027279635 
1422	 0.100433598197317 
1423	 0.100426501431274 
1424	 0.100411257542675 
1425	 0.100395436725976 
1426	 0.100387511014681 
1427	 0.100381393718668 
1428	 0.100374520572607 
1429	 0.100372179283707 
1430	 0.100364299406923 
1431	 0.100347270621439 
1432	 0.100341935237672 
1433	 0.100346502717838 
1434	 0.100348910246514 
1435	 0.100353839197905 
1436	 0.100359350232429 
1437	 0.100360643047316 
1438	 0.100363647659845 
1439	 0.100365414039955 
1440	 0.100384737958717 
1441	 0.100388670288408 
1442	 0.100396201840294 
1443	 0.100413960281872 
1444	 0.100421446877958 
1445	 0.100434576039449 
1446	 0.100453933199596 
1447	 0.100465234407204 
1448	 0.100481249637026 
1449	 0.100491785581482 
1450	 0.100500716983094 
1451	 0.100519563764279 
1452	 0.100541691835288 
1453	 0.100559666895778 
1454	 0.100590068295769 
1455	 0.100606663016035 
1456	 0.100612292695565 
1457	 0.100623264329088 
1458	 0.10062784829461 
1459	 0.100636736903818 
1460	 0.100645301137809 
1461	 0.100662192184096 
1462	 0.100689886963827 
1463	 0.100710019420102 
1464	 0.100728426184332 
1465	 0.100750234970939 
1466	 0.100766917367801 
1467	 0.100790309650659 
1468	 0.100829402389584 
1469	 0.10085642486826 
1470	 0.100878607076448 
1471	 0.100893601648752 
1472	 0.100923681137231 
1473	 0.100959557224504 
1474	 0.100985390413178 
1475	 0.101016077983362 
1476	 0.101032395776944 
1477	 0.101039716942874 
1478	 0.101066695571699 
1479	 0.10109989124009 
1480	 0.101139526586963 
1481	 0.101182760007644 
1482	 0.10122100251994 
1483	 0.101259678407589 
1484	 0.10129807637518 
1485	 0.101334196453877 
1486	 0.1013676318198 
1487	 0.101398781277952 
1488	 0.10143070423443 
1489	 0.101464114268678 
1490	 0.10149377086273 
1491	 0.101517314247054 
1492	 0.101552285335054 
1493	 0.101594686167579 
1494	 0.101624041521302 
1495	 0.101651467770783 
1496	 0.101682878828257 
1497	 0.101704214836737 
1498	 0.101732403499601 
1499	 0.101777599605411 
1500	 0.101812349747209 
1501	 0.101842658732397 
1502	 0.101865744356913 
1503	 0.10188458924016 
1504	 0.101893292360373 
1505	 0.101905652564835 
1506	 0.101931221495483 
1507	 0.101960280800797 
1508	 0.101987578539931 
1509	 0.102018459433096 
1510	 0.102037394013728 
1511	 0.102049116608218 
1512	 0.102063750780437 
1513	 0.102079825851176 
1514	 0.102102490736088 
1515	 0.102130144907252 
1516	 0.102169547506872 
1517	 0.102199331135771 
1518	 0.102225849852466 
1519	 0.102252107393717 
1520	 0.102275725382187 
1521	 0.102297774169671 
1522	 0.102319412294116 
1523	 0.102333541298441 
1524	 0.102344509731512 
1525	 0.102357882544475 
1526	 0.102358578131956 
1527	 0.102380854009724 
1528	 0.102420114099137 
1529	 0.102443725966092 
1530	 0.102475386061264 
1531	 0.102494274037375 
1532	 0.102497070119697 
1533	 0.10250524748635 
1534	 0.102512952761676 
1535	 0.102522920132592 
1536	 0.102529519292273 
1537	 0.102537443039167 
1538	 0.102546666698403 
1539	 0.102556172816135 
1540	 0.102557868017221 
1541	 0.102577144544409 
1542	 0.102623943216985 
1543	 0.102644433372608 
1544	 0.10265713024429 
1545	 0.10267377312894 
1546	 0.102683353378799 
1547	 0.102671134457722 
1548	 0.102682060479472 
1549	 0.102713256617856 
1550	 0.102723944525006 
1551	 0.102738427257429 
1552	 0.102766455959075 
1553	 0.102767731581515 
1554	 0.10278247409745 
1555	 0.102811291443039 
1556	 0.102826982575975 
1557	 0.102855876798754 
1558	 0.102880033311276 
1559	 0.102893178216821 
1560	 0.102903076892645 
1561	 0.102907828323828 
1562	 0.102914354246783 
1563	 0.102911452085437 
1564	 0.102919086140092 
1565	 0.102932210577312 
1566	 0.102946895702209 
1567	 0.102967687706453 
1568	 0.102981466123461 
1569	 0.102999555762267 
1570	 0.103002269645254 
1571	 0.102991487963049 
1572	 0.102991204812303 
1573	 0.102985334492219 
1574	 0.102987448399932 
1575	 0.102996157428651 
1576	 0.103005208600723 
1577	 0.103018395141816 
1578	 0.103027621333562 
1579	 0.10304008281153 
1580	 0.103046696946452 
1581	 0.103042931379524 
1582	 0.103050270070252 
1583	 0.103063432369006 
1584	 0.103074916839618 
1585	 0.10309312342196 
1586	 0.103103310717312 
1587	 0.103105366029499 
1588	 0.10311134434526 
1589	 0.103117552588953 
1590	 0.103124356040018 
1591	 0.103133436182392 
1592	 0.103141544094154 
1593	 0.103148326987917 
1594	 0.103154936293146 
1595	 0.103162990110668 
1596	 0.103166930356543 
1597	 0.103174143396354 
1598	 0.103171758927723 
1599	 0.103153992664057 
1600	 0.103148738595528 
1601	 0.103136923246875 
1602	 0.10313623143203 
1603	 0.103160578956961 
1604	 0.103168743748179 
1605	 0.103174302389591 
1606	 0.103176910122072 
1607	 0.103178002862616 
1608	 0.103160782178299 
1609	 0.103141619401581 
1610	 0.103132802659117 
1611	 0.10312611903263 
1612	 0.103112286504013 
1613	 0.103108452047867 
1614	 0.103104998912297 
1615	 0.103102899294517 
1616	 0.103119057722245 
1617	 0.103129026618565 
1618	 0.103132482519248 
1619	 0.1031361201652 
1620	 0.103135732636912 
1621	 0.103141037952223 
1622	 0.10315658289903 
1623	 0.103159016347187 
1624	 0.103152334644173 
1625	 0.103156476164745 
1626	 0.103162801309552 
1627	 0.103163890532967 
1628	 0.103168956268034 
1629	 0.103169481940093 
1630	 0.103160235908387 
1631	 0.103160070153074 
1632	 0.103162047944865 
1633	 0.103173231956509 
1634	 0.103195876895696 
1635	 0.103199995946301 
1636	 0.103206803037417 
1637	 0.103202639088784 
1638	 0.103176072007567 
1639	 0.10316835102147 
1640	 0.103170714921447 
1641	 0.103162501614381 
1642	 0.103151040035523 
1643	 0.103144466897184 
1644	 0.103129489304526 
1645	 0.103131363395486 
1646	 0.103151349701985 
1647	 0.103155051731971 
1648	 0.103160288740925 
1649	 0.103160201784762 
1650	 0.103152214793471 
1651	 0.103141796304521 
1652	 0.103128830480885 
1653	 0.103116899164167 
1654	 0.103096670967627 
1655	 0.103084286904261 
1656	 0.103078166940257 
1657	 0.103070333126972 
1658	 0.103057919196682 
1659	 0.10305872761928 
1660	 0.103071185020425 
1661	 0.103074256686543 
1662	 0.103082058038125 
1663	 0.103085478992076 
1664	 0.103076666086057 
1665	 0.10308085320268 
1666	 0.103098099914381 
1667	 0.103101336041567 
1668	 0.103108537093872 
1669	 0.103098924214343 
1670	 0.103065763722892 
1671	 0.103052843225276 
1672	 0.103038018653857 
1673	 0.103030687963014 
1674	 0.103038647857887 
1675	 0.10303959996133 
1676	 0.103044796793347 
1677	 0.103035919879262 
1678	 0.103020583772227 
1679	 0.103005161616091 
1680	 0.102977558070279 
1681	 0.102956472568523 
1682	 0.102925433595879 
1683	 0.102926127137618 
1684	 0.10294879213649 
1685	 0.102957595248759 
1686	 0.102996268696768 
1687	 0.102997633228193 
1688	 0.102962226560087 
1689	 0.102946355514462 
1690	 0.102922494471245 
1691	 0.102911050064734 
1692	 0.102916901362729 
1693	 0.102905714569665 
1694	 0.102891027580859 
1695	 0.102876092667444 
1696	 0.102846865694524 
1697	 0.102831462525799 
1698	 0.10281339481036 
1699	 0.102823564529727 
1700	 0.102855375410701 
1701	 0.102880456359832 
1702	 0.102938243547687 
1703	 0.10295205016926 
1704	 0.102939251424889 
1705	 0.10293282530031 
1706	 0.102911585713246 
1707	 0.102891237973112 
1708	 0.102861816796881 
1709	 0.102849140082615 
1710	 0.102835810556337 
1711	 0.102834117965862 
1712	 0.102860073601525 
1713	 0.102862471768794 
1714	 0.102855720341756 
1715	 0.102844812320747 
1716	 0.102816504917313 
1717	 0.102813321217679 
1718	 0.102835252568057 
1719	 0.102820207785714 
1720	 0.102787011733056 
1721	 0.102780040512084 
1722	 0.102759513824034 
1723	 0.102745076447739 
1724	 0.102771228920906 
1725	 0.102757802886334 
1726	 0.102706320927418 
1727	 0.102683750869129 
1728	 0.102670022298803 
1729	 0.102642314263401 
1730	 0.102605896821065 
1731	 0.10259540293739 
1732	 0.102599441896835 
1733	 0.102580354517257 
1734	 0.102576225266573 
1735	 0.1025469429085 
1736	 0.102469452892601 
1737	 0.102439693237181 
1738	 0.102434908006107 
1739	 0.102409768090692 
1740	 0.102394795181529 
1741	 0.102368606984013 
1742	 0.10232106665182 
1743	 0.102298768373051 
1744	 0.102285310687867 
1745	 0.102270244189093 
1746	 0.102269183723271 
1747	 0.10226636128988 
1748	 0.102246462440448 
1749	 0.10222948890945 
1750	 0.102199949430311 
1751	 0.102168586665112 
1752	 0.102151092825977 
1753	 0.102102703929836 
1754	 0.102052573575748 
1755	 0.102022061822745 
1756	 0.101973514414398 
1757	 0.101977511298595 
1758	 0.101996586294347 
1759	 0.10195946711943 
1760	 0.101941507277824 
1761	 0.101936108935365 
1762	 0.101918400114215 
1763	 0.101915813139065 
1764	 0.101894317084323 
1765	 0.101848924009239 
1766	 0.101790742342751 
1767	 0.101746828933681 
1768	 0.101738668020698 
1769	 0.101718028808014 
1770	 0.101701845375674 
1771	 0.101688031670061 
1772	 0.101666883464694 
1773	 0.101644411784557 
1774	 0.101591143115358 
1775	 0.101534290295421 
1776	 0.101496110741541 
1777	 0.101478806675471 
1778	 0.101470983710838 
1779	 0.101452396133041 
1780	 0.101441640830014 
1781	 0.101430521781838 
1782	 0.10141528379133 
1783	 0.10143074687254 
1784	 0.101406952284929 
1785	 0.101335332422208 
1786	 0.101305923815182 
1787	 0.10127850315686 
1788	 0.10125842667464 
1789	 0.101275565640707 
1790	 0.101273947143748 
1791	 0.101256946092468 
1792	 0.101247800698275 
1793	 0.101236372576689 
1794	 0.101227542157529 
1795	 0.101227568277429 
1796	 0.101216923454555 
1797	 0.101192024347677 
1798	 0.101204597887115 
1799	 0.101231175434586 
1800	 0.101250137320116 
1801	 9.69806746056922E-02 
1802	 9.70208479712254E-02 
1803	 9.70528905146302E-02 
1804	 9.70893705283037E-02 
1805	 9.71590555901425E-02 
1806	 9.72203124643804E-02 
1807	 9.72808770802739E-02 
1808	 9.73188017332975E-02 
1809	 9.73290833330522E-02 
1810	 9.73338782522684E-02 
1811	 9.73253444035482E-02 
1812	 9.73147552578833E-02 
1813	 9.73107720821441E-02 
1814	 9.73163784479881E-02 
1815	 9.73363846382736E-02 
1816	 9.73916070507586E-02 
1817	 0.097418901302831 
1818	 0.09743829703251 
1819	 0.097455860254393 
1820	 9.74749886241315E-02 
1821	 9.74624483977996E-02 
1822	 9.74737079704147E-02 
1823	 9.74909460145778E-02 
1824	 9.74950698719759E-02 
1825	 9.75221812346754E-02 
1826	 0.097532742525081 
1827	 9.75371269669683E-02 
1828	 0.097552499124611 
1829	 0.097586053680128 
1830	 9.75915520597242E-02 
1831	 9.75905329107741E-02 
1832	 0.097582526745586 
1833	 9.75622143026163E-02 
1834	 9.75510748576105E-02 
1835	 9.75530501875536E-02 
1836	 9.75496732940232E-02 
1837	 9.75695416136465E-02 
1838	 9.75884065233883E-02 
1839	 9.75953771954556E-02 
1840	 9.75935342692161E-02 
1841	 9.76156104899677E-02 
1842	 9.76305742191523E-02 
1843	 9.76308314399137E-02 
1844	 9.76402196858736E-02 
1845	 9.76415781224498E-02 
1846	 9.76199713623447E-02 
1847	 9.75877553378859E-02 
1848	 9.75599421484392E-02 
1849	 9.75393586626089E-02 
1850	 9.75218549311202E-02 
1851	 9.75068315561165E-02 
1852	 9.75086661307502E-02 
1853	 9.75020527693933E-02 
1854	 9.74953568602566E-02 
1855	 9.75186365816366E-02 
1856	 9.75024852617927E-02 
1857	 0.097454826550868 
1858	 9.74109398605779E-02 
1859	 9.73437845118545E-02 
1860	 9.72821640748649E-02 
1861	 9.72140468540463E-02 
1862	 9.71745025909598E-02 
1863	 9.71175556260557E-02 
1864	 9.70568990645873E-02 
1865	 9.70095966739034E-02 
1866	 9.69261310966593E-02 
1867	 9.68451783533779E-02 
1868	 0.09678587268469 
1869	 0.096704730807994 
1870	 9.66351908496069E-02 
1871	 9.65477929784142E-02 
1872	 9.64641127956318E-02 
1873	 9.63383474844392E-02 
1874	 9.62046247737799E-02 
1875	 9.60547958221881E-02 
1876	 9.59001665298334E-02 
1877	 9.57353262559857E-02 
1878	 9.55488761118578E-02 
1879	 9.53635574077282E-02 
1880	 0.095169726372806 
1881	 9.49698017152973E-02 
1882	 9.47566950873866E-02 
1883	 9.45434660759972E-02 
1884	 9.42961803237642E-02 
1885	 0.094037147014776 
1886	 9.37570688454806E-02 
1887	 9.34421731145951E-02 
1888	 9.31305092227764E-02 
1889	 9.28038037852723E-02 
1890	 9.24546774652323E-02 
1891	 9.21011786828582E-02 
1892	 9.17289559354798E-02 
1893	 9.13642547324345E-02 
1894	 9.09976138200856E-02 
1895	 9.06252823370303E-02 
1896	 9.02402952878629E-02 
1897	 0.089858214106605 
1898	 8.94450517690949E-02 
1899	 8.90315111386113E-02 
1900	 8.86451372896035E-02 
1901	 8.82620226699344E-02 
1902	 8.78939839262225E-02 
1903	 8.75453421742846E-02 
1904	 0.087204069177552 
1905	 0.086864583562424 
1906	 8.65542491043052E-02 
1907	 8.62590603620776E-02 
1908	 8.59936041296143E-02 
1909	 8.57451844609426E-02 
1910	 8.54821617331452E-02 
1911	 8.52390720740474E-02 
1912	 8.49960413161694E-02 
1913	 8.47790520491814E-02 
1914	 8.45865196765139E-02 
1915	 8.44068454626137E-02 
1916	 0.084246102395132 
1917	 8.40957897210449E-02 
1918	 0.083950525078095 
1919	 8.37941034636291E-02 
1920	 8.36606103499371E-02 
1921	 8.35449846328203E-02 
1922	 8.34442074434421E-02 
1923	 8.33651415535796E-02 
1924	 8.32888865411547E-02 
1925	 8.32263799811813E-02 
1926	 8.31623019216789E-02 
1927	 8.31034761057306E-02 
1928	 8.30455409841574E-02 
1929	 8.29971901000762E-02 
1930	 8.29709971132953E-02 
1931	 8.29613125349331E-02 
1932	 8.29585331962314E-02 
1933	 8.29504294638556E-02 
1934	 8.29514494069407E-02 
1935	 8.29611204862389E-02 
1936	 8.29766687195876E-02 
1937	 8.29944557770076E-02 
1938	 0.083025765552277 
1939	 8.30514964570767E-02 
1940	 8.30750308293548E-02 
1941	 8.30969173193819E-02 
1942	 8.31212132517593E-02 
1943	 8.31672323951739E-02 
1944	 8.32059164515336E-02 
1945	 8.32627470655629E-02 
1946	 8.33184837656073E-02 
1947	 8.33865205936548E-02 
1948	 0.083437094675415 
1949	 0.083477103517172 
1950	 0.083527751043557 
1951	 8.35696996298993E-02 
1952	 0.083630029352314 
1953	 8.36974795136386E-02 
1954	 8.37724303690431E-02 
1955	 8.38433019099091E-02 
1956	 8.39221675421265E-02 
1957	 0.084020551191178 
1958	 8.41424225932235E-02 
1959	 8.42498436748896E-02 
1960	 8.43744798479565E-02 
1961	 8.44835287598975E-02 
1962	 0.084577814711714 
1963	 8.46756179344601E-02 
1964	 8.47729287893848E-02 
1965	 8.48616114735729E-02 
1966	 0.084972250048681 
1967	 8.50676756719471E-02 
1968	 8.51730430910477E-02 
1969	 0.085291541689024 
1970	 8.54062449210756E-02 
1971	 8.55250949448791E-02 
1972	 8.56355962146057E-02 
1973	 8.57331463200622E-02 
1974	 8.58422796414288E-02 
1975	 8.59450789267804E-02 
1976	 8.60621222127204E-02 
1977	 8.61851253827677E-02 
1978	 8.63428270294326E-02 
1979	 8.64767226552474E-02 
1980	 8.65867229440579E-02 
1981	 8.67024412865131E-02 
1982	 8.67952451919966E-02 
1983	 8.69133720235752E-02 
1984	 8.70487346690928E-02 
1985	 8.71730501403635E-02 
1986	 8.73147625181313E-02 
1987	 8.74363644783542E-02 
1988	 8.75368009332434E-02 
1989	 0.087642274475761 
1990	 8.77654557127473E-02 
1991	 0.087854658956676 
1992	 8.79661950338435E-02 
1993	 8.80984321882878E-02 
1994	 8.82083019404042E-02 
1995	 8.83040520323274E-02 
1996	 8.84132534271606E-02 
1997	 8.85207198993893E-02 
1998	 8.86272129999026E-02 
1999	 8.87423040011411E-02 
2000	 0.088856094001207 
2001	 8.89700293847051E-02 
2002	 8.90691999562713E-02 
2003	 8.91829198541794E-02 
2004	 8.93103559217302E-02 
2005	 8.94313058881796E-02 
2006	 8.95563147526486E-02 
2007	 8.96781773186106E-02 
2008	 8.98042745527417E-02 
2009	 8.99125985427108E-02 
2010	 9.00097012760299E-02 
2011	 0.090115328061882 
2012	 9.02086613945731E-02 
2013	 9.03110204943635E-02 
2014	 9.04278734776499E-02 
2015	 9.05382589984522E-02 
2016	 9.06304498757368E-02 
2017	 9.07368443220288E-02 
2018	 9.08382698192049E-02 
2019	 9.09301321604871E-02 
2020	 9.10336700988506E-02 
2021	 9.11529007588917E-02 
2022	 9.12546707475374E-02 
2023	 9.13523517702256E-02 
2024	 9.14493064222535E-02 
2025	 9.15403823665328E-02 
2026	 9.16278211856429E-02 
2027	 9.17047381618014E-02 
2028	 9.17961653495844E-02 
2029	 9.18880015101521E-02 
2030	 9.19778460265722E-02 
2031	 9.20634621205293E-02 
2032	 9.21518696574352E-02 
2033	 9.22470142878076E-02 
2034	 9.23381366782019E-02 
2035	 9.24331588608572E-02 
2036	 9.25449308222105E-02 
2037	 9.26436694370175E-02 
2038	 9.27426051942955E-02 
2039	 9.28244438226793E-02 
2040	 9.28918896495196E-02 
2041	 9.29626182042861E-02 
2042	 9.30190320790523E-02 
2043	 9.30853173632772E-02 
2044	 0.093150867891155 
2045	 9.32271481991026E-02 
2046	 9.32915642020492E-02 
2047	 9.33456768346138E-02 
2048	 9.34092042843035E-02 
2049	 9.34798181712817E-02 
2050	 9.35409792963127E-02 
2051	 0.093594434042164 
2052	 9.36563127154083E-02 
2053	 9.37210320293081E-02 
2054	 9.37802014046306E-02 
2055	 9.38289748174223E-02 
2056	 9.39035827419048E-02 
2057	 9.39761535762284E-02 
2058	 9.40505371747327E-02 
2059	 9.41125936809195E-02 
2060	 9.41818074949907E-02 
2061	 9.42468372607109E-02 
2062	 9.42895737702928E-02 
2063	 9.43479410565005E-02 
2064	 9.44276350951074E-02 
2065	 0.094491152099504 
2066	 9.45344884941689E-02 
2067	 0.094601143612107 
2068	 9.46863654644857E-02 
2069	 9.47540059718158E-02 
2070	 9.48253897723698E-02 
2071	 0.094912524560929 
2072	 9.49773137325453E-02 
2073	 9.50277469478385E-02 
2074	 9.50731583299508E-02 
2075	 0.09511095067896 
2076	 9.51468075663949E-02 
2077	 0.095153375945261 
2078	 9.51986106775371E-02 
2079	 9.52617036466516E-02 
2080	 9.53252377084456E-02 
2081	 9.54216454785735E-02 
2082	 9.54973721297743E-02 
2083	 9.55597107169086E-02 
2084	 9.56285404554847E-02 
2085	 9.56885399191578E-02 
2086	 9.57501066152573E-02 
2087	 9.57835240825251E-02 
2088	 9.57879325913965E-02 
2089	 9.58254204273945E-02 
2090	 9.58496535835059E-02 
2091	 0.095895442403504 
2092	 0.095981314841787 
2093	 9.60444045067494E-02 
2094	 9.61000431206724E-02 
2095	 9.61548532742313E-02 
2096	 9.62145722092223E-02 
2097	 9.62634440253488E-02 
2098	 9.62944410791513E-02 
2099	 9.63292883957591E-02 
2100	 9.63923820485905E-02 
2101	 9.64653536762416E-02 
2102	 9.65362475733964E-02 
2103	 9.66389692704072E-02 
2104	 9.67142672262451E-02 
2105	 9.67687087054107E-02 
2106	 9.68306697804437E-02 
2107	 0.096898643876382 
2108	 0.096954340628469 
2109	 9.69990501600165E-02 
2110	 9.70483049119842E-02 
2111	 9.70890700255423E-02 
2112	 0.097135046189715 
2113	 9.71837589878252E-02 
2114	 9.72385298667764E-02 
2115	 0.097284998785333 
2116	 9.73280465536056E-02 
2117	 9.73768123973424E-02 
2118	 9.74213813203102E-02 
2119	 9.74749161332669E-02 
2120	 9.75411187729855E-02 
2121	 9.75964491959914E-02 
2122	 0.097647658235325 
2123	 9.77038663127075E-02 
2124	 9.77668770373527E-02 
2125	 9.78146879588101E-02 
2126	 9.78596375346301E-02 
2127	 9.79007738952419E-02 
2128	 9.79243308176602E-02 
2129	 9.79537890710505E-02 
2130	 9.79828499947348E-02 
2131	 9.80153922790879E-02 
2132	 9.80548589123805E-02 
2133	 9.81031375452055E-02 
2134	 9.81328267196026E-02 
2135	 9.81677049013684E-02 
2136	 9.81857719204827E-02 
2137	 9.81892421483251E-02 
2138	 9.81820921603753E-02 
2139	 9.81616025411178E-02 
2140	 9.81435629903595E-02 
2141	 9.81050440650307E-02 
2142	 9.80800413040477E-02 
2143	 9.80780676617035E-02 
2144	 0.098051397439861 
2145	 9.80029842427448E-02 
2146	 9.79681045129873E-02 
2147	 9.79248368892869E-02 
2148	 9.78829144055263E-02 
2149	 9.78563129976596E-02 
2150	 9.78567026716789E-02 
2151	 9.78294413681425E-02 
2152	 9.77939518235972E-02 
2153	 9.77628253029948E-02 
2154	 9.77338560634494E-02 
2155	 0.097683520710493 
2156	 9.76240684595762E-02 
2157	 9.75669503230222E-02 
2158	 9.74958447390022E-02 
2159	 9.74208494106218E-02 
2160	 9.73548011019044E-02 
2161	 9.72748670821056E-02 
2162	 9.71574107983041E-02 
2163	 9.70695412192928E-02 
2164	 9.69972195999596E-02 
2165	 9.69154957642454E-02 
2166	 9.68619897922279E-02 
2167	 9.68520706414622E-02 
2168	 9.67791535869282E-02 
2169	 9.66889740786189E-02 
2170	 9.66055625437654E-02 
2171	 9.64731154837162E-02 
2172	 9.63948692958147E-02 
2173	 9.63597143702676E-02 
2174	 9.63053593218342E-02 
2175	 9.62661769299616E-02 
2176	 9.62119516804495E-02 
2177	 9.61509551273323E-02 
2178	 9.60818590908094E-02 
2179	 9.60052130335478E-02 
2180	 9.59227639696666E-02 
2181	 0.09581314331745 
2182	 9.57300323470922E-02 
2183	 9.56586052362252E-02 
2184	 9.55922113490224E-02 
2185	 9.55208032888195E-02 
2186	 9.54645068147063E-02 
2187	 0.095396413203704 
2188	 9.53074045785838E-02 
2189	 9.52455009576744E-02 
2190	 9.52018262775883E-02 
2191	 9.51504577078044E-02 
2192	 9.51092470708254E-02 
2193	 9.50553194309449E-02 
2194	 9.49980588155455E-02 
2195	 9.49325898350959E-02 
2196	 9.48464870813039E-02 
2197	 9.47844347645435E-02 
2198	 9.47184159441412E-02 
2199	 9.46690348244435E-02 
2200	 9.46602982742779E-02 
2201	 9.46264103115732E-02 
2202	 9.45647924428509E-02 
2203	 9.45394739175169E-02 
2204	 9.45180453082304E-02 
2205	 9.44851286151566E-02 
2206	 9.44822869901028E-02 
2207	 9.45240469982927E-02 
2208	 9.45294344598143E-02 
2209	 9.45316047141101E-02 
2210	 9.45294988546087E-02 
2211	 9.45180244632246E-02 
2212	 9.45029448758368E-02 
2213	 9.44736431730019E-02 
2214	 0.094462816482639 
2215	 9.44556565002435E-02 
2216	 9.44484697522456E-02 
2217	 9.44562034392136E-02 
2218	 9.44599030298394E-02 
2219	 9.44575250262549E-02 
2220	 9.44578869945554E-02 
2221	 9.44629663985348E-02 
2222	 9.44615809073045E-02 
2223	 9.44830946864552E-02 
2224	 0.094502831284198 
2225	 9.45162299378737E-02 
2226	 9.45402775193638E-02 
2227	 9.45522408712409E-02 
2228	 0.094540966549847 
2229	 9.45531233146536E-02 
2230	 9.45790281300897E-02 
2231	 9.46008254717804E-02 
2232	 9.46320299263644E-02 
2233	 9.46515329319909E-02 
2234	 9.46567565945999E-02 
2235	 9.46796184908563E-02 
2236	 9.47074858249121E-02 
2237	 9.47369149116769E-02 
2238	 9.48039084763983E-02 
2239	 9.48202508330061E-02 
2240	 9.47943592545655E-02 
2241	 9.47891935256649E-02 
2242	 9.47586724426312E-02 
2243	 9.47443179383774E-02 
2244	 0.094746747349782 
2245	 9.47577289190891E-02 
2246	 9.47759450984614E-02 
2247	 9.47791682821915E-02 
2248	 9.47989676931066E-02 
2249	 9.48364605087545E-02 
2250	 9.48630176929033E-02 
2251	 0.094900371615966 
2252	 9.49063128819729E-02 
2253	 9.48980062614283E-02 
2254	 9.48813819683356E-02 
2255	 9.48192003450442E-02 
2256	 9.48106231325948E-02 
2257	 9.48294991684625E-02 
2258	 9.48351617299123E-02 
2259	 9.48574856179019E-02 
2260	 9.48806949064961E-02 
2261	 9.48980583926335E-02 
2262	 9.49173853554801E-02 
2263	 9.49519752674493E-02 
2264	 9.49737369107102E-02 
2265	 9.49963432903541E-02 
2266	 9.50008893736866E-02 
2267	 9.49759244176143E-02 
2268	 9.49786933520386E-02 
2269	 9.50138090848325E-02 
2270	 9.49753572672914E-02 
2271	 9.49597850682732E-02 
2272	 9.49986745029739E-02 
2273	 9.50132903034783E-02 
2274	 0.09505879252685 
2275	 9.50893906672331E-02 
2276	 9.51402249678835E-02 
2277	 9.51711195699828E-02 
2278	 9.51851547757087E-02 
2279	 9.51949065399866E-02 
2280	 9.52105355010044E-02 
2281	 9.52097352434349E-02 
2282	 9.51881230577194E-02 
2283	 9.51774516868462E-02 
2284	 9.51555505302153E-02 
2285	 9.51592700700428E-02 
2286	 9.51787645096777E-02 
2287	 9.51819563361159E-02 
2288	 9.51896231451317E-02 
2289	 9.52025272437063E-02 
2290	 0.095194410063841 
2291	 9.52175901176261E-02 
2292	 0.095287647371753 
2293	 9.53233625074579E-02 
2294	 9.53620693679467E-02 
2295	 9.53825667668388E-02 
2296	 9.53799175630256E-02 
2297	 9.53623462439307E-02 
2298	 9.53661853356455E-02 
2299	 9.53668675506814E-02 
2300	 9.53297695395081E-02 
2301	 9.52974118759977E-02 
2302	 9.52823278856496E-02 
2303	 9.52403546849898E-02 
2304	 9.52041864609273E-02 
2305	 9.52302504782378E-02 
2306	 9.52317009598613E-02 
2307	 9.52338070860724E-02 
2308	 9.52149756443107E-02 
2309	 0.095196349685339 
2310	 9.51666167355779E-02 
2311	 9.50972649606141E-02 
2312	 9.50610465289709E-02 
2313	 9.50397707173765E-02 
2314	 9.50171768869184E-02 
2315	 0.094984533695213 
2316	 0.094990180782338 
2317	 0.095053401076947 
2318	 9.50634540624296E-02 
2319	 9.50728865355289E-02 
2320	 9.50754017883423E-02 
2321	 9.50060639648844E-02 
2322	 9.49929890967725E-02 
2323	 9.50406024667613E-02 
2324	 9.50519943254513E-02 
2325	 9.50642519006312E-02 
2326	 9.50766890174019E-02 
2327	 9.50922334378463E-02 
2328	 9.50578497090452E-02 
2329	 9.50367144797569E-02 
2330	 9.50525516481383E-02 
2331	 0.095031885307442 
2332	 9.50419829572444E-02 
2333	 9.50678326317878E-02 
2334	 9.50748197172892E-02 
2335	 9.51438455666099E-02 
2336	 9.51989255236567E-02 
2337	 9.51943847945531E-02 
2338	 9.52028131344923E-02 
2339	 0.095172890447881 
2340	 9.51066087226136E-02 
2341	 9.51079727785791E-02 
2342	 9.51053928112102E-02 
2343	 9.50557914031202E-02 
2344	 0.095040909528532 
2345	 9.50233771731707E-02 
2346	 9.49853798954123E-02 
2347	 9.49779457718744E-02 
2348	 9.50227133623978E-02 
2349	 9.50027341586697E-02 
2350	 9.49509713883757E-02 
2351	 9.49270819698649E-02 
2352	 0.094885448819559 
2353	 9.48495582943945E-02 
2354	 9.48442268278387E-02 
2355	 9.48309265340565E-02 
2356	 9.47943328624185E-02 
2357	 9.47479745270387E-02 
2358	 9.47112052832449E-02 
2359	 9.46576254882318E-02 
2360	 9.45852590008111E-02 
2361	 9.45333591426628E-02 
2362	 9.44759025078665E-02 
2363	 9.44359178550501E-02 
2364	 9.43935405503718E-02 
2365	 9.43629489002308E-02 
2366	 9.43729590991438E-02 
2367	 9.43524391568326E-02 
2368	 9.43271147282188E-02 
2369	 9.43032018100597E-02 
2370	 9.42798714100401E-02 
2371	 0.094211703795457 
2372	 9.41960870597964E-02 
2373	 9.41786298432389E-02 
2374	 9.41031478254865E-02 
2375	 9.40629353514122E-02 
2376	 9.40340373843813E-02 
2377	 9.39886138871118E-02 
2378	 9.39865551592356E-02 
2379	 0.093969707636488 
2380	 9.38930349662855E-02 
2381	 9.37922901776528E-02 
2382	 9.36512166455083E-02 
2383	 9.35901441465557E-02 
2384	 9.35562822963186E-02 
2385	 9.34998383192221E-02 
2386	 0.093512385037308 
2387	 9.34987482540354E-02 
2388	 9.34163702743305E-02 
2389	 9.32946659029167E-02 
2390	 9.32032057211004E-02 
2391	 9.31171352946596E-02 
2392	 9.30344168934869E-02 
2393	 9.29881925723113E-02 
2394	 9.29667953159256E-02 
2395	 9.29229375911351E-02 
2396	 9.28373174036849E-02 
2397	 9.28239049164088E-02 
2398	 9.27430182004533E-02 
2399	 9.25680742283785E-02 
2400	 0.092562512196114 
2401	 9.25749610970038E-02 
2402	 9.24957458177979E-02 
2403	 9.24810814904919E-02 
2404	 9.23639552770304E-02 
2405	 9.21693318210017E-02 
2406	 9.19950637010656E-02 
2407	 0.091823635467944 
2408	 9.18171274399783E-02 
2409	 9.18356531916803E-02 
2410	 9.18396670312154E-02 
2411	 9.19372838000906E-02 
2412	 9.19205844936763E-02 
2413	 9.18670462652798E-02 
2414	 9.18555171004242E-02 
2415	 9.17186230127232E-02 
2416	 9.16061478849915E-02 
2417	 9.14289641902333E-02 
2418	 9.13042408269521E-02 
2419	 9.12422603886648E-02 
2420	 9.11402486157841E-02 
2421	 9.10151982498707E-02 
2422	 9.09470332116747E-02 
2423	 9.08581531209412E-02 
2424	 9.08012843515121E-02 
2425	 9.08210541900894E-02 
2426	 9.07289357554637E-02 
2427	 9.06269913260959E-02 
2428	 9.04811774247274E-02 
2429	 9.02297420713919E-02 
2430	 9.01292979315059E-02 
2431	 9.00734426956333E-02 
2432	 8.99622442853752E-02 
2433	 8.99107863838156E-02 
2434	 8.98373970663885E-02 
2435	 0.089711437512394 
2436	 8.95783470976034E-02 
2437	 8.94620789022013E-02 
2438	 8.93173145201708E-02 
2439	 8.90821304274807E-02 
2440	 8.89663090140765E-02 
2441	 8.89955297650504E-02 
2442	 8.88772753711867E-02 
2443	 8.86865059158504E-02 
2444	 8.85356533441886E-02 
2445	 8.82589184328213E-02 
2446	 8.81546974624005E-02 
2447	 8.82271716281015E-02 
2448	 8.82363439652564E-02 
2449	 8.83420342482316E-02 
2450	 8.82969062108981E-02 
2451	 8.81594147057218E-02 
2452	 8.80532599922305E-02 
2453	 8.77856362227999E-02 
2454	 8.77049112499593E-02 
2455	 8.77628579809214E-02 
2456	 8.77730439915001E-02 
2457	 8.79072474348914E-02 
2458	 8.79258502052282E-02 
2459	 8.78193431061934E-02 
2460	 8.77735485921161E-02 
2461	 0.087753350436745 
2462	 8.76355230635655E-02 
2463	 8.75064081675523E-02 
2464	 8.73907055778279E-02 
2465	 8.71512652800201E-02 
2466	 0.087058948008865 
2467	 0.087104738168867 
2468	 8.70339110358643E-02 
2469	 8.69143853021311E-02 
2470	 8.68749458683517E-02 
2471	 8.68743509969489E-02 
2472	 8.68944844959427E-02 
2473	 0.086725243829337 
2474	 8.63696818505936E-02 
2475	 8.60482778148594E-02 
2476	 8.58110299954015E-02 
2477	 8.58941814758744E-02 
2478	 8.60243530151526E-02 
2479	 0.086090612084076 
2480	 8.61670272380774E-02 
2481	 8.60643465294269E-02 
2482	 8.61291747027415E-02 
2483	 8.61266946103209E-02 
2484	 8.59351667967986E-02 
2485	 8.59010059490647E-02 
2486	 8.56777836449177E-02 
2487	 8.53504890629759E-02 
2488	 8.51948733703417E-02 
2489	 8.49009759664303E-02 
2490	 8.46613095376846E-02 
2491	 8.47130010238262E-02 
2492	 8.47064378336096E-02 
2493	 8.46562334950003E-02 
2494	 8.46945532263435E-02 
2495	 8.47544044510951E-02 
2496	 8.47546332318711E-02 
2497	 8.47172405582129E-02 
2498	 8.48111552469754E-02 
2499	 8.47059496966719E-02 
2500	 8.45533233043481E-02 
