Wavelength	MM_3100006.asd
350	 6.07876301370988E-02 
351	 5.78492986213612E-02 
352	 4.67238354662231E-02 
353	 3.80029234053757E-02 
354	 4.52358968556636E-02 
355	 4.60246488441021E-02 
356	 4.23544649770515E-02 
357	 4.18765057155807E-02 
358	 4.84984989060907E-02 
359	 4.72852373542258E-02 
360	 0.04078672898157 
361	 4.20845617647733E-02 
362	 4.59151292477796E-02 
363	 4.82894698650224E-02 
364	 4.81991934287338E-02 
365	 0.049016722857809 
366	 4.88940434991005E-02 
367	 4.90029162652399E-02 
368	 5.01294139196264E-02 
369	 4.81485078875874E-02 
370	 4.91253911019533E-02 
371	 5.19670411669689E-02 
372	 5.11092934611398E-02 
373	 5.06445617896491E-02 
374	 5.06860712564792E-02 
375	 5.13869746280962E-02 
376	 5.41193429529161E-02 
377	 5.46104805357765E-02 
378	 5.47788183376017E-02 
379	 5.69561230414024E-02 
380	 5.68893464406471E-02 
381	 5.54015898046033E-02 
382	 5.56901129180011E-02 
383	 6.12468786350746E-02 
384	 5.75903823704654E-02 
385	 5.33891414258585E-02 
386	 5.51753383858294E-02 
387	 5.94505789261423E-02 
388	 6.02095276518748E-02 
389	 5.94363758341425E-02 
390	 6.06439494187224E-02 
391	 6.01532442307329E-02 
392	 0.060163684912874 
393	 0.061205691762306 
394	 6.22047930880023E-02 
395	 6.31114217394961E-02 
396	 6.40989766923191E-02 
397	 6.48085788668708E-02 
398	 6.32886133896045E-02 
399	 6.36100654372697E-02 
400	 0.065064101698967 
401	 6.54894340810898E-02 
402	 6.57448426297486E-02 
403	 6.56343427048282E-02 
404	 6.55900494272655E-02 
405	 6.66337567342047E-02 
406	 0.066918563801602 
407	 0.067311516093998 
408	 6.80433267250909E-02 
409	 6.60853187511574E-02 
410	 6.50323840211915E-02 
411	 6.58169105682226E-02 
412	 6.76735094609121E-02 
413	 6.79350639871468E-02 
414	 6.85601986121053E-02 
415	 6.97617135376225E-02 
416	 6.89832348278588E-02 
417	 6.91035752133534E-02 
418	 6.96308095355028E-02 
419	 6.96895059820254E-02 
420	 0.070169159951718 
421	 6.98390803553336E-02 
422	 6.94005049934688E-02 
423	 7.04935939417325E-02 
424	 7.05177612653864E-02 
425	 7.03446586384513E-02 
426	 7.05740859927377E-02 
427	 7.05001243007016E-02 
428	 7.02136261502998E-02 
429	 7.01170606884785E-02 
430	 7.05050115665333E-02 
431	 7.06285562597809E-02 
432	 7.04486925660509E-02 
433	 7.03559622434225E-02 
434	 7.10381862568088E-02 
435	 7.11022045112647E-02 
436	 7.08292886394801E-02 
437	 0.070741581144172 
438	 7.11115531385834E-02 
439	 7.13204366091195E-02 
440	 7.14263528545584E-02 
441	 7.17679165319985E-02 
442	 7.19406206173387E-02 
443	 7.20769481550983E-02 
444	 7.21713557691815E-02 
445	 7.19001513894374E-02 
446	 7.21698505152151E-02 
447	 7.25213812337539E-02 
448	 7.24300508294453E-02 
449	 7.29218365918532E-02 
450	 0.073280535976915 
451	 7.33938910583216E-02 
452	 7.36759463509949E-02 
453	 7.36335530150585E-02 
454	 7.36492498805545E-02 
455	 7.40087419191345E-02 
456	 7.44750175069723E-02 
457	 7.44306377080654E-02 
458	 7.42040646041818E-02 
459	 7.44634913813672E-02 
460	 0.074746524015967 
461	 7.47068226895159E-02 
462	 7.44951184682507E-02 
463	 7.49285971473702E-02 
464	 7.53048189781162E-02 
465	 7.54972178603838E-02 
466	 7.55801872191169E-02 
467	 7.57645393499371E-02 
468	 7.58315961859785E-02 
469	 7.58466558996843E-02 
470	 7.60783713851062E-02 
471	 7.60829964308739E-02 
472	 7.61489646316026E-02 
473	 7.64331970249653E-02 
474	 7.64913836027267E-02 
475	 7.65584468986531E-02 
476	 7.66933538247395E-02 
477	 7.68648624043084E-02 
478	 7.69334161977098E-02 
479	 7.70927426833804E-02 
480	 7.73342481745655E-02 
481	 7.73298596836565E-02 
482	 7.74750526916327E-02 
483	 7.77532974175497E-02 
484	 7.80194562265696E-02 
485	 0.078119065774264 
486	 7.82205238802525E-02 
487	 7.83284594603661E-02 
488	 7.83231912454245E-02 
489	 7.85026996862719E-02 
490	 7.86827422413863E-02 
491	 7.87216434262875E-02 
492	 7.87857149819204E-02 
493	 7.88810317552754E-02 
494	 0.078931700628499 
495	 7.88844285040613E-02 
496	 7.92236068546283E-02 
497	 7.94567444986851E-02 
498	 7.94017136272047E-02 
499	 7.94631473936127E-02 
500	 7.95541335740651E-02 
501	 7.96282625499724E-02 
502	 7.96564095944523E-02 
503	 7.96761665650019E-02 
504	 7.96592757197833E-02 
505	 7.96795519022243E-02 
506	 7.98878680405943E-02 
507	 7.99958228044752E-02 
508	 8.01890453363316E-02 
509	 8.04962908454457E-02 
510	 8.02332210773727E-02 
511	 8.01831598478644E-02 
512	 0.080315537719071 
513	 8.02224792306204E-02 
514	 8.03491546515998E-02 
515	 8.05007767606918E-02 
516	 8.05822613870605E-02 
517	 8.08075678646739E-02 
518	 8.08042615439079E-02 
519	 8.07557798507718E-02 
520	 8.09138217570445E-02 
521	 8.08535825846699E-02 
522	 8.07972623550802E-02 
523	 8.08863920970612E-02 
524	 8.11343229960423E-02 
525	 8.11119205132311E-02 
526	 8.10473853775673E-02 
527	 8.11742945324881E-02 
528	 8.12482567945856E-02 
529	 8.12692146377186E-02 
530	 8.13017541959146E-02 
531	 8.14300933143882E-02 
532	 8.14005305606352E-02 
533	 8.14220336587748E-02 
534	 0.081594201648437 
535	 8.16611379278363E-02 
536	 8.16883180137363E-02 
537	 8.16764385248763E-02 
538	 8.16369023823052E-02 
539	 8.17684450664248E-02 
540	 8.19011964051228E-02 
541	 8.19335421881968E-02 
542	 8.18894403374827E-02 
543	 8.19214912963449E-02 
544	 8.20025391860306E-02 
545	 8.20737088235621E-02 
546	 8.21930006187488E-02 
547	 8.22507601992164E-02 
548	 8.22435432266704E-02 
549	 8.22595640287071E-02 
550	 8.22798144115374E-02 
551	 8.23441310407809E-02 
552	 8.24606781653682E-02 
553	 8.25412561914449E-02 
554	 8.25772270690457E-02 
555	 8.26104309133993E-02 
556	 8.27037045648441E-02 
557	 8.28226015572347E-02 
558	 8.29342562851299E-02 
559	 8.30351292089642E-02 
560	 8.31793672655008E-02 
561	 0.083227162142715 
562	 8.32475116706333E-02 
563	 8.33511252861723E-02 
564	 8.34484911233631E-02 
565	 8.34657070765564E-02 
566	 8.34288870255759E-02 
567	 8.34714456235264E-02 
568	 8.36077414243837E-02 
569	 8.37876984632623E-02 
570	 8.39608291785757E-02 
571	 0.084152498343425 
572	 8.43020806467328E-02 
573	 8.44155599648263E-02 
574	 8.45440659583108E-02 
575	 8.46520053553323E-02 
576	 0.084766176514313 
577	 8.48858313949241E-02 
578	 8.49278891149278E-02 
579	 8.49524098347769E-02 
580	 8.49480701167451E-02 
581	 8.48860225418195E-02 
582	 8.48192664110617E-02 
583	 8.47958707291276E-02 
584	 8.48374746077966E-02 
585	 8.49316462787732E-02 
586	 8.50751497540522E-02 
587	 8.52448576190379E-02 
588	 8.54121118809854E-02 
589	 8.55582617205743E-02 
590	 8.56593229884053E-02 
591	 8.57668067258941E-02 
592	 8.59903433288685E-02 
593	 8.61670223591848E-02 
594	 8.63451560302729E-02 
595	 8.65393520650382E-02 
596	 0.086557793254569 
597	 8.65087357815687E-02 
598	 8.64686006172287E-02 
599	 8.64885321105004E-02 
600	 8.65438914275326E-02 
601	 8.65595857403367E-02 
602	 8.65241145669405E-02 
603	 8.65486761694599E-02 
604	 8.65677695962498E-02 
605	 8.65922350082986E-02 
606	 0.08664218556673 
607	 8.66360067766269E-02 
608	 8.66968388500108E-02 
609	 8.68526230113354E-02 
610	 8.70095665815759E-02 
611	 8.70494468287218E-02 
612	 8.70349316049419E-02 
613	 8.70465560845647E-02 
614	 8.70454148735069E-02 
615	 8.70604470771081E-02 
616	 8.70723477978177E-02 
617	 8.70377300117209E-02 
618	 8.70577336441947E-02 
619	 8.70937892308737E-02 
620	 8.71170701732976E-02 
621	 8.71736408280142E-02 
622	 8.71791492100601E-02 
623	 8.71550726583464E-02 
624	 8.71592704417469E-02 
625	 8.71666495294302E-02 
626	 8.71902609207732E-02 
627	 8.72234553235704E-02 
628	 8.72308763617791E-02 
629	 8.72393934291728E-02 
630	 8.72637388733854E-02 
631	 8.73038507448318E-02 
632	 8.73176581962873E-02 
633	 8.73230587586435E-02 
634	 8.73333243729847E-02 
635	 8.73564104047522E-02 
636	 8.73975423248735E-02 
637	 8.74211542802012E-02 
638	 8.74149580077586E-02 
639	 8.74399752310766E-02 
640	 8.74647434652778E-02 
641	 0.087478453729166 
642	 8.74854986815905E-02 
643	 8.75364876463849E-02 
644	 0.087576687937565 
645	 8.75803872902354E-02 
646	 8.75769177067681E-02 
647	 8.76096568444273E-02 
648	 8.76378549619602E-02 
649	 0.087624040483021 
650	 8.76581825461291E-02 
651	 8.77173166971657E-02 
652	 8.77629529405309E-02 
653	 8.77534186377898E-02 
654	 8.77900529957222E-02 
655	 0.087818287535092 
656	 8.78135730723941E-02 
657	 8.79094273306569E-02 
658	 8.79537526285672E-02 
659	 8.79461930588313E-02 
660	 0.087952640908817 
661	 8.79316588520587E-02 
662	 8.79486606157388E-02 
663	 8.80266765649711E-02 
664	 8.81179313316306E-02 
665	 8.81480887399942E-02 
666	 8.81324567469198E-02 
667	 0.088119131148655 
668	 8.81549345326092E-02 
669	 8.81964591429554E-02 
670	 8.82157382621447E-02 
671	 8.82057572476962E-02 
672	 0.088242499969321 
673	 8.82846900649465E-02 
674	 8.83023979664192E-02 
675	 8.83431491549238E-02 
676	 8.83960467092366E-02 
677	 8.84224478158572E-02 
678	 8.83929157727233E-02 
679	 8.84343969804399E-02 
680	 8.84711582657743E-02 
681	 8.84855343889738E-02 
682	 0.08855839211996 
683	 8.85777736711078E-02 
684	 8.85764570000032E-02 
685	 8.86084678028608E-02 
686	 8.86605983340444E-02 
687	 0.088700136299594 
688	 0.088724411321524 
689	 8.87496816598552E-02 
690	 8.87333052755783E-02 
691	 8.87215876000228E-02 
692	 8.87450522002658E-02 
693	 8.87829549137007E-02 
694	 8.87802562181417E-02 
695	 0.088770698031138 
696	 8.87998009687587E-02 
697	 8.87687376383944E-02 
698	 8.87641117286195E-02 
699	 8.88115072014401E-02 
700	 0.088860948036568 
701	 8.88889674792776E-02 
702	 8.88915276337242E-02 
703	 8.88793734924578E-02 
704	 8.88844550198928E-02 
705	 8.88940115189283E-02 
706	 8.89037312973434E-02 
707	 8.89113273454454E-02 
708	 8.88935969493985E-02 
709	 8.89036590800404E-02 
710	 8.89474109892125E-02 
711	 8.89522360584017E-02 
712	 8.89650722295628E-02 
713	 8.89675417601369E-02 
714	 8.89440963515623E-02 
715	 8.89585857693115E-02 
716	 8.89566524773191E-02 
717	 8.89328504636915E-02 
718	 8.89184979249366E-02 
719	 8.89104529672876E-02 
720	 8.88984834292212E-02 
721	 8.88822191485571E-02 
722	 8.88854017888089E-02 
723	 8.88608079563327E-02 
724	 8.88306750102741E-02 
725	 8.88293917407671E-02 
726	 8.88195731130361E-02 
727	 8.88266689630062E-02 
728	 8.88361899334205E-02 
729	 8.87985457715634E-02 
730	 8.87615667750698E-02 
731	 8.87407909752221E-02 
732	 8.87328120305148E-02 
733	 8.87065617529228E-02 
734	 8.86630281559602E-02 
735	 8.86260562171482E-02 
736	 0.088617446240564 
737	 8.85798751646894E-02 
738	 8.85358814406949E-02 
739	 8.85065958209653E-02 
740	 8.85031441991057E-02 
741	 0.088480140546319 
742	 8.84458214464416E-02 
743	 8.84111721014397E-02 
744	 8.83598179343758E-02 
745	 8.82936775179208E-02 
746	 8.82524798345081E-02 
747	 0.088271873766715 
748	 8.82333065966241E-02 
749	 8.81611657378678E-02 
750	 8.80994828875902E-02 
751	 8.80967434503644E-02 
752	 8.80662277795519E-02 
753	 8.80111036599582E-02 
754	 8.79541986452637E-02 
755	 8.79074619317347E-02 
756	 8.78656018027303E-02 
757	 8.78257831171907E-02 
758	 8.77876221736324E-02 
759	 8.77638303008752E-02 
760	 8.77183892730605E-02 
761	 0.087652166946296 
762	 8.76160388093755E-02 
763	 8.75726673820448E-02 
764	 8.75339609290249E-02 
765	 8.75071509328575E-02 
766	 8.74497405414722E-02 
767	 8.74122315883853E-02 
768	 8.73862914684676E-02 
769	 8.73364424775889E-02 
770	 8.72674103142225E-02 
771	 8.72134277986629E-02 
772	 8.71800125233983E-02 
773	 0.087136127683749 
774	 8.71132054662524E-02 
775	 8.70699016948375E-02 
776	 8.69859923190251E-02 
777	 8.69411519798192E-02 
778	 8.68956895324825E-02 
779	 8.68516223557332E-02 
780	 8.68226223511206E-02 
781	 8.67715354845098E-02 
782	 8.67495354816678E-02 
783	 8.67373713463728E-02 
784	 8.66427994190631E-02 
785	 8.65929892063449E-02 
786	 8.65611263646372E-02 
787	 8.65141149505509E-02 
788	 8.64784658022275E-02 
789	 8.64526354784446E-02 
790	 0.086414366112004 
791	 8.63463224943766E-02 
792	 8.63012441064798E-02 
793	 8.62539929059696E-02 
794	 8.61961535915862E-02 
795	 8.61370036316583E-02 
796	 8.60671276078066E-02 
797	 8.60290878126261E-02 
798	 0.086023731174585 
799	 8.59619676545076E-02 
800	 8.59217115056619E-02 
801	 8.59064179481996E-02 
802	 8.58903657613601E-02 
803	 8.58290746412441E-02 
804	 0.085780785464686 
805	 0.085742629508978 
806	 0.085678151529696 
807	 8.56325647022266E-02 
808	 8.55850551342818E-02 
809	 8.55320481478834E-02 
810	 0.085500886274373 
811	 8.55082604367082E-02 
812	 8.54715123403277E-02 
813	 0.085359599512479 
814	 0.085338946747298 
815	 8.53188393821088E-02 
816	 8.52689389175769E-02 
817	 8.51949831673818E-02 
818	 8.51575216994896E-02 
819	 8.51173264395522E-02 
820	 8.50721518449785E-02 
821	 8.50514436551258E-02 
822	 8.50075720735084E-02 
823	 8.49752285951479E-02 
824	 8.49619138146443E-02 
825	 8.49106979759378E-02 
826	 8.48907992198047E-02 
827	 8.48712233864414E-02 
828	 8.48139657543888E-02 
829	 8.47463938316701E-02 
830	 8.46956307561554E-02 
831	 8.46551224017681E-02 
832	 8.46063563546233E-02 
833	 8.45775612086016E-02 
834	 8.45484279530376E-02 
835	 0.084509913048119 
836	 8.44686218285641E-02 
837	 8.44471285030697E-02 
838	 8.44243926971891E-02 
839	 8.43798072040845E-02 
840	 8.43056842037249E-02 
841	 8.42596273635443E-02 
842	 8.42475685540921E-02 
843	 8.42479381421198E-02 
844	 8.42026169939464E-02 
845	 8.42215288903971E-02 
846	 8.42308196493124E-02 
847	 8.41203786655097E-02 
848	 8.41006499387081E-02 
849	 8.40705101751521E-02 
850	 8.40037996046544E-02 
851	 8.39539908558523E-02 
852	 8.39294820856717E-02 
853	 8.39292947190311E-02 
854	 8.39347904226033E-02 
855	 8.39080194619009E-02 
856	 8.38679847509772E-02 
857	 8.38659825951911E-02 
858	 8.39024423980982E-02 
859	 8.38292776172689E-02 
860	 8.37555382221975E-02 
861	 8.37237278638273E-02 
862	 8.37326076735412E-02 
863	 8.37055828218309E-02 
864	 0.083694485613922 
865	 8.36839846903709E-02 
866	 8.36307799889192E-02 
867	 8.36190651566773E-02 
868	 8.36047118596707E-02 
869	 8.35703477087069E-02 
870	 8.35389420149521E-02 
871	 8.35288875262719E-02 
872	 8.35338833253582E-02 
873	 8.35340940383462E-02 
874	 8.34980870129663E-02 
875	 8.34658134693717E-02 
876	 8.34560503023107E-02 
877	 8.34551909833036E-02 
878	 0.083376984167528 
879	 8.33378738744833E-02 
880	 8.33510904122478E-02 
881	 8.33777499495911E-02 
882	 0.083339258672162 
883	 0.083327335004316 
884	 8.33414916406495E-02 
885	 8.33334319994317E-02 
886	 8.33248421054426E-02 
887	 0.083329327972804 
888	 8.33192947544173E-02 
889	 8.32488973950908E-02 
890	 8.32394533238804E-02 
891	 8.32228989531212E-02 
892	 0.083178266601007 
893	 8.31701771828687E-02 
894	 8.31372559178787E-02 
895	 8.31193830157553E-02 
896	 0.083139216869325 
897	 8.31555002916691E-02 
898	 8.31190294175123E-02 
899	 0.08310472469078 
900	 8.31572848888611E-02 
901	 8.31524557108204E-02 
902	 8.31387105261054E-02 
903	 0.083100205728376 
904	 8.30344678047918E-02 
905	 8.30605289191773E-02 
906	 8.30731354868844E-02 
907	 0.083061026222431 
908	 8.30584951716605E-02 
909	 8.30695126864834E-02 
910	 8.30389037697631E-02 
911	 8.29974558707806E-02 
912	 8.30166416753001E-02 
913	 8.30215485796479E-02 
914	 8.30007421048911E-02 
915	 8.29738799280774E-02 
916	 8.29728051976358E-02 
917	 8.29097060915666E-02 
918	 8.29188840423176E-02 
919	 8.29862806575212E-02 
920	 8.29207435273926E-02 
921	 8.29495277174005E-02 
922	 8.29371088420823E-02 
923	 8.28658048086585E-02 
924	 0.082960616556076 
925	 8.29735229127261E-02 
926	 8.29438556753245E-02 
927	 8.29284831263083E-02 
928	 8.28991533253617E-02 
929	 8.29149447526201E-02 
930	 8.29293955739649E-02 
931	 8.29033422096443E-02 
932	 8.28764093323786E-02 
933	 8.28943914433963E-02 
934	 8.28993922600769E-02 
935	 8.28565652080403E-02 
936	 8.28961087238814E-02 
937	 8.28802424079481E-02 
938	 8.27972134117441E-02 
939	 8.27175031727618E-02 
940	 8.28197111760114E-02 
941	 8.29256186415963E-02 
942	 8.29652116333783E-02 
943	 8.29379762393617E-02 
944	 8.29017780727377E-02 
945	 8.29002997813631E-02 
946	 8.29038656252615E-02 
947	 0.082861648218245 
948	 8.27933960326627E-02 
949	 8.27667555831278E-02 
950	 0.082776917720784 
951	 8.27905551613671E-02 
952	 8.28574187997348E-02 
953	 8.28776857389018E-02 
954	 8.28788629299956E-02 
955	 8.29305597122241E-02 
956	 8.28893830391152E-02 
957	 0.082873088145017 
958	 8.28831989553026E-02 
959	 8.28676308041527E-02 
960	 8.29691360983708E-02 
961	 8.29574987938709E-02 
962	 8.28698972815541E-02 
963	 8.28858931459645E-02 
964	 8.28151016825386E-02 
965	 0.082854498537629 
966	 8.29492647123671E-02 
967	 8.29017592435899E-02 
968	 8.28354824174445E-02 
969	 8.28405195575061E-02 
970	 8.28895754957141E-02 
971	 8.28881697579413E-02 
972	 0.082860345260132 
973	 8.28593189446872E-02 
974	 8.28315769081077E-02 
975	 0.082714747306023 
976	 8.28387822552943E-02 
977	 8.28886755444714E-02 
978	 0.082824500069367 
979	 8.28055614441657E-02 
980	 8.28225587889795E-02 
981	 8.27888420523819E-02 
982	 8.27650450293638E-02 
983	 8.28508953348645E-02 
984	 8.28328229670057E-02 
985	 8.28062649753109E-02 
986	 8.27554149135638E-02 
987	 8.26355747151927E-02 
988	 8.26147501047393E-02 
989	 0.08268716426082 
990	 0.082784693240297 
991	 8.28169862933898E-02 
992	 8.27392711766766E-02 
993	 8.26347611274874E-02 
994	 8.26897493445287E-02 
995	 8.29427986022402E-02 
996	 8.27359577681791E-02 
997	 8.26483117104039E-02 
998	 8.26358696306611E-02 
999	 8.25618245213507E-02 
1000	 8.29598504367053E-02 
1001	 8.14312990280983E-02 
1002	 8.14254236461777E-02 
1003	 0.081443593173257 
1004	 0.081449632602659 
1005	 0.081465680497784 
1006	 8.14390781742106E-02 
1007	 8.14011548754918E-02 
1008	 8.13161379944853E-02 
1009	 8.12932779343074E-02 
1010	 8.13249290457494E-02 
1011	 8.13772823974929E-02 
1012	 8.14637156465277E-02 
1013	 8.14309468111069E-02 
1014	 8.13864053984419E-02 
1015	 8.14102059904977E-02 
1016	 8.14102103670972E-02 
1017	 8.14208759904581E-02 
1018	 0.081478591530536 
1019	 8.15022571803889E-02 
1020	 8.14522787484128E-02 
1021	 8.14083435948169E-02 
1022	 8.13557354316403E-02 
1023	 8.13159884833248E-02 
1024	 8.12780130781472E-02 
1025	 8.12452371539973E-02 
1026	 8.12348131859123E-02 
1027	 8.12222540672315E-02 
1028	 8.12603951686895E-02 
1029	 8.13700885524161E-02 
1030	 8.14135574240252E-02 
1031	 0.081395656972515 
1032	 8.13491971857726E-02 
1033	 0.081268048617445 
1034	 8.10991199282603E-02 
1035	 8.09660612593997E-02 
1036	 8.09078320734661E-02 
1037	 8.08617185380622E-02 
1038	 8.08696827304998E-02 
1039	 8.09190966480718E-02 
1040	 8.09387467552168E-02 
1041	 8.09535584195093E-02 
1042	 8.09426833641921E-02 
1043	 8.09027100104128E-02 
1044	 8.08803805479589E-02 
1045	 8.08575858456912E-02 
1046	 8.08569590482333E-02 
1047	 8.08794100397179E-02 
1048	 8.08494429926589E-02 
1049	 8.08519376134604E-02 
1050	 8.08646079438427E-02 
1051	 8.08181543187639E-02 
1052	 8.08596529612877E-02 
1053	 8.08928633729458E-02 
1054	 8.09285520901219E-02 
1055	 8.09873353131024E-02 
1056	 8.09664685824839E-02 
1057	 0.080961238494079 
1058	 8.09265724537889E-02 
1059	 8.09158475844794E-02 
1060	 0.080893978141602 
1061	 8.09351149074348E-02 
1062	 8.09509107383395E-02 
1063	 8.09619194779913E-02 
1064	 8.10144666988614E-02 
1065	 8.10643220284915E-02 
1066	 8.11101861199528E-02 
1067	 8.11357130129326E-02 
1068	 0.081105440297661 
1069	 8.10725851964524E-02 
1070	 8.10663889417054E-02 
1071	 8.10736607479863E-02 
1072	 8.10847828373342E-02 
1073	 8.11304236004878E-02 
1074	 8.11465329344917E-02 
1075	 8.11550711041542E-02 
1076	 8.11460807064673E-02 
1077	 0.081135832768908 
1078	 8.10894007688477E-02 
1079	 8.10526059024759E-02 
1080	 8.10291136940557E-02 
1081	 0.081019667197832 
1082	 8.10505768719732E-02 
1083	 8.10667351521378E-02 
1084	 8.11102151827938E-02 
1085	 8.11135882264672E-02 
1086	 0.081085452946432 
1087	 8.10697916382242E-02 
1088	 8.10545160148436E-02 
1089	 8.10105188527674E-02 
1090	 8.09666248150825E-02 
1091	 8.09547404364594E-02 
1092	 8.09247738018993E-02 
1093	 8.09255211562736E-02 
1094	 8.09527854158176E-02 
1095	 8.09805351535918E-02 
1096	 8.09946749856742E-02 
1097	 8.09810265570382E-02 
1098	 8.09709289013787E-02 
1099	 8.09550387545284E-02 
1100	 8.09285800123193E-02 
1101	 8.08728960291477E-02 
1102	 0.080858311552005 
1103	 8.08602305167523E-02 
1104	 8.08531927546642E-02 
1105	 8.08454366292869E-02 
1106	 0.080880345075054 
1107	 8.09019322816478E-02 
1108	 8.09094123733749E-02 
1109	 8.09251469494704E-02 
1110	 8.09266007453502E-02 
1111	 8.09233023074694E-02 
1112	 8.08902385686515E-02 
1113	 8.08809152721286E-02 
1114	 8.08802373965305E-02 
1115	 8.08812593195263E-02 
1116	 8.08897538345209E-02 
1117	 8.08960781912678E-02 
1118	 8.09037507847943E-02 
1119	 8.09134673564639E-02 
1120	 8.09278132438723E-02 
1121	 8.09436592142067E-02 
1122	 8.09601314268635E-02 
1123	 8.09948735841755E-02 
1124	 8.10099114704002E-02 
1125	 8.10163735532089E-02 
1126	 8.10104982266921E-02 
1127	 8.09831323391541E-02 
1128	 8.09871340909326E-02 
1129	 0.080993034780236 
1130	 0.081011304231597 
1131	 8.10660330683268E-02 
1132	 8.10853464521272E-02 
1133	 0.081085807875831 
1134	 8.10972295060458E-02 
1135	 8.11036297467388E-02 
1136	 8.11033623805819E-02 
1137	 8.11235144185848E-02 
1138	 8.11408251853847E-02 
1139	 8.11595519000649E-02 
1140	 8.11924558311628E-02 
1141	 0.081193767151644 
1142	 0.081176454429393 
1143	 8.11760091338224E-02 
1144	 8.11612327773992E-02 
1145	 8.11520178638788E-02 
1146	 8.11617994476827E-02 
1147	 0.081160881090456 
1148	 8.11395432048272E-02 
1149	 8.11367406308164E-02 
1150	 8.11530867454483E-02 
1151	 8.11520118463723E-02 
1152	 8.11619364309125E-02 
1153	 8.11770395032612E-02 
1154	 8.11825497843729E-02 
1155	 8.11794160636394E-02 
1156	 0.081192047967807 
1157	 8.12209557420351E-02 
1158	 0.081217218071177 
1159	 8.11973151253978E-02 
1160	 8.12001624953732E-02 
1161	 0.081183004312586 
1162	 0.081183543157432 
1163	 8.12271828773716E-02 
1164	 8.12432047241459E-02 
1165	 8.12364620506894E-02 
1166	 8.12448314437794E-02 
1167	 8.12605639243754E-02 
1168	 8.12487168330087E-02 
1169	 8.12446113910393E-02 
1170	 8.12340840438399E-02 
1171	 8.12378360566529E-02 
1172	 0.081246058389699 
1173	 8.12499774315598E-02 
1174	 8.12628272306166E-02 
1175	 8.12700177767704E-02 
1176	 8.12643154690973E-02 
1177	 8.12697155699541E-02 
1178	 8.12805979961221E-02 
1179	 8.12947869267499E-02 
1180	 8.13138579241875E-02 
1181	 8.13320921470117E-02 
1182	 8.13605241104277E-02 
1183	 8.13829108876341E-02 
1184	 8.13894095700781E-02 
1185	 8.13792661741904E-02 
1186	 0.08139168517149 
1187	 8.14009305891602E-02 
1188	 8.14126605934004E-02 
1189	 8.14400873262823E-02 
1190	 8.14622194991554E-02 
1191	 8.14793912957673E-02 
1192	 8.14941328887778E-02 
1193	 8.15086639458148E-02 
1194	 0.081529195231936 
1195	 8.15489700625752E-02 
1196	 8.15653401897038E-02 
1197	 8.15920389632371E-02 
1198	 8.16114559735599E-02 
1199	 8.16254929907859E-02 
1200	 8.16292418508743E-02 
1201	 8.16338297994381E-02 
1202	 8.16268959857401E-02 
1203	 8.16469360544054E-02 
1204	 8.16826327378031E-02 
1205	 8.16989776533719E-02 
1206	 8.17211030174306E-02 
1207	 8.17452610005028E-02 
1208	 8.17533224918318E-02 
1209	 8.17695472447864E-02 
1210	 8.18047823885057E-02 
1211	 0.081830342255896 
1212	 8.18397610946462E-02 
1213	 8.18603334643894E-02 
1214	 8.18936638845198E-02 
1215	 8.19196625522547E-02 
1216	 8.19442323784815E-02 
1217	 8.19702629140088E-02 
1218	 8.19908778254142E-02 
1219	 8.19993027138168E-02 
1220	 8.20265305072112E-02 
1221	 8.20712822242207E-02 
1222	 8.20897288089841E-02 
1223	 8.21005513620586E-02 
1224	 8.21191135887968E-02 
1225	 8.21188311123357E-02 
1226	 8.21333094708785E-02 
1227	 8.21685796971336E-02 
1228	 8.21960176415946E-02 
1229	 8.22193176351723E-02 
1230	 8.22435486607667E-02 
1231	 8.22810700542085E-02 
1232	 8.23009629564872E-02 
1233	 8.23122453317088E-02 
1234	 8.23115469128464E-02 
1235	 8.23228402880542E-02 
1236	 8.23255781320313E-02 
1237	 8.23361604980044E-02 
1238	 8.23599944369136E-02 
1239	 0.08237340995523 
1240	 8.23735400882962E-02 
1241	 8.23912196376875E-02 
1242	 8.24230021308271E-02 
1243	 8.24423853028989E-02 
1244	 8.24696426688382E-02 
1245	 8.24854993621337E-02 
1246	 8.24821190845793E-02 
1247	 8.24881550095792E-02 
1248	 0.082490241149746 
1249	 8.25048445904071E-02 
1250	 8.25157350700525E-02 
1251	 8.25159772441088E-02 
1252	 8.25205860870915E-02 
1253	 0.082513671258577 
1254	 0.082530871408836 
1255	 8.25693041774573E-02 
1256	 8.25849740535422E-02 
1257	 0.082602890205387 
1258	 8.26149009662857E-02 
1259	 8.26067171930878E-02 
1260	 8.26107902035911E-02 
1261	 8.26246855576952E-02 
1262	 8.26367270942617E-02 
1263	 8.26522686436794E-02 
1264	 8.26585087232953E-02 
1265	 8.26604728835217E-02 
1266	 8.26643545628908E-02 
1267	 8.26606736970078E-02 
1268	 8.26595344648738E-02 
1269	 8.26580963155805E-02 
1270	 8.26539164535847E-02 
1271	 8.26656776397254E-02 
1272	 8.26814849305239E-02 
1273	 8.26998897833667E-02 
1274	 8.27324923757161E-02 
1275	 0.082763345627596 
1276	 8.27955627477707E-02 
1277	 8.28249902643052E-02 
1278	 8.28522473928794E-02 
1279	 8.28898576358358E-02 
1280	 0.082934836939455 
1281	 8.29690316366894E-02 
1282	 0.083001672679866 
1283	 8.30463266832046E-02 
1284	 8.30896875331277E-02 
1285	 8.31230843038534E-02 
1286	 8.32013949203089E-02 
1287	 8.32773175820954E-02 
1288	 8.33355200924513E-02 
1289	 8.33935614761319E-02 
1290	 8.34414643681964E-02 
1291	 0.083462892176834 
1292	 8.35127737579893E-02 
1293	 8.35775099856179E-02 
1294	 0.08362773946768 
1295	 8.36857851146015E-02 
1296	 8.37324802781543E-02 
1297	 8.37682399682053E-02 
1298	 8.37991859773206E-02 
1299	 8.38240007190272E-02 
1300	 8.38521698173356E-02 
1301	 8.38678332809802E-02 
1302	 8.38905537398665E-02 
1303	 8.39263899274605E-02 
1304	 8.39537338996919E-02 
1305	 8.39654249405732E-02 
1306	 8.39794256957312E-02 
1307	 8.39778297802694E-02 
1308	 8.39771933969067E-02 
1309	 8.39839004049012E-02 
1310	 0.083999203722524 
1311	 8.40008689677698E-02 
1312	 0.083999428461694 
1313	 8.40007947227121E-02 
1314	 8.39921946521191E-02 
1315	 8.39925670897792E-02 
1316	 8.40048184272112E-02 
1317	 8.40072299983852E-02 
1318	 8.40012894205368E-02 
1319	 8.40030020673243E-02 
1320	 8.40033762640278E-02 
1321	 8.40100658443753E-02 
1322	 8.40218846067004E-02 
1323	 0.084039248446433 
1324	 8.40606796835911E-02 
1325	 8.40791716257396E-02 
1326	 8.40605455336122E-02 
1327	 8.40566500078127E-02 
1328	 0.084062374270837 
1329	 8.40562981195529E-02 
1330	 8.40616845310837E-02 
1331	 0.084086316128007 
1332	 8.41005004045591E-02 
1333	 8.41072573112163E-02 
1334	 8.41192444473721E-02 
1335	 8.41380408760805E-02 
1336	 8.41564370382026E-02 
1337	 8.41710213137824E-02 
1338	 8.41876037887145E-02 
1339	 8.42087712047211E-02 
1340	 8.42304486338944E-02 
1341	 8.42478092730269E-02 
1342	 8.42734564464428E-02 
1343	 8.43090810881242E-02 
1344	 8.43373176752183E-02 
1345	 8.43702023340935E-02 
1346	 8.44022627176741E-02 
1347	 8.44210211934542E-02 
1348	 8.44490015301209E-02 
1349	 8.44814385830171E-02 
1350	 8.45018873345385E-02 
1351	 8.45322921080869E-02 
1352	 8.45711967222759E-02 
1353	 8.46059399417352E-02 
1354	 0.084639901278964 
1355	 8.46751863450939E-02 
1356	 8.47133786608178E-02 
1357	 0.084744168744739 
1358	 8.47765351163234E-02 
1359	 8.48040278999474E-02 
1360	 0.084817022758071 
1361	 8.48417282398589E-02 
1362	 8.48746165733095E-02 
1363	 8.48983374873822E-02 
1364	 0.084929555132684 
1365	 8.49512722490997E-02 
1366	 8.49700536031516E-02 
1367	 8.49632786536121E-02 
1368	 8.49669050969242E-02 
1369	 8.49801674688449E-02 
1370	 8.49840379952275E-02 
1371	 8.49950929346373E-02 
1372	 8.50159435814001E-02 
1373	 8.50190798246174E-02 
1374	 8.50207558647698E-02 
1375	 0.085018081071327 
1376	 8.50247290209417E-02 
1377	 8.50322316290103E-02 
1378	 8.50336421088025E-02 
1379	 8.50368907911934E-02 
1380	 8.50439614554784E-02 
1381	 8.50557501262674E-02 
1382	 8.50426393526068E-02 
1383	 8.50227337391766E-02 
1384	 8.50040122868148E-02 
1385	 8.49570271445412E-02 
1386	 8.49284789723181E-02 
1387	 8.49211269237678E-02 
1388	 8.49036710075605E-02 
1389	 8.48855747010263E-02 
1390	 0.084863923202345 
1391	 8.48255823712454E-02 
1392	 8.47861823465516E-02 
1393	 8.47478510987921E-02 
1394	 8.46931630090511E-02 
1395	 8.46467695311801E-02 
1396	 8.46061248368373E-02 
1397	 0.084550360412098 
1398	 8.44822330944494E-02 
1399	 8.44209862918638E-02 
1400	 8.43566354874632E-02 
1401	 8.42900502356172E-02 
1402	 8.42239317129485E-02 
1403	 8.41568209628017E-02 
1404	 0.084082501769507 
1405	 8.40178928631483E-02 
1406	 8.39515142449067E-02 
1407	 8.38960786769636E-02 
1408	 8.38507859531586E-02 
1409	 8.38044106316094E-02 
1410	 8.37665375706154E-02 
1411	 8.37323035089336E-02 
1412	 8.37036888065182E-02 
1413	 0.083664985033337 
1414	 8.36383796247031E-02 
1415	 0.083608432547899 
1416	 8.35813381216487E-02 
1417	 0.083568007621309 
1418	 0.083558782425433 
1419	 8.35422560884733E-02 
1420	 8.35238626923509E-02 
1421	 8.35221848633406E-02 
1422	 0.083520967615497 
1423	 8.35235430882439E-02 
1424	 8.35263868853795E-02 
1425	 8.35292112826708E-02 
1426	 8.35397271632653E-02 
1427	 0.08355666545331 
1428	 8.35684842369663E-02 
1429	 0.083587342307713 
1430	 0.083598890361851 
1431	 0.083601776390232 
1432	 8.36107863154733E-02 
1433	 8.36171199644271E-02 
1434	 8.36309914508962E-02 
1435	 8.36471272618901E-02 
1436	 8.36694762044884E-02 
1437	 8.37054015570396E-02 
1438	 8.37333257274086E-02 
1439	 8.37631590280645E-02 
1440	 8.37840088385851E-02 
1441	 8.38107643831727E-02 
1442	 8.38477061377724E-02 
1443	 8.38721731291261E-02 
1444	 8.39000345175615E-02 
1445	 0.08393065231808 
1446	 8.39486835399252E-02 
1447	 8.39853804885908E-02 
1448	 8.40284580301192E-02 
1449	 8.40613277373092E-02 
1450	 8.40909875291266E-02 
1451	 8.41163636181454E-02 
1452	 0.084134247178779 
1453	 8.41637635848115E-02 
1454	 8.41945999905613E-02 
1455	 8.42243829831776E-02 
1456	 8.42637795826977E-02 
1457	 8.42893452319256E-02 
1458	 8.43054445855423E-02 
1459	 8.43265876403014E-02 
1460	 8.43390805962495E-02 
1461	 8.43661283744469E-02 
1462	 8.44013671103904E-02 
1463	 8.44311177453288E-02 
1464	 8.44638551713007E-02 
1465	 8.45061310852038E-02 
1466	 8.45623699115647E-02 
1467	 8.45980918834289E-02 
1468	 8.46298602233963E-02 
1469	 0.084658858055602 
1470	 8.46640372986646E-02 
1471	 8.46807476292382E-02 
1472	 0.084727555682055 
1473	 8.47734245825074E-02 
1474	 8.48100863846112E-02 
1475	 8.48488631537245E-02 
1476	 8.48863665675825E-02 
1477	 8.49249771418726E-02 
1478	 8.49681045792319E-02 
1479	 8.50080908422624E-02 
1480	 8.50464070883585E-02 
1481	 8.50859748546057E-02 
1482	 8.51268893447013E-02 
1483	 8.51790656195357E-02 
1484	 8.52207088130379E-02 
1485	 8.52513848152082E-02 
1486	 0.085287928278203 
1487	 8.53260914580683E-02 
1488	 8.53588440412238E-02 
1489	 8.53891230472518E-02 
1490	 8.54279938394666E-02 
1491	 8.54712815097366E-02 
1492	 0.085507784407138 
1493	 8.55452930227913E-02 
1494	 8.55817666888795E-02 
1495	 8.56100807707205E-02 
1496	 8.56426700878076E-02 
1497	 8.56800556404683E-02 
1498	 8.57181050999107E-02 
1499	 8.57548660896245E-02 
1500	 8.57930422306203E-02 
1501	 8.58368053837266E-02 
1502	 8.58763423046282E-02 
1503	 0.085916546293369 
1504	 8.59501962956481E-02 
1505	 0.085982121788579 
1506	 8.60073866011411E-02 
1507	 8.60260888113873E-02 
1508	 8.60562598922177E-02 
1509	 8.60922272448921E-02 
1510	 8.61194682963535E-02 
1511	 8.61491324553994E-02 
1512	 8.61772966331086E-02 
1513	 8.61975989935335E-02 
1514	 8.62333944437541E-02 
1515	 8.62723393796134E-02 
1516	 8.63037542397541E-02 
1517	 0.086331042406913 
1518	 8.63514201205386E-02 
1519	 8.63772213654508E-02 
1520	 8.63964655852444E-02 
1521	 8.64281487001995E-02 
1522	 8.64757972302295E-02 
1523	 8.65099702206235E-02 
1524	 8.65435436036467E-02 
1525	 8.65697682548544E-02 
1526	 8.65838070905346E-02 
1527	 8.66049417521148E-02 
1528	 8.66233128930592E-02 
1529	 8.66511248575397E-02 
1530	 8.66897339689981E-02 
1531	 8.67180247007968E-02 
1532	 8.67511341970816E-02 
1533	 8.67737108230915E-02 
1534	 8.67805307151905E-02 
1535	 8.67951340385897E-02 
1536	 8.68074463675707E-02 
1537	 8.68243148784086E-02 
1538	 8.68524842524062E-02 
1539	 8.68691993627371E-02 
1540	 0.086876755229467 
1541	 8.68899003212526E-02 
1542	 8.68922494377965E-02 
1543	 8.69110741320229E-02 
1544	 8.69515409186867E-02 
1545	 8.69761799851545E-02 
1546	 8.70048597993582E-02 
1547	 0.087021493386554 
1548	 8.70251070098811E-02 
1549	 8.70550516636575E-02 
1550	 8.70833579801223E-02 
1551	 8.71023097582119E-02 
1552	 8.71218992957606E-02 
1553	 8.71236030913411E-02 
1554	 8.71195057443447E-02 
1555	 0.087132910397172 
1556	 8.71476488092817E-02 
1557	 8.71684375937378E-02 
1558	 8.72080975035031E-02 
1559	 8.72306531096277E-02 
1560	 8.72444197221284E-02 
1561	 8.72486989426744E-02 
1562	 8.72612150158913E-02 
1563	 0.087263633673953 
1564	 8.72783139942707E-02 
1565	 8.73071974066964E-02 
1566	 0.087324247850524 
1567	 8.73304387479258E-02 
1568	 8.73560874451312E-02 
1569	 0.087394166447988 
1570	 8.74166984211005E-02 
1571	 8.74481289955499E-02 
1572	 8.74640508107246E-02 
1573	 8.74570913064024E-02 
1574	 8.74659162719502E-02 
1575	 8.74811965028256E-02 
1576	 8.74893054388362E-02 
1577	 0.087492762794835 
1578	 8.75039295580865E-02 
1579	 8.75147541015981E-02 
1580	 8.75254676172514E-02 
1581	 8.75456500543315E-02 
1582	 8.75597265916291E-02 
1583	 8.75686746442008E-02 
1584	 8.75782110759487E-02 
1585	 8.75876529658711E-02 
1586	 8.75955778716749E-02 
1587	 8.75942900320626E-02 
1588	 8.76065332332358E-02 
1589	 8.76322730992299E-02 
1590	 8.76453713067057E-02 
1591	 8.76536123760601E-02 
1592	 8.76714519447102E-02 
1593	 8.76877331718146E-02 
1594	 8.77027098550435E-02 
1595	 8.77355337474897E-02 
1596	 8.77519837976537E-02 
1597	 8.77467854710518E-02 
1598	 8.77545387523048E-02 
1599	 8.77611405588967E-02 
1600	 8.77720451362562E-02 
1601	 0.087790934822243 
1602	 8.78085821360762E-02 
1603	 8.78424429051498E-02 
1604	 8.78523145252814E-02 
1605	 8.78434654444271E-02 
1606	 8.78424062778752E-02 
1607	 0.087832673518307 
1608	 8.78097240528318E-02 
1609	 8.78207485064203E-02 
1610	 8.78403509896509E-02 
1611	 8.78390298325123E-02 
1612	 0.087849994293649 
1613	 8.78617511562181E-02 
1614	 8.78604146066052E-02 
1615	 8.78875282434107E-02 
1616	 8.79290056587064E-02 
1617	 8.79428913379502E-02 
1618	 8.79533171187628E-02 
1619	 0.087942329674283 
1620	 8.79080268073348E-02 
1621	 8.79149582526508E-02 
1622	 8.79343587981031E-02 
1623	 8.79539065103676E-02 
1624	 8.80037688424473E-02 
1625	 8.80149574482064E-02 
1626	 8.80059557532075E-02 
1627	 8.80036290618038E-02 
1628	 8.79852624822953E-02 
1629	 8.79912300449681E-02 
1630	 0.088007781403973 
1631	 8.80203406187602E-02 
1632	 8.80461500186503E-02 
1633	 8.80559590149974E-02 
1634	 8.80540420844586E-02 
1635	 8.80655586938846E-02 
1636	 8.80769278655517E-02 
1637	 8.80927187688893E-02 
1638	 8.81189322821069E-02 
1639	 8.81326685968758E-02 
1640	 8.81495454214941E-02 
1641	 0.088145988131741 
1642	 8.81212367635011E-02 
1643	 8.81190380733352E-02 
1644	 8.81125133186905E-02 
1645	 8.81119328656892E-02 
1646	 8.81260040444803E-02 
1647	 0.088137972627762 
1648	 8.81426297347321E-02 
1649	 8.81591448042305E-02 
1650	 8.81988602978028E-02 
1651	 8.82101559334055E-02 
1652	 8.82158581306595E-02 
1653	 8.82079708305306E-02 
1654	 8.81659991363234E-02 
1655	 8.81635685243617E-02 
1656	 8.81755785074861E-02 
1657	 8.81782924954236E-02 
1658	 8.82000042742778E-02 
1659	 8.82074541806179E-02 
1660	 8.81907248244476E-02 
1661	 8.81978171120691E-02 
1662	 8.82240479575463E-02 
1663	 8.82347202748491E-02 
1664	 8.82483409261754E-02 
1665	 8.82530219513117E-02 
1666	 8.82403174966262E-02 
1667	 8.82443484891348E-02 
1668	 8.82548959491583E-02 
1669	 8.82616767113196E-02 
1670	 8.82802929612435E-02 
1671	 8.82812420120619E-02 
1672	 8.82708126941836E-02 
1673	 0.088260876550491 
1674	 8.82351607336324E-02 
1675	 8.82283919359084E-02 
1676	 8.82301170464311E-02 
1677	 8.82297761830592E-02 
1678	 8.82345196928726E-02 
1679	 8.82458926028446E-02 
1680	 8.82604130109556E-02 
1681	 8.82728680930212E-02 
1682	 8.82917353209974E-02 
1683	 8.83121103415669E-02 
1684	 8.83390377546127E-02 
1685	 8.83458166480961E-02 
1686	 0.088345892174947 
1687	 8.83493695730089E-02 
1688	 8.83246548831598E-02 
1689	 8.83342537652772E-02 
1690	 8.83827242195512E-02 
1691	 8.83943996435804E-02 
1692	 8.84014610343907E-02 
1693	 0.088402660305431 
1694	 0.088377851540851 
1695	 8.83704580572297E-02 
1696	 0.088372325215508 
1697	 8.83720049418997E-02 
1698	 8.83712372644107E-02 
1699	 8.83720206352427E-02 
1700	 8.83710942496787E-02 
1701	 8.83816822387033E-02 
1702	 8.84039641771783E-02 
1703	 8.84139075052127E-02 
1704	 8.84356091928447E-02 
1705	 8.84330083238802E-02 
1706	 0.088399710511999 
1707	 8.83923923514764E-02 
1708	 0.088388531927663 
1709	 8.83809747460804E-02 
1710	 8.83811468868137E-02 
1711	 8.83842256137456E-02 
1712	 8.83769379402193E-02 
1713	 8.83879702712078E-02 
1714	 8.84248822293584E-02 
1715	 8.84373552905003E-02 
1716	 8.84460299119455E-02 
1717	 0.088449011611091 
1718	 8.84365263387598E-02 
1719	 8.84315580214954E-02 
1720	 8.84279916026651E-02 
1721	 8.84270399455838E-02 
1722	 8.84268995668445E-02 
1723	 8.84258701422979E-02 
1724	 8.84284609458708E-02 
1725	 8.84270502035372E-02 
1726	 8.84257329594947E-02 
1727	 8.84143464767329E-02 
1728	 8.83902758853325E-02 
1729	 8.83859728053971E-02 
1730	 8.83828675584609E-02 
1731	 8.83835358122581E-02 
1732	 8.84088595812332E-02 
1733	 8.84042167143333E-02 
1734	 8.83814930971926E-02 
1735	 8.83637229506959E-02 
1736	 8.83318231563539E-02 
1737	 8.83179256195996E-02 
1738	 8.83127321994459E-02 
1739	 8.83026187233904E-02 
1740	 8.83039858438914E-02 
1741	 8.82903796749161E-02 
1742	 8.82629296408301E-02 
1743	 8.82454691167005E-02 
1744	 8.82194970203935E-02 
1745	 8.82244612437046E-02 
1746	 8.82502452047847E-02 
1747	 0.088255372517883 
1748	 8.82749391839781E-02 
1749	 8.82539852167609E-02 
1750	 8.82301841285928E-02 
1751	 0.088234340465586 
1752	 8.81987399931456E-02 
1753	 8.81711795460971E-02 
1754	 8.81709822332048E-02 
1755	 8.81462846305808E-02 
1756	 8.81443497116255E-02 
1757	 0.088144896191204 
1758	 8.81258545972623E-02 
1759	 8.81180629759012E-02 
1760	 8.81140150065522E-02 
1761	 8.80875310539876E-02 
1762	 8.80662141490327E-02 
1763	 8.80819320848127E-02 
1764	 0.088069584065785 
1765	 0.088055293742993 
1766	 0.088047261788946 
1767	 8.79834412149759E-02 
1768	 8.79497910541633E-02 
1769	 8.79596046500775E-02 
1770	 8.79646219064522E-02 
1771	 8.79960105226461E-02 
1772	 8.80093304169809E-02 
1773	 8.79941545785823E-02 
1774	 8.79874958441692E-02 
1775	 8.79579532175831E-02 
1776	 8.79240128861215E-02 
1777	 8.79127067328528E-02 
1778	 8.79028920492157E-02 
1779	 8.79131790970041E-02 
1780	 8.79356257107308E-02 
1781	 8.79375069722976E-02 
1782	 8.79261997140441E-02 
1783	 8.78961183378725E-02 
1784	 8.78900352084678E-02 
1785	 8.79033928711749E-02 
1786	 8.78983918353927E-02 
1787	 8.78890689269683E-02 
1788	 0.087890274832749 
1789	 8.78828282983846E-02 
1790	 8.78791456858553E-02 
1791	 8.78959704913261E-02 
1792	 8.79074079694656E-02 
1793	 8.79112648995087E-02 
1794	 8.79120068851407E-02 
1795	 8.79043825517312E-02 
1796	 0.087916571877525 
1797	 8.79378856313546E-02 
1798	 8.79501420858921E-02 
1799	 8.79754322426693E-02 
1800	 8.79945455911972E-02 
1801	 8.40684676603087E-02 
1802	 8.40980873514148E-02 
1803	 8.41318467359073E-02 
1804	 8.41311787164725E-02 
1805	 8.41575972143029E-02 
1806	 8.42040451162325E-02 
1807	 8.42066481239503E-02 
1808	 8.42309923444022E-02 
1809	 8.42725726287222E-02 
1810	 8.43165041863925E-02 
1811	 8.43591367892459E-02 
1812	 8.44100529163849E-02 
1813	 8.44589104380405E-02 
1814	 8.44932444499167E-02 
1815	 8.44977756379594E-02 
1816	 8.45102248156486E-02 
1817	 8.45287033746239E-02 
1818	 8.45487749218748E-02 
1819	 8.45657820783172E-02 
1820	 8.45883635945859E-02 
1821	 8.45980846782251E-02 
1822	 8.46231735349764E-02 
1823	 8.46679195865986E-02 
1824	 8.46977963945319E-02 
1825	 8.47384463272791E-02 
1826	 8.47699955739726E-02 
1827	 8.47599622643726E-02 
1828	 0.084763952124457 
1829	 8.47699362069401E-02 
1830	 8.47799553504013E-02 
1831	 8.47816556694858E-02 
1832	 8.47991834317331E-02 
1833	 8.48338651631769E-02 
1834	 0.084835905215213 
1835	 8.48369490559451E-02 
1836	 8.48730074262727E-02 
1837	 8.48901129804941E-02 
1838	 8.48921350756875E-02 
1839	 8.48989097077927E-02 
1840	 0.084913666561928 
1841	 8.48965587990718E-02 
1842	 8.48624348600713E-02 
1843	 8.48618237257702E-02 
1844	 8.48549270797762E-02 
1845	 8.48294185218976E-02 
1846	 8.48371636614911E-02 
1847	 8.48332129305517E-02 
1848	 8.48182823102393E-02 
1849	 8.48167703618819E-02 
1850	 8.48107178675059E-02 
1851	 8.47974045364606E-02 
1852	 8.47997088753481E-02 
1853	 8.47991632051393E-02 
1854	 8.47805614128691E-02 
1855	 8.47769240009754E-02 
1856	 8.47615109467646E-02 
1857	 8.47237157896686E-02 
1858	 8.47047785167972E-02 
1859	 8.46827635609165E-02 
1860	 8.46535237361852E-02 
1861	 0.084613453293717 
1862	 8.45917443594235E-02 
1863	 8.45620053065188E-02 
1864	 8.45293212516538E-02 
1865	 0.084505597852385 
1866	 8.44752796575484E-02 
1867	 8.44421516794559E-02 
1868	 8.44212632266335E-02 
1869	 8.43769702271348E-02 
1870	 8.43277247772509E-02 
1871	 8.42603143851235E-02 
1872	 8.41938117276573E-02 
1873	 8.40551098436294E-02 
1874	 0.083923246531664 
1875	 8.37942346121471E-02 
1876	 8.36322573092962E-02 
1877	 8.35061131341715E-02 
1878	 8.33706488936745E-02 
1879	 8.32080648136351E-02 
1880	 8.30454925780601E-02 
1881	 8.28836939970165E-02 
1882	 8.26984524191368E-02 
1883	 8.24965190811561E-02 
1884	 0.082291747712915 
1885	 8.20802138340723E-02 
1886	 8.18433121882316E-02 
1887	 8.16068789662517E-02 
1888	 8.13649183916822E-02 
1889	 8.11025711925105E-02 
1890	 8.08285547833115E-02 
1891	 8.05528729586081E-02 
1892	 8.02695962013728E-02 
1893	 7.99847577424449E-02 
1894	 7.96897057464963E-02 
1895	 7.93991488759834E-02 
1896	 7.91225629284547E-02 
1897	 7.88345990618606E-02 
1898	 7.85284589045644E-02 
1899	 7.82377514222068E-02 
1900	 7.79678965706715E-02 
1901	 7.77062388321457E-02 
1902	 7.74520407559567E-02 
1903	 7.72362172410353E-02 
1904	 7.69932621929311E-02 
1905	 7.67333397275834E-02 
1906	 7.64873794422937E-02 
1907	 7.62328106890099E-02 
1908	 7.60202826699977E-02 
1909	 7.58459830511263E-02 
1910	 7.56688842680478E-02 
1911	 7.55206523502923E-02 
1912	 7.53819851677799E-02 
1913	 7.52486597243361E-02 
1914	 7.51208470913858E-02 
1915	 7.50036372726352E-02 
1916	 7.48975313211583E-02 
1917	 7.47951176411288E-02 
1918	 0.07469986210931 
1919	 7.46117828117835E-02 
1920	 7.45327093001385E-02 
1921	 7.44617161792155E-02 
1922	 0.074416794975615 
1923	 7.43807120957361E-02 
1924	 7.43383104798689E-02 
1925	 7.43000988411183E-02 
1926	 7.42751723676334E-02 
1927	 7.42583334479369E-02 
1928	 7.42222495091782E-02 
1929	 7.42144045679716E-02 
1930	 7.42151956529894E-02 
1931	 7.42132381481835E-02 
1932	 7.42268639855784E-02 
1933	 7.42475578046522E-02 
1934	 7.42913413366422E-02 
1935	 7.43176125696353E-02 
1936	 7.43386905767315E-02 
1937	 7.43667982364063E-02 
1938	 7.43827272888277E-02 
1939	 7.44059481203777E-02 
1940	 7.44411888840717E-02 
1941	 7.44741662557894E-02 
1942	 7.44960226128734E-02 
1943	 7.45552197630157E-02 
1944	 7.45963819237738E-02 
1945	 7.46414068725413E-02 
1946	 7.46981508635328E-02 
1947	 0.074764785042359 
1948	 7.48235175553671E-02 
1949	 7.48985538784458E-02 
1950	 7.49595946430966E-02 
1951	 7.50108089577796E-02 
1952	 7.50548899572626E-02 
1953	 7.51095843719436E-02 
1954	 7.51488152740089E-02 
1955	 0.075204938108369 
1956	 7.52873117522969E-02 
1957	 7.53746997060829E-02 
1958	 7.54918661666098E-02 
1959	 7.55855024855059E-02 
1960	 7.56685888126683E-02 
1961	 7.57644239759746E-02 
1962	 7.58664090902854E-02 
1963	 7.59577197448716E-02 
1964	 7.60477464261494E-02 
1965	 0.076148554884982 
1966	 7.62371314002972E-02 
1967	 7.63260786812253E-02 
1968	 7.64329995728392E-02 
1969	 7.65722981172174E-02 
1970	 7.66750328861718E-02 
1971	 7.67671526622682E-02 
1972	 7.68649341239555E-02 
1973	 0.076940464170233 
1974	 7.70333712207794E-02 
1975	 7.71408692270013E-02 
1976	 0.077250330861537 
1977	 7.73547319952487E-02 
1978	 7.74501691764997E-02 
1979	 7.75530911135006E-02 
1980	 7.76541651971717E-02 
1981	 7.77563927671173E-02 
1982	 7.78623107470461E-02 
1983	 7.79702074939565E-02 
1984	 0.078077004113925 
1985	 7.81813834558677E-02 
1986	 7.82940764931651E-02 
1987	 7.83931489318254E-02 
1988	 7.84739183407253E-02 
1989	 7.85750423823141E-02 
1990	 7.86779938867964E-02 
1991	 7.87537783997269E-02 
1992	 7.88499986353769E-02 
1993	 7.89612222916774E-02 
1994	 7.90565214728511E-02 
1995	 7.91475804294079E-02 
1996	 7.92431740242552E-02 
1997	 7.93389697688264E-02 
1998	 7.94269050885869E-02 
1999	 7.95056189443585E-02 
2000	 0.079595473770711 
2001	 7.96840133291733E-02 
2002	 0.079769914813422 
2003	 7.98747499095529E-02 
2004	 7.99948123289874E-02 
2005	 8.00982306663479E-02 
2006	 8.01984547115892E-02 
2007	 8.02988571110559E-02 
2008	 8.03966069939002E-02 
2009	 0.080487412493203 
2010	 8.05787458652877E-02 
2011	 8.06608120900412E-02 
2012	 8.07214862697928E-02 
2013	 8.08000762402555E-02 
2014	 8.08824885930279E-02 
2015	 8.09695474148611E-02 
2016	 8.10648203967591E-02 
2017	 8.11489469608589E-02 
2018	 8.12326122509259E-02 
2019	 8.13024569118488E-02 
2020	 8.13907725337907E-02 
2021	 8.14844785255811E-02 
2022	 8.15839937958349E-02 
2023	 8.17033906400482E-02 
2024	 8.18052095529878E-02 
2025	 8.19036315736479E-02 
2026	 8.19984644906458E-02 
2027	 8.20868331952991E-02 
2028	 8.21650895477223E-02 
2029	 8.22544700417291E-02 
2030	 8.23531693603204E-02 
2031	 8.24336184188189E-02 
2032	 0.082506773293986 
2033	 8.25847813262854E-02 
2034	 8.26478890777819E-02 
2035	 8.27273374428044E-02 
2036	 8.28237033208432E-02 
2037	 8.29103743964963E-02 
2038	 8.30055616876914E-02 
2039	 8.30843935623223E-02 
2040	 8.31574595343141E-02 
2041	 8.32176810036959E-02 
2042	 8.32685630664707E-02 
2043	 8.33220387011964E-02 
2044	 8.33743030190874E-02 
2045	 8.34223041225641E-02 
2046	 8.34760457008449E-02 
2047	 8.35279548356339E-02 
2048	 8.35870106321528E-02 
2049	 8.36605743766574E-02 
2050	 8.37177840320551E-02 
2051	 8.37694739141268E-02 
2052	 8.38235203178946E-02 
2053	 8.38657107245119E-02 
2054	 8.39147849305566E-02 
2055	 8.39692277562878E-02 
2056	 0.084026894866894 
2057	 8.40850514651982E-02 
2058	 8.41407664642042E-02 
2059	 8.42038656441332E-02 
2060	 8.42865207715523E-02 
2061	 8.43383655750446E-02 
2062	 8.43702641897479E-02 
2063	 8.44199222304287E-02 
2064	 8.44537882823902E-02 
2065	 8.45035381957342E-02 
2066	 8.45769824003794E-02 
2067	 8.46446514118004E-02 
2068	 0.084714019701128 
2069	 8.47791972485136E-02 
2070	 8.48459999916895E-02 
2071	 8.49197790541569E-02 
2072	 8.49781420393624E-02 
2073	 8.50258341358427E-02 
2074	 8.50794251634912E-02 
2075	 8.51274980543387E-02 
2076	 8.51802540318914E-02 
2077	 8.52462991356356E-02 
2078	 8.52934682481986E-02 
2079	 8.53104484880244E-02 
2080	 0.085362707329712 
2081	 8.54382877828049E-02 
2082	 8.54930548187392E-02 
2083	 8.55567840016228E-02 
2084	 8.56282845628034E-02 
2085	 8.56705176866802E-02 
2086	 8.56721653770266E-02 
2087	 8.57067728215467E-02 
2088	 8.57454620810536E-02 
2089	 8.57874387393093E-02 
2090	 8.58375974242837E-02 
2091	 8.58876803767362E-02 
2092	 8.59357149861301E-02 
2093	 8.59927467789961E-02 
2094	 8.60755299567353E-02 
2095	 8.61274417629938E-02 
2096	 8.61624083779306E-02 
2097	 8.62063294058963E-02 
2098	 8.62484205515974E-02 
2099	 8.62526970561513E-02 
2100	 8.63092478857973E-02 
2101	 8.63979660697993E-02 
2102	 8.64645394897278E-02 
2103	 8.65428693242073E-02 
2104	 8.66116732026207E-02 
2105	 8.66680621776488E-02 
2106	 8.67297949996515E-02 
2107	 8.67990367298379E-02 
2108	 8.68596446302733E-02 
2109	 8.69113692313118E-02 
2110	 0.086967244496964 
2111	 8.70243942297351E-02 
2112	 8.70773604755305E-02 
2113	 8.71344988160321E-02 
2114	 8.71774409025116E-02 
2115	 8.72316403244051E-02 
2116	 8.72799167570405E-02 
2117	 8.73463971565513E-02 
2118	 8.74270061827465E-02 
2119	 8.75015882763444E-02 
2120	 8.75902747962642E-02 
2121	 8.76589505691122E-02 
2122	 8.77309682590747E-02 
2123	 8.77757957260958E-02 
2124	 8.77879675976295E-02 
2125	 8.78174152372918E-02 
2126	 8.78306951057914E-02 
2127	 8.78559630298393E-02 
2128	 8.78953184304512E-02 
2129	 8.79352947745298E-02 
2130	 8.79824644754012E-02 
2131	 8.80201142988192E-02 
2132	 8.80599678095492E-02 
2133	 8.81072172672588E-02 
2134	 8.81409131748668E-02 
2135	 8.81696022550285E-02 
2136	 0.088187389527005 
2137	 8.81995970953957E-02 
2138	 8.82017831070921E-02 
2139	 0.088185792152427 
2140	 8.81766198602682E-02 
2141	 8.81635250663467E-02 
2142	 8.81490646779761E-02 
2143	 8.81365978436691E-02 
2144	 8.81195178821983E-02 
2145	 8.80991374758353E-02 
2146	 0.088073951568553 
2147	 8.80406468666043E-02 
2148	 0.088011015109131 
2149	 8.79812015731982E-02 
2150	 8.79437335903346E-02 
2151	 8.79216861755304E-02 
2152	 8.79145213691008E-02 
2153	 8.78907561236049E-02 
2154	 8.78754247788332E-02 
2155	 8.78397117454915E-02 
2156	 8.77767281200037E-02 
2157	 8.77331682774843E-02 
2158	 8.77100613896381E-02 
2159	 8.76478005379009E-02 
2160	 8.75591356324261E-02 
2161	 8.74902315248233E-02 
2162	 0.087383210747713 
2163	 8.73130450484531E-02 
2164	 8.73071686564775E-02 
2165	 8.72680056780499E-02 
2166	 8.72038911510891E-02 
2167	 8.71251159618384E-02 
2168	 8.70529326351816E-02 
2169	 8.69492089684843E-02 
2170	 8.68709198753497E-02 
2171	 8.68104941388652E-02 
2172	 8.67507886967357E-02 
2173	 8.66935778029893E-02 
2174	 8.66350116401644E-02 
2175	 8.65836760820054E-02 
2176	 8.65350443656029E-02 
2177	 8.64798559160193E-02 
2178	 8.64292757021297E-02 
2179	 8.63967155998844E-02 
2180	 8.63529794965706E-02 
2181	 8.62993132063096E-02 
2182	 8.62519528771758E-02 
2183	 8.62237192637408E-02 
2184	 8.61592004276038E-02 
2185	 8.60988568314552E-02 
2186	 0.086031969115275 
2187	 8.59684450039913E-02 
2188	 8.58890460389207E-02 
2189	 8.58312141166045E-02 
2190	 8.57810671726839E-02 
2191	 8.57444137016272E-02 
2192	 8.57140308367948E-02 
2193	 8.57002270356012E-02 
2194	 8.57237617170274E-02 
2195	 0.085712693959693 
2196	 0.08569490668637 
2197	 8.56782380614525E-02 
2198	 8.56257153046522E-02 
2199	 8.56088589314016E-02 
2200	 8.56445993979521E-02 
2201	 8.56402929526882E-02 
2202	 8.56289226024889E-02 
2203	 0.085607900033587 
2204	 8.55844323152434E-02 
2205	 8.55256490954406E-02 
2206	 8.54995919194311E-02 
2207	 8.54888990147405E-02 
2208	 8.54860380634565E-02 
2209	 0.085482544366298 
2210	 8.55012232644396E-02 
2211	 8.55648581226247E-02 
2212	 8.55765777219428E-02 
2213	 8.55731756429778E-02 
2214	 8.55750554169289E-02 
2215	 8.55532757603071E-02 
2216	 0.085533904109818 
2217	 0.085508265625862 
2218	 8.55066838852378E-02 
2219	 8.55089456223639E-02 
2220	 8.55129183100793E-02 
2221	 8.55366600659163E-02 
2222	 8.55674538199669E-02 
2223	 8.56106993503868E-02 
2224	 8.56263911667074E-02 
2225	 8.56325414917862E-02 
2226	 8.56412214536668E-02 
2227	 0.085650054762002 
2228	 8.56327076309753E-02 
2229	 8.56311863785863E-02 
2230	 8.56386522538698E-02 
2231	 8.56556385299148E-02 
2232	 8.56726732297592E-02 
2233	 8.56920104567862E-02 
2234	 8.57394867521255E-02 
2235	 8.57683463982915E-02 
2236	 0.085775001793989 
2237	 8.57917755493326E-02 
2238	 0.085832488886605 
2239	 8.58345838310845E-02 
2240	 8.57817106413865E-02 
2241	 8.57891642662701E-02 
2242	 8.58179610531449E-02 
2243	 8.58333647508287E-02 
2244	 8.58776665935303E-02 
2245	 8.59395998985862E-02 
2246	 8.59306827922976E-02 
2247	 0.085896887601485 
2248	 8.59147163522975E-02 
2249	 8.59507909901893E-02 
2250	 8.59715788219867E-02 
2251	 8.60225074046598E-02 
2252	 0.086042882763992 
2253	 8.60212316671342E-02 
2254	 8.60389313224741E-02 
2255	 8.60722599045514E-02 
2256	 8.60974223807084E-02 
2257	 8.61463891234079E-02 
2258	 8.61658022654049E-02 
2259	 8.61628492659737E-02 
2260	 8.61689376947739E-02 
2261	 8.61590376667198E-02 
2262	 8.61658478998502E-02 
2263	 0.086188349772984 
2264	 8.62043458362322E-02 
2265	 0.086229201720565 
2266	 8.62372755721289E-02 
2267	 8.62028351922737E-02 
2268	 8.62193384370814E-02 
2269	 8.62689822881137E-02 
2270	 8.63116801770596E-02 
2271	 8.63373670023649E-02 
2272	 8.63823483694464E-02 
2273	 8.63935050834805E-02 
2274	 8.63911392699908E-02 
2275	 8.64243510498078E-02 
2276	 8.65073800535544E-02 
2277	 8.65341918186209E-02 
2278	 8.65455335236677E-02 
2279	 8.65646552087378E-02 
2280	 8.65604944583064E-02 
2281	 8.65667046546973E-02 
2282	 8.65719988156523E-02 
2283	 8.66018601319225E-02 
2284	 0.086640943083422 
2285	 8.66856461302822E-02 
2286	 8.67717487553698E-02 
2287	 8.68145037948403E-02 
2288	 8.68335871965613E-02 
2289	 8.68537059964068E-02 
2290	 8.68353868103603E-02 
2291	 8.68638625172236E-02 
2292	 8.69432138214778E-02 
2293	 0.08696938261422 
2294	 8.69816399965135E-02 
2295	 8.70079746057923E-02 
2296	 8.70032218265649E-02 
2297	 8.69970511048178E-02 
2298	 8.70581655465471E-02 
2299	 8.71375233515143E-02 
2300	 8.71551000534331E-02 
2301	 8.71375045283443E-02 
2302	 8.70942454676542E-02 
2303	 8.70514765894303E-02 
2304	 8.70769760682756E-02 
2305	 8.71219677796524E-02 
2306	 8.71201158542368E-02 
2307	 8.71302276491503E-02 
2308	 8.70907027003325E-02 
2309	 8.69631519390409E-02 
2310	 8.69362010646709E-02 
2311	 8.69337847252223E-02 
2312	 8.69430321221779E-02 
2313	 8.70164467857286E-02 
2314	 8.70421051790326E-02 
2315	 0.08703940818317 
2316	 8.70753895591218E-02 
2317	 8.71316241399153E-02 
2318	 8.71579418875844E-02 
2319	 8.71842034030037E-02 
2320	 0.087207588697359 
2321	 8.72046534208707E-02 
2322	 8.72220772986345E-02 
2323	 8.72725160433555E-02 
2324	 8.72987397478495E-02 
2325	 8.73128715394022E-02 
2326	 8.73217534359873E-02 
2327	 8.73170731225254E-02 
2328	 8.73100638060203E-02 
2329	 8.73334008208342E-02 
2330	 8.73072233206996E-02 
2331	 8.72816914977061E-02 
2332	 0.087267044381589 
2333	 8.72548564923638E-02 
2334	 8.72908809218249E-02 
2335	 8.72859374954794E-02 
2336	 8.72901188223223E-02 
2337	 8.73116611983879E-02 
2338	 8.72828198754297E-02 
2339	 8.72767844357919E-02 
2340	 8.73075797299632E-02 
2341	 8.73514494867615E-02 
2342	 8.73662779711866E-02 
2343	 8.73611850051467E-02 
2344	 8.73395241423576E-02 
2345	 0.087330371421681 
2346	 8.72717427949819E-02 
2347	 8.72765109591808E-02 
2348	 0.087352163647064 
2349	 8.73740434920641E-02 
2350	 0.08739727531823 
2351	 8.73708315021561E-02 
2352	 8.72756291954284E-02 
2353	 8.72569629415272E-02 
2354	 8.72379024696748E-02 
2355	 8.72280191573559E-02 
2356	 8.73065350614129E-02 
2357	 8.73186906441346E-02 
2358	 8.72339673882566E-02 
2359	 0.087237183949683 
2360	 8.73064966576598E-02 
2361	 8.73011388509884E-02 
2362	 0.087301686265096 
2363	 8.73259825255292E-02 
2364	 8.73010345731091E-02 
2365	 8.72842185039656E-02 
2366	 8.73029212053567E-02 
2367	 8.73120186248165E-02 
2368	 8.73118199364719E-02 
2369	 8.72968458118799E-02 
2370	 8.72798946121387E-02 
2371	 8.72701697561644E-02 
2372	 8.72368477659669E-02 
2373	 8.71951835805958E-02 
2374	 8.71590752091109E-02 
2375	 8.70983171238859E-02 
2376	 8.70764679801785E-02 
2377	 8.70456539195338E-02 
2378	 8.70498405146868E-02 
2379	 8.71161251909494E-02 
2380	 8.71192498298111E-02 
2381	 8.71148075267837E-02 
2382	 8.70663183100445E-02 
2383	 8.69571893400377E-02 
2384	 8.69032450743782E-02 
2385	 0.086849975019889 
2386	 8.68582019748788E-02 
2387	 8.69476038654013E-02 
2388	 8.68918667498757E-02 
2389	 0.086784564159059 
2390	 8.66430960656124E-02 
2391	 8.64445547063959E-02 
2392	 8.64201577795019E-02 
2393	 8.64583328737143E-02 
2394	 8.65371214428473E-02 
2395	 8.66265066654601E-02 
2396	 8.66088198783068E-02 
2397	 8.66382476797813E-02 
2398	 0.08665023222412 
2399	 8.65990658360242E-02 
2400	 8.65729608242558E-02 
2401	 8.65774181713315E-02 
2402	 8.65567143499378E-02 
2403	 8.65278884811173E-02 
2404	 8.65655075799056E-02 
2405	 8.65588423187049E-02 
2406	 8.64515637675209E-02 
2407	 8.63538247862563E-02 
2408	 8.63151432218997E-02 
2409	 8.62224392102243E-02 
2410	 8.61381142249848E-02 
2411	 8.61654736349574E-02 
2412	 8.61483110988337E-02 
2413	 8.60742170385965E-02 
2414	 8.60861661958968E-02 
2415	 8.60888016100355E-02 
2416	 8.60697247409106E-02 
2417	 8.60492133882095E-02 
2418	 8.60301629041247E-02 
2419	 8.59914538344387E-02 
2420	 8.59580277706491E-02 
2421	 8.58813727794324E-02 
2422	 8.58740767315268E-02 
2423	 0.085930537125347 
2424	 8.59248196158662E-02 
2425	 8.59550021892493E-02 
2426	 0.085916673099294 
2427	 8.58048348557996E-02 
2428	 8.57025428857955E-02 
2429	 0.085584965964187 
2430	 8.54839162231397E-02 
2431	 8.53349713667209E-02 
2432	 8.52514867980331E-02 
2433	 0.085207424922991 
2434	 8.51581293386098E-02 
2435	 8.51336659178494E-02 
2436	 8.51314156660835E-02 
2437	 8.51802178107078E-02 
2438	 8.51364901701182E-02 
2439	 0.085071819578229 
2440	 8.50487152457864E-02 
2441	 8.49279175227248E-02 
2442	 8.49167374546796E-02 
2443	 8.50345248172764E-02 
2444	 8.50379242102056E-02 
2445	 8.50789387159452E-02 
2446	 8.50979081368798E-02 
2447	 8.49877581143763E-02 
2448	 8.49654866807003E-02 
2449	 8.50095344107959E-02 
2450	 8.48871647708778E-02 
2451	 8.47718904079196E-02 
2452	 8.46637960355152E-02 
2453	 0.084388196010186 
2454	 8.42526406122895E-02 
2455	 8.42026456067773E-02 
2456	 8.41215297235366E-02 
2457	 8.40914796760281E-02 
2458	 8.40914623982852E-02 
2459	 8.40797447784537E-02 
2460	 8.40441038670735E-02 
2461	 0.084000949597425 
2462	 8.39470456866748E-02 
2463	 0.08397296994757 
2464	 8.39165852874521E-02 
2465	 8.37729885461371E-02 
2466	 8.37134730036608E-02 
2467	 8.36235970355359E-02 
2468	 8.34600287794064E-02 
2469	 8.32597432229034E-02 
2470	 8.32087190553138E-02 
2471	 8.32938478971665E-02 
2472	 8.33622713768774E-02 
2473	 8.35976355636668E-02 
2474	 8.36880632442403E-02 
2475	 8.34498733330639E-02 
2476	 0.083338605633282 
2477	 8.31180427528411E-02 
2478	 8.28582367328716E-02 
2479	 0.082802078902618 
2480	 8.28404679183494E-02 
2481	 8.29702249410329E-02 
2482	 8.30838209744222E-02 
2483	 8.30827027014203E-02 
2484	 0.082949349176839 
2485	 0.082827735059801 
2486	 8.26665309681952E-02 
2487	 8.27236433266469E-02 
2488	 8.29571591940538E-02 
2489	 8.29209191584842E-02 
2490	 8.28933684182964E-02 
2491	 8.26619901256651E-02 
2492	 8.21750035446318E-02 
2493	 8.20353750230486E-02 
2494	 8.21225310028952E-02 
2495	 0.082286543092631 
2496	 8.26046339786832E-02 
2497	 8.28525482419036E-02 
2498	 8.29605399738355E-02 
2499	 8.29861597792577E-02 
2500	 8.29328559150692E-02 
