Wavelength	MM_3500008.asd
350	 3.73169445440679E-02 
351	 3.69249876528659E-02 
352	 3.37213216993697E-02 
353	 2.90045460858497E-02 
354	 3.14247970701318E-02 
355	 3.96161197774205E-02 
356	 4.12123174583943E-02 
357	 3.10113057681464E-02 
358	 4.12120286150276E-02 
359	 4.06272546161596E-02 
360	 3.00401382801174E-02 
361	 3.03752982343465E-02 
362	 3.25646304809092E-02 
363	 3.35626958616528E-02 
364	 3.28282557270888E-02 
365	 3.25983868436279E-02 
366	 3.11181110428435E-02 
367	 2.91789322869845E-02 
368	 2.87683800864854E-02 
369	 0.034402917364354 
370	 0.035664469140673 
371	 3.35841827978189E-02 
372	 3.62371240257269E-02 
373	 3.35678378004521E-02 
374	 3.20161458658752E-02 
375	 3.52826642296086E-02 
376	 3.92721692649191E-02 
377	 3.92228507375695E-02 
378	 3.74988959262459E-02 
379	 3.71675247193204E-02 
380	 0.03282521458077 
381	 3.27554664392885E-02 
382	 3.74627373658222E-02 
383	 4.11002494423949E-02 
384	 4.17781150394096E-02 
385	 4.01660271811155E-02 
386	 3.83638477388297E-02 
387	 4.04644817813081E-02 
388	 4.00546125140255E-02 
389	 3.83671982614311E-02 
390	 0.03843410371086 
391	 3.88779553853518E-02 
392	 4.05244084647405E-02 
393	 4.28817902669167E-02 
394	 4.43319025622822E-02 
395	 0.043293448251484 
396	 4.32510765617879E-02 
397	 0.046069013042954 
398	 0.04902531685803 
399	 4.79071155160059E-02 
400	 4.68937240994854E-02 
401	 5.09218840458955E-02 
402	 5.00390244862558E-02 
403	 4.85762231813367E-02 
404	 4.90607044577922E-02 
405	 5.11832354635542E-02 
406	 0.052410990871281 
407	 5.31117948815935E-02 
408	 5.35981663710344E-02 
409	 5.20168482806498E-02 
410	 5.21579352565641E-02 
411	 5.38062246170975E-02 
412	 5.48890100447868E-02 
413	 5.51737495421961E-02 
414	 5.52570224074931E-02 
415	 5.54836007944775E-02 
416	 5.57739288793872E-02 
417	 5.51951006579733E-02 
418	 5.52492962122772E-02 
419	 5.67839901231415E-02 
420	 5.65583753120757E-02 
421	 5.58038538523015E-02 
422	 5.54565409470998E-02 
423	 5.59879007412454E-02 
424	 5.55725561884622E-02 
425	 5.54446824011407E-02 
426	 5.59228090260557E-02 
427	 5.48617545132543E-02 
428	 5.45981144735937E-02 
429	 0.054735744894605 
430	 5.43220635808782E-02 
431	 5.43872719406295E-02 
432	 5.40292904206207E-02 
433	 5.34017758764877E-02 
434	 5.36760951798936E-02 
435	 5.39449521863232E-02 
436	 5.40677874159171E-02 
437	 5.40659401685233E-02 
438	 5.38930616995739E-02 
439	 5.41727431952219E-02 
440	 0.054819506784804 
441	 5.53734105788256E-02 
442	 5.56228179199418E-02 
443	 5.57312506886313E-02 
444	 5.58726771019675E-02 
445	 5.61755994194174E-02 
446	 5.62863011804388E-02 
447	 5.65617746501142E-02 
448	 5.72672341955721E-02 
449	 5.73741839277154E-02 
450	 5.76965668606697E-02 
451	 5.82808664310098E-02 
452	 5.85049451986466E-02 
453	 5.85989188532164E-02 
454	 0.058760156391024 
455	 5.90395682179318E-02 
456	 5.91169994372679E-02 
457	 5.94103605634316E-02 
458	 5.96837581549171E-02 
459	 5.95403345099376E-02 
460	 5.98031619501711E-02 
461	 0.05987359651185 
462	 0.059633059826191 
463	 5.97938198190841E-02 
464	 6.02610676701757E-02 
465	 6.07147250019202E-02 
466	 6.08530012418668E-02 
467	 6.07653344821724E-02 
468	 6.07028893739612E-02 
469	 6.07294629531976E-02 
470	 6.07590943107056E-02 
471	 6.09950039689184E-02 
472	 6.10486849336414E-02 
473	 6.08462885850879E-02 
474	 0.061337919017761 
475	 6.14404746241109E-02 
476	 6.11851614900898E-02 
477	 6.10845216981782E-02 
478	 6.12200154414273E-02 
479	 6.14085524616119E-02 
480	 6.14861556523116E-02 
481	 6.13408336803099E-02 
482	 6.17151141267505E-02 
483	 6.20373189077623E-02 
484	 6.17274267708258E-02 
485	 6.17300138165712E-02 
486	 6.17636243162418E-02 
487	 6.17434074280439E-02 
488	 0.061768047785863 
489	 6.18062117876288E-02 
490	 6.18730635962428E-02 
491	 6.19465251353677E-02 
492	 6.18842123197271E-02 
493	 0.061884070848566 
494	 6.19012581265235E-02 
495	 6.18357939581772E-02 
496	 6.21437490765673E-02 
497	 0.062250929090179 
498	 6.20595724037761E-02 
499	 6.23217152682064E-02 
500	 6.23443500109486E-02 
501	 6.22515568862782E-02 
502	 6.23132951085929E-02 
503	 6.23417101827931E-02 
504	 6.23170317136423E-02 
505	 6.22996603808382E-02 
506	 6.24050818201403E-02 
507	 6.24095501895123E-02 
508	 0.062454843473651 
509	 6.26156868368141E-02 
510	 6.25866061751122E-02 
511	 0.062628497934818 
512	 6.26656424736739E-02 
513	 6.24957112350927E-02 
514	 6.24790900106259E-02 
515	 6.25883178547398E-02 
516	 6.27217320362028E-02 
517	 6.27304973473742E-02 
518	 6.27699610185907E-02 
519	 6.28254504597671E-02 
520	 6.28334414937151E-02 
521	 6.27698550911469E-02 
522	 6.27843631501695E-02 
523	 6.28548578057279E-02 
524	 6.27780234156537E-02 
525	 6.28672018349853E-02 
526	 6.29516455694338E-02 
527	 6.28838618918083E-02 
528	 6.29402422173366E-02 
529	 6.30102194853496E-02 
530	 0.063010323071088 
531	 6.29047318115889E-02 
532	 6.29902189756447E-02 
533	 6.31235892268338E-02 
534	 6.31708780066678E-02 
535	 6.31365870393444E-02 
536	 6.31710260297514E-02 
537	 6.32883472081194E-02 
538	 6.34283765076979E-02 
539	 0.063477371038495 
540	 6.34827395536392E-02 
541	 6.35023748919509E-02 
542	 6.35898341549201E-02 
543	 6.36107760839372E-02 
544	 6.36517702349411E-02 
545	 6.37899895217913E-02 
546	 6.38089104259144E-02 
547	 6.38333827305756E-02 
548	 6.39316218985955E-02 
549	 6.41048898854253E-02 
550	 6.41637791765522E-02 
551	 6.41945264020632E-02 
552	 6.42922501615771E-02 
553	 6.44368033211587E-02 
554	 6.45845811041247E-02 
555	 6.47334026073011E-02 
556	 0.064896074838965 
557	 0.064988191734517 
558	 6.51445725884228E-02 
559	 6.54068794237998E-02 
560	 6.56158908948908E-02 
561	 0.065822484588463 
562	 6.60271341030735E-02 
563	 6.62310477996537E-02 
564	 6.65214149612902E-02 
565	 6.67421250578939E-02 
566	 6.69000485350196E-02 
567	 0.067194377551579 
568	 0.067577327384349 
569	 6.79620236483578E-02 
570	 6.82895324587881E-02 
571	 6.86311099229102E-02 
572	 6.90263886414725E-02 
573	 6.94671395457189E-02 
574	 6.99074778679459E-02 
575	 7.02978959215471E-02 
576	 7.07182641498149E-02 
577	 7.11893136815555E-02 
578	 7.15419420223992E-02 
579	 7.19867295425166E-02 
580	 7.24662031196012E-02 
581	 7.28437627521252E-02 
582	 7.32896679164408E-02 
583	 0.073811978990118 
584	 7.43576195790041E-02 
585	 7.48067373916993E-02 
586	 7.53922291004138E-02 
587	 0.076012220176006 
588	 7.65335775139018E-02 
589	 7.71597983874194E-02 
590	 0.077770834953338 
591	 7.83500918592741E-02 
592	 0.078981954695332 
593	 7.95793282556369E-02 
594	 8.02034502633857E-02 
595	 8.08719961599065E-02 
596	 8.14115034123726E-02 
597	 8.19205342274327E-02 
598	 0.082426792143795 
599	 8.29251134862633E-02 
600	 8.34413610088608E-02 
601	 8.39540845508588E-02 
602	 8.44356744502345E-02 
603	 0.084854848253556 
604	 0.085312334022315 
605	 8.57661069051329E-02 
606	 8.61518781286801E-02 
607	 8.65903672093434E-02 
608	 8.70086253944105E-02 
609	 8.74171368042376E-02 
610	 8.79288428303563E-02 
611	 0.088283267295156 
612	 0.08858085197727 
613	 8.89417068538735E-02 
614	 8.92408022345094E-02 
615	 0.089489752737746 
616	 8.97247060508305E-02 
617	 8.99943820704658E-02 
618	 9.02981312814045E-02 
619	 9.05288007712536E-02 
620	 9.06688191622927E-02 
621	 9.09306519958086E-02 
622	 9.11511266884653E-02 
623	 9.13215437653701E-02 
624	 9.14958819607806E-02 
625	 9.17140226077521E-02 
626	 0.091924736492908 
627	 9.20933034300419E-02 
628	 9.22164704588297E-02 
629	 9.23603812560365E-02 
630	 9.25296472955768E-02 
631	 9.27010899325331E-02 
632	 9.28202716664764E-02 
633	 9.29491842554502E-02 
634	 9.30874669122233E-02 
635	 9.31893002686877E-02 
636	 9.33691948257788E-02 
637	 9.35347037667357E-02 
638	 9.36275961596076E-02 
639	 9.37597683724778E-02 
640	 9.39040046465616E-02 
641	 9.40580219476738E-02 
642	 9.42236253105676E-02 
643	 9.43735338603862E-02 
644	 9.45021576999871E-02 
645	 9.46198852241527E-02 
646	 9.47566827593447E-02 
647	 9.48799439059371E-02 
648	 9.49858645243429E-02 
649	 9.50936102581185E-02 
650	 9.52783151924347E-02 
651	 0.095474799163021 
652	 9.56443954435655E-02 
653	 9.57796973873997E-02 
654	 9.59317335461895E-02 
655	 9.60821103993018E-02 
656	 9.62230542058332E-02 
657	 9.64062403438588E-02 
658	 9.66135946581535E-02 
659	 9.68133855237594E-02 
660	 9.69723451987449E-02 
661	 9.71039913901379E-02 
662	 9.72934209226438E-02 
663	 9.75358195564175E-02 
664	 0.097686894070678 
665	 9.79020526280418E-02 
666	 9.81407031534168E-02 
667	 9.83324915282727E-02 
668	 9.85241340493843E-02 
669	 9.87491510497154E-02 
670	 9.89773883028724E-02 
671	 0.099136080039768 
672	 9.93641929140363E-02 
673	 0.099614022266277 
674	 9.98412833759324E-02 
675	 0.100092450978831 
676	 0.10033619594975 
677	 0.10055110436764 
678	 0.100742210718105 
679	 0.101059021870169 
680	 0.101354492085265 
681	 0.101584649032694 
682	 0.101871867377971 
683	 0.102192090794671 
684	 0.102478691077594 
685	 0.102697779374903 
686	 0.102973445745109 
687	 0.103290427547353 
688	 0.103600505803644 
689	 0.10384295820726 
690	 0.104097678375421 
691	 0.104390600339448 
692	 0.10471249302798 
693	 0.105002235961855 
694	 0.105296430554594 
695	 0.105617330445445 
696	 0.105965112421015 
697	 0.106248775558664 
698	 0.106535666883595 
699	 0.106848250194723 
700	 0.107152730365408 
701	 0.107478493471136 
702	 0.107788062902329 
703	 0.108058575303819 
704	 0.108342551973971 
705	 0.108654894741085 
706	 0.108975038883973 
707	 0.109269233935813 
708	 0.109586249844566 
709	 0.109881618812521 
710	 0.110148776088306 
711	 0.110450481644613 
712	 0.110724243100435 
713	 0.110985839903186 
714	 0.111265639403801 
715	 0.111564345664843 
716	 0.111846840365362 
717	 0.112106294503469 
718	 0.112357343155949 
719	 0.112591388125438 
720	 0.1128417254193 
721	 0.113104362301198 
722	 0.113291191079742 
723	 0.113478204359318 
724	 0.113713915120139 
725	 0.113999228149537 
726	 0.114152738284016 
727	 0.114339255870766 
728	 0.114577032337334 
729	 0.11473808706487 
730	 0.114890751361743 
731	 0.1150416625363 
732	 0.115184925870711 
733	 0.115310243692502 
734	 0.115422436709845 
735	 0.115528350603082 
736	 0.115631035231092 
737	 0.115702049079015 
738	 0.115777200694461 
739	 0.115862243400442 
740	 0.115925952339287 
741	 0.115988104241086 
742	 0.116021863058866 
743	 0.116018165732929 
744	 0.116045530826495 
745	 0.116020085834358 
746	 0.115977613122294 
747	 0.115990415370248 
748	 0.115950845258062 
749	 0.115900793792363 
750	 0.115856428681699 
751	 0.115787530641386 
752	 0.115712772532112 
753	 0.115634074106552 
754	 0.115548554597109 
755	 0.115446796800627 
756	 0.115372905181842 
757	 0.11529699048486 
758	 0.115163108126806 
759	 0.115031203624255 
760	 0.114905333834131 
761	 0.114772908897298 
762	 0.11460842622539 
763	 0.114454692895778 
764	 0.114296956709719 
765	 0.11412355396193 
766	 0.113975763565926 
767	 0.113806676997581 
768	 0.113621397489943 
769	 0.11344365650473 
770	 0.113220116671789 
771	 0.113027271838202 
772	 0.112869770505949 
773	 0.112657224267426 
774	 0.112500983443148 
775	 0.112315525512299 
776	 0.112047318822564 
777	 0.11184911770052 
778	 0.11164697959635 
779	 0.111457523775842 
780	 0.111309821321138 
781	 0.111049890194376 
782	 0.110809866951323 
783	 0.110627298101672 
784	 0.110418407329705 
785	 0.110200443224067 
786	 0.109983508149542 
787	 0.10976906289957 
788	 0.109531485317319 
789	 0.109348680198213 
790	 0.109176342187421 
791	 0.108944429523402 
792	 0.108714105631544 
793	 0.10851102765533 
794	 0.108329494414259 
795	 0.108137052449092 
796	 0.107908986745767 
797	 0.107683167117194 
798	 0.10749164821098 
799	 0.107338765939997 
800	 0.107148601576717 
801	 0.106947761987856 
802	 0.106774115959615 
803	 0.106574442474232 
804	 0.106360702051216 
805	 0.106162870963921 
806	 0.10600916634016 
807	 0.105819955468555 
808	 0.105631343477791 
809	 0.105462438080175 
810	 0.105293016382181 
811	 0.105130393646596 
812	 0.104951595782349 
813	 0.104758520808381 
814	 0.104639627103881 
815	 0.104505019242109 
816	 0.104342677617273 
817	 0.104179277891311 
818	 0.104053819131078 
819	 0.103933722757297 
820	 0.103781419540329 
821	 0.103575223738018 
822	 0.103477532611756 
823	 0.103376494938153 
824	 0.10321619947347 
825	 0.103102087403463 
826	 0.102999215259341 
827	 0.102887619514184 
828	 0.102757279216242 
829	 0.102617833867122 
830	 0.102490411059938 
831	 0.102396155488558 
832	 0.102335942036146 
833	 0.102205262559182 
834	 0.102080955147007 
835	 0.101986869005353 
836	 0.10188699542062 
837	 0.101814688361557 
838	 0.101761792053271 
839	 0.101706090326785 
840	 0.10161327173761 
841	 0.101552125851747 
842	 0.101504899452191 
843	 0.101440159316931 
844	 0.101362444649964 
845	 0.101314833498881 
846	 0.10127053815058 
847	 0.101189626055954 
848	 0.101164235893945 
849	 0.101114474802307 
850	 0.101034117269299 
851	 0.100985501253723 
852	 0.100953682551091 
853	 0.100972892887171 
854	 0.101011575811041 
855	 0.100942219982641 
856	 0.10090710268755 
857	 0.100902645809559 
858	 0.100895438720636 
859	 0.100867413878181 
860	 0.10085660107612 
861	 0.100844447160026 
862	 0.100804399146335 
863	 0.100763399284102 
864	 0.100772215364708 
865	 0.100818067571872 
866	 0.100849647408005 
867	 0.100862070110822 
868	 0.10086543575855 
869	 0.100874636470034 
870	 0.100905312076293 
871	 0.100958456642487 
872	 0.100995024202863 
873	 0.101008139927542 
874	 0.101051395896326 
875	 0.10106047149971 
876	 0.101080212268591 
877	 0.101145358391243 
878	 0.101191582245985 
879	 0.101259898984051 
880	 0.101332262437543 
881	 0.101384601833954 
882	 0.101453453774079 
883	 0.101541552685653 
884	 0.101597896040344 
885	 0.101581020324341 
886	 0.101688059081204 
887	 0.101769458722677 
888	 0.101824241162632 
889	 0.101976671733051 
890	 0.102070309219034 
891	 0.102116315122613 
892	 0.102174316575356 
893	 0.102323577134235 
894	 0.102425103074885 
895	 0.102526947926336 
896	 0.102661830312231 
897	 0.102768099636226 
898	 0.102908693290461 
899	 0.103045759618796 
900	 0.103146734870921 
901	 0.103264871549883 
902	 0.103358156028846 
903	 0.103446236330196 
904	 0.10356456231333 
905	 0.103724737583214 
906	 0.103882427638755 
907	 0.10402828546274 
908	 0.104177517085092 
909	 0.104365051712195 
910	 0.104536207916146 
911	 0.10469079550506 
912	 0.104861375286314 
913	 0.105016189979858 
914	 0.105148341184295 
915	 0.105296992486439 
916	 0.105518333701154 
917	 0.105658402056151 
918	 0.105831336914298 
919	 0.106041724923409 
920	 0.1061477125668 
921	 0.106333806378215 
922	 0.106545104766106 
923	 0.106754932437689 
924	 0.107032694494347 
925	 0.107237848820387 
926	 0.107425775963959 
927	 0.107633244376296 
928	 0.107782552775656 
929	 0.107978290488503 
930	 0.108250041632929 
931	 0.108550083967582 
932	 0.10870609200208 
933	 0.10901272894161 
934	 0.10930272882575 
935	 0.109412931653807 
936	 0.109588221274379 
937	 0.109882493624575 
938	 0.110181938748959 
939	 0.110391834780258 
940	 0.110717530481067 
941	 0.110977663075393 
942	 0.111209473625994 
943	 0.111491933582311 
944	 0.111695664755826 
945	 0.111897898706543 
946	 0.112183044231763 
947	 0.112562999163746 
948	 0.11276221634839 
949	 0.112959442665924 
950	 0.113234084569885 
951	 0.113577185139974 
952	 0.113891165124133 
953	 0.114182965600642 
954	 0.114424794123881 
955	 0.114610593066464 
956	 0.114942107106494 
957	 0.115265383654969 
958	 0.115591246229292 
959	 0.115986325665316 
960	 0.116162332499628 
961	 0.116359463762674 
962	 0.116648000826268 
963	 0.116956952982283 
964	 0.117251922918413 
965	 0.117574308331966 
966	 0.11790077227282 
967	 0.118184299882297 
968	 0.118536700195467 
969	 0.118799967888205 
970	 0.118970184732015 
971	 0.119184994505402 
972	 0.119662800618403 
973	 0.120030740390321 
974	 0.1202288143947 
975	 0.120464146562336 
976	 0.120947706938675 
977	 0.121272187826105 
978	 0.121430515664908 
979	 0.121685912952697 
980	 0.122012877865713 
981	 0.122383494975307 
982	 0.122735067508712 
983	 0.123019454962364 
984	 0.123345544771684 
985	 0.123674131099763 
986	 0.123925025506943 
987	 0.124080557683062 
988	 0.12450041070896 
989	 0.124766589958821 
990	 0.124970687450504 
991	 0.125376827009165 
992	 0.125672039581973 
993	 0.125810387640912 
994	 0.12600336164136 
995	 0.12642240590122 
996	 0.126611970489051 
997	 0.126902002756435 
998	 0.127172881766586 
999	 0.127308346021522 
1000	 0.127876728904794 
1001	 0.1273697396206 
1002	 0.12760291749579 
1003	 0.127831140230604 
1004	 0.128072059541874 
1005	 0.128343293900393 
1006	 0.128573136636165 
1007	 0.12878700623427 
1008	 0.12898757898086 
1009	 0.129206361209873 
1010	 0.129404167848712 
1011	 0.129631204194378 
1012	 0.129886453608294 
1013	 0.130116839876949 
1014	 0.130341540484147 
1015	 0.130555753210763 
1016	 0.13075299092954 
1017	 0.130958980290153 
1018	 0.131167673952194 
1019	 0.131358713341778 
1020	 0.131516835953117 
1021	 0.131674615788294 
1022	 0.13185028432862 
1023	 0.132060648840986 
1024	 0.132299660932941 
1025	 0.132493155166732 
1026	 0.132650739227188 
1027	 0.132789117920454 
1028	 0.132908606600727 
1029	 0.133061754966541 
1030	 0.13321387306827 
1031	 0.13335346470009 
1032	 0.133465038169324 
1033	 0.133583074714659 
1034	 0.13373455451486 
1035	 0.133854515302236 
1036	 0.133937241588446 
1037	 0.134063183158194 
1038	 0.134207468885614 
1039	 0.134399464678096 
1040	 0.134608397567929 
1041	 0.134768392566424 
1042	 0.134917431305766 
1043	 0.135019334143832 
1044	 0.135134359613773 
1045	 0.135257227302013 
1046	 0.135400243603124 
1047	 0.135456057465676 
1048	 0.135517272875 
1049	 0.135623384642524 
1050	 0.135711150928724 
1051	 0.135856921120023 
1052	 0.136053482899776 
1053	 0.136165488273814 
1054	 0.136226446098278 
1055	 0.13631884347566 
1056	 0.136399929268276 
1057	 0.136504867655573 
1058	 0.136675781707527 
1059	 0.136806557229217 
1060	 0.136922646776792 
1061	 0.13701946829845 
1062	 0.13714490977277 
1063	 0.137287260181464 
1064	 0.137409820816047 
1065	 0.137493907450937 
1066	 0.137572375865852 
1067	 0.137669306144067 
1068	 0.137785531752486 
1069	 0.137931112285757 
1070	 0.138059297678423 
1071	 0.138183931640902 
1072	 0.138278760402943 
1073	 0.138345231038264 
1074	 0.138452481117252 
1075	 0.138543032550724 
1076	 0.138704168719062 
1077	 0.138883164270663 
1078	 0.13898713523687 
1079	 0.139086427339196 
1080	 0.139153380886029 
1081	 0.139182773410358 
1082	 0.13924347217184 
1083	 0.13929087336612 
1084	 0.139309984695371 
1085	 0.139372801036736 
1086	 0.139448277488364 
1087	 0.139531496971002 
1088	 0.139637878459784 
1089	 0.13975992376593 
1090	 0.139865412061174 
1091	 0.139930330132925 
1092	 0.140002406564614 
1093	 0.140108677898497 
1094	 0.140210032722935 
1095	 0.140346037733191 
1096	 0.140459096358489 
1097	 0.140488480197454 
1098	 0.140533777853736 
1099	 0.140523417292173 
1100	 0.14056201960235 
1101	 0.140624856897486 
1102	 0.140700443109956 
1103	 0.140801948249594 
1104	 0.140875608752456 
1105	 0.140975892295468 
1106	 0.141052173722541 
1107	 0.141110026995703 
1108	 0.141209455679748 
1109	 0.141284166106802 
1110	 0.141325602725458 
1111	 0.141387840464914 
1112	 0.141447461752643 
1113	 0.141508927927335 
1114	 0.141569627518339 
1115	 0.141647110189004 
1116	 0.141746161166574 
1117	 0.141819203694644 
1118	 0.141884340776208 
1119	 0.141957601008769 
1120	 0.142040234435547 
1121	 0.142110238556082 
1122	 0.142195359111467 
1123	 0.14229135522955 
1124	 0.142368485850318 
1125	 0.142427386690371 
1126	 0.142492916287103 
1127	 0.142559456421238 
1128	 0.14261606742205 
1129	 0.142654786105115 
1130	 0.142711228326728 
1131	 0.142778257984703 
1132	 0.142840085909329 
1133	 0.142905690963433 
1134	 0.14297387688211 
1135	 0.143042320766938 
1136	 0.143108010918751 
1137	 0.143162809533912 
1138	 0.143185467490587 
1139	 0.143238647767234 
1140	 0.143293732285976 
1141	 0.143329723305874 
1142	 0.14337113199956 
1143	 0.143417809954682 
1144	 0.14343973587729 
1145	 0.143475059921774 
1146	 0.143549047199557 
1147	 0.143593260551203 
1148	 0.14360753800149 
1149	 0.14363397423574 
1150	 0.14367272488144 
1151	 0.14368427055557 
1152	 0.143690659298929 
1153	 0.143705766581895 
1154	 0.143736095188597 
1155	 0.143770760340384 
1156	 0.143806363960063 
1157	 0.143862407236921 
1158	 0.143902247502995 
1159	 0.143925035753486 
1160	 0.143960501450113 
1161	 0.14400485159352 
1162	 0.144047145591252 
1163	 0.144097333405589 
1164	 0.144133388363822 
1165	 0.144161643482241 
1166	 0.144190357951096 
1167	 0.144207402153011 
1168	 0.144224971736556 
1169	 0.144251551459291 
1170	 0.144281055183908 
1171	 0.144314082707411 
1172	 0.14435066020386 
1173	 0.144395405429025 
1174	 0.144452202377603 
1175	 0.144497931334571 
1176	 0.144556050672639 
1177	 0.144591694490136 
1178	 0.144589237993328 
1179	 0.144623373413201 
1180	 0.144670600407169 
1181	 0.14471259499471 
1182	 0.144764091057437 
1183	 0.144831120300942 
1184	 0.144890095363995 
1185	 0.144943168984394 
1186	 0.14498902414046 
1187	 0.145047483973618 
1188	 0.145079753967877 
1189	 0.145080266413634 
1190	 0.145102359522425 
1191	 0.14512590048001 
1192	 0.14514875310922 
1193	 0.145173441957686 
1194	 0.145202047540669 
1195	 0.145224095091618 
1196	 0.145258009981774 
1197	 0.145312020276476 
1198	 0.145353821106076 
1199	 0.145393417026909 
1200	 0.145434341099027 
1201	 0.145472111483727 
1202	 0.145499314182607 
1203	 0.145539067821888 
1204	 0.145592819120058 
1205	 0.145626828827589 
1206	 0.145654835099952 
1207	 0.14568315316761 
1208	 0.145697498548985 
1209	 0.145720972148184 
1210	 0.145747607166507 
1211	 0.145778545526987 
1212	 0.145819699883028 
1213	 0.145849631830024 
1214	 0.14588208801341 
1215	 0.145907701715857 
1216	 0.145926651303879 
1217	 0.145930434861083 
1218	 0.145947192899161 
1219	 0.145959016968264 
1220	 0.145988405302091 
1221	 0.14603639623284 
1222	 0.146064686221405 
1223	 0.146100505219471 
1224	 0.146121984683007 
1225	 0.146113716181665 
1226	 0.146130067813782 
1227	 0.146161605452286 
1228	 0.14618091649516 
1229	 0.146207547060877 
1230	 0.14622606801161 
1231	 0.146222433621668 
1232	 0.146233047111567 
1233	 0.146248676596069 
1234	 0.146270046398964 
1235	 0.146289158144178 
1236	 0.146315379361776 
1237	 0.146336406779772 
1238	 0.146353806901205 
1239	 0.146373069829396 
1240	 0.146396504572272 
1241	 0.14641344897044 
1242	 0.146430563904213 
1243	 0.146439110538024 
1244	 0.146423277693901 
1245	 0.146437621097974 
1246	 0.146480841379655 
1247	 0.146494504442424 
1248	 0.146501802758452 
1249	 0.146520535320847 
1250	 0.146528070114288 
1251	 0.146520955510924 
1252	 0.146528848586713 
1253	 0.146559393882648 
1254	 0.146576433790477 
1255	 0.146583311226304 
1256	 0.146593920492675 
1257	 0.14660712846573 
1258	 0.146623207109698 
1259	 0.146646572906495 
1260	 0.146652166206794 
1261	 0.146652633001108 
1262	 0.146655332328404 
1263	 0.146635918562125 
1264	 0.146631098227869 
1265	 0.146647231073779 
1266	 0.146652472577482 
1267	 0.146653648924035 
1268	 0.146652451981318 
1269	 0.146656041112237 
1270	 0.146661057507164 
1271	 0.146659323748335 
1272	 0.146657550136971 
1273	 0.146655779530096 
1274	 0.146645473697054 
1275	 0.146643546720013 
1276	 0.14664187768706 
1277	 0.146652118771441 
1278	 0.146669731013252 
1279	 0.146686606210789 
1280	 0.146709268580499 
1281	 0.146740848317984 
1282	 0.14677822921667 
1283	 0.146814636209416 
1284	 0.1468682392738 
1285	 0.14690377553354 
1286	 0.146930710213324 
1287	 0.146979508267634 
1288	 0.147020128626735 
1289	 0.147065532143043 
1290	 0.147098946065547 
1291	 0.147127586232261 
1292	 0.147154505521189 
1293	 0.147169226346297 
1294	 0.147199670917812 
1295	 0.14724183849776 
1296	 0.147270019583178 
1297	 0.1473026472093 
1298	 0.147323672736848 
1299	 0.147329084877775 
1300	 0.147341585539166 
1301	 0.147353706838593 
1302	 0.147359519855862 
1303	 0.147364091198449 
1304	 0.147362757826662 
1305	 0.147369828354427 
1306	 0.147381276127562 
1307	 0.147357685880947 
1308	 0.147341834731384 
1309	 0.147328229013765 
1310	 0.147295646533465 
1311	 0.147275110507993 
1312	 0.147278019976633 
1313	 0.147258694096124 
1314	 0.147211194858709 
1315	 0.147193697299944 
1316	 0.147197574305669 
1317	 0.147182350896578 
1318	 0.147178507438539 
1319	 0.147154833414636 
1320	 0.147098720106457 
1321	 0.147063267914773 
1322	 0.147029578938391 
1323	 0.146999411553568 
1324	 0.146974349122542 
1325	 0.146960123852522 
1326	 0.146935621561297 
1327	 0.146907075890009 
1328	 0.14688295086082 
1329	 0.146855116154309 
1330	 0.14682173283567 
1331	 0.146778837972483 
1332	 0.146743688287148 
1333	 0.146708409846931 
1334	 0.146677175746509 
1335	 0.146651544029772 
1336	 0.146625182351865 
1337	 0.146597558718977 
1338	 0.1465694622949 
1339	 0.146538572003244 
1340	 0.146517585619295 
1341	 0.146515218456242 
1342	 0.146491269387681 
1343	 0.14645867481209 
1344	 0.146423559566644 
1345	 0.146399253122433 
1346	 0.146371313751896 
1347	 0.146353183677162 
1348	 0.1463354383467 
1349	 0.146299323788324 
1350	 0.146261720120889 
1351	 0.146241040682392 
1352	 0.146234786629026 
1353	 0.146222897423568 
1354	 0.146220470507061 
1355	 0.146204691539946 
1356	 0.146184468353939 
1357	 0.1461604878018 
1358	 0.14611995077665 
1359	 0.146099387237974 
1360	 0.146090470995103 
1361	 0.146072185921313 
1362	 0.146057189897816 
1363	 0.146046983686846 
1364	 0.146044066087099 
1365	 0.146022139511479 
1366	 0.146001572796537 
1367	 0.145970293975303 
1368	 0.145923435817626 
1369	 0.145856527120594 
1370	 0.145787635136004 
1371	 0.145733572927023 
1372	 0.145663947204357 
1373	 0.145573042938408 
1374	 0.145481101005738 
1375	 0.145373714057222 
1376	 0.145278718412573 
1377	 0.145188575624764 
1378	 0.145083863729355 
1379	 0.14498699363185 
1380	 0.144866067491372 
1381	 0.144721994899118 
1382	 0.144575573055667 
1383	 0.144429545152405 
1384	 0.144259584178427 
1385	 0.144083692645881 
1386	 0.143884319954105 
1387	 0.143654219763632 
1388	 0.14341916482037 
1389	 0.143179226306529 
1390	 0.142913788975022 
1391	 0.142616322777166 
1392	 0.142314017665702 
1393	 0.141973845184895 
1394	 0.141604735773945 
1395	 0.141231753835995 
1396	 0.140844729240922 
1397	 0.140443544850153 
1398	 0.140019384183537 
1399	 0.139600055199522 
1400	 0.139169106113366 
1401	 0.138746838372596 
1402	 0.138326098292904 
1403	 0.13790781739896 
1404	 0.13748221523619 
1405	 0.137074923722759 
1406	 0.136668445085877 
1407	 0.136280736613382 
1408	 0.135906584111888 
1409	 0.13555140872537 
1410	 0.135191519970967 
1411	 0.134884684902381 
1412	 0.13460975891663 
1413	 0.134363896928565 
1414	 0.134154653654228 
1415	 0.133970963178979 
1416	 0.133801799378363 
1417	 0.133644847616939 
1418	 0.133522918926892 
1419	 0.133412627271334 
1420	 0.133307960603056 
1421	 0.133219779861101 
1422	 0.133123814294003 
1423	 0.133033421361796 
1424	 0.132953103375592 
1425	 0.132888154647391 
1426	 0.132809729698858 
1427	 0.132726972720221 
1428	 0.13265536282034 
1429	 0.132581966285408 
1430	 0.132514624906184 
1431	 0.132454928937242 
1432	 0.132407680077354 
1433	 0.132364548687829 
1434	 0.132324649745628 
1435	 0.132300900604036 
1436	 0.132273400615219 
1437	 0.132232715444424 
1438	 0.132214869105536 
1439	 0.132216708414192 
1440	 0.132211827500206 
1441	 0.13221664987753 
1442	 0.132230071733373 
1443	 0.132218736142699 
1444	 0.132221829460918 
1445	 0.132218308865548 
1446	 0.132205372288626 
1447	 0.132218347437345 
1448	 0.132229325428665 
1449	 0.132236537499152 
1450	 0.132247501475472 
1451	 0.132250852541686 
1452	 0.132237473274221 
1453	 0.132237295258619 
1454	 0.132247320567042 
1455	 0.132249839600029 
1456	 0.132252506466798 
1457	 0.132255241679365 
1458	 0.132248511112077 
1459	 0.132250966026132 
1460	 0.132260469362324 
1461	 0.132268627766247 
1462	 0.132275625336612 
1463	 0.13229006497921 
1464	 0.132305007992878 
1465	 0.132329489796996 
1466	 0.132362867178207 
1467	 0.132402879083234 
1468	 0.132448300788758 
1469	 0.132497252368506 
1470	 0.132549070895594 
1471	 0.132616156559552 
1472	 0.132677318073445 
1473	 0.132752510207022 
1474	 0.132828459660449 
1475	 0.132900810074943 
1476	 0.132983711657625 
1477	 0.133067240926776 
1478	 0.13316692452845 
1479	 0.133267463323517 
1480	 0.133354025414047 
1481	 0.133448540416518 
1482	 0.133551705745197 
1483	 0.13365339549083 
1484	 0.133760869406751 
1485	 0.133893587940547 
1486	 0.133994280124287 
1487	 0.134072787149432 
1488	 0.134161269886145 
1489	 0.134240949860014 
1490	 0.134330508786205 
1491	 0.134429764476244 
1492	 0.134524632205997 
1493	 0.1346237261288 
1494	 0.134710457303784 
1495	 0.134785961393865 
1496	 0.134869883038023 
1497	 0.134952700578816 
1498	 0.135035539422941 
1499	 0.135129347358594 
1500	 0.13520967501156 
1501	 0.135276515996201 
1502	 0.135346365022341 
1503	 0.135408867530482 
1504	 0.135480757331769 
1505	 0.135550740469476 
1506	 0.135616844457985 
1507	 0.135703872621894 
1508	 0.135790737521762 
1509	 0.135864378560887 
1510	 0.135941542734986 
1511	 0.135993122300812 
1512	 0.136028086850616 
1513	 0.136083619239638 
1514	 0.13614568167606 
1515	 0.136197039346724 
1516	 0.136246061756775 
1517	 0.136302400467702 
1518	 0.136353176840463 
1519	 0.136409726864002 
1520	 0.136482469323335 
1521	 0.136537102317134 
1522	 0.136575347811345 
1523	 0.136627915267869 
1524	 0.136683509542334 
1525	 0.13674033976268 
1526	 0.136801779998777 
1527	 0.136864757253879 
1528	 0.136933361149198 
1529	 0.13698854789485 
1530	 0.137043784921199 
1531	 0.137094014671702 
1532	 0.137129560851368 
1533	 0.137172318948574 
1534	 0.137219398211887 
1535	 0.137260209814661 
1536	 0.137300384183699 
1537	 0.137335216732779 
1538	 0.137352507894143 
1539	 0.137391051928357 
1540	 0.137440308173274 
1541	 0.137485271449153 
1542	 0.137553695492547 
1543	 0.137600268235791 
1544	 0.137621907265686 
1545	 0.137655166779891 
1546	 0.137686979671466 
1547	 0.137718868252454 
1548	 0.137745574565466 
1549	 0.137777575127442 
1550	 0.13779872292563 
1551	 0.13781338681757 
1552	 0.137841287337839 
1553	 0.137871790389981 
1554	 0.137897790482598 
1555	 0.137934062549103 
1556	 0.137970643440424 
1557	 0.137998207759158 
1558	 0.138037606741498 
1559	 0.138064338120273 
1560	 0.138093033322754 
1561	 0.138127639371685 
1562	 0.138145767490396 
1563	 0.13814801071968 
1564	 0.138169458468645 
1565	 0.13818675801072 
1566	 0.138214531101397 
1567	 0.138264906737332 
1568	 0.138287551250645 
1569	 0.138303698147958 
1570	 0.13831304561135 
1571	 0.138298404665664 
1572	 0.138311626754737 
1573	 0.138337541112425 
1574	 0.138350032379116 
1575	 0.138370346072932 
1576	 0.138383981509555 
1577	 0.13837259031079 
1578	 0.138392802042146 
1579	 0.138443548713413 
1580	 0.138465733414389 
1581	 0.138485669278163 
1582	 0.13850715280766 
1583	 0.138516842533704 
1584	 0.138524948677464 
1585	 0.138541862706026 
1586	 0.138546585313604 
1587	 0.138520042058283 
1588	 0.138522758757351 
1589	 0.138542720000277 
1590	 0.138561106658141 
1591	 0.138599889415731 
1592	 0.138621689434126 
1593	 0.138634939323638 
1594	 0.138645361927682 
1595	 0.138646531341986 
1596	 0.138650945472404 
1597	 0.138657125995716 
1598	 0.138654252013451 
1599	 0.138640056067893 
1600	 0.13863797907687 
1601	 0.13863671402893 
1602	 0.138637078444103 
1603	 0.13866029980149 
1604	 0.138657969509868 
1605	 0.138627074338342 
1606	 0.13861620654821 
1607	 0.138609764628395 
1608	 0.13859104565582 
1609	 0.138595056380593 
1610	 0.13859421724977 
1611	 0.138570702049569 
1612	 0.13856768686685 
1613	 0.138573319928331 
1614	 0.138569258821213 
1615	 0.138583404547805 
1616	 0.138591120702744 
1617	 0.138585499222269 
1618	 0.138589063757872 
1619	 0.138572840203501 
1620	 0.138562764419735 
1621	 0.138548869041628 
1622	 0.138529827417833 
1623	 0.138520207463061 
1624	 0.138512018970892 
1625	 0.138506557132489 
1626	 0.138512573835984 
1627	 0.138503929685011 
1628	 0.138485449654213 
1629	 0.138482410189807 
1630	 0.138483235588833 
1631	 0.138474942887535 
1632	 0.138470665112198 
1633	 0.138467336317924 
1634	 0.138451891010926 
1635	 0.13844869337477 
1636	 0.138467346399535 
1637	 0.138456476638104 
1638	 0.1384309596732 
1639	 0.138411325720141 
1640	 0.138373983597225 
1641	 0.138361421328629 
1642	 0.138366668282533 
1643	 0.138357971316161 
1644	 0.138354805504262 
1645	 0.138345639987948 
1646	 0.138329965123726 
1647	 0.138309426855127 
1648	 0.138287784066988 
1649	 0.138262971687215 
1650	 0.138226408354461 
1651	 0.138197554056495 
1652	 0.138174227447586 
1653	 0.138145911154101 
1654	 0.138110594531067 
1655	 0.138087523685765 
1656	 0.138065788679503 
1657	 0.138053252840088 
1658	 0.138054637064687 
1659	 0.138049022121734 
1660	 0.138048134398444 
1661	 0.138040001878879 
1662	 0.138028957927889 
1663	 0.138014505420256 
1664	 0.137993509577499 
1665	 0.137976412242462 
1666	 0.137957872119322 
1667	 0.137940377418268 
1668	 0.137930351945723 
1669	 0.137906423575149 
1670	 0.137874612032639 
1671	 0.137843717163375 
1672	 0.137796729298532 
1673	 0.137771099546784 
1674	 0.137760028576068 
1675	 0.137741250248921 
1676	 0.137734055700772 
1677	 0.137713220259963 
1678	 0.137684416714187 
1679	 0.137648798941133 
1680	 0.137601845488646 
1681	 0.137562820296502 
1682	 0.137515660174687 
1683	 0.137482064435716 
1684	 0.137462512909784 
1685	 0.137433166042506 
1686	 0.137399112793916 
1687	 0.137376279046048 
1688	 0.137362227492143 
1689	 0.137337420780206 
1690	 0.13731917363412 
1691	 0.137290267802494 
1692	 0.137237046166511 
1693	 0.137208017187002 
1694	 0.137188857179844 
1695	 0.137170767464779 
1696	 0.137173553584031 
1697	 0.13715096562549 
1698	 0.137108512994894 
1699	 0.137084461644857 
1700	 0.137067665462669 
1701	 0.137029448102131 
1702	 0.136990751906297 
1703	 0.136955663609487 
1704	 0.136909769397005 
1705	 0.136847779265582 
1706	 0.136776643562054 
1707	 0.136725565933831 
1708	 0.1366549031195 
1709	 0.136611737765405 
1710	 0.136610301060623 
1711	 0.136586973516568 
1712	 0.136553443066374 
1713	 0.136528774303886 
1714	 0.136513928590701 
1715	 0.136491510544229 
1716	 0.136473863039692 
1717	 0.136436827878433 
1718	 0.136381441905258 
1719	 0.136340783361624 
1720	 0.136292573939235 
1721	 0.136254917350115 
1722	 0.136240660399948 
1723	 0.136197427450567 
1724	 0.136143373856168 
1725	 0.136080636701551 
1726	 0.136003227684001 
1727	 0.135920033712014 
1728	 0.135816467620074 
1729	 0.135751536878938 
1730	 0.135690615240388 
1731	 0.13564395157367 
1732	 0.135646659186599 
1733	 0.135588146820987 
1734	 0.135499015722718 
1735	 0.135426534885363 
1736	 0.135323655485501 
1737	 0.135263498060307 
1738	 0.135239456063293 
1739	 0.135194012515722 
1740	 0.135164887999091 
1741	 0.135093996325171 
1742	 0.13498905169562 
1743	 0.134909077267894 
1744	 0.134815274241362 
1745	 0.134751772713909 
1746	 0.13471432934717 
1747	 0.134669843486925 
1748	 0.134626793855155 
1749	 0.13457291371351 
1750	 0.134503402651855 
1751	 0.134456232433644 
1752	 0.134400842620219 
1753	 0.134314733974627 
1754	 0.13423421273203 
1755	 0.134133911121952 
1756	 0.134033006833345 
1757	 0.133984349745551 
1758	 0.133950017548974 
1759	 0.133904150336369 
1760	 0.133838353889531 
1761	 0.133742757663985 
1762	 0.133655230000014 
1763	 0.133598606597242 
1764	 0.133539232341937 
1765	 0.133456440247052 
1766	 0.13339871526372 
1767	 0.133345124079228 
1768	 0.133287898299426 
1769	 0.133256063023956 
1770	 0.133190925129894 
1771	 0.133109633241635 
1772	 0.133035598557046 
1773	 0.132979326000421 
1774	 0.132957082831631 
1775	 0.132923834613092 
1776	 0.132864611199402 
1777	 0.132789856835883 
1778	 0.132735263225273 
1779	 0.132673530565736 
1780	 0.132618117951155 
1781	 0.132586387590951 
1782	 0.132526538122251 
1783	 0.132507200454451 
1784	 0.132463959905718 
1785	 0.132405818284675 
1786	 0.13236186929109 
1787	 0.132299472574346 
1788	 0.132259375594379 
1789	 0.132247838442007 
1790	 0.132229550668489 
1791	 0.132216774873944 
1792	 0.132201634833495 
1793	 0.132195890385629 
1794	 0.132166915015276 
1795	 0.132122495767068 
1796	 0.132086760611048 
1797	 0.132018680372079 
1798	 0.131998401139102 
1799	 0.132025381349381 
1800	 0.132012613417789 
1801	 0.129327084786322 
1802	 0.129300403823631 
1803	 0.129300127523504 
1804	 0.129290472363248 
1805	 0.129254237469555 
1806	 0.12922830813945 
1807	 0.129218211037871 
1808	 0.129217659567213 
1809	 0.129236881364201 
1810	 0.129237927145058 
1811	 0.129247114275474 
1812	 0.129243246742378 
1813	 0.129223997755041 
1814	 0.12921172885819 
1815	 0.129195679382772 
1816	 0.129176775915504 
1817	 0.129162959368459 
1818	 0.129148591783062 
1819	 0.129130841335036 
1820	 0.129113647018275 
1821	 0.129103404096748 
1822	 0.12908443277299 
1823	 0.129055830826195 
1824	 0.129034349721693 
1825	 0.129021626304711 
1826	 0.129023366904206 
1827	 0.129024306972312 
1828	 0.129009685483948 
1829	 0.128990437811485 
1830	 0.128969446443551 
1831	 0.128936853550356 
1832	 0.12890105017417 
1833	 0.128867053369528 
1834	 0.128845582158976 
1835	 0.128795421580473 
1836	 0.128728628766723 
1837	 0.128664676775016 
1838	 0.128573188560156 
1839	 0.128505119884995 
1840	 0.128435188640075 
1841	 0.128398144445624 
1842	 0.128369878673614 
1843	 0.128330264078298 
1844	 0.128272135348652 
1845	 0.128195034752398 
1846	 0.128115415102615 
1847	 0.128047766688452 
1848	 0.127986663063165 
1849	 0.127922476615203 
1850	 0.127845464149251 
1851	 0.127748387803995 
1852	 0.127664414513332 
1853	 0.127581007641121 
1854	 0.127488150397769 
1855	 0.127416078165668 
1856	 0.127317195109466 
1857	 0.127210982406476 
1858	 0.127102960095419 
1859	 0.126960973656181 
1860	 0.126813136673006 
1861	 0.126656331596113 
1862	 0.126480042937705 
1863	 0.126292862093804 
1864	 0.126111158228644 
1865	 0.125897351034778 
1866	 0.125692591254138 
1867	 0.125482137139016 
1868	 0.125236001068099 
1869	 0.125014671887793 
1870	 0.124764236036969 
1871	 0.124456108645101 
1872	 0.12410609413193 
1873	 0.123731959150078 
1874	 0.123315373803771 
1875	 0.122887063115453 
1876	 0.122453328943093 
1877	 0.122018976950876 
1878	 0.121549825201153 
1879	 0.120998543343771 
1880	 0.12043470793672 
1881	 0.119835156204565 
1882	 0.119219823503287 
1883	 0.118578673595468 
1884	 0.11790854312096 
1885	 0.117212879141343 
1886	 0.11645509703692 
1887	 0.115628406683952 
1888	 0.114788135478827 
1889	 0.113930985129686 
1890	 0.113032196911644 
1891	 0.112117935727791 
1892	 0.111171228658264 
1893	 0.110220001211922 
1894	 0.109236446484982 
1895	 0.10826978766714 
1896	 0.107295375286306 
1897	 0.106339222129204 
1898	 0.105376026761912 
1899	 0.104395613425751 
1900	 0.103433254354153 
1901	 0.102508123912564 
1902	 0.101637029356111 
1903	 0.10084359494663 
1904	 0.100035059471715 
1905	 9.92516853011285E-02 
1906	 0.098496581648552 
1907	 9.77436407417837E-02 
1908	 9.70341421216317E-02 
1909	 9.64055866474702E-02 
1910	 9.58302542567542E-02 
1911	 9.53062106905397E-02 
1912	 9.48230520038416E-02 
1913	 9.43560344932459E-02 
1914	 0.093911053540672 
1915	 9.34986670158394E-02 
1916	 9.31094987277387E-02 
1917	 9.27627152448724E-02 
1918	 9.24308135226674E-02 
1919	 9.21364227383482E-02 
1920	 9.18805439606283E-02 
1921	 9.16268026796888E-02 
1922	 9.14103669824351E-02 
1923	 9.12296395064649E-02 
1924	 9.10663580511582E-02 
1925	 9.09338855361529E-02 
1926	 9.08068409214858E-02 
1927	 9.06963811586181E-02 
1928	 9.06043613778875E-02 
1929	 0.090515295661551 
1930	 0.090450402537431 
1931	 9.04243837689489E-02 
1932	 9.04194163294899E-02 
1933	 9.04217794935946E-02 
1934	 9.04189611976445E-02 
1935	 9.04352506013209E-02 
1936	 9.04597719711466E-02 
1937	 9.04866592929559E-02 
1938	 9.05335977871764E-02 
1939	 9.05810189998065E-02 
1940	 9.06280613816344E-02 
1941	 0.090663627216123 
1942	 9.07345287225878E-02 
1943	 9.08118143337002E-02 
1944	 9.08903692107018E-02 
1945	 9.10020482340484E-02 
1946	 9.11267092319676E-02 
1947	 0.091272250133604 
1948	 0.091418310800154 
1949	 9.15990067855762E-02 
1950	 9.17486139596254E-02 
1951	 9.18867705942573E-02 
1952	 9.20235953134015E-02 
1953	 9.21425946052035E-02 
1954	 9.22854087449055E-02 
1955	 9.24400623602495E-02 
1956	 9.25874592799609E-02 
1957	 0.092750531477292 
1958	 9.29249759605451E-02 
1959	 9.30993266862812E-02 
1960	 9.32859149952835E-02 
1961	 9.34709403302035E-02 
1962	 9.36628250140641E-02 
1963	 9.38515258347535E-02 
1964	 9.40412142785702E-02 
1965	 9.42160999448348E-02 
1966	 9.44180292169381E-02 
1967	 9.46209748840354E-02 
1968	 9.48323381049788E-02 
1969	 9.50694835011284E-02 
1970	 9.52880224516978E-02 
1971	 0.095498168778931 
1972	 9.57104249241153E-02 
1973	 9.59186660285339E-02 
1974	 9.61294747250142E-02 
1975	 9.63319098652448E-02 
1976	 9.65591193748463E-02 
1977	 9.67776729280348E-02 
1978	 9.69941731894722E-02 
1979	 9.72247338009005E-02 
1980	 9.74471372022718E-02 
1981	 9.76674897527448E-02 
1982	 9.78829645548916E-02 
1983	 9.81063931734844E-02 
1984	 9.83301366186343E-02 
1985	 9.85555358476589E-02 
1986	 9.87918759036829E-02 
1987	 9.90203453365145E-02 
1988	 9.92465036443961E-02 
1989	 9.94660694186742E-02 
1990	 9.96760312293563E-02 
1991	 9.98962288567834E-02 
1992	 0.100120558990326 
1993	 0.100346946214285 
1994	 0.100570370555528 
1995	 0.100812284652784 
1996	 0.101028641122184 
1997	 0.10121782628259 
1998	 0.101426884550996 
1999	 0.10161969305183 
2000	 0.101837032457237 
2001	 0.102080943315104 
2002	 0.102329050727111 
2003	 0.102558427710813 
2004	 0.102792435986667 
2005	 0.103014023537111 
2006	 0.103212888954591 
2007	 0.103428334313054 
2008	 0.103657704760285 
2009	 0.103865499463335 
2010	 0.104056096709716 
2011	 0.104259549062882 
2012	 0.104464918567612 
2013	 0.104661714505701 
2014	 0.104859273427638 
2015	 0.105064670510363 
2016	 0.105246702880796 
2017	 0.105416557194998 
2018	 0.105601409799817 
2019	 0.105783851477207 
2020	 0.105980598266185 
2021	 0.106200935670327 
2022	 0.106400027619116 
2023	 0.10660077907385 
2024	 0.106793958994743 
2025	 0.106972680867494 
2026	 0.107147777153238 
2027	 0.107309724016646 
2028	 0.107488544868431 
2029	 0.107668486028176 
2030	 0.107844972506922 
2031	 0.108027011262117 
2032	 0.108239902014423 
2033	 0.108405916565167 
2034	 0.108543257501628 
2035	 0.108690764320636 
2036	 0.108803456071095 
2037	 0.108948173921649 
2038	 0.109140651299042 
2039	 0.109288583111359 
2040	 0.1094174569836 
2041	 0.109548969430105 
2042	 0.10967687282031 
2043	 0.109794874731476 
2044	 0.10993529587287 
2045	 0.110115165762141 
2046	 0.110256416545622 
2047	 0.110377928718481 
2048	 0.110513664715003 
2049	 0.11064920483901 
2050	 0.110779513299704 
2051	 0.110923182044857 
2052	 0.111046232893228 
2053	 0.11113714199871 
2054	 0.111249850415322 
2055	 0.111370509728187 
2056	 0.111478313022274 
2057	 0.111602715573439 
2058	 0.111748798213922 
2059	 0.111873094261749 
2060	 0.111996982240824 
2061	 0.112110395325835 
2062	 0.11220473700914 
2063	 0.112315003561788 
2064	 0.112432340034279 
2065	 0.11253751348085 
2066	 0.112635387732098 
2067	 0.112745070220296 
2068	 0.112853635588708 
2069	 0.112962843030979 
2070	 0.113067355263414 
2071	 0.113179201769107 
2072	 0.113293434492107 
2073	 0.113403921750781 
2074	 0.113505897174849 
2075	 0.113622621152445 
2076	 0.113717660926603 
2077	 0.113769565542716 
2078	 0.113862185484559 
2079	 0.113980705643678 
2080	 0.114079139210582 
2081	 0.114190901145234 
2082	 0.114290312138112 
2083	 0.114361491057811 
2084	 0.114443000567694 
2085	 0.114537879948787 
2086	 0.11464656789764 
2087	 0.114740460104391 
2088	 0.114841903422306 
2089	 0.114930871524661 
2090	 0.114997708029602 
2091	 0.11508524110722 
2092	 0.115179196354135 
2093	 0.115273402331255 
2094	 0.115383708330936 
2095	 0.115479725537886 
2096	 0.115562005298169 
2097	 0.115654164700438 
2098	 0.115756998178627 
2099	 0.115840824166258 
2100	 0.115924171871082 
2101	 0.116011230021337 
2102	 0.116091437890349 
2103	 0.116154617913355 
2104	 0.11622951113734 
2105	 0.116309390294201 
2106	 0.116390663462708 
2107	 0.116472707499507 
2108	 0.116556511101055 
2109	 0.116641121396203 
2110	 0.116730769681415 
2111	 0.116823663633768 
2112	 0.116917542498793 
2113	 0.117024570124461 
2114	 0.117118818996921 
2115	 0.117212903658863 
2116	 0.117297719712502 
2117	 0.11740161007975 
2118	 0.117519616254762 
2119	 0.117614403172664 
2120	 0.117717624166694 
2121	 0.117800156012906 
2122	 0.117854078760948 
2123	 0.117916409308032 
2124	 0.117960940337272 
2125	 0.118031408645554 
2126	 0.118129358854881 
2127	 0.118197494595547 
2128	 0.118267369135356 
2129	 0.1183340205495 
2130	 0.118387223231502 
2131	 0.118420238765244 
2132	 0.118452954009513 
2133	 0.118490217791185 
2134	 0.118520503592317 
2135	 0.118522064719326 
2136	 0.118553953398848 
2137	 0.118617941042976 
2138	 0.118644478980595 
2139	 0.118678266340532 
2140	 0.118676886181405 
2141	 0.118624349041099 
2142	 0.118599906107424 
2143	 0.118568124410109 
2144	 0.118539250209699 
2145	 0.118543961536379 
2146	 0.118511628116961 
2147	 0.118442951936617 
2148	 0.118388408894696 
2149	 0.118329019421582 
2150	 0.118248249136216 
2151	 0.118189460092005 
2152	 0.118159644225286 
2153	 0.118090181926136 
2154	 0.118004811692208 
2155	 0.11792004661741 
2156	 0.117809073340585 
2157	 0.117717654564859 
2158	 0.117640331987449 
2159	 0.117553467922417 
2160	 0.117457341117109 
2161	 0.1173745242767 
2162	 0.117303052054121 
2163	 0.11722171884309 
2164	 0.117150580676351 
2165	 0.117077128363904 
2166	 0.116969412037222 
2167	 0.116830091005824 
2168	 0.116710473214106 
2169	 0.11657374563546 
2170	 0.116451828050798 
2171	 0.116345461209291 
2172	 0.116228950946794 
2173	 0.116112265358412 
2174	 0.115988396929526 
2175	 0.115866849573761 
2176	 0.115733329633663 
2177	 0.115576707169504 
2178	 0.115435626269615 
2179	 0.115290026845219 
2180	 0.115154730667616 
2181	 0.115045567829154 
2182	 0.114918261250392 
2183	 0.114778625152552 
2184	 0.114648625579189 
2185	 0.114514878868332 
2186	 0.114373897187329 
2187	 0.114229186453026 
2188	 0.114084095635338 
2189	 0.113944850673055 
2190	 0.113779934924143 
2191	 0.113663264249832 
2192	 0.113589137762283 
2193	 0.113488218166865 
2194	 0.113396170615751 
2195	 0.113308438376317 
2196	 0.113190616743045 
2197	 0.113115946041558 
2198	 0.113090049251381 
2199	 0.113041107413106 
2200	 0.11300182537219 
2201	 0.112961131536793 
2202	 0.112913513391556 
2203	 0.112848550974607 
2204	 0.112825024693234 
2205	 0.112832227792982 
2206	 0.112809722266788 
2207	 0.112783154082801 
2208	 0.112787463141805 
2209	 0.11278067019631 
2210	 0.112803729597372 
2211	 0.112874127878601 
2212	 0.112928998711525 
2213	 0.112996627498039 
2214	 0.113039529605654 
2215	 0.113067216192534 
2216	 0.113115528557135 
2217	 0.113161118619851 
2218	 0.113202576437053 
2219	 0.113282267811227 
2220	 0.113318562889614 
2221	 0.113307994356712 
2222	 0.11330653167867 
2223	 0.113313325666863 
2224	 0.113326658074359 
2225	 0.113358222971648 
2226	 0.113430402760539 
2227	 0.113446902136151 
2228	 0.113438786346632 
2229	 0.11345708576775 
2230	 0.113462068001442 
2231	 0.113478503802035 
2232	 0.113531876844792 
2233	 0.113544338655659 
2234	 0.11352883676795 
2235	 0.11351939663427 
2236	 0.113497962784853 
2237	 0.113484500009431 
2238	 0.113482169931861 
2239	 0.113458268867451 
2240	 0.113417592824958 
2241	 0.113384772284683 
2242	 0.113342700780405 
2243	 0.113303433944853 
2244	 0.113269562080225 
2245	 0.113236335688307 
2246	 0.113223974685311 
2247	 0.113188124930471 
2248	 0.113148215229836 
2249	 0.113112495907236 
2250	 0.113078820253208 
2251	 0.113027524238183 
2252	 0.112984759505497 
2253	 0.11295327812833 
2254	 0.112916864211112 
2255	 0.11287823483653 
2256	 0.112836094096282 
2257	 0.112780607525333 
2258	 0.112758259537435 
2259	 0.11275349557509 
2260	 0.112729948527021 
2261	 0.112736323745628 
2262	 0.112715685287555 
2263	 0.112643027545789 
2264	 0.112606364748048 
2265	 0.112582006182833 
2266	 0.112567996513304 
2267	 0.112571332517984 
2268	 0.112576172152647 
2269	 0.112594376835573 
2270	 0.112601615337458 
2271	 0.112615476935785 
2272	 0.112653878112442 
2273	 0.11269206274839 
2274	 0.112698095414097 
2275	 0.112709939684902 
2276	 0.11271835862431 
2277	 0.112712140921768 
2278	 0.112689274587008 
2279	 0.112687030238675 
2280	 0.112666501223399 
2281	 0.112687088731172 
2282	 0.112749722561631 
2283	 0.112786459464992 
2284	 0.112850208241543 
2285	 0.112867779258678 
2286	 0.112845215785277 
2287	 0.112834623573604 
2288	 0.112806004770975 
2289	 0.112785547616646 
2290	 0.112768793209755 
2291	 0.112761353618723 
2292	 0.112752785333147 
2293	 0.112743257137296 
2294	 0.112740064990918 
2295	 0.112735207543411 
2296	 0.112724583731067 
2297	 0.112731875180605 
2298	 0.112717358743855 
2299	 0.112715517489096 
2300	 0.112681646813023 
2301	 0.112655601379916 
2302	 0.112597240180458 
2303	 0.11249976990053 
2304	 0.112443987954663 
2305	 0.112355218379615 
2306	 0.112280287346392 
2307	 0.112231447467472 
2308	 0.112162949785608 
2309	 0.112049807943117 
2310	 0.112010803969932 
2311	 0.112010733099801 
2312	 0.111987380072347 
2313	 0.112019213823733 
2314	 0.112002882584827 
2315	 0.111956128313788 
2316	 0.111902107668343 
2317	 0.111802396556475 
2318	 0.111741256658879 
2319	 0.111701019439376 
2320	 0.111632424688416 
2321	 0.11155721634322 
2322	 0.111508818380238 
2323	 0.111458877822619 
2324	 0.111398144475458 
2325	 0.111352658677312 
2326	 0.111334535045611 
2327	 0.111331919715887 
2328	 0.111276009206435 
2329	 0.111261417572779 
2330	 0.11119268160036 
2331	 0.111070703601653 
2332	 0.110975578348739 
2333	 0.110923153313362 
2334	 0.110904207943708 
2335	 0.1108782027503 
2336	 0.110801342065242 
2337	 0.110711312949536 
2338	 0.110632930985762 
2339	 0.110503761619532 
2340	 0.110388203125894 
2341	 0.110344681794969 
2342	 0.110269487503284 
2343	 0.110223502864826 
2344	 0.110216368956937 
2345	 0.110130149584452 
2346	 0.1099555376807 
2347	 0.109865872129696 
2348	 0.109763221473569 
2349	 0.109705215176133 
2350	 0.109742215129452 
2351	 0.109666822608596 
2352	 0.109560795070615 
2353	 0.109443178956798 
2354	 0.10923521795258 
2355	 0.109105495998597 
2356	 0.109018695627092 
2357	 0.108928528217035 
2358	 0.108867677657588 
2359	 0.108782868758646 
2360	 0.108674686677662 
2361	 0.108577575850461 
2362	 0.108508908651672 
2363	 0.108413602370607 
2364	 0.108314384077073 
2365	 0.108211133710786 
2366	 0.108076721783319 
2367	 0.107937275928756 
2368	 0.107782994008239 
2369	 0.107627321972321 
2370	 0.107464144612108 
2371	 0.107310129150998 
2372	 0.107139975295266 
2373	 0.107029186639367 
2374	 0.10691179105325 
2375	 0.106799777601672 
2376	 0.106659332765883 
2377	 0.10654425506314 
2378	 0.106487583532264 
2379	 0.106371358074006 
2380	 0.106195093136828 
2381	 0.10605314949841 
2382	 0.105889110549348 
2383	 0.105691370981098 
2384	 0.105558921096385 
2385	 0.10548069878838 
2386	 0.105419780677685 
2387	 0.105327327162008 
2388	 0.105205460799086 
2389	 0.105075166379207 
2390	 0.104871890763692 
2391	 0.104644184900931 
2392	 0.104521280198828 
2393	 0.10431929329541 
2394	 0.104071818442244 
2395	 0.103893478357847 
2396	 0.103662691301942 
2397	 0.10352846731606 
2398	 0.103406629537751 
2399	 0.103239511632875 
2400	 0.103072555279998 
2401	 0.102870794413082 
2402	 0.10271030184392 
2403	 0.102572791906034 
2404	 0.102422909180798 
2405	 0.102248626852047 
2406	 0.102089587074832 
2407	 0.10182941571139 
2408	 0.101559834237518 
2409	 0.101399805842693 
2410	 0.101178605111415 
2411	 0.101029673967278 
2412	 0.100993475559961 
2413	 0.100833852255618 
2414	 0.100629412903424 
2415	 0.100440401059923 
2416	 0.100225469598816 
2417	 9.99178668251013E-02 
2418	 9.97047388485771E-02 
2419	 9.95393265710662E-02 
2420	 9.93769182268715E-02 
2421	 9.92386188645465E-02 
2422	 9.91014356816245E-02 
2423	 9.89791436998938E-02 
2424	 9.88375384308842E-02 
2425	 9.87417961304256E-02 
2426	 9.85981232979194E-02 
2427	 0.098391842748184 
2428	 9.81888534530625E-02 
2429	 9.79111601973813E-02 
2430	 9.77274178269776E-02 
2431	 9.76280026130085E-02 
2432	 9.75313251371735E-02 
2433	 9.75410079875431E-02 
2434	 9.74024709736087E-02 
2435	 9.71150711583199E-02 
2436	 9.69259839935756E-02 
2437	 9.67414014448953E-02 
2438	 9.65560298314203E-02 
2439	 9.64634747190815E-02 
2440	 9.63244591660089E-02 
2441	 0.096077637055978 
2442	 0.0958971863551 
2443	 9.57632043929249E-02 
2444	 9.55983894073898E-02 
2445	 9.55002218575389E-02 
2446	 9.52872949244255E-02 
2447	 9.49559757849655E-02 
2448	 0.094706847768946 
2449	 9.43795852382473E-02 
2450	 9.41394975881227E-02 
2451	 9.40105999139017E-02 
2452	 9.39217198518993E-02 
2453	 9.39106873578456E-02 
2454	 9.38784459842393E-02 
2455	 9.39527712121019E-02 
2456	 9.38461984644497E-02 
2457	 9.35438156849473E-02 
2458	 9.33811990427395E-02 
2459	 9.32020189374173E-02 
2460	 0.093023251612813 
2461	 9.29748769650216E-02 
2462	 9.28742031998866E-02 
2463	 9.27126133845507E-02 
2464	 9.24408281371383E-02 
2465	 9.21122289446034E-02 
2466	 9.18472359996299E-02 
2467	 9.15045373660548E-02 
2468	 9.12878276235634E-02 
2469	 9.11604476276475E-02 
2470	 9.09747612262299E-02 
2471	 9.08016236635205E-02 
2472	 9.07202641504657E-02 
2473	 0.090791998158058 
2474	 9.08436197731465E-02 
2475	 0.09085360452944 
2476	 9.07077782727183E-02 
2477	 9.04773551078817E-02 
2478	 9.02092502821236E-02 
2479	 8.99036672567013E-02 
2480	 8.97576687464212E-02 
2481	 8.97355366202983E-02 
2482	 8.96104255063369E-02 
2483	 8.95102123064219E-02 
2484	 8.94989462649625E-02 
2485	 0.089293936244937 
2486	 0.089094622776894 
2487	 8.88537054870725E-02 
2488	 0.088495759066751 
2489	 8.83173301130227E-02 
2490	 0.088208044238627 
2491	 8.82529475517466E-02 
2492	 8.83010230906113E-02 
2493	 8.82183101016069E-02 
2494	 8.80546322323099E-02 
2495	 0.087823124048602 
2496	 8.79303361866368E-02 
2497	 8.79796426849167E-02 
2498	 8.78641268773822E-02 
2499	 0.087907169232725 
2500	 8.76123479069794E-02 
