Wavelength	MM_3500001.asd
350	 0.042000251914161 
351	 4.00320645090123E-02 
352	 3.05107768412029E-02 
353	 1.76621672157754E-02 
354	 2.86945307201904E-02 
355	 3.37955815043083E-02 
356	 3.42340218463363E-02 
357	 3.68833987587768E-02 
358	 3.74562107207609E-02 
359	 3.43892087709417E-02 
360	 0.032008596582703 
361	 0.036483389566617 
362	 3.08076496046375E-02 
363	 2.83073271391388E-02 
364	 3.38910670830494E-02 
365	 3.39204734694568E-02 
366	 3.33943550737337E-02 
367	 3.36605707403163E-02 
368	 3.46074283837264E-02 
369	 3.38614740645027E-02 
370	 0.033695257585894 
371	 3.32380616965009E-02 
372	 3.02082671881147E-02 
373	 3.28030045346384E-02 
374	 3.72566812923043E-02 
375	 3.97992301448663E-02 
376	 3.94576708786951E-02 
377	 3.64310268066769E-02 
378	 3.42290000229325E-02 
379	 3.57502884759029E-02 
380	 3.78322091376572E-02 
381	 3.64421243571747E-02 
382	 3.43219412985207E-02 
383	 3.82670021301058E-02 
384	 3.81169788745405E-02 
385	 3.59693468373189E-02 
386	 3.53753733395699E-02 
387	 3.96180671788953E-02 
388	 3.95813428226246E-02 
389	 0.038105769619625 
390	 4.00082266783815E-02 
391	 3.90160243246668E-02 
392	 4.10250389288866E-02 
393	 4.52934413466457E-02 
394	 4.55489135415571E-02 
395	 4.50181346151485E-02 
396	 4.53677338156315E-02 
397	 4.69649197118041E-02 
398	 4.82419614278661E-02 
399	 4.78065922333963E-02 
400	 4.72388799168307E-02 
401	 4.85802531118431E-02 
402	 4.95947079113375E-02 
403	 4.99760220179044E-02 
404	 5.01270275767791E-02 
405	 5.09709898656894E-02 
406	 5.19912819048617E-02 
407	 5.28825548491788E-02 
408	 5.32267706733363E-02 
409	 5.19630606695132E-02 
410	 5.17325638894891E-02 
411	 0.052370502445508 
412	 5.25735649102954E-02 
413	 0.053531580710912 
414	 5.42757099236079E-02 
415	 5.43329877453473E-02 
416	 5.40446750821998E-02 
417	 5.42642983305338E-02 
418	 5.48209493024934E-02 
419	 5.52892745236666E-02 
420	 5.55003339473877E-02 
421	 5.49181314160218E-02 
422	 5.44686884865705E-02 
423	 0.055626162793023 
424	 5.50852694697431E-02 
425	 5.42126515533357E-02 
426	 5.40726627766558E-02 
427	 5.41240310912578E-02 
428	 5.39202234793131E-02 
429	 5.34671165520132E-02 
430	 5.29972209659639E-02 
431	 5.29223427222779E-02 
432	 5.27492410590872E-02 
433	 5.24613348037665E-02 
434	 5.25207873046278E-02 
435	 5.28932704080838E-02 
436	 5.31599631803672E-02 
437	 5.30665063377048E-02 
438	 5.29144548626931E-02 
439	 5.30352956741134E-02 
440	 5.33513822858885E-02 
441	 5.35954674631355E-02 
442	 5.38744177186648E-02 
443	 5.42934941261595E-02 
444	 5.47735899169513E-02 
445	 5.49531427860624E-02 
446	 5.53021868583242E-02 
447	 5.57103254040015E-02 
448	 5.60014539884152E-02 
449	 5.64957473918812E-02 
450	 5.68974751645217E-02 
451	 5.71476806907461E-02 
452	 5.73956782877044E-02 
453	 5.74583242642579E-02 
454	 5.75993991699812E-02 
455	 5.79653418452136E-02 
456	 0.058266605977005 
457	 5.83801991540726E-02 
458	 5.84739152740067E-02 
459	 5.87609304453337E-02 
460	 5.86157098097431E-02 
461	 5.85801168771843E-02 
462	 5.88727747981152E-02 
463	 5.91296233216875E-02 
464	 5.91267752292082E-02 
465	 5.91474432337562E-02 
466	 5.94545388882192E-02 
467	 5.96122903754647E-02 
468	 5.96131064476376E-02 
469	 5.95247617690684E-02 
470	 5.94762537961415E-02 
471	 5.96745823384469E-02 
472	 5.97951313409622E-02 
473	 5.96873294690873E-02 
474	 5.98252077921415E-02 
475	 5.99475747017603E-02 
476	 5.99889223335087E-02 
477	 5.99756635872569E-02 
478	 5.99530868305834E-02 
479	 6.00858455676133E-02 
480	 6.03205225740886E-02 
481	 6.02948498820922E-02 
482	 6.04139017444262E-02 
483	 6.05758946802905E-02 
484	 6.06038805462772E-02 
485	 0.060628433097558 
486	 6.05052692461413E-02 
487	 6.03553327705455E-02 
488	 6.04913778825118E-02 
489	 6.05719571467219E-02 
490	 6.04876875967326E-02 
491	 0.060359271524359 
492	 6.08463133700806E-02 
493	 6.07060500127399E-02 
494	 6.03644306450759E-02 
495	 6.08223534845417E-02 
496	 6.08762572306067E-02 
497	 6.07864234347368E-02 
498	 6.08239565558245E-02 
499	 6.10740866843629E-02 
500	 6.11689276104577E-02 
501	 6.10838190567235E-02 
502	 6.09620368013667E-02 
503	 6.11769506944598E-02 
504	 6.12096403066389E-02 
505	 6.10003324345826E-02 
506	 6.09316372171348E-02 
507	 0.061174844495856 
508	 6.13556270270785E-02 
509	 6.12312565887656E-02 
510	 6.11885029840196E-02 
511	 6.12255497636569E-02 
512	 6.12797776210372E-02 
513	 0.0612755461055 
514	 6.14335296278894E-02 
515	 6.15292074283203E-02 
516	 6.14922544489652E-02 
517	 6.16065621853703E-02 
518	 6.15635452558192E-02 
519	 6.14730889490273E-02 
520	 0.061525452123294 
521	 6.15705548126544E-02 
522	 6.16152086364658E-02 
523	 6.16549109214168E-02 
524	 0.061665721364554 
525	 6.16598726923947E-02 
526	 6.16420816642855E-02 
527	 6.16211643403795E-02 
528	 6.16216171228517E-02 
529	 6.16274790754349E-02 
530	 0.061676745505748 
531	 6.18227284737855E-02 
532	 6.18533267547964E-02 
533	 6.19066159491223E-02 
534	 6.20388422765511E-02 
535	 6.20309637708024E-02 
536	 6.19537099773115E-02 
537	 6.19516338979405E-02 
538	 6.21441888371907E-02 
539	 6.22664112797051E-02 
540	 6.22343454712163E-02 
541	 6.21496353721405E-02 
542	 6.23355034172224E-02 
543	 6.23959381917068E-02 
544	 6.23847175666458E-02 
545	 6.24495078979987E-02 
546	 6.25904558926237E-02 
547	 6.27243300059551E-02 
548	 6.28009323493378E-02 
549	 6.28085999347855E-02 
550	 6.28537411512517E-02 
551	 0.062931439703861 
552	 0.063045465725242 
553	 6.33134456074832E-02 
554	 6.34204663365393E-02 
555	 6.34425138945966E-02 
556	 6.36358748181382E-02 
557	 6.38201963837654E-02 
558	 6.40179883592174E-02 
559	 6.42403505937562E-02 
560	 6.44372604626266E-02 
561	 6.46657062830937E-02 
562	 6.49272705811312E-02 
563	 6.51959140201484E-02 
564	 6.54129365554989E-02 
565	 6.56404726360963E-02 
566	 0.0658836831198 
567	 6.60785690870725E-02 
568	 6.64694363967376E-02 
569	 6.69041082966083E-02 
570	 6.72162492423259E-02 
571	 6.75243735259052E-02 
572	 6.78832780329887E-02 
573	 6.83137438577024E-02 
574	 6.88005614640585E-02 
575	 6.92361844748318E-02 
576	 0.069638353146953 
577	 7.00379584034391E-02 
578	 7.04354937147551E-02 
579	 0.070923761246008 
580	 7.14450853804329E-02 
581	 7.18962748555338E-02 
582	 7.23710589045323E-02 
583	 7.28597650341581E-02 
584	 7.33660684699047E-02 
585	 7.39277829840814E-02 
586	 7.45138563539398E-02 
587	 7.50836829014995E-02 
588	 7.56225817498107E-02 
589	 7.62483226037101E-02 
590	 7.68403782800922E-02 
591	 7.74013372952337E-02 
592	 7.80484101621245E-02 
593	 7.86818660241547E-02 
594	 7.92941418073452E-02 
595	 7.98930974753192E-02 
596	 0.080484178640295 
597	 0.081024576632032 
598	 8.15186488598817E-02 
599	 0.082005247374801 
600	 8.25511744834639E-02 
601	 8.30686493939219E-02 
602	 8.35113046618724E-02 
603	 8.39374658233992E-02 
604	 8.43896608692515E-02 
605	 8.48409406453592E-02 
606	 8.52519947126548E-02 
607	 8.56780782343442E-02 
608	 8.61197238922235E-02 
609	 8.65649882000969E-02 
610	 8.69910427440322E-02 
611	 8.73427388518065E-02 
612	 8.76458903180594E-02 
613	 0.087942282058853 
614	 8.82559162139855E-02 
615	 8.85265235019407E-02 
616	 8.87641937363547E-02 
617	 8.90269180569724E-02 
618	 8.93394782697045E-02 
619	 8.95669900397914E-02 
620	 8.96703903707805E-02 
621	 8.98581243735938E-02 
622	 9.00905796383842E-02 
623	 9.03195517763261E-02 
624	 9.05021426903007E-02 
625	 9.07168806751311E-02 
626	 9.09073192647634E-02 
627	 9.10447629460811E-02 
628	 0.091148829625557 
629	 9.13432666047519E-02 
630	 9.15316708806515E-02 
631	 9.16122559055185E-02 
632	 9.17118158046791E-02 
633	 9.18509445627646E-02 
634	 9.20057557989475E-02 
635	 9.21230218783886E-02 
636	 9.22777478939299E-02 
637	 9.24399740308239E-02 
638	 9.25764944084007E-02 
639	 0.092686836510117 
640	 9.28209981447262E-02 
641	 9.29790053376167E-02 
642	 9.31357113265618E-02 
643	 9.32903533763873E-02 
644	 9.34021683958746E-02 
645	 9.34920150535355E-02 
646	 9.36746072257044E-02 
647	 9.38448467417204E-02 
648	 9.39459911845568E-02 
649	 9.39823224983558E-02 
650	 9.41368093791911E-02 
651	 9.43217595854128E-02 
652	 9.44914766875327E-02 
653	 9.46471487458639E-02 
654	 9.48358468944424E-02 
655	 9.50053030571908E-02 
656	 9.51358085146303E-02 
657	 9.53342338330325E-02 
658	 9.55519137920831E-02 
659	 9.57232629518029E-02 
660	 9.58028973201286E-02 
661	 9.59688776663926E-02 
662	 9.61819833485109E-02 
663	 9.64018211370045E-02 
664	 0.096619986234441 
665	 9.68313159343899E-02 
666	 9.70223240054835E-02 
667	 9.71926606356672E-02 
668	 9.73946706785047E-02 
669	 9.76217157881325E-02 
670	 9.78457794219321E-02 
671	 9.80288423943294E-02 
672	 9.82557449142994E-02 
673	 0.098506401085932 
674	 0.098753860375709 
675	 9.90030494645059E-02 
676	 9.92437890534034E-02 
677	 9.94781023675444E-02 
678	 0.09971125871363 
679	 9.99184268813297E-02 
680	 0.100164682240194 
681	 0.100467986701224 
682	 0.100776847777839 
683	 0.10107854936894 
684	 0.101355296381447 
685	 0.101603381012709 
686	 0.10185473656155 
687	 0.102170611234096 
688	 0.102509447714443 
689	 0.10276660297171 
690	 0.103031110115909 
691	 0.103306395030782 
692	 0.103591707178385 
693	 0.103905917275935 
694	 0.104211934446239 
695	 0.104521727550118 
696	 0.104853929553576 
697	 0.105158795489784 
698	 0.105457257132743 
699	 0.105765287539673 
700	 0.106088734506836 
701	 0.106434687001266 
702	 0.106756700871625 
703	 0.10702845422445 
704	 0.107304734662105 
705	 0.107620498800941 
706	 0.107930005547703 
707	 0.108167403193755 
708	 0.108495093693026 
709	 0.108837604880612 
710	 0.109138676270244 
711	 0.109406796432111 
712	 0.109706368727436 
713	 0.110002974379436 
714	 0.110260844783464 
715	 0.11055618997205 
716	 0.11083979643376 
717	 0.111089785486354 
718	 0.111313557891622 
719	 0.111589726850239 
720	 0.11187510161075 
721	 0.112127054416185 
722	 0.11233921789746 
723	 0.112541356441491 
724	 0.112762143844345 
725	 0.113005535198577 
726	 0.113157256920156 
727	 0.113354683689644 
728	 0.113593844470415 
729	 0.113736333254132 
730	 0.11387631082001 
731	 0.114038444104801 
732	 0.114216162507754 
733	 0.114362613357189 
734	 0.114481287521297 
735	 0.114576092468401 
736	 0.114654729894904 
737	 0.114729017583045 
738	 0.114809767327496 
739	 0.114893353569922 
740	 0.114961420333462 
741	 0.11502383558581 
742	 0.11505489536713 
743	 0.115046556626395 
744	 0.115056130902134 
745	 0.115057589054121 
746	 0.115049839900957 
747	 0.115038799609925 
748	 0.114998227845295 
749	 0.114938311967176 
750	 0.114875313806732 
751	 0.114827600592589 
752	 0.114771304745376 
753	 0.114693916842699 
754	 0.114597817975587 
755	 0.1145188429761 
756	 0.114438310785932 
757	 0.114337435109101 
758	 0.114203625688072 
759	 0.114070390688934 
760	 0.113920637343703 
761	 0.113752678173688 
762	 0.113589705018972 
763	 0.113458648772834 
764	 0.113307552223341 
765	 0.113109758055569 
766	 0.112971804853785 
767	 0.11281118184089 
768	 0.112626668773852 
769	 0.112454500215335 
770	 0.11228361390421 
771	 0.112079849862973 
772	 0.111854338858844 
773	 0.11167277014956 
774	 0.111513061477424 
775	 0.111338005320867 
776	 0.111120435031017 
777	 0.110863854888568 
778	 0.110635167518286 
779	 0.11043886195537 
780	 0.110248031662946 
781	 0.110058085767616 
782	 0.109865213764322 
783	 0.109653928673822 
784	 0.109401288971672 
785	 0.109190180594676 
786	 0.108982839987382 
787	 0.108748202919235 
788	 0.108524960516933 
789	 0.108352047438206 
790	 0.108183460779756 
791	 0.107960723230657 
792	 0.107754578551424 
793	 0.107548640817861 
794	 0.10733801452461 
795	 0.107129840622747 
796	 0.106901807800557 
797	 0.106694592642533 
798	 0.10652106442573 
799	 0.106327000616938 
800	 0.106120497762072 
801	 0.105913697999321 
802	 0.105717441919126 
803	 0.105528777557652 
804	 0.105327125644225 
805	 0.105152000753856 
806	 0.1050534446327 
807	 0.104836413576887 
808	 0.104621700984139 
809	 0.104457538456963 
810	 0.104253330987757 
811	 0.10409841665108 
812	 0.103946799450633 
813	 0.103763472657496 
814	 0.103628542883427 
815	 0.103485233860634 
816	 0.10331690548434 
817	 0.103139720130382 
818	 0.103047421385519 
819	 0.10293081242371 
820	 0.102755347845088 
821	 0.10256589075921 
822	 0.102410149341766 
823	 0.102292999427302 
824	 0.102197507784482 
825	 0.10208712803498 
826	 0.1019787272433 
827	 0.101859286674812 
828	 0.101719850177522 
829	 0.101584323055537 
830	 0.101457085671915 
831	 0.101363035495147 
832	 0.101314005475818 
833	 0.101195718825775 
834	 0.101065644965665 
835	 0.100954440480545 
836	 0.100857755681854 
837	 0.100828491545008 
838	 0.100797932728599 
839	 0.100716792522 
840	 0.10060276142086 
841	 0.100517829937357 
842	 0.100453541190988 
843	 0.100390145205226 
844	 0.100348038532988 
845	 0.100294831396331 
846	 0.100231878709675 
847	 0.100173901151468 
848	 0.100107038324433 
849	 0.100044420995935 
850	 9.99891539029328E-02 
851	 9.99381135199605E-02 
852	 9.99383511280153E-02 
853	 9.99259096152683E-02 
854	 9.98912188428907E-02 
855	 9.99229506081326E-02 
856	 9.98878583063415E-02 
857	 9.98532186810427E-02 
858	 9.98724424622038E-02 
859	 0.09983750197311 
860	 9.98138200872878E-02 
861	 9.98137788608601E-02 
862	 9.98245615513903E-02 
863	 9.98140592607145E-02 
864	 9.97795024244089E-02 
865	 9.97662008661886E-02 
866	 9.98248098854603E-02 
867	 9.98338444882658E-02 
868	 9.98508109739254E-02 
869	 9.98856500662523E-02 
870	 9.98897274327563E-02 
871	 9.99295861054199E-02 
872	 9.99695019484635E-02 
873	 0.100000577009182 
874	 0.100082593419705 
875	 0.100115554021644 
876	 0.100121130319772 
877	 0.100137012553426 
878	 0.100150307241001 
879	 0.100225162514263 
880	 0.10032754859434 
881	 0.100405595479571 
882	 0.100504423433812 
883	 0.10054306592896 
884	 0.100542939164498 
885	 0.100581617221689 
886	 0.100679990720229 
887	 0.100774860108595 
888	 0.100854093301855 
889	 0.100955008027813 
890	 0.101091512792949 
891	 0.101167038739686 
892	 0.101192965492092 
893	 0.101320648757751 
894	 0.101449408242843 
895	 0.101553953094595 
896	 0.10164172829368 
897	 0.101752100748377 
898	 0.101870761584069 
899	 0.101996154755059 
900	 0.102128386069633 
901	 0.102267279109159 
902	 0.102381025588004 
903	 0.102490624112107 
904	 0.10262728972498 
905	 0.102788017764478 
906	 0.102910410380629 
907	 0.103029033060023 
908	 0.10320302634629 
909	 0.103354531793244 
910	 0.103493330634919 
911	 0.103671380527602 
912	 0.103931685433503 
913	 0.104099491310612 
914	 0.104217275020461 
915	 0.104333431174609 
916	 0.104483427732581 
917	 0.104713750124434 
918	 0.104915829588145 
919	 0.105071595854902 
920	 0.105282513450174 
921	 0.105495573926867 
922	 0.105709405284497 
923	 0.105922736106378 
924	 0.106124163152047 
925	 0.106273294466633 
926	 0.106475441775421 
927	 0.106755438497985 
928	 0.106940286657366 
929	 0.10710240968458 
930	 0.107303042311306 
931	 0.107575571710802 
932	 0.107896735591773 
933	 0.108206803160723 
934	 0.10841631265803 
935	 0.108526342600725 
936	 0.108799253196926 
937	 0.10904500229727 
938	 0.109257562912314 
939	 0.109500108376991 
940	 0.109858980257869 
941	 0.110099377795312 
942	 0.110301707340876 
943	 0.110605225057891 
944	 0.110831901990136 
945	 0.111046968569501 
946	 0.111326332741033 
947	 0.111683443531503 
948	 0.111864453517575 
949	 0.112092228835411 
950	 0.112429813119859 
951	 0.112805704442243 
952	 0.113005410624487 
953	 0.1132876180362 
954	 0.113638115954078 
955	 0.113903553210528 
956	 0.114163082514715 
957	 0.114459522779115 
958	 0.114749733675623 
959	 0.11497537325887 
960	 0.11529580168801 
961	 0.115669339142118 
962	 0.115996750506333 
963	 0.116192795417586 
964	 0.116384360716256 
965	 0.116733207183082 
966	 0.117126560623391 
967	 0.117342226972669 
968	 0.117690763923047 
969	 0.117963567933209 
970	 0.118161431757511 
971	 0.118442746165285 
972	 0.118842673068912 
973	 0.119221740387024 
974	 0.119527171402508 
975	 0.119795307851403 
976	 0.120116897372545 
977	 0.120442805504456 
978	 0.120717567139118 
979	 0.120945213880877 
980	 0.121430140156773 
981	 0.121779745303328 
982	 0.121986600565581 
983	 0.122283645948898 
984	 0.12261886792371 
985	 0.122889237324443 
986	 0.12312177138097 
987	 0.123418409807006 
988	 0.123847941835477 
989	 0.124047218435587 
990	 0.12415133210968 
991	 0.124482100517119 
992	 0.124892208409004 
993	 0.125116424325274 
994	 0.125349803943103 
995	 0.125799150638583 
996	 0.125789572790114 
997	 0.12607504102956 
998	 0.126509371867225 
999	 0.126749015768425 
1000	 0.127199125191543 
1001	 0.126532204966624 
1002	 0.126801124767894 
1003	 0.127091286542974 
1004	 0.127379464035535 
1005	 0.127736229849325 
1006	 0.12796867036604 
1007	 0.128124348319321 
1008	 0.128307174422524 
1009	 0.128487477441887 
1010	 0.128686877235695 
1011	 0.128930152488326 
1012	 0.12916803833517 
1013	 0.129378140900705 
1014	 0.129561667817174 
1015	 0.129757069280735 
1016	 0.129938065622454 
1017	 0.130132762584993 
1018	 0.130319914987227 
1019	 0.130569105879099 
1020	 0.130757106872332 
1021	 0.130967213277051 
1022	 0.13123467737706 
1023	 0.131377166082767 
1024	 0.131509734323625 
1025	 0.131703062253289 
1026	 0.131851528213183 
1027	 0.13196292049054 
1028	 0.132113574112029 
1029	 0.132268584922673 
1030	 0.132402879012753 
1031	 0.132543502999092 
1032	 0.132705161965535 
1033	 0.13288516444909 
1034	 0.133048993408882 
1035	 0.133183094004878 
1036	 0.133305092810766 
1037	 0.133416187142181 
1038	 0.133540446727545 
1039	 0.133678130102686 
1040	 0.133759106830896 
1041	 0.133846823013743 
1042	 0.13402489979425 
1043	 0.134167429421078 
1044	 0.13427880754688 
1045	 0.134405954660766 
1046	 0.134580299536942 
1047	 0.134664585977846 
1048	 0.134702069280815 
1049	 0.134807648685974 
1050	 0.13495270376926 
1051	 0.135036938973136 
1052	 0.13515006436596 
1053	 0.135361681273387 
1054	 0.135501086258031 
1055	 0.135609228880683 
1056	 0.135763767884728 
1057	 0.135894199121742 
1058	 0.135983094077192 
1059	 0.13609588127131 
1060	 0.136241059047862 
1061	 0.1363252320884 
1062	 0.136412851696825 
1063	 0.13655756633371 
1064	 0.136672709873475 
1065	 0.13679230679385 
1066	 0.136906197567033 
1067	 0.136942420293084 
1068	 0.137038163061457 
1069	 0.137202292722557 
1070	 0.137316492109427 
1071	 0.137433911253428 
1072	 0.13755240339403 
1073	 0.137652623887795 
1074	 0.137723140166223 
1075	 0.137763836076592 
1076	 0.13787485846607 
1077	 0.137969025325011 
1078	 0.138053070197582 
1079	 0.138168267788385 
1080	 0.138267806700251 
1081	 0.138364830141529 
1082	 0.13844504427851 
1083	 0.138522714208062 
1084	 0.138620180146254 
1085	 0.138707018671171 
1086	 0.138755350942897 
1087	 0.138833136180626 
1088	 0.138937885126936 
1089	 0.139026038988961 
1090	 0.139096993257687 
1091	 0.139191662689607 
1092	 0.139273002441141 
1093	 0.139305483963585 
1094	 0.139353497623975 
1095	 0.139431243580071 
1096	 0.139538318173085 
1097	 0.1396644079816 
1098	 0.139733931721875 
1099	 0.139771360956447 
1100	 0.139822561779029 
1101	 0.13981135498611 
1102	 0.139871986568212 
1103	 0.139990423841156 
1104	 0.140099197055869 
1105	 0.14016406598662 
1106	 0.140244739361618 
1107	 0.140310833100064 
1108	 0.140352294205795 
1109	 0.14040487354422 
1110	 0.140478269825129 
1111	 0.140552126522694 
1112	 0.140614100336438 
1113	 0.140687172420456 
1114	 0.140783846973388 
1115	 0.140867242291854 
1116	 0.1409488900311 
1117	 0.141023461419399 
1118	 0.14110744151865 
1119	 0.141162072457235 
1120	 0.141217163800721 
1121	 0.141273015868234 
1122	 0.14134084034126 
1123	 0.141424062233716 
1124	 0.14148018332227 
1125	 0.141517120136555 
1126	 0.141576989543783 
1127	 0.141629438263383 
1128	 0.141691483334032 
1129	 0.141778927131179 
1130	 0.14184973908636 
1131	 0.141908240032924 
1132	 0.141975624290439 
1133	 0.142057638167887 
1134	 0.142119116279633 
1135	 0.142181037555785 
1136	 0.142219762131787 
1137	 0.142256981557613 
1138	 0.142276401085577 
1139	 0.14230931552058 
1140	 0.142341681734996 
1141	 0.142389202270724 
1142	 0.142449869015888 
1143	 0.142498005992141 
1144	 0.142559805152986 
1145	 0.142597073605231 
1146	 0.14261128423025 
1147	 0.142634600224152 
1148	 0.142651209849883 
1149	 0.142671275710025 
1150	 0.142698281158875 
1151	 0.1427143984454 
1152	 0.142730631586804 
1153	 0.142752048671127 
1154	 0.142786330340989 
1155	 0.142829682251277 
1156	 0.142871100023694 
1157	 0.142928665085092 
1158	 0.142967806651136 
1159	 0.142997768112694 
1160	 0.143031247198762 
1161	 0.143056913130177 
1162	 0.14308916602043 
1163	 0.143119195995077 
1164	 0.143157293163835 
1165	 0.143211920949798 
1166	 0.143250305156233 
1167	 0.143289552248534 
1168	 0.143329444860798 
1169	 0.143358186468779 
1170	 0.143364116781175 
1171	 0.143402848819824 
1172	 0.14345888930537 
1173	 0.143497176085013 
1174	 0.143543417981612 
1175	 0.143582973258835 
1176	 0.143605976054045 
1177	 0.143634521130197 
1178	 0.143659285234699 
1179	 0.143701145340919 
1180	 0.143757247514638 
1181	 0.143801254928693 
1182	 0.143852025556732 
1183	 0.143903294004981 
1184	 0.143947503724551 
1185	 0.143975300794874 
1186	 0.144009994309661 
1187	 0.144048848776122 
1188	 0.144087818040017 
1189	 0.14412539414924 
1190	 0.144159512329379 
1191	 0.144200749668249 
1192	 0.144231115082336 
1193	 0.14423777265414 
1194	 0.144267186760034 
1195	 0.144308750812522 
1196	 0.144344671841524 
1197	 0.144393434914403 
1198	 0.144434797288012 
1199	 0.144471588798381 
1200	 0.144497254942469 
1201	 0.14453260221889 
1202	 0.144570945851558 
1203	 0.14460557808405 
1204	 0.144646393009389 
1205	 0.144672895698075 
1206	 0.144683577017806 
1207	 0.144710259571078 
1208	 0.144735912478104 
1209	 0.144764465717613 
1210	 0.144809014804058 
1211	 0.144841842780119 
1212	 0.14486608533211 
1213	 0.144892127918377 
1214	 0.144919243827624 
1215	 0.144941560295763 
1216	 0.144961191941631 
1217	 0.144975809836245 
1218	 0.144998119475828 
1219	 0.145018680160781 
1220	 0.145043545429067 
1221	 0.145078703550138 
1222	 0.145103963695947 
1223	 0.145122261666333 
1224	 0.145147166956015 
1225	 0.145182031576684 
1226	 0.145198512373542 
1227	 0.145200211048799 
1228	 0.145215886245224 
1229	 0.145227581682691 
1230	 0.145238572769832 
1231	 0.14526186530236 
1232	 0.145282572615594 
1233	 0.145300340696734 
1234	 0.145305626698374 
1235	 0.14532424653355 
1236	 0.145347399126881 
1237	 0.145376420922467 
1238	 0.145421057935389 
1239	 0.145441416306241 
1240	 0.145457286186324 
1241	 0.145471180883258 
1242	 0.145462480757145 
1243	 0.145468237065309 
1244	 0.145483825963175 
1245	 0.145498853731165 
1246	 0.145518874524061 
1247	 0.145532477646491 
1248	 0.145546692004476 
1249	 0.145558801861615 
1250	 0.14556383246369 
1251	 0.145555579251107 
1252	 0.145569012203432 
1253	 0.145589540158243 
1254	 0.145608994773597 
1255	 0.145636476812633 
1256	 0.145669323909056 
1257	 0.145713860970092 
1258	 0.145734722934328 
1259	 0.145761718952379 
1260	 0.145769576018406 
1261	 0.145741430767126 
1262	 0.145730337626798 
1263	 0.145725170743731 
1264	 0.145711709864366 
1265	 0.14568823727262 
1266	 0.145677484250962 
1267	 0.145666817983948 
1268	 0.145657947529956 
1269	 0.145660592165632 
1270	 0.145679045440644 
1271	 0.145685634021919 
1272	 0.145693145767785 
1273	 0.145700434909392 
1274	 0.145698401238519 
1275	 0.145714973743702 
1276	 0.145745815985307 
1277	 0.14576729810375 
1278	 0.145799003711161 
1279	 0.145819387707966 
1280	 0.145823172869968 
1281	 0.145839578686683 
1282	 0.145842154507906 
1283	 0.145874469620656 
1284	 0.145938059399019 
1285	 0.145991523050201 
1286	 0.146045189238234 
1287	 0.146098978861158 
1288	 0.146119628677992 
1289	 0.146096028858843 
1290	 0.146120503624688 
1291	 0.146148889907121 
1292	 0.146178254071933 
1293	 0.146233564275652 
1294	 0.14626911707469 
1295	 0.146291953177972 
1296	 0.146315971372311 
1297	 0.146340200867054 
1298	 0.146361266805253 
1299	 0.146373597942922 
1300	 0.146386668279739 
1301	 0.146403699686715 
1302	 0.146417890317155 
1303	 0.146420994316451 
1304	 0.146436777791304 
1305	 0.146468067101357 
1306	 0.146471007391764 
1307	 0.146455471717958 
1308	 0.14643723751237 
1309	 0.146412203678897 
1310	 0.146358043345944 
1311	 0.146332497826123 
1312	 0.146320133566085 
1313	 0.14630288843984 
1314	 0.146296574834847 
1315	 0.1462759726704 
1316	 0.146247796784598 
1317	 0.146223632986086 
1318	 0.146190455664412 
1319	 0.146165794554954 
1320	 0.146140566954477 
1321	 0.146124556116251 
1322	 0.14612141185608 
1323	 0.146115669194511 
1324	 0.146092266367563 
1325	 0.146072971568985 
1326	 0.146043850543015 
1327	 0.146003622694527 
1328	 0.145959318218103 
1329	 0.145935109430399 
1330	 0.145908843046201 
1331	 0.145881539186271 
1332	 0.145850185381337 
1333	 0.145830063462637 
1334	 0.145792634409129 
1335	 0.145730704827005 
1336	 0.145693649233671 
1337	 0.145672313898725 
1338	 0.145636991082295 
1339	 0.145596038815709 
1340	 0.145568136120879 
1341	 0.145531214674108 
1342	 0.145507464186271 
1343	 0.145503373478491 
1344	 0.14550249658 
1345	 0.14549590909331 
1346	 0.1454720793169 
1347	 0.145443243774496 
1348	 0.145430045055526 
1349	 0.14539503056979 
1350	 0.145358700982683 
1351	 0.145337889827433 
1352	 0.145327436709961 
1353	 0.1452986509281 
1354	 0.145270744220798 
1355	 0.145248524021918 
1356	 0.145205883930252 
1357	 0.145180458079939 
1358	 0.145184050153787 
1359	 0.145168356534611 
1360	 0.145145962514115 
1361	 0.145124005180959 
1362	 0.145087282949769 
1363	 0.145065778147259 
1364	 0.145060666948121 
1365	 0.145040792302075 
1366	 0.145025462807324 
1367	 0.145005381014283 
1368	 0.144967769200949 
1369	 0.144914979315527 
1370	 0.144838629235695 
1371	 0.144767644185589 
1372	 0.14469320205504 
1373	 0.14459843169885 
1374	 0.144514778172801 
1375	 0.144443227572901 
1376	 0.14435097928224 
1377	 0.144248301518972 
1378	 0.144147035530575 
1379	 0.144046227546958 
1380	 0.143923654107626 
1381	 0.143796015658592 
1382	 0.143651995173177 
1383	 0.143482417622401 
1384	 0.143316284172589 
1385	 0.143160257655564 
1386	 0.14296974122436 
1387	 0.142768343202153 
1388	 0.142545106758774 
1389	 0.14229912009015 
1390	 0.142028509514989 
1391	 0.141741838908318 
1392	 0.141418690696767 
1393	 0.141080401004029 
1394	 0.140733181202542 
1395	 0.140367082805116 
1396	 0.140000956165986 
1397	 0.139612403829713 
1398	 0.139202038566093 
1399	 0.138785412853624 
1400	 0.138348432875864 
1401	 0.137923191730516 
1402	 0.137486393138645 
1403	 0.137067259463572 
1404	 0.136663472239193 
1405	 0.136255325136003 
1406	 0.135833224855628 
1407	 0.135444749488794 
1408	 0.135051786704661 
1409	 0.134702061207133 
1410	 0.134390066797855 
1411	 0.134101917750511 
1412	 0.133840530741146 
1413	 0.133603286356064 
1414	 0.133396361352644 
1415	 0.133207858224939 
1416	 0.133041090149308 
1417	 0.132902462735541 
1418	 0.132787153184885 
1419	 0.132672962691657 
1420	 0.13257591713848 
1421	 0.132493428641106 
1422	 0.132399594248044 
1423	 0.1323119960795 
1424	 0.132223642285953 
1425	 0.132131841458764 
1426	 0.132046160467757 
1427	 0.131959153356414 
1428	 0.131887392524974 
1429	 0.131826336840096 
1430	 0.131771836680199 
1431	 0.131734053675151 
1432	 0.131683960417089 
1433	 0.131629198288073 
1434	 0.13157892250124 
1435	 0.131520893349711 
1436	 0.131480494880416 
1437	 0.131451695509119 
1438	 0.131425814935555 
1439	 0.131413609755829 
1440	 0.131392118178322 
1441	 0.131374970410659 
1442	 0.1313743756367 
1443	 0.131355835257703 
1444	 0.131348058884149 
1445	 0.131352905695688 
1446	 0.131340382229929 
1447	 0.131334027721303 
1448	 0.131333572907911 
1449	 0.131336024933885 
1450	 0.131343723499382 
1451	 0.1313455317653 
1452	 0.131360837446346 
1453	 0.131357345265431 
1454	 0.131328753019792 
1455	 0.131322991279483 
1456	 0.131319631858354 
1457	 0.131323575382167 
1458	 0.13134977396889 
1459	 0.131353863193701 
1460	 0.131346851880924 
1461	 0.13134935632612 
1462	 0.131339295340335 
1463	 0.131344851993425 
1464	 0.131360894003596 
1465	 0.13138353383439 
1466	 0.131411136685299 
1467	 0.131448933802087 
1468	 0.131499306624564 
1469	 0.13155385339664 
1470	 0.131618869805037 
1471	 0.131680807817393 
1472	 0.131748992135183 
1473	 0.131826126619096 
1474	 0.131897835263388 
1475	 0.131968076372894 
1476	 0.132028139060157 
1477	 0.13208794156305 
1478	 0.1321632648626 
1479	 0.132245749716299 
1480	 0.132341281445539 
1481	 0.1324399309334 
1482	 0.132531875412235 
1483	 0.132612589360124 
1484	 0.132713662397003 
1485	 0.132826470235066 
1486	 0.132934342117265 
1487	 0.133056209589151 
1488	 0.133158733925227 
1489	 0.133248756167787 
1490	 0.133336347774994 
1491	 0.133418598813663 
1492	 0.133499099093596 
1493	 0.133569138720188 
1494	 0.1336495586308 
1495	 0.133734277652921 
1496	 0.133813596489947 
1497	 0.133895181269659 
1498	 0.133977039035235 
1499	 0.134062011566212 
1500	 0.134135351775754 
1501	 0.134197984406837 
1502	 0.134268908293873 
1503	 0.134339283555024 
1504	 0.134399498459966 
1505	 0.134465911851331 
1506	 0.134552696980528 
1507	 0.134624402243869 
1508	 0.134696168069943 
1509	 0.134779186970212 
1510	 0.134851532961344 
1511	 0.134913812937166 
1512	 0.134977928636546 
1513	 0.135033799373404 
1514	 0.135078428891245 
1515	 0.135133574171146 
1516	 0.135182943764985 
1517	 0.135238553734343 
1518	 0.13529956730333 
1519	 0.135358540323867 
1520	 0.135420117281572 
1521	 0.135480070400071 
1522	 0.135538966831351 
1523	 0.135592319595676 
1524	 0.135641842413091 
1525	 0.135695710901988 
1526	 0.135749057195578 
1527	 0.135800830132223 
1528	 0.135854943364008 
1529	 0.13590527175988 
1530	 0.135952012096174 
1531	 0.135997378846693 
1532	 0.136045898378239 
1533	 0.136088854297215 
1534	 0.13611901948219 
1535	 0.136159250909718 
1536	 0.136203759782958 
1537	 0.136245435616355 
1538	 0.136288201665603 
1539	 0.136335748475642 
1540	 0.136389760968362 
1541	 0.136431071207291 
1542	 0.136470141786963 
1543	 0.136510246351148 
1544	 0.136537667408668 
1545	 0.136569823789805 
1546	 0.13661118306472 
1547	 0.136650745610711 
1548	 0.136662369534387 
1549	 0.136683373403956 
1550	 0.136708309786518 
1551	 0.136723052682535 
1552	 0.136745150765653 
1553	 0.13677968524963 
1554	 0.1368243375987 
1555	 0.13684985498732 
1556	 0.136876055309608 
1557	 0.136924210223604 
1558	 0.136947479730762 
1559	 0.136964162434265 
1560	 0.136983527023411 
1561	 0.136994048939309 
1562	 0.137021756189853 
1563	 0.137060252525021 
1564	 0.137088222762778 
1565	 0.137125162568582 
1566	 0.137152180060297 
1567	 0.137162973135093 
1568	 0.137186675407158 
1569	 0.137221684257062 
1570	 0.137241457255829 
1571	 0.13725249130215 
1572	 0.137272607523937 
1573	 0.137292067183356 
1574	 0.137305566574342 
1575	 0.137323760493172 
1576	 0.13733588895555 
1577	 0.137329854524993 
1578	 0.137344732277372 
1579	 0.137381030665611 
1580	 0.137393356439366 
1581	 0.137395997716872 
1582	 0.137410195413272 
1583	 0.137414329822529 
1584	 0.137424888690842 
1585	 0.137459825140206 
1586	 0.137472448593295 
1587	 0.137463600211844 
1588	 0.137468133713015 
1589	 0.137468720354805 
1590	 0.137477171723332 
1591	 0.137505746998424 
1592	 0.137514248330194 
1593	 0.137513908839285 
1594	 0.137511674809925 
1595	 0.137485413387096 
1596	 0.137482746452246 
1597	 0.137497515580313 
1598	 0.13750954437316 
1599	 0.137538221399933 
1600	 0.137552169595231 
1601	 0.137558178355662 
1602	 0.1375594555365 
1603	 0.137551120988391 
1604	 0.137542729491912 
1605	 0.137528877943531 
1606	 0.137516288250094 
1607	 0.13749134777568 
1608	 0.13748945723627 
1609	 0.137499839680661 
1610	 0.137491952635931 
1611	 0.137501835943375 
1612	 0.137524315903552 
1613	 0.137508295604094 
1614	 0.137499984755543 
1615	 0.137498420368361 
1616	 0.137476775674959 
1617	 0.137465227401451 
1618	 0.137471856098522 
1619	 0.137470327716784 
1620	 0.137454105672294 
1621	 0.137450145702177 
1622	 0.137456369312444 
1623	 0.137445594796283 
1624	 0.137430183762887 
1625	 0.137413081439192 
1626	 0.137382827130018 
1627	 0.137371530876308 
1628	 0.137366716603086 
1629	 0.137362966152755 
1630	 0.137367994526484 
1631	 0.137367942764815 
1632	 0.137367345311157 
1633	 0.137366998762211 
1634	 0.137371854167429 
1635	 0.137362243391977 
1636	 0.137343532620671 
1637	 0.137331549453528 
1638	 0.137316503771757 
1639	 0.137295758224245 
1640	 0.137274228849104 
1641	 0.137258143628312 
1642	 0.137234582700381 
1643	 0.137217956851067 
1644	 0.137217433828202 
1645	 0.137200201824898 
1646	 0.137172548968762 
1647	 0.137148983004764 
1648	 0.137117824348077 
1649	 0.137098995578708 
1650	 0.137091520649611 
1651	 0.137070106660412 
1652	 0.137052682041977 
1653	 0.137023175032783 
1654	 0.136965206837859 
1655	 0.136944223267755 
1656	 0.136937468360495 
1657	 0.136930070696484 
1658	 0.13695145260548 
1659	 0.136942057890006 
1660	 0.136914363642775 
1661	 0.136894003039096 
1662	 0.136857977326839 
1663	 0.136844388511405 
1664	 0.136847127259053 
1665	 0.136839281814706 
1666	 0.136843085248046 
1667	 0.136830096652758 
1668	 0.136798241006706 
1669	 0.136780497362383 
1670	 0.136772826957152 
1671	 0.136743846804874 
1672	 0.136702202896071 
1673	 0.136675568680736 
1674	 0.136636590181497 
1675	 0.136611786054313 
1676	 0.136614580480171 
1677	 0.136596627612038 
1678	 0.136573097389391 
1679	 0.13653973662195 
1680	 0.136497170518941 
1681	 0.13645436508424 
1682	 0.136391946893489 
1683	 0.136356017681092 
1684	 0.136330025061287 
1685	 0.136308560773353 
1686	 0.136311517943401 
1687	 0.136290927353245 
1688	 0.136265373835566 
1689	 0.136233909578736 
1690	 0.136177443607754 
1691	 0.136151790789225 
1692	 0.136144069098044 
1693	 0.136121468740805 
1694	 0.136109440966447 
1695	 0.136088660504625 
1696	 0.136056488848782 
1697	 0.136019405439912 
1698	 0.135978061238389 
1699	 0.135942185014906 
1700	 0.135896495203252 
1701	 0.135859002745804 
1702	 0.13583722763779 
1703	 0.135806342667214 
1704	 0.135775770624599 
1705	 0.135728960225406 
1706	 0.135657471033243 
1707	 0.135622575409445 
1708	 0.135595795171375 
1709	 0.135568200720665 
1710	 0.135569381558792 
1711	 0.13555241969926 
1712	 0.135519341768449 
1713	 0.135489754794061 
1714	 0.135470597562809 
1715	 0.135436448743896 
1716	 0.135384491772184 
1717	 0.135340899765021 
1718	 0.135298796660028 
1719	 0.135252960131827 
1720	 0.135191894507102 
1721	 0.135162802097369 
1722	 0.135163499487925 
1723	 0.135122484324808 
1724	 0.135093435126157 
1725	 0.135031803212023 
1726	 0.134908061579515 
1727	 0.134834699399181 
1728	 0.134777690890197 
1729	 0.134717808679614 
1730	 0.13466838061187 
1731	 0.134625670124428 
1732	 0.134599367746791 
1733	 0.134535001735798 
1734	 0.134462078553189 
1735	 0.134384094854136 
1736	 0.134263924616912 
1737	 0.134194087467773 
1738	 0.134169503619847 
1739	 0.134094010891513 
1740	 0.134004650906961 
1741	 0.133921839178405 
1742	 0.133807647925361 
1743	 0.133731060015419 
1744	 0.133684170857613 
1745	 0.133623052228308 
1746	 0.133562105508932 
1747	 0.133520845053453 
1748	 0.133482863270525 
1749	 0.133427719493178 
1750	 0.133354276597319 
1751	 0.133280865664108 
1752	 0.133212637571428 
1753	 0.13317853765857 
1754	 0.13313814257812 
1755	 0.133082080205734 
1756	 0.133038069917038 
1757	 0.132974829978282 
1758	 0.132900108674519 
1759	 0.132825520551776 
1760	 0.13274428198824 
1761	 0.132663866369837 
1762	 0.1325892293312 
1763	 0.132520683589641 
1764	 0.132455024806172 
1765	 0.132394284664153 
1766	 0.132357023813051 
1767	 0.132303823636792 
1768	 0.132229717122265 
1769	 0.132181098447234 
1770	 0.132103281237545 
1771	 0.132029065060136 
1772	 0.131977023107329 
1773	 0.13189147527882 
1774	 0.13183667297694 
1775	 0.13180451036421 
1776	 0.13176854567159 
1777	 0.131731908454052 
1778	 0.131656857991979 
1779	 0.131575083522895 
1780	 0.131507033844527 
1781	 0.131440734061342 
1782	 0.131396193397995 
1783	 0.131349040248656 
1784	 0.131312842966916 
1785	 0.131294813305105 
1786	 0.131264950031864 
1787	 0.131242448593236 
1788	 0.131213959408905 
1789	 0.131164321796754 
1790	 0.131140347601573 
1791	 0.131138264986998 
1792	 0.131123316058611 
1793	 0.13112484131039 
1794	 0.131092399519269 
1795	 0.131017868597089 
1796	 0.130980673845218 
1797	 0.130937351184785 
1798	 0.130918857214602 
1799	 0.130951998839918 
1800	 0.130939398830627 
1801	 0.128387727971602 
1802	 0.128366480057495 
1803	 0.128351173307204 
1804	 0.128339387665559 
1805	 0.12833814578392 
1806	 0.128366201615521 
1807	 0.128363433309947 
1808	 0.128357724337773 
1809	 0.1283427899427 
1810	 0.128347010676483 
1811	 0.128353951324386 
1812	 0.128353738865797 
1813	 0.128348296903381 
1814	 0.128336719786936 
1815	 0.128294677538802 
1816	 0.128253844153131 
1817	 0.128232192691165 
1818	 0.128230251540499 
1819	 0.128217249480678 
1820	 0.128200240787323 
1821	 0.128198528398462 
1822	 0.12820234504664 
1823	 0.128207211719023 
1824	 0.128222051087271 
1825	 0.128232069197759 
1826	 0.128223241902115 
1827	 0.128199387143536 
1828	 0.128165087008706 
1829	 0.128099305177937 
1830	 0.128050057018287 
1831	 0.12798866331612 
1832	 0.127963209950956 
1833	 0.127936616496307 
1834	 0.127906550310088 
1835	 0.127872486848671 
1836	 0.127816340202076 
1837	 0.127767940857123 
1838	 0.127718751647051 
1839	 0.127667655791972 
1840	 0.127624159382622 
1841	 0.127574182803916 
1842	 0.127507464244556 
1843	 0.12745857791079 
1844	 0.127410165272452 
1845	 0.127345946924072 
1846	 0.127295787480648 
1847	 0.12725397909903 
1848	 0.127204265842809 
1849	 0.127146144175445 
1850	 0.127078592183422 
1851	 0.127000363012252 
1852	 0.126904564421753 
1853	 0.126805926773715 
1854	 0.126722612366023 
1855	 0.126639595400697 
1856	 0.126543831360607 
1857	 0.126421896973856 
1858	 0.126287704337966 
1859	 0.126158722036205 
1860	 0.126010747531943 
1861	 0.125842887846517 
1862	 0.125681619527756 
1863	 0.125532323298759 
1864	 0.125338647038598 
1865	 0.125123807697196 
1866	 0.124927142123822 
1867	 0.124716811441492 
1868	 0.124500270624051 
1869	 0.124282787862377 
1870	 0.124037895674446 
1871	 0.123751691091768 
1872	 0.123424882585784 
1873	 0.123072711882283 
1874	 0.122691442101759 
1875	 0.122273056631538 
1876	 0.121860263969545 
1877	 0.121404379412128 
1878	 0.120913918939094 
1879	 0.120423489823926 
1880	 0.119887316541091 
1881	 0.119303373739409 
1882	 0.118705718773509 
1883	 0.118095367507187 
1884	 0.117418231903198 
1885	 0.116709189672874 
1886	 0.115976619596107 
1887	 0.115190715568975 
1888	 0.114372699582365 
1889	 0.11353331503464 
1890	 0.112658509988274 
1891	 0.111772923243656 
1892	 0.110853194769011 
1893	 0.10993278745311 
1894	 0.109003098217261 
1895	 0.108062012993891 
1896	 0.10707399106039 
1897	 0.106105396280524 
1898	 0.105140593756381 
1899	 0.104179273718775 
1900	 0.103282777912196 
1901	 0.102423770897127 
1902	 0.101579317290391 
1903	 0.100772722028126 
1904	 9.99832434782624E-02 
1905	 9.92076621862438E-02 
1906	 9.84593457698787E-02 
1907	 9.77609781595058E-02 
1908	 9.70725822223102E-02 
1909	 9.64344437088665E-02 
1910	 9.58498575489451E-02 
1911	 9.52949858092083E-02 
1912	 9.47888602635633E-02 
1913	 9.43055748318371E-02 
1914	 9.38601443194292E-02 
1915	 9.34335542781275E-02 
1916	 9.30285982336395E-02 
1917	 9.26510482172329E-02 
1918	 9.23240202845913E-02 
1919	 9.20017740715541E-02 
1920	 9.17246215291153E-02 
1921	 9.14929924159174E-02 
1922	 9.12627951738845E-02 
1923	 9.10624661283972E-02 
1924	 9.08827913502118E-02 
1925	 9.07251256910166E-02 
1926	 9.05849364786415E-02 
1927	 9.04591517363717E-02 
1928	 9.03726501578157E-02 
1929	 9.03083056493344E-02 
1930	 9.02475408054819E-02 
1931	 9.02198564307997E-02 
1932	 9.01767549242743E-02 
1933	 9.01411444412421E-02 
1934	 0.090135913037326 
1935	 9.01291486774854E-02 
1936	 9.01242081204216E-02 
1937	 9.01465549427637E-02 
1938	 0.090179622558309 
1939	 9.02263678834528E-02 
1940	 9.02983847741131E-02 
1941	 9.03845454991911E-02 
1942	 9.04472345822908E-02 
1943	 9.05269620707771E-02 
1944	 9.06170406740152E-02 
1945	 9.06906044858038E-02 
1946	 9.07962677418623E-02 
1947	 9.09416785962882E-02 
1948	 9.10608227242553E-02 
1949	 9.11818748501291E-02 
1950	 9.13088119504705E-02 
1951	 9.14337423475668E-02 
1952	 9.15405275869704E-02 
1953	 9.16945808840585E-02 
1954	 9.18482396123209E-02 
1955	 9.19959576747065E-02 
1956	 9.21682581726224E-02 
1957	 9.23242527530967E-02 
1958	 9.24601762656458E-02 
1959	 9.26221963976372E-02 
1960	 9.27904583886088E-02 
1961	 9.29673383716696E-02 
1962	 9.31702252295047E-02 
1963	 9.33577912195506E-02 
1964	 9.35350139590728E-02 
1965	 9.37280951354356E-02 
1966	 9.39255051081243E-02 
1967	 0.094126603907889 
1968	 9.43298660302601E-02 
1969	 9.45495925321208E-02 
1970	 9.47550351611245E-02 
1971	 9.49481058007128E-02 
1972	 9.51536781360539E-02 
1973	 9.53783164167006E-02 
1974	 9.55777656629545E-02 
1975	 9.57643828573474E-02 
1976	 9.59502353429478E-02 
1977	 9.61504869867819E-02 
1978	 9.63465265339886E-02 
1979	 9.65516627479261E-02 
1980	 9.67813564158321E-02 
1981	 9.70015053194582E-02 
1982	 9.72078545518559E-02 
1983	 9.74282354709692E-02 
1984	 9.76734057222599E-02 
1985	 9.78973363243627E-02 
1986	 9.81109843805207E-02 
1987	 9.83268855956903E-02 
1988	 0.098537828122637 
1989	 9.87478407380565E-02 
1990	 9.89484202599518E-02 
1991	 9.91638143148756E-02 
1992	 9.93742342634395E-02 
1993	 9.95813395035494E-02 
1994	 9.97916656893256E-02 
1995	 0.100004095715352 
1996	 0.100218722053605 
1997	 0.100440019765681 
1998	 0.100649632286707 
1999	 0.100848577159735 
2000	 0.101061817116664 
2001	 0.101272702847477 
2002	 0.101492920462051 
2003	 0.101718075958659 
2004	 0.101939948884081 
2005	 0.102168747547616 
2006	 0.102405997778565 
2007	 0.102623172099476 
2008	 0.102842468357866 
2009	 0.103050521943716 
2010	 0.103225541465401 
2011	 0.103422893303646 
2012	 0.103639103541188 
2013	 0.10383966672867 
2014	 0.104035012075397 
2015	 0.104237239619041 
2016	 0.10442379531853 
2017	 0.104591445423757 
2018	 0.104779966802158 
2019	 0.104974877802007 
2020	 0.105166639290622 
2021	 0.105369857477058 
2022	 0.105563725260511 
2023	 0.105749489287487 
2024	 0.105940688338062 
2025	 0.106136969727947 
2026	 0.106321696939817 
2027	 0.106512289954435 
2028	 0.106680480904491 
2029	 0.106852171970346 
2030	 0.107021614613603 
2031	 0.107175357203243 
2032	 0.107310971655875 
2033	 0.107464802836374 
2034	 0.107606466930314 
2035	 0.107763732248055 
2036	 0.107947808653016 
2037	 0.108117302307476 
2038	 0.10828553532215 
2039	 0.10844547466014 
2040	 0.108604318947839 
2041	 0.108752566776637 
2042	 0.108889325674221 
2043	 0.109036313522386 
2044	 0.109182489655649 
2045	 0.109338109110332 
2046	 0.109470317543918 
2047	 0.109597266885105 
2048	 0.109717495458986 
2049	 0.109804507605364 
2050	 0.109921517012103 
2051	 0.110064652104009 
2052	 0.11018317158529 
2053	 0.110307158077195 
2054	 0.110416787290053 
2055	 0.110492694422305 
2056	 0.110576049574371 
2057	 0.110688734567406 
2058	 0.110820881979725 
2059	 0.11093920588878 
2060	 0.111079661777431 
2061	 0.111197687831575 
2062	 0.111288056874181 
2063	 0.111396953947422 
2064	 0.11151615597708 
2065	 0.111629941449615 
2066	 0.111743263062191 
2067	 0.111857275659849 
2068	 0.11198047373091 
2069	 0.112082175052329 
2070	 0.11219127850009 
2071	 0.112303324871345 
2072	 0.112408134846749 
2073	 0.112503817141442 
2074	 0.112607668444504 
2075	 0.112720276774796 
2076	 0.112814280702334 
2077	 0.112894598632967 
2078	 0.112989080418127 
2079	 0.113069687850302 
2080	 0.113167426548252 
2081	 0.11329084883026 
2082	 0.113404737490457 
2083	 0.113517426157751 
2084	 0.113635318338077 
2085	 0.113744457316699 
2086	 0.113855630912669 
2087	 0.11394685146455 
2088	 0.114026958366548 
2089	 0.114103738152931 
2090	 0.114159844799149 
2091	 0.11423101882039 
2092	 0.11430104190827 
2093	 0.114379224061457 
2094	 0.114463912691306 
2095	 0.114551568566263 
2096	 0.114648351364205 
2097	 0.114741798853511 
2098	 0.114846805709995 
2099	 0.114933633446223 
2100	 0.115019129789198 
2101	 0.11509546947782 
2102	 0.11518637524631 
2103	 0.115276609606699 
2104	 0.115368080796466 
2105	 0.115473403850311 
2106	 0.115565396447645 
2107	 0.115645825128891 
2108	 0.11573223803427 
2109	 0.115820254709453 
2110	 0.115907271343884 
2111	 0.11598370811431 
2112	 0.116076487690356 
2113	 0.116191599360182 
2114	 0.116287680948745 
2115	 0.116374018845179 
2116	 0.116462577928678 
2117	 0.116548441671237 
2118	 0.116611587800703 
2119	 0.11669072884073 
2120	 0.116794715043283 
2121	 0.116867064869473 
2122	 0.116916158421486 
2123	 0.11697923610575 
2124	 0.117037110317177 
2125	 0.117093224101253 
2126	 0.117152297509897 
2127	 0.117214730963061 
2128	 0.117273389369973 
2129	 0.117333111233997 
2130	 0.117405374856361 
2131	 0.117467560416401 
2132	 0.117523150997072 
2133	 0.117575106409362 
2134	 0.117613684210823 
2135	 0.117643939166891 
2136	 0.117664422777359 
2137	 0.117671395631935 
2138	 0.117673218048621 
2139	 0.117666796003157 
2140	 0.117656649404668 
2141	 0.117625970319448 
2142	 0.1176142137445 
2143	 0.117626416379544 
2144	 0.117607089167601 
2145	 0.117576930067397 
2146	 0.117547935628449 
2147	 0.11750302597489 
2148	 0.117444018887459 
2149	 0.117396794927866 
2150	 0.117361617139971 
2151	 0.117316875841379 
2152	 0.117277738663513 
2153	 0.117209014096185 
2154	 0.117121888026678 
2155	 0.117043041157226 
2156	 0.116945544185485 
2157	 0.116852227473385 
2158	 0.116763654085013 
2159	 0.116679602388091 
2160	 0.116601625898008 
2161	 0.116504729420853 
2162	 0.116396930830711 
2163	 0.116303590575148 
2164	 0.116219718353197 
2165	 0.116103553471398 
2166	 0.115989859671067 
2167	 0.115887600671099 
2168	 0.115773624706265 
2169	 0.115612561114813 
2170	 0.115519119878442 
2171	 0.115484715371406 
2172	 0.115392894346301 
2173	 0.11531662871352 
2174	 0.115206207105769 
2175	 0.115029476567628 
2176	 0.114895857939285 
2177	 0.114778677498926 
2178	 0.114648541267934 
2179	 0.114529636247193 
2180	 0.114399682847027 
2181	 0.114259905415041 
2182	 0.114115961482475 
2183	 0.113968014796857 
2184	 0.11380280768657 
2185	 0.113665144210879 
2186	 0.113530593376038 
2187	 0.113389830676233 
2188	 0.11326409901771 
2189	 0.113134497431403 
2190	 0.112988628630255 
2191	 0.112860539635111 
2192	 0.112743849605534 
2193	 0.112634037979529 
2194	 0.11252006051758 
2195	 0.112426576370256 
2196	 0.112373875475567 
2197	 0.112291431978814 
2198	 0.112183403485952 
2199	 0.112110566143247 
2200	 0.112022842213966 
2201	 0.111970344385049 
2202	 0.111960105739664 
2203	 0.111982258508949 
2204	 0.111962193148358 
2205	 0.111935204433648 
2206	 0.111919616672153 
2207	 0.111877481880739 
2208	 0.111881818809265 
2209	 0.111930132943853 
2210	 0.111954176931062 
2211	 0.111983526502565 
2212	 0.112010051991366 
2213	 0.112026071899186 
2214	 0.11205586102118 
2215	 0.112100640553907 
2216	 0.112137454806089 
2217	 0.112181913301011 
2218	 0.112209832404529 
2219	 0.112217794280973 
2220	 0.112239072152363 
2221	 0.112241647254855 
2222	 0.112283448949686 
2223	 0.112318193483559 
2224	 0.112345835429373 
2225	 0.112385619229286 
2226	 0.112428140166685 
2227	 0.112465878913109 
2228	 0.112516667304377 
2229	 0.112552065710233 
2230	 0.112585152359287 
2231	 0.112592775422408 
2232	 0.112584071102768 
2233	 0.1125727685131 
2234	 0.11251498920573 
2235	 0.112512059226095 
2236	 0.112544387658253 
2237	 0.112559359010237 
2238	 0.112618382714514 
2239	 0.112622223311831 
2240	 0.112586974170282 
2241	 0.112553262348378 
2242	 0.112464628209228 
2243	 0.112420553897196 
2244	 0.112405531726464 
2245	 0.112380981116659 
2246	 0.112355485573328 
2247	 0.112356593928993 
2248	 0.112319039426673 
2249	 0.112243932049289 
2250	 0.112204549830307 
2251	 0.112172914984208 
2252	 0.112132247046897 
2253	 0.112115342229155 
2254	 0.112052804510393 
2255	 0.111938955808914 
2256	 0.111880790475199 
2257	 0.111822323346229 
2258	 0.111781971634105 
2259	 0.111778813489209 
2260	 0.111771197113121 
2261	 0.111766465092862 
2262	 0.111759461612745 
2263	 0.111761977269548 
2264	 0.111771043599335 
2265	 0.111788317246632 
2266	 0.111788841996202 
2267	 0.111783033098471 
2268	 0.111790019696726 
2269	 0.111785143538851 
2270	 0.111784203621908 
2271	 0.111824184342336 
2272	 0.11185875480869 
2273	 0.111888386672362 
2274	 0.111914381489763 
2275	 0.111915375591704 
2276	 0.111901467488092 
2277	 0.11187468889646 
2278	 0.111804072030068 
2279	 0.111796527857331 
2280	 0.111796875759707 
2281	 0.111819924404666 
2282	 0.111908549539459 
2283	 0.111937123929735 
2284	 0.111951161842633 
2285	 0.111955212690127 
2286	 0.111924066277252 
2287	 0.111914533438691 
2288	 0.111920725713822 
2289	 0.111902772417878 
2290	 0.111870092404705 
2291	 0.11185149573188 
2292	 0.11180082908461 
2293	 0.111792022684937 
2294	 0.111841308238865 
2295	 0.11184969692395 
2296	 0.111854853184148 
2297	 0.111864193806889 
2298	 0.111822046364039 
2299	 0.111791231062098 
2300	 0.111815066159399 
2301	 0.11182326692558 
2302	 0.111803859003316 
2303	 0.111783599525588 
2304	 0.111719529656369 
2305	 0.111620198687065 
2306	 0.111530858210282 
2307	 0.111418615279651 
2308	 0.11136845594278 
2309	 0.111327934909488 
2310	 0.111313834689656 
2311	 0.111376368699763 
2312	 0.111376747702238 
2313	 0.111367829995146 
2314	 0.11133128404896 
2315	 0.111249712383666 
2316	 0.111199003757875 
2317	 0.111153252655933 
2318	 0.111097347618112 
2319	 0.111074037561349 
2320	 0.110997641470439 
2321	 0.110839900362145 
2322	 0.11074849553616 
2323	 0.110654707246969 
2324	 0.110581586705043 
2325	 0.11057668705121 
2326	 0.110540558139303 
2327	 0.1104578797326 
2328	 0.110455409862388 
2329	 0.110475604475357 
2330	 0.110435917614107 
2331	 0.110399036550459 
2332	 0.110337883147272 
2333	 0.110208896503761 
2334	 0.110158738085771 
2335	 0.110154330973385 
2336	 0.110101019857275 
2337	 0.110103195675693 
2338	 0.110071906900909 
2339	 0.109978866222249 
2340	 0.109940495881751 
2341	 0.109889722016061 
2342	 0.10980414672518 
2343	 0.109756968765113 
2344	 0.109640409310917 
2345	 0.109522408292929 
2346	 0.109367195784195 
2347	 0.109258164124119 
2348	 0.109151355131283 
2349	 0.109076497056209 
2350	 0.109038718949028 
2351	 0.108965979528173 
2352	 0.108894710131786 
2353	 0.108802139451179 
2354	 0.108719668439513 
2355	 0.10859952494493 
2356	 0.10838527593224 
2357	 0.10828916253122 
2358	 0.108257763719753 
2359	 0.10815069467609 
2360	 0.108089613378611 
2361	 0.108014732479654 
2362	 0.107864862031499 
2363	 0.1077441879178 
2364	 0.107657931711742 
2365	 0.107559754031835 
2366	 0.107426462595239 
2367	 0.107307532025412 
2368	 0.107250486636159 
2369	 0.107140333580059 
2370	 0.10698659924627 
2371	 0.106844833629931 
2372	 0.106702506411724 
2373	 0.106533273138605 
2374	 0.10643840893271 
2375	 0.106346183500666 
2376	 0.106229211837708 
2377	 0.106092419431909 
2378	 0.105898736401743 
2379	 0.105768832127299 
2380	 0.105674920799836 
2381	 0.105560104855968 
2382	 0.105448126779891 
2383	 0.10528381103211 
2384	 0.105028960435921 
2385	 0.10483762457943 
2386	 0.104775752916761 
2387	 0.104657785827396 
2388	 0.104513324302887 
2389	 0.104416497180403 
2390	 0.104256849916465 
2391	 0.104028651212953 
2392	 0.103825642688335 
2393	 0.103660976318054 
2394	 0.103497749570298 
2395	 0.103349133293733 
2396	 0.103245509236379 
2397	 0.103112278011888 
2398	 0.102910977923661 
2399	 0.102768932068501 
2400	 0.102587690907769 
2401	 0.10235984308067 
2402	 0.102244616560622 
2403	 0.102105878123168 
2404	 0.102012431870824 
2405	 0.101968107766612 
2406	 0.101814804987067 
2407	 0.101648161981822 
2408	 0.101430637778235 
2409	 0.101161121308097 
2410	 0.100976973869909 
2411	 0.100788951425015 
2412	 0.100626940636041 
2413	 0.100600297562707 
2414	 0.100494398977825 
2415	 0.100264633448433 
2416	 0.100046170422522 
2417	 9.97419963971788E-02 
2418	 9.95269196289369E-02 
2419	 9.93179910248206E-02 
2420	 9.92128356330923E-02 
2421	 9.91961549035154E-02 
2422	 9.90976720195263E-02 
2423	 9.90685226177311E-02 
2424	 0.098929507328434 
2425	 9.87200817634335E-02 
2426	 9.85513689532156E-02 
2427	 0.098331249801806 
2428	 9.81121406479865E-02 
2429	 9.78853192469293E-02 
2430	 9.76874639372381E-02 
2431	 9.74868957638058E-02 
2432	 9.73131753150923E-02 
2433	 9.71944900298252E-02 
2434	 9.70030475374287E-02 
2435	 9.67808417610898E-02 
2436	 0.096595742597622 
2437	 0.096431742611782 
2438	 9.62130639497047E-02 
2439	 9.59287801695266E-02 
2440	 9.57591563421186E-02 
2441	 9.56212281382476E-02 
2442	 9.54225069281066E-02 
2443	 9.52980606129965E-02 
2444	 9.50872504327209E-02 
2445	 9.47112210279966E-02 
2446	 9.44994906420368E-02 
2447	 9.44402205442602E-02 
2448	 9.42404499381065E-02 
2449	 9.40379777884211E-02 
2450	 9.38525860012192E-02 
2451	 9.35258438600423E-02 
2452	 9.33066523897411E-02 
2453	 9.31698902794253E-02 
2454	 9.30224740144304E-02 
2455	 9.28958136703675E-02 
2456	 9.27982396258758E-02 
2457	 9.28313708436021E-02 
2458	 9.26801300742849E-02 
2459	 9.23947829158977E-02 
2460	 9.22448799914516E-02 
2461	 0.092042879118984 
2462	 9.18581899029088E-02 
2463	 0.091764283964921 
2464	 9.16188169751697E-02 
2465	 9.14198149996249E-02 
2466	 9.12445542215849E-02 
2467	 9.11179872113569E-02 
2468	 9.10103233181071E-02 
2469	 9.09295045978593E-02 
2470	 9.08555430399786E-02 
2471	 9.06017393145996E-02 
2472	 9.03615157952554E-02 
2473	 9.02626726851151E-02 
2474	 9.01294230018198E-02 
2475	 8.99331363569576E-02 
2476	 8.97370097372325E-02 
2477	 8.95026223748795E-02 
2478	 8.92248017807035E-02 
2479	 8.91145426223487E-02 
2480	 8.91381405359593E-02 
2481	 8.91033491337288E-02 
2482	 8.89580752651329E-02 
2483	 0.088757453790111 
2484	 8.86751668326976E-02 
2485	 8.85262789539596E-02 
2486	 8.83580622442754E-02 
2487	 8.83301598961643E-02 
2488	 0.088114242285489 
2489	 8.78610825977189E-02 
2490	 8.78253195483823E-02 
2491	 8.77115497335342E-02 
2492	 8.75564158645226E-02 
2493	 8.75733993788751E-02 
2494	 8.75545833134024E-02 
2495	 8.73723218770634E-02 
2496	 8.71433408921112E-02 
2497	 8.68643588843297E-02 
2498	 8.65077926730159E-02 
2499	 8.65664764339785E-02 
2500	 8.68215230593776E-02 
