Wavelength	MM_3200005.asd
350	 0.031446849625633 
351	 3.74217866567519E-02 
352	 0.033987727715521 
353	 0.02495123644277 
354	 2.81772769710884E-02 
355	 2.52700337386246E-02 
356	 2.30425387829313E-02 
357	 2.99300769266379E-02 
358	 3.71015218690179E-02 
359	 0.03523117332554 
360	 2.87546084055945E-02 
361	 2.96718256043798E-02 
362	 3.00200851652681E-02 
363	 3.18528365656569E-02 
364	 3.49677201123714E-02 
365	 3.39173499449333E-02 
366	 3.25575102631437E-02 
367	 0.031906926265115 
368	 3.21224901485537E-02 
369	 3.34926303246099E-02 
370	 3.39386131799535E-02 
371	 3.34559922921726E-02 
372	 3.33205022458707E-02 
373	 3.10513080767596E-02 
374	 3.11810400935216E-02 
375	 3.45838872751471E-02 
376	 3.45975458523019E-02 
377	 3.30697191655609E-02 
378	 3.33351196681694E-02 
379	 3.70510444521963E-02 
380	 0.037116436582077 
381	 3.59307722868537E-02 
382	 3.67026083027513E-02 
383	 4.19307880972463E-02 
384	 4.11564676302599E-02 
385	 3.74086266575543E-02 
386	 0.035192339088331 
387	 3.78759187326888E-02 
388	 4.15389322325209E-02 
389	 4.28467500291712E-02 
390	 4.02803823453507E-02 
391	 3.91310310408836E-02 
392	 3.96351597618764E-02 
393	 4.11229412132847E-02 
394	 4.24061102993863E-02 
395	 4.29599002107038E-02 
396	 4.38367040970173E-02 
397	 4.55037758077481E-02 
398	 4.67754278221307E-02 
399	 4.66695196396371E-02 
400	 4.62321249039459E-02 
401	 4.69824746671271E-02 
402	 4.82653476530968E-02 
403	 4.95933230729369E-02 
404	 5.01111809685204E-02 
405	 0.048736305508006 
406	 4.95151968792001E-02 
407	 5.00323257787192E-02 
408	 4.88628300866642E-02 
409	 5.07784158734688E-02 
410	 5.03281885553262E-02 
411	 4.87766512409765E-02 
412	 4.98928742773239E-02 
413	 5.09135726953372E-02 
414	 5.19032313444959E-02 
415	 5.28465788224885E-02 
416	 0.053300875732545 
417	 5.33107567895287E-02 
418	 5.31744593127417E-02 
419	 5.32443802645245E-02 
420	 0.053920697089021 
421	 0.053984529850727 
422	 5.37891503989697E-02 
423	 5.45391084785158E-02 
424	 5.48321830795511E-02 
425	 5.49744691226272E-02 
426	 5.51256706783683E-02 
427	 5.46590300156001E-02 
428	 5.51292710870775E-02 
429	 5.57883918354525E-02 
430	 0.055604440077119 
431	 5.62424587004106E-02 
432	 5.61903956287174E-02 
433	 5.56958965132574E-02 
434	 5.66870087812091E-02 
435	 5.67655467337528E-02 
436	 5.68189224630485E-02 
437	 5.74825969088392E-02 
438	 5.68943326693392E-02 
439	 5.70625042045326E-02 
440	 5.79453627642052E-02 
441	 5.84768925829636E-02 
442	 5.83832095590079E-02 
443	 5.84614638014637E-02 
444	 0.058845241678703 
445	 5.84860086811347E-02 
446	 5.87818325851998E-02 
447	 5.93146905117293E-02 
448	 5.93957351716973E-02 
449	 5.95618187418051E-02 
450	 5.97653704653163E-02 
451	 5.99524647239883E-02 
452	 6.00873421174353E-02 
453	 6.03433756954481E-02 
454	 6.05320009889051E-02 
455	 6.05645951079515E-02 
456	 6.07611085092657E-02 
457	 6.08652559722108E-02 
458	 6.07947387443139E-02 
459	 6.06100231831963E-02 
460	 6.07791934189827E-02 
461	 6.08875327696624E-02 
462	 6.08580658892117E-02 
463	 6.11988684881728E-02 
464	 6.14278310960331E-02 
465	 6.15693581176762E-02 
466	 6.17661749258662E-02 
467	 6.20613249838963E-02 
468	 6.22210810996284E-02 
469	 6.22403807483574E-02 
470	 6.23066833657704E-02 
471	 0.062482424098216 
472	 6.27290027137657E-02 
473	 6.29158085526793E-02 
474	 6.26836840460403E-02 
475	 6.28407721551757E-02 
476	 6.30837033646915E-02 
477	 6.27978026387886E-02 
478	 6.29945272028105E-02 
479	 6.33659923909977E-02 
480	 6.35772773989416E-02 
481	 6.34135729962074E-02 
482	 6.34988588815945E-02 
483	 6.37345395437854E-02 
484	 6.38619528108442E-02 
485	 6.38751765822039E-02 
486	 6.39817621473687E-02 
487	 6.41246584560924E-02 
488	 6.40562165417945E-02 
489	 6.42676367723403E-02 
490	 6.45159023436337E-02 
491	 6.45598890079103E-02 
492	 6.44688334477864E-02 
493	 6.43551886991453E-02 
494	 6.44116537931098E-02 
495	 6.47722239403805E-02 
496	 6.49119558423878E-02 
497	 0.064900439194549 
498	 6.48736591090093E-02 
499	 6.49694156339915E-02 
500	 6.50694971996234E-02 
501	 6.51475585010511E-02 
502	 6.52067388343418E-02 
503	 0.065257085502186 
504	 6.53042284030201E-02 
505	 6.53746746604165E-02 
506	 6.55071181939282E-02 
507	 6.55705105771832E-02 
508	 0.065654029739363 
509	 0.065791387326005 
510	 6.57314285353218E-02 
511	 6.57777147102029E-02 
512	 6.59076031920468E-02 
513	 6.59310893664636E-02 
514	 6.58465108472348E-02 
515	 6.58460749022647E-02 
516	 6.60064902647663E-02 
517	 6.61933653369764E-02 
518	 6.62546407217083E-02 
519	 6.61760684241453E-02 
520	 6.60438397330592E-02 
521	 6.61223440988651E-02 
522	 6.62564148026808E-02 
523	 6.63545264635764E-02 
524	 6.64196442056991E-02 
525	 6.64559070328251E-02 
526	 6.64478802329908E-02 
527	 6.64178736686604E-02 
528	 6.65334566334564E-02 
529	 6.65459007943808E-02 
530	 6.64836891374464E-02 
531	 6.65487341959588E-02 
532	 6.66759966473917E-02 
533	 6.67449404231909E-02 
534	 6.67309350407891E-02 
535	 6.68319633083546E-02 
536	 6.68518778325791E-02 
537	 6.68669454327245E-02 
538	 6.70049969037185E-02 
539	 6.69786503405116E-02 
540	 6.69412694682178E-02 
541	 6.69920878440605E-02 
542	 6.71161281429236E-02 
543	 6.71307322507687E-02 
544	 6.71279267994093E-02 
545	 0.067219100881309 
546	 6.72615971183515E-02 
547	 6.72674862255728E-02 
548	 0.067301297319358 
549	 6.74519839044428E-02 
550	 6.74426846466911E-02 
551	 6.74133326314903E-02 
552	 6.74908821678604E-02 
553	 6.75736198637513E-02 
554	 0.0675735338051 
555	 6.75630470304873E-02 
556	 6.76766970597158E-02 
557	 0.067733782283371 
558	 6.78236306251952E-02 
559	 6.79793421844361E-02 
560	 6.80881849235528E-02 
561	 6.81359529762168E-02 
562	 0.068147641983946 
563	 6.81702234577528E-02 
564	 6.82580095140972E-02 
565	 0.068322107604746 
566	 6.83333270874292E-02 
567	 6.83389993744632E-02 
568	 6.83984113088261E-02 
569	 6.84918421304044E-02 
570	 6.85921390491912E-02 
571	 6.87290429059168E-02 
572	 6.88589118017003E-02 
573	 6.89634480915736E-02 
574	 6.90450804082221E-02 
575	 6.91060214607806E-02 
576	 6.92027721881814E-02 
577	 6.93380761497568E-02 
578	 6.93821713009573E-02 
579	 6.93831580175183E-02 
580	 6.93609626839499E-02 
581	 6.93310937596733E-02 
582	 6.93297334137614E-02 
583	 6.93379120439732E-02 
584	 6.93564221927959E-02 
585	 0.069421159851062 
586	 6.95372092242676E-02 
587	 6.96387905611006E-02 
588	 6.96801685052375E-02 
589	 6.97977332865076E-02 
590	 0.069932190599324 
591	 7.00489841316609E-02 
592	 7.01456906104498E-02 
593	 7.02763209454753E-02 
594	 7.04151644556282E-02 
595	 7.05181697510676E-02 
596	 7.05296752743143E-02 
597	 7.05578141177856E-02 
598	 7.06062875611916E-02 
599	 7.06275143462068E-02 
600	 7.06772063180933E-02 
601	 7.07021665832148E-02 
602	 7.06814021262558E-02 
603	 0.070666826165291 
604	 7.07201596076007E-02 
605	 7.07804645208183E-02 
606	 7.07767202017404E-02 
607	 7.08638762449044E-02 
608	 7.09343543527038E-02 
609	 7.09659795697899E-02 
610	 7.10489494961009E-02 
611	 7.11110450232179E-02 
612	 7.11345130679625E-02 
613	 7.11299150706089E-02 
614	 7.11599675780623E-02 
615	 7.11319846724764E-02 
616	 7.11106166249617E-02 
617	 0.07124527121451 
618	 7.12957751148794E-02 
619	 7.12672035543852E-02 
620	 7.12168121184603E-02 
621	 7.12255176502592E-02 
622	 7.12834631506189E-02 
623	 7.13270680852232E-02 
624	 7.12955443912007E-02 
625	 7.13279320675076E-02 
626	 7.13652526679194E-02 
627	 7.13785472048316E-02 
628	 0.071399065018915 
629	 0.071449195801168 
630	 7.14813413745584E-02 
631	 7.14590529543006E-02 
632	 7.14639988498301E-02 
633	 7.14992794102648E-02 
634	 7.15425892269092E-02 
635	 7.15556058077064E-02 
636	 7.15832295887497E-02 
637	 7.15891113956501E-02 
638	 7.15616754681086E-02 
639	 7.15828242586456E-02 
640	 7.16117992977218E-02 
641	 7.16398114084768E-02 
642	 7.16713958570806E-02 
643	 0.071708503959375 
644	 7.17345173473549E-02 
645	 0.071745475830566 
646	 7.17574905754435E-02 
647	 7.17772046646541E-02 
648	 7.17952077396882E-02 
649	 0.071803330100262 
650	 7.18192810529017E-02 
651	 7.18599333272978E-02 
652	 7.18996914126933E-02 
653	 7.18845264510185E-02 
654	 7.19359051321833E-02 
655	 7.19732871986979E-02 
656	 7.19543869800572E-02 
657	 7.20345759295472E-02 
658	 7.20604546208237E-02 
659	 7.20527835784595E-02 
660	 7.21009799740181E-02 
661	 7.21346769617452E-02 
662	 7.21611984734511E-02 
663	 7.21782068230561E-02 
664	 7.21570433195637E-02 
665	 7.21878270261208E-02 
666	 7.22201505868437E-02 
667	 7.21964519673553E-02 
668	 7.22084703188304E-02 
669	 0.072229482748633 
670	 7.22623549863731E-02 
671	 7.23303370854766E-02 
672	 7.23349551531872E-02 
673	 7.23652382027143E-02 
674	 0.072461416826422 
675	 7.24719187773414E-02 
676	 7.24541508753279E-02 
677	 7.24532322690933E-02 
678	 7.24949627928576E-02 
679	 7.24860423578243E-02 
680	 7.24793160226527E-02 
681	 7.25079714054198E-02 
682	 7.25634625976418E-02 
683	 7.25718609014728E-02 
684	 7.25837174821675E-02 
685	 7.26435362687775E-02 
686	 7.26447684465269E-02 
687	 7.26506304803472E-02 
688	 7.26897616135792E-02 
689	 7.27548344064874E-02 
690	 7.27409487306153E-02 
691	 7.27317205372383E-02 
692	 7.27769610979772E-02 
693	 7.28043405584504E-02 
694	 7.28259636542977E-02 
695	 7.28302000785929E-02 
696	 7.28142663660516E-02 
697	 7.28589845939835E-02 
698	 7.28839678297706E-02 
699	 0.072868655311818 
700	 7.28652240884344E-02 
701	 7.28918179082194E-02 
702	 7.29351016360602E-02 
703	 7.29657495660228E-02 
704	 7.29285840047831E-02 
705	 7.29125673573137E-02 
706	 7.29368209474975E-02 
707	 7.29753085928515E-02 
708	 7.29748474664098E-02 
709	 7.29754321750337E-02 
710	 7.29903447531322E-02 
711	 7.29785892922624E-02 
712	 7.29926658653184E-02 
713	 7.30106920584937E-02 
714	 7.30057810765319E-02 
715	 7.30127410148261E-02 
716	 7.30433392713851E-02 
717	 7.30696175927188E-02 
718	 7.30439735709479E-02 
719	 7.30461872160805E-02 
720	 7.30536030053565E-02 
721	 7.30500879234396E-02 
722	 7.30630802898623E-02 
723	 7.30669765138357E-02 
724	 7.30595730941924E-02 
725	 7.30448821940083E-02 
726	 7.30100237606519E-02 
727	 0.072999451991827 
728	 7.30156718589585E-02 
729	 7.30210120970984E-02 
730	 7.30260624178356E-02 
731	 7.30295940497909E-02 
732	 7.30286166926708E-02 
733	 7.30195301851225E-02 
734	 7.30049865519656E-02 
735	 7.29816697116032E-02 
736	 7.29500739488947E-02 
737	 7.29462417293224E-02 
738	 0.072948809066817 
739	 7.29430461445999E-02 
740	 7.29272198568223E-02 
741	 7.29249156285223E-02 
742	 0.072899266402798 
743	 7.28375480282234E-02 
744	 7.28274447210754E-02 
745	 7.28140974553222E-02 
746	 7.28044836132648E-02 
747	 7.28232008085204E-02 
748	 7.28058024567101E-02 
749	 7.27779233122157E-02 
750	 7.27505386774815E-02 
751	 7.27074689816263E-02 
752	 7.26884652059083E-02 
753	 0.072675067017477 
754	 7.26519562836649E-02 
755	 7.26573578188016E-02 
756	 7.26570266449073E-02 
757	 7.26351207251845E-02 
758	 7.25939517440757E-02 
759	 7.25918029489329E-02 
760	 7.25471148789895E-02 
761	 7.24782065954286E-02 
762	 7.25388002218046E-02 
763	 0.072542645421868 
764	 7.24998145829682E-02 
765	 7.24595938750576E-02 
766	 7.24400027743083E-02 
767	 7.24158250484137E-02 
768	 7.23871279005857E-02 
769	 7.23652867502123E-02 
770	 7.23440679312549E-02 
771	 0.072309782343353 
772	 0.072267024501809 
773	 7.22422665118102E-02 
774	 7.22475197474662E-02 
775	 7.22211342611267E-02 
776	 0.072146691601053 
777	 7.21838124215094E-02 
778	 7.21667751407966E-02 
779	 7.21118396605164E-02 
780	 7.21048181180807E-02 
781	 7.20919411569485E-02 
782	 7.20738895862912E-02 
783	 7.20537273689352E-02 
784	 7.20326116650704E-02 
785	 0.071990126943486 
786	 7.19442447047888E-02 
787	 7.19126115535418E-02 
788	 0.071892062034689 
789	 7.19007973004024E-02 
790	 7.18924544755121E-02 
791	 7.18224267592008E-02 
792	 7.17877475488903E-02 
793	 0.07175670299658 
794	 0.071728424717806 
795	 7.17284219747174E-02 
796	 7.16942712397067E-02 
797	 7.16519201521058E-02 
798	 7.16274565256384E-02 
799	 7.16217731083759E-02 
800	 7.15908446549346E-02 
801	 7.15584328230311E-02 
802	 7.15539651490799E-02 
803	 7.15429555594038E-02 
804	 0.071510238540719 
805	 7.14732411232132E-02 
806	 7.14619619311837E-02 
807	 7.14225802460748E-02 
808	 7.13875720802537E-02 
809	 7.13695490533343E-02 
810	 7.13437156847554E-02 
811	 7.13490642478972E-02 
812	 0.071346357693321 
813	 7.13066870736142E-02 
814	 7.12768926060631E-02 
815	 0.071234367764302 
816	 7.11966868654249E-02 
817	 7.11869341588567E-02 
818	 7.11672065021007E-02 
819	 7.11581319308663E-02 
820	 7.11494885013149E-02 
821	 7.11073543783833E-02 
822	 7.10691682744014E-02 
823	 7.10437614982211E-02 
824	 7.10233806428722E-02 
825	 7.09806198165162E-02 
826	 7.09718917904801E-02 
827	 0.070978930661897 
828	 7.09706956744193E-02 
829	 7.09446855882755E-02 
830	 7.09352055704443E-02 
831	 7.09284984443508E-02 
832	 7.08990437361477E-02 
833	 7.09100247168551E-02 
834	 7.09142614417279E-02 
835	 7.08925727996261E-02 
836	 7.08607410182726E-02 
837	 7.08225855895377E-02 
838	 7.08080221282201E-02 
839	 7.08160944211667E-02 
840	 7.07889656300457E-02 
841	 7.07600259354092E-02 
842	 7.07320878481414E-02 
843	 7.06993288616342E-02 
844	 7.06432530998863E-02 
845	 7.06905224061748E-02 
846	 7.07512719629966E-02 
847	 7.06859186510105E-02 
848	 7.07132228303552E-02 
849	 0.070684448288946 
850	 7.05961514043393E-02 
851	 7.05787312250344E-02 
852	 7.06051670185709E-02 
853	 7.06219260714828E-02 
854	 7.06096695834285E-02 
855	 7.06059158847912E-02 
856	 7.06004787653676E-02 
857	 7.06053278120979E-02 
858	 0.070619888029553 
859	 7.06009086314133E-02 
860	 7.05769176978778E-02 
861	 7.05527775367061E-02 
862	 7.05346647090997E-02 
863	 7.05742890575947E-02 
864	 7.05761825926304E-02 
865	 7.05246757027788E-02 
866	 7.04695456366577E-02 
867	 7.05054401933815E-02 
868	 0.070530725547874 
869	 7.05118138474927E-02 
870	 7.05016446198434E-02 
871	 7.04721382728833E-02 
872	 7.04292730466864E-02 
873	 7.04008958183752E-02 
874	 7.04384152108692E-02 
875	 7.04767622158086E-02 
876	 7.04684715804544E-02 
877	 0.070405534749722 
878	 7.03539429074743E-02 
879	 7.03981363957956E-02 
880	 7.04459744149889E-02 
881	 0.070399738062812 
882	 7.04289620293426E-02 
883	 7.04480362761405E-02 
884	 7.04285056626606E-02 
885	 7.03852685551591E-02 
886	 7.03577836896291E-02 
887	 7.03401261170972E-02 
888	 7.03398955621637E-02 
889	 7.03738326752612E-02 
890	 7.04179598269505E-02 
891	 7.04031972758754E-02 
892	 7.03401456320691E-02 
893	 7.03367368403824E-02 
894	 7.03292022226639E-02 
895	 7.03157962438947E-02 
896	 7.03062938187536E-02 
897	 0.070310190028755 
898	 7.03380757162734E-02 
899	 7.03407041668528E-02 
900	 7.03084974186335E-02 
901	 7.03840056890574E-02 
902	 7.03865219322872E-02 
903	 7.03448100846264E-02 
904	 7.03401561458901E-02 
905	 7.03507953404633E-02 
906	 7.03816021803418E-02 
907	 7.03740863800104E-02 
908	 7.02970683530423E-02 
909	 7.04081915955888E-02 
910	 7.04263892444294E-02 
911	 7.03701841365718E-02 
912	 7.04337809357529E-02 
913	 0.070426599815123 
914	 7.04051481622024E-02 
915	 7.04021758250545E-02 
916	 7.04053790028799E-02 
917	 7.03592008426032E-02 
918	 7.03718596352481E-02 
919	 7.04406580894663E-02 
920	 7.04239585575918E-02 
921	 7.03928607790967E-02 
922	 0.070390616071943 
923	 7.04171459978052E-02 
924	 7.04180226116873E-02 
925	 7.04265737842609E-02 
926	 7.04686734032903E-02 
927	 7.05073224209315E-02 
928	 7.04001208911048E-02 
929	 7.04483987684848E-02 
930	 7.05111429027379E-02 
931	 7.04600415390912E-02 
932	 7.04637417230975E-02 
933	 7.05514640490355E-02 
934	 7.05831768974224E-02 
935	 7.04899508010932E-02 
936	 7.05609508444989E-02 
937	 7.05810372264906E-02 
938	 7.05270776943863E-02 
939	 7.04632721378726E-02 
940	 7.05058515209461E-02 
941	 7.05630631181117E-02 
942	 7.05999681291694E-02 
943	 0.070609275310406 
944	 7.05912879718456E-02 
945	 7.05443372655598E-02 
946	 7.05149823149142E-02 
947	 7.05420467183481E-02 
948	 7.05352609003401E-02 
949	 7.05562136096889E-02 
950	 7.05896834584432E-02 
951	 7.05958234198063E-02 
952	 7.06332357527707E-02 
953	 0.070670037979042 
954	 7.06583496043717E-02 
955	 7.05783327299043E-02 
956	 7.05614359503934E-02 
957	 7.06457501946042E-02 
958	 7.07257775121992E-02 
959	 7.06690326197556E-02 
960	 7.06840261542144E-02 
961	 7.06856521348239E-02 
962	 7.07362247922289E-02 
963	 7.09194628147484E-02 
964	 7.08228755864147E-02 
965	 7.07507500766851E-02 
966	 7.07734219195189E-02 
967	 7.07782689251416E-02 
968	 7.08153375557353E-02 
969	 7.08223055678013E-02 
970	 7.07724071286968E-02 
971	 7.06894630639664E-02 
972	 7.06806837382325E-02 
973	 7.07415590725811E-02 
974	 0.070782822713394 
975	 7.07228805870926E-02 
976	 7.08160685815519E-02 
977	 7.08984567459648E-02 
978	 7.08861369184121E-02 
979	 7.08075242121101E-02 
980	 7.08541941854736E-02 
981	 7.08709282347849E-02 
982	 7.08135440367538E-02 
983	 7.07524085706904E-02 
984	 7.08662443793817E-02 
985	 7.09280452493417E-02 
986	 7.08725276632003E-02 
987	 0.070783775659879 
988	 7.08631904569522E-02 
989	 7.09239816656192E-02 
990	 7.09317990811544E-02 
991	 7.09438433557619E-02 
992	 7.09827974567256E-02 
993	 7.09407388029082E-02 
994	 0.07094216751921 
995	 7.11116580151214E-02 
996	 7.11536805873515E-02 
997	 7.10050892514323E-02 
998	 7.09091263964127E-02 
999	 7.10815349932032E-02 
1000	 7.12119506755476E-02 
1001	 7.02907628081656E-02 
1002	 7.02663510889442E-02 
1003	 7.03049410769133E-02 
1004	 0.070334276846229 
1005	 7.04050969099355E-02 
1006	 0.070406557983012 
1007	 7.03662357717624E-02 
1008	 7.03375836495861E-02 
1009	 7.03578156587276E-02 
1010	 7.03784070824795E-02 
1011	 7.04013408175989E-02 
1012	 7.04627584159872E-02 
1013	 7.04785819268114E-02 
1014	 7.04736043547006E-02 
1015	 7.05400000199461E-02 
1016	 7.05768137817503E-02 
1017	 7.05817280006438E-02 
1018	 7.05706582420131E-02 
1019	 7.05424437787668E-02 
1020	 7.04911106237969E-02 
1021	 7.05094557565299E-02 
1022	 7.05162671685574E-02 
1023	 7.04910129323491E-02 
1024	 7.04591862597813E-02 
1025	 7.04084205486339E-02 
1026	 7.04093219113791E-02 
1027	 7.04337079228099E-02 
1028	 7.04799135253425E-02 
1029	 7.04971222008782E-02 
1030	 7.04505663593264E-02 
1031	 0.070442375727161 
1032	 0.070452817115966 
1033	 7.04483157031571E-02 
1034	 0.070403611922974 
1035	 7.04039546959375E-02 
1036	 7.03884294630202E-02 
1037	 7.03323761969155E-02 
1038	 7.03134375662764E-02 
1039	 7.03119131422573E-02 
1040	 7.02691990741596E-02 
1041	 7.02309770081624E-02 
1042	 7.02426682931367E-02 
1043	 7.02323554638822E-02 
1044	 7.02047727917463E-02 
1045	 7.01562807028293E-02 
1046	 7.01526577006565E-02 
1047	 7.01276857638256E-02 
1048	 7.01270217156395E-02 
1049	 7.01972102850243E-02 
1050	 7.02098931400874E-02 
1051	 0.070245732873274 
1052	 7.02939359147891E-02 
1053	 7.02933017789705E-02 
1054	 7.03550202868682E-02 
1055	 7.03728998337499E-02 
1056	 0.070363364502257 
1057	 7.03923278353251E-02 
1058	 0.070440374929502 
1059	 7.04555172824287E-02 
1060	 7.04753089846774E-02 
1061	 7.05142370395824E-02 
1062	 7.05182390017527E-02 
1063	 7.05169670802563E-02 
1064	 0.07053004302863 
1065	 7.05561722039476E-02 
1066	 7.05595880254275E-02 
1067	 7.05798775513552E-02 
1068	 7.06305613554425E-02 
1069	 7.06477251957365E-02 
1070	 7.06864146436743E-02 
1071	 0.070747116386127 
1072	 7.07704226061438E-02 
1073	 7.08035589988329E-02 
1074	 0.070821075409966 
1075	 7.07922307309043E-02 
1076	 7.07860493508159E-02 
1077	 7.08364713660707E-02 
1078	 0.070833947568784 
1079	 0.070875235242593 
1080	 7.09015236209755E-02 
1081	 7.08538614108452E-02 
1082	 7.08731151502292E-02 
1083	 7.08785275728047E-02 
1084	 7.08602790960342E-02 
1085	 7.08644911174557E-02 
1086	 7.08902507398931E-02 
1087	 0.070904892127265 
1088	 7.09120596673869E-02 
1089	 7.09521878341616E-02 
1090	 7.09606912358847E-02 
1091	 7.09504814108089E-02 
1092	 0.070955702209355 
1093	 7.09898785260571E-02 
1094	 7.10113901911435E-02 
1095	 7.10285425202368E-02 
1096	 7.10194240093032E-02 
1097	 7.09663968552928E-02 
1098	 7.09632917294679E-02 
1099	 7.10130673334965E-02 
1100	 7.10053247721897E-02 
1101	 0.070970087539411 
1102	 0.070963097609675 
1103	 0.070938367270898 
1104	 0.07092141182374 
1105	 7.09359190268492E-02 
1106	 7.09711443354898E-02 
1107	 0.070967630660312 
1108	 7.09348004709397E-02 
1109	 7.09599832955168E-02 
1110	 7.09913641607532E-02 
1111	 7.10088693184699E-02 
1112	 7.10611554750658E-02 
1113	 7.10686465815114E-02 
1114	 7.10251912029672E-02 
1115	 0.071017135802836 
1116	 7.10070184867579E-02 
1117	 7.10036057290125E-02 
1118	 7.10207652731214E-02 
1119	 7.10167781061652E-02 
1120	 7.10126425391248E-02 
1121	 7.10396315992355E-02 
1122	 7.10696479549326E-02 
1123	 7.11090327960242E-02 
1124	 7.11275463324616E-02 
1125	 7.11498874660676E-02 
1126	 7.11553689885909E-02 
1127	 7.11280984068871E-02 
1128	 7.11325448087369E-02 
1129	 0.07115673473992 
1130	 7.11588788364699E-02 
1131	 7.11625125213432E-02 
1132	 7.11573187187313E-02 
1133	 7.11218425037011E-02 
1134	 7.11127691117474E-02 
1135	 7.11109989601977E-02 
1136	 0.071128482386675 
1137	 7.11383042720585E-02 
1138	 0.071141649802219 
1139	 7.11347394942504E-02 
1140	 7.11066344905659E-02 
1141	 7.10981710860813E-02 
1142	 7.10960296962718E-02 
1143	 0.071088365426889 
1144	 0.071076005134815 
1145	 7.10726089776899E-02 
1146	 7.10744738593054E-02 
1147	 7.10729961566829E-02 
1148	 7.10864505779793E-02 
1149	 7.10874704052965E-02 
1150	 7.10819357978977E-02 
1151	 0.071061999328803 
1152	 7.10425796709959E-02 
1153	 0.071020874004275 
1154	 7.10270883329597E-02 
1155	 7.10612652890944E-02 
1156	 7.10584899456565E-02 
1157	 7.10589418081319E-02 
1158	 0.071052309847775 
1159	 7.10067136115395E-02 
1160	 7.09964225044216E-02 
1161	 7.10139375303093E-02 
1162	 7.10190812139316E-02 
1163	 7.10280918949384E-02 
1164	 7.10324775682262E-02 
1165	 7.10280036393453E-02 
1166	 7.10333197164007E-02 
1167	 7.10391262244443E-02 
1168	 7.10394235730263E-02 
1169	 7.10432459953552E-02 
1170	 7.10473261801047E-02 
1171	 7.10538563034909E-02 
1172	 7.10594913459525E-02 
1173	 7.10720113178503E-02 
1174	 0.071092297996429 
1175	 7.11057166206397E-02 
1176	 7.11235835237776E-02 
1177	 7.11346970205079E-02 
1178	 7.11341320945306E-02 
1179	 7.11432989134678E-02 
1180	 7.11480153892705E-02 
1181	 7.11637302010618E-02 
1182	 7.11884409472336E-02 
1183	 7.12203500829127E-02 
1184	 7.12456430610184E-02 
1185	 7.12785806252928E-02 
1186	 7.12976338784905E-02 
1187	 7.13079749013433E-02 
1188	 7.13193573003106E-02 
1189	 7.13210233901617E-02 
1190	 0.071335243440018 
1191	 7.13523325488572E-02 
1192	 7.13714844016948E-02 
1193	 7.13998416682159E-02 
1194	 7.14239601247532E-02 
1195	 7.14474271091322E-02 
1196	 7.14701888388422E-02 
1197	 7.14994732688481E-02 
1198	 7.15171342670436E-02 
1199	 7.15290569557167E-02 
1200	 0.071531177245402 
1201	 7.15468071751745E-02 
1202	 7.15595810618917E-02 
1203	 7.15766730560031E-02 
1204	 7.16047725824265E-02 
1205	 7.16275069619638E-02 
1206	 7.16460100078441E-02 
1207	 7.16664812857575E-02 
1208	 7.16905854062812E-02 
1209	 7.17130399484841E-02 
1210	 0.07173179895282 
1211	 7.17536555772416E-02 
1212	 7.17833742681701E-02 
1213	 7.18040630498112E-02 
1214	 7.18055452103165E-02 
1215	 7.18296374061541E-02 
1216	 0.071861874839245 
1217	 7.19054422831696E-02 
1218	 7.19273514859619E-02 
1219	 7.19577646182535E-02 
1220	 7.19771518476002E-02 
1221	 0.071968327656931 
1222	 7.19804086510732E-02 
1223	 0.072006345133731 
1224	 7.20270486836574E-02 
1225	 7.20443609992482E-02 
1226	 0.072065963796343 
1227	 0.072101416938514 
1228	 7.21199375667281E-02 
1229	 7.21322098009434E-02 
1230	 7.21408244176942E-02 
1231	 7.21282991596622E-02 
1232	 7.21298472915239E-02 
1233	 7.21362154825492E-02 
1234	 7.21442741699428E-02 
1235	 7.21621947254417E-02 
1236	 7.21966503028347E-02 
1237	 7.22141485114258E-02 
1238	 7.22309599791587E-02 
1239	 0.072245666149328 
1240	 7.22458124704594E-02 
1241	 7.22609162018103E-02 
1242	 7.22862360303396E-02 
1243	 7.23067185901104E-02 
1244	 7.23400754862105E-02 
1245	 7.23559278761984E-02 
1246	 7.23589533237608E-02 
1247	 7.23644417625367E-02 
1248	 7.23662984372922E-02 
1249	 0.072355048782523 
1250	 0.072347213697259 
1251	 7.23598273853547E-02 
1252	 7.23785978441776E-02 
1253	 7.24109769141316E-02 
1254	 7.24306791074296E-02 
1255	 7.24602397990999E-02 
1256	 7.24765283347753E-02 
1257	 0.0724821228999 
1258	 7.24848309771139E-02 
1259	 7.24764655223363E-02 
1260	 7.24816954818985E-02 
1261	 7.24898409222933E-02 
1262	 7.24938339631251E-02 
1263	 7.25101774413734E-02 
1264	 7.25157771076119E-02 
1265	 0.072503957766845 
1266	 7.24985637256625E-02 
1267	 0.072479997933265 
1268	 7.24902641471667E-02 
1269	 7.24997839013791E-02 
1270	 7.25195952672201E-02 
1271	 7.25263996333319E-02 
1272	 7.25364741031949E-02 
1273	 7.25463432364484E-02 
1274	 7.25446071090603E-02 
1275	 0.072556551908462 
1276	 0.072574581593648 
1277	 7.26002914924895E-02 
1278	 7.26361018431328E-02 
1279	 7.26644266769261E-02 
1280	 7.27026374658991E-02 
1281	 7.27347867193352E-02 
1282	 7.27381290076626E-02 
1283	 7.27767556105376E-02 
1284	 7.28414089601278E-02 
1285	 7.28998389231603E-02 
1286	 7.29629320371302E-02 
1287	 7.30274822370058E-02 
1288	 7.30872180211752E-02 
1289	 7.31353134994441E-02 
1290	 7.31863497795243E-02 
1291	 7.32477087798673E-02 
1292	 7.32953291910856E-02 
1293	 7.33234794904605E-02 
1294	 7.33663249191183E-02 
1295	 7.34136342745167E-02 
1296	 7.34573724582418E-02 
1297	 7.35091853612453E-02 
1298	 7.35519333536103E-02 
1299	 0.073588017146082 
1300	 0.073623172553476 
1301	 7.36505106461425E-02 
1302	 7.36806375288703E-02 
1303	 7.37154151046621E-02 
1304	 7.37420605521525E-02 
1305	 7.37536551471421E-02 
1306	 7.37887621616222E-02 
1307	 7.38053032806873E-02 
1308	 7.38080301588754E-02 
1309	 7.38176681077316E-02 
1310	 7.38259230866908E-02 
1311	 7.38336731131138E-02 
1312	 0.073841214986144 
1313	 0.07385016537877 
1314	 7.38620141505616E-02 
1315	 7.38675874205521E-02 
1316	 7.38657333925239E-02 
1317	 7.38715225690753E-02 
1318	 7.38826559477203E-02 
1319	 7.38845423593995E-02 
1320	 0.073892178397376 
1321	 7.38913157133412E-02 
1322	 7.38778271541898E-02 
1323	 7.38651462610981E-02 
1324	 7.38517629803148E-02 
1325	 7.38283480701606E-02 
1326	 7.38149147187234E-02 
1327	 7.38002581315002E-02 
1328	 7.38031709268712E-02 
1329	 7.38036916614448E-02 
1330	 0.073789097173392 
1331	 7.37637164642523E-02 
1332	 7.37514462320287E-02 
1333	 7.37325715368285E-02 
1334	 7.37184361379139E-02 
1335	 7.37156288568541E-02 
1336	 7.37095275432962E-02 
1337	 7.37042223974791E-02 
1338	 7.36885403415195E-02 
1339	 0.073663559437765 
1340	 7.36532017479147E-02 
1341	 7.36374945568526E-02 
1342	 0.07362811986004 
1343	 7.36353725628809E-02 
1344	 0.073643657383858 
1345	 7.36264755732075E-02 
1346	 7.36302511182718E-02 
1347	 7.36416007582015E-02 
1348	 0.073630141823592 
1349	 0.073631344120499 
1350	 7.36327438758071E-02 
1351	 7.36348259426425E-02 
1352	 7.36394270738474E-02 
1353	 7.36394172598303E-02 
1354	 7.36359459807304E-02 
1355	 7.36365713222044E-02 
1356	 7.36393775283326E-02 
1357	 7.36338042967466E-02 
1358	 7.36297040083496E-02 
1359	 7.36201390796511E-02 
1360	 7.35955311324552E-02 
1361	 7.35829850553283E-02 
1362	 7.35701423080665E-02 
1363	 7.35679103256551E-02 
1364	 7.35848459288602E-02 
1365	 7.35805523485243E-02 
1366	 7.35707223239506E-02 
1367	 7.35679265855911E-02 
1368	 7.35453844311247E-02 
1369	 0.073516246793612 
1370	 7.34846031697049E-02 
1371	 7.34467257047596E-02 
1372	 7.34003187514937E-02 
1373	 7.33557681524395E-02 
1374	 7.33059471972289E-02 
1375	 7.32502712760975E-02 
1376	 7.31990875191653E-02 
1377	 7.31526904728415E-02 
1378	 7.30903300672475E-02 
1379	 0.073025736757287 
1380	 7.29547631398929E-02 
1381	 7.28681057697509E-02 
1382	 7.27809704554484E-02 
1383	 7.27014093621469E-02 
1384	 7.26040961199625E-02 
1385	 7.24933216703701E-02 
1386	 7.23803812707464E-02 
1387	 7.22607738450708E-02 
1388	 7.21324357027287E-02 
1389	 7.19974100470562E-02 
1390	 7.18562451155376E-02 
1391	 7.17135011046441E-02 
1392	 7.15557902034572E-02 
1393	 7.13979919471579E-02 
1394	 7.12332302447886E-02 
1395	 7.10418606712092E-02 
1396	 7.08474140145322E-02 
1397	 0.070655083713576 
1398	 7.04497321044024E-02 
1399	 7.02592156510811E-02 
1400	 7.00797177049545E-02 
1401	 6.98922480992806E-02 
1402	 6.97108413231262E-02 
1403	 0.06951667702411 
1404	 6.93063447196774E-02 
1405	 6.91137203500604E-02 
1406	 6.89128624467931E-02 
1407	 6.87316728591411E-02 
1408	 6.85730077685366E-02 
1409	 6.84110459190056E-02 
1410	 6.82413182741335E-02 
1411	 6.81016725323557E-02 
1412	 6.79742249827452E-02 
1413	 6.78634567277955E-02 
1414	 6.77727253449567E-02 
1415	 6.76871602182682E-02 
1416	 6.76107290898919E-02 
1417	 6.75233240632885E-02 
1418	 6.74400269573235E-02 
1419	 6.73849442087364E-02 
1420	 6.73194785706508E-02 
1421	 6.72561873703868E-02 
1422	 6.72125364230858E-02 
1423	 6.71651528349088E-02 
1424	 0.067124816853851 
1425	 6.70989036042521E-02 
1426	 6.70631086493567E-02 
1427	 6.70114122971892E-02 
1428	 6.69917936904745E-02 
1429	 6.69915319248154E-02 
1430	 6.69754705724814E-02 
1431	 6.69732998269444E-02 
1432	 6.69682879641376E-02 
1433	 6.69400214323226E-02 
1434	 6.69349204817902E-02 
1435	 6.69484726007113E-02 
1436	 6.69622172821626E-02 
1437	 6.69884811958164E-02 
1438	 6.70051171838094E-02 
1439	 6.70177076017804E-02 
1440	 6.70403800303014E-02 
1441	 6.70614566510425E-02 
1442	 6.70804111471217E-02 
1443	 6.71051188106878E-02 
1444	 6.71248814664323E-02 
1445	 6.71477258365854E-02 
1446	 6.71797685152654E-02 
1447	 0.067219924730637 
1448	 6.72553630118529E-02 
1449	 6.72704708273643E-02 
1450	 6.72838403734488E-02 
1451	 6.73089240312573E-02 
1452	 6.73358910708376E-02 
1453	 6.73669025231477E-02 
1454	 6.74120383206619E-02 
1455	 6.74378301972408E-02 
1456	 6.74494103831723E-02 
1457	 6.74763410393537E-02 
1458	 6.75079810448262E-02 
1459	 6.75366790310163E-02 
1460	 6.75656632398054E-02 
1461	 6.76033416723736E-02 
1462	 0.067638629560526 
1463	 6.76789491237639E-02 
1464	 6.77329145339731E-02 
1465	 6.77835250630915E-02 
1466	 6.78317220754259E-02 
1467	 6.78827306908207E-02 
1468	 6.79381198511955E-02 
1469	 6.79966366070083E-02 
1470	 6.80611040203686E-02 
1471	 6.81133823704041E-02 
1472	 0.068172057364306 
1473	 6.82337912946541E-02 
1474	 6.82960532956717E-02 
1475	 6.83636419674486E-02 
1476	 6.84351953419416E-02 
1477	 6.85118751000463E-02 
1478	 6.85838220683672E-02 
1479	 6.86530000737855E-02 
1480	 6.87235091144237E-02 
1481	 6.87871183199085E-02 
1482	 6.88572606721105E-02 
1483	 6.89270404647356E-02 
1484	 6.90069982115494E-02 
1485	 6.90993086093062E-02 
1486	 6.91761408338422E-02 
1487	 6.92538687854279E-02 
1488	 6.93245408511395E-02 
1489	 6.93818125817415E-02 
1490	 0.069446894262052 
1491	 0.069512237361692 
1492	 6.95777515474807E-02 
1493	 6.96443060373993E-02 
1494	 6.97079464017936E-02 
1495	 6.97651763657302E-02 
1496	 6.98384383680042E-02 
1497	 0.06992603923254 
1498	 6.99994135803327E-02 
1499	 7.00802154896832E-02 
1500	 7.01518399383146E-02 
1501	 7.01985186391461E-02 
1502	 7.02578824889961E-02 
1503	 7.03267649125261E-02 
1504	 7.03905454703345E-02 
1505	 7.04470944168838E-02 
1506	 7.05190085473653E-02 
1507	 7.05815569129889E-02 
1508	 7.06397685704047E-02 
1509	 7.07048959429881E-02 
1510	 7.07633723563352E-02 
1511	 7.08211895600286E-02 
1512	 7.08837298059846E-02 
1513	 0.070930764810943 
1514	 7.09725878539729E-02 
1515	 7.10328714776416E-02 
1516	 0.071086232605608 
1517	 7.11408738372555E-02 
1518	 7.12075947043473E-02 
1519	 7.12661345115555E-02 
1520	 7.13137867265855E-02 
1521	 7.13674987379355E-02 
1522	 7.14251194888892E-02 
1523	 7.14801804437962E-02 
1524	 7.15388025102343E-02 
1525	 7.15858367729116E-02 
1526	 7.16243107994386E-02 
1527	 7.16691133182284E-02 
1528	 7.17039276474622E-02 
1529	 7.17498691964086E-02 
1530	 7.18100640276453E-02 
1531	 7.18634237493561E-02 
1532	 7.19185588986293E-02 
1533	 7.19679520155329E-02 
1534	 7.20105387131753E-02 
1535	 7.20578294659622E-02 
1536	 7.21057645837088E-02 
1537	 7.21510400335326E-02 
1538	 7.21966914877731E-02 
1539	 7.22431383202056E-02 
1540	 7.22902701867266E-02 
1541	 7.23316001373471E-02 
1542	 7.23733543223736E-02 
1543	 7.24107651381182E-02 
1544	 7.24403871946393E-02 
1545	 7.24709223050878E-02 
1546	 7.24935353823522E-02 
1547	 7.25304988876242E-02 
1548	 7.25664176102832E-02 
1549	 7.25886907586233E-02 
1550	 7.26331096113535E-02 
1551	 7.26721015351081E-02 
1552	 0.072712133243343 
1553	 7.27579185650218E-02 
1554	 7.27755551391401E-02 
1555	 7.27971414182096E-02 
1556	 0.07281699915078 
1557	 7.28339070086403E-02 
1558	 7.28722907305795E-02 
1559	 7.28996401025677E-02 
1560	 7.29304909966435E-02 
1561	 7.29648272785486E-02 
1562	 7.29959206301737E-02 
1563	 7.30226156225328E-02 
1564	 7.30582466195532E-02 
1565	 7.31031222464874E-02 
1566	 7.31277214165765E-02 
1567	 7.31458763753058E-02 
1568	 0.073169285492853 
1569	 7.31829510612386E-02 
1570	 7.31976241495164E-02 
1571	 7.32134160361252E-02 
1572	 7.32381535174683E-02 
1573	 7.32662431257963E-02 
1574	 7.32840076155546E-02 
1575	 7.33040879937468E-02 
1576	 7.33319554738616E-02 
1577	 0.073347884383435 
1578	 7.33737938738968E-02 
1579	 0.073420863916873 
1580	 0.07345695056162 
1581	 7.34916571104257E-02 
1582	 7.35148451784603E-02 
1583	 7.35379614325604E-02 
1584	 7.35521704266081E-02 
1585	 7.35396802249012E-02 
1586	 7.35476523860487E-02 
1587	 7.35597290751718E-02 
1588	 7.35790808885439E-02 
1589	 7.36147088120504E-02 
1590	 7.36421326589945E-02 
1591	 7.36711322243365E-02 
1592	 7.36966843557174E-02 
1593	 7.37227003144759E-02 
1594	 7.37399745586346E-02 
1595	 0.073750577715879 
1596	 0.07376320855986 
1597	 7.37661541849714E-02 
1598	 7.37754068815024E-02 
1599	 0.073791245688446 
1600	 0.073802802141927 
1601	 0.073808872804665 
1602	 7.38235671418106E-02 
1603	 7.38499996223718E-02 
1604	 7.38639499895649E-02 
1605	 7.38772127557586E-02 
1606	 7.38868841695521E-02 
1607	 7.38842080931803E-02 
1608	 7.38793731078705E-02 
1609	 7.38969540527572E-02 
1610	 7.39080102270995E-02 
1611	 7.38981415325165E-02 
1612	 7.39178610943638E-02 
1613	 7.39475548476143E-02 
1614	 7.39683366589528E-02 
1615	 7.39967832246978E-02 
1616	 0.074016463553546 
1617	 7.40115555959879E-02 
1618	 7.39960345545638E-02 
1619	 7.39990914038117E-02 
1620	 7.40110956836476E-02 
1621	 7.40213536914618E-02 
1622	 7.40382751186642E-02 
1623	 7.40533531406636E-02 
1624	 7.40683108397256E-02 
1625	 7.40819371170396E-02 
1626	 7.41012506779602E-02 
1627	 7.41053293145044E-02 
1628	 7.40952624968649E-02 
1629	 7.41046072948661E-02 
1630	 7.41163918435043E-02 
1631	 7.41238731030769E-02 
1632	 7.41420057780088E-02 
1633	 7.41520782816744E-02 
1634	 7.41527929901354E-02 
1635	 7.41530524225306E-02 
1636	 7.41553133078493E-02 
1637	 7.41569101206188E-02 
1638	 0.074149761610291 
1639	 7.41487396145908E-02 
1640	 7.41551718542797E-02 
1641	 7.41570536487391E-02 
1642	 7.41502639163013E-02 
1643	 7.41599128941597E-02 
1644	 7.41828876284305E-02 
1645	 7.41925571302596E-02 
1646	 7.42091267198209E-02 
1647	 7.42100106494538E-02 
1648	 7.41897104638381E-02 
1649	 7.41882634126116E-02 
1650	 7.41911428767992E-02 
1651	 7.41916042744837E-02 
1652	 7.41985338398039E-02 
1653	 7.42022148286645E-02 
1654	 7.42002927147919E-02 
1655	 0.074202607530105 
1656	 7.42158967836271E-02 
1657	 7.42106281180951E-02 
1658	 7.41934138420611E-02 
1659	 7.41826980233592E-02 
1660	 7.41570366982045E-02 
1661	 7.41534039804273E-02 
1662	 7.41673063610861E-02 
1663	 0.074172670803187 
1664	 7.41866799345106E-02 
1665	 7.41915319145991E-02 
1666	 0.074186681846741 
1667	 0.074189623460681 
1668	 7.41920558025106E-02 
1669	 7.41994583491087E-02 
1670	 0.074215202019944 
1671	 7.42229745882429E-02 
1672	 7.42350991968363E-02 
1673	 7.42338332342639E-02 
1674	 0.07421101644491 
1675	 7.42144451460114E-02 
1676	 7.42293694819052E-02 
1677	 7.42316963027597E-02 
1678	 7.42483922428633E-02 
1679	 7.42484873007967E-02 
1680	 0.074226891539358 
1681	 7.42128258393531E-02 
1682	 7.41972273620558E-02 
1683	 7.41872830807531E-02 
1684	 7.41708447173778E-02 
1685	 7.41692688496736E-02 
1686	 7.41873237303829E-02 
1687	 7.41886657525057E-02 
1688	 7.41884920845066E-02 
1689	 7.41894583714833E-02 
1690	 7.41821877510177E-02 
1691	 0.074179614599721 
1692	 7.41799312238492E-02 
1693	 0.074183896984675 
1694	 7.41956750679587E-02 
1695	 7.41917188601628E-02 
1696	 7.41915069489274E-02 
1697	 7.41752137088089E-02 
1698	 7.41241684877216E-02 
1699	 7.41081633959208E-02 
1700	 7.41055243154321E-02 
1701	 7.40989781129001E-02 
1702	 0.074105546678052 
1703	 7.41116048072417E-02 
1704	 7.41170930190148E-02 
1705	 7.41148006722712E-02 
1706	 7.41217721022545E-02 
1707	 7.41124534074455E-02 
1708	 7.40845134286875E-02 
1709	 7.40643022889975E-02 
1710	 7.40384609091283E-02 
1711	 7.40201725398068E-02 
1712	 7.40017714288486E-02 
1713	 7.39912288112761E-02 
1714	 7.39832525677027E-02 
1715	 0.073989758827458 
1716	 0.074018682878819 
1717	 7.40175030626529E-02 
1718	 7.40218492349755E-02 
1719	 7.40038117573017E-02 
1720	 7.39411191904534E-02 
1721	 7.39225516738984E-02 
1722	 7.39191866560679E-02 
1723	 7.39093301554038E-02 
1724	 7.39263267028946E-02 
1725	 0.073908496501296 
1726	 7.38586476607915E-02 
1727	 7.38313952104341E-02 
1728	 7.38037051397795E-02 
1729	 7.37795680676492E-02 
1730	 7.37620762955022E-02 
1731	 7.37542894929112E-02 
1732	 7.37533793422762E-02 
1733	 7.37387877091322E-02 
1734	 7.37353883989109E-02 
1735	 7.37097713081827E-02 
1736	 7.36538561778703E-02 
1737	 7.36269079600237E-02 
1738	 7.36144241330359E-02 
1739	 7.35806742074062E-02 
1740	 7.35451131039439E-02 
1741	 7.35144354110991E-02 
1742	 7.34640401136957E-02 
1743	 0.073440058959801 
1744	 0.073437799902241 
1745	 7.34268352984659E-02 
1746	 7.34216292926178E-02 
1747	 7.33941884042377E-02 
1748	 7.33796132009912E-02 
1749	 7.33351754964269E-02 
1750	 7.33040464450946E-02 
1751	 0.073299121596066 
1752	 7.32787804388387E-02 
1753	 7.32495247765435E-02 
1754	 7.32155711325483E-02 
1755	 7.31751086326882E-02 
1756	 7.31366190583226E-02 
1757	 7.31081928403491E-02 
1758	 7.30950657457009E-02 
1759	 7.30607252565481E-02 
1760	 7.30068172440688E-02 
1761	 7.29837180954463E-02 
1762	 0.072955534226354 
1763	 7.29437639899504E-02 
1764	 7.29479621871515E-02 
1765	 7.29066676315624E-02 
1766	 0.072874151017441 
1767	 7.28570702793628E-02 
1768	 0.072845326769275 
1769	 0.072846845293036 
1770	 7.28192187512952E-02 
1771	 7.27718991921992E-02 
1772	 7.27328484882881E-02 
1773	 7.26850327742463E-02 
1774	 7.26470505172861E-02 
1775	 7.26373721036161E-02 
1776	 7.26039526828617E-02 
1777	 7.25686458419785E-02 
1778	 7.25731041572424E-02 
1779	 0.072565923095652 
1780	 7.25556318675758E-02 
1781	 7.25652032537028E-02 
1782	 7.25547965481663E-02 
1783	 7.25259675419645E-02 
1784	 7.24881873872123E-02 
1785	 7.24236564294343E-02 
1786	 7.23850768242257E-02 
1787	 7.23401228924268E-02 
1788	 0.072320156600707 
1789	 7.23456525175383E-02 
1790	 7.23414704075039E-02 
1791	 7.23279395293643E-02 
1792	 7.23256503078649E-02 
1793	 7.23023022566455E-02 
1794	 7.23000355854415E-02 
1795	 7.23402189588461E-02 
1796	 7.23402311948137E-02 
1797	 7.23233790957864E-02 
1798	 7.23201367068996E-02 
1799	 7.22877558905878E-02 
1800	 7.22840013731078E-02 
1801	 6.92953881507286E-02 
1802	 6.93237694073847E-02 
1803	 6.93489912832077E-02 
1804	 6.93534260514019E-02 
1805	 6.93254390626607E-02 
1806	 6.93164719586659E-02 
1807	 6.93332057272822E-02 
1808	 6.93496390947169E-02 
1809	 6.93996489604612E-02 
1810	 6.94203045193225E-02 
1811	 6.94353299252574E-02 
1812	 6.94328733161833E-02 
1813	 6.94319208979296E-02 
1814	 6.94047282555479E-02 
1815	 6.93996252760775E-02 
1816	 6.94210392553198E-02 
1817	 6.94271802590457E-02 
1818	 6.94260500283043E-02 
1819	 6.94389059628783E-02 
1820	 6.94633201671145E-02 
1821	 6.94715525313426E-02 
1822	 6.94675352080478E-02 
1823	 6.94834456991195E-02 
1824	 6.94685693933734E-02 
1825	 6.94470006773414E-02 
1826	 6.94473619505006E-02 
1827	 6.94233068258869E-02 
1828	 6.94148395198676E-02 
1829	 6.94045386067523E-02 
1830	 0.069422216633763 
1831	 6.94618060284445E-02 
1832	 6.94952925833164E-02 
1833	 6.95260646280423E-02 
1834	 6.95219864083238E-02 
1835	 6.94837354760888E-02 
1836	 6.94685377596653E-02 
1837	 6.94730400111286E-02 
1838	 6.94677102709078E-02 
1839	 6.94615887463311E-02 
1840	 6.94571787851482E-02 
1841	 6.94479888904323E-02 
1842	 6.94305913948159E-02 
1843	 6.94109044040993E-02 
1844	 6.93778498319798E-02 
1845	 6.93452251020279E-02 
1846	 6.93173961008335E-02 
1847	 0.069291493793065 
1848	 0.069274493021078 
1849	 6.92523558490942E-02 
1850	 6.92206638812154E-02 
1851	 6.91814769733714E-02 
1852	 6.91362793838891E-02 
1853	 6.90860861998217E-02 
1854	 6.90332006249288E-02 
1855	 6.89742527186197E-02 
1856	 6.89065458591072E-02 
1857	 6.88268857816048E-02 
1858	 6.87473221378793E-02 
1859	 6.86691747824821E-02 
1860	 0.068582039501573 
1861	 0.068496926272589 
1862	 6.83989005857934E-02 
1863	 0.068268993058299 
1864	 6.81305627564765E-02 
1865	 6.79888788768678E-02 
1866	 6.78391656559418E-02 
1867	 6.76899871796786E-02 
1868	 6.75223223005889E-02 
1869	 6.73275535461685E-02 
1870	 6.71203049725652E-02 
1871	 0.066893858212278 
1872	 6.66513151704689E-02 
1873	 6.63909999416896E-02 
1874	 6.61339327426555E-02 
1875	 6.58469333984802E-02 
1876	 6.55228496656752E-02 
1877	 6.52096744433238E-02 
1878	 6.48529036146139E-02 
1879	 6.44574123215333E-02 
1880	 6.40614376510095E-02 
1881	 6.36481508452666E-02 
1882	 6.32224196716116E-02 
1883	 6.27900345402544E-02 
1884	 6.23390183892326E-02 
1885	 6.18318696320722E-02 
1886	 6.13190028705221E-02 
1887	 6.07835326303691E-02 
1888	 6.02123301201943E-02 
1889	 5.96493115798909E-02 
1890	 5.90826294771219E-02 
1891	 5.85160734524397E-02 
1892	 5.79229902812403E-02 
1893	 5.73557594885339E-02 
1894	 5.68004322856166E-02 
1895	 0.056255243515257 
1896	 5.57060835843831E-02 
1897	 5.51673652153812E-02 
1898	 5.46541355367196E-02 
1899	 5.41583715546836E-02 
1900	 5.36568464925441E-02 
1901	 5.31698697745714E-02 
1902	 5.27221033639588E-02 
1903	 5.22910040308472E-02 
1904	 5.18922159509863E-02 
1905	 5.15264467591507E-02 
1906	 5.12088277611055E-02 
1907	 5.09112737712442E-02 
1908	 5.06037453319431E-02 
1909	 5.03217871407001E-02 
1910	 0.050076015125133 
1911	 4.98263595918839E-02 
1912	 0.04961250408436 
1913	 4.94081102404159E-02 
1914	 4.92196249125156E-02 
1915	 4.90418803297036E-02 
1916	 4.88740559442457E-02 
1917	 4.87269840852762E-02 
1918	 4.86124493550156E-02 
1919	 4.85076226811025E-02 
1920	 4.84191263240987E-02 
1921	 4.83435187970175E-02 
1922	 4.82592148110631E-02 
1923	 4.81915569123823E-02 
1924	 0.048127985213422 
1925	 4.80622621111441E-02 
1926	 4.80220167013774E-02 
1927	 4.79978873321177E-02 
1928	 0.047976966018265 
1929	 4.79827913108633E-02 
1930	 4.80005285032588E-02 
1931	 4.80252450039032E-02 
1932	 4.80671203827083E-02 
1933	 4.81021164712129E-02 
1934	 4.81288196610512E-02 
1935	 4.81539994800048E-02 
1936	 4.81530237333317E-02 
1937	 4.81878115319733E-02 
1938	 4.82440184641767E-02 
1939	 4.82976099019118E-02 
1940	 4.83687429543567E-02 
1941	 4.84294713782104E-02 
1942	 4.85047327851893E-02 
1943	 4.85641848184303E-02 
1944	 4.86275160768844E-02 
1945	 4.87343022740116E-02 
1946	 4.88288403678279E-02 
1947	 4.89308879577481E-02 
1948	 4.90224722848306E-02 
1949	 4.91105362820395E-02 
1950	 4.91998470590399E-02 
1951	 4.92758587994765E-02 
1952	 4.93646250014346E-02 
1953	 4.94800499956289E-02 
1954	 4.96071330261085E-02 
1955	 4.97242135424992E-02 
1956	 4.98359176149919E-02 
1957	 4.99503933604928E-02 
1958	 5.00454886644901E-02 
1959	 5.01725049848306E-02 
1960	 0.050322596034092 
1961	 5.04673502286539E-02 
1962	 5.06303382722086E-02 
1963	 5.07746663289816E-02 
1964	 5.09152264924468E-02 
1965	 5.10458815461366E-02 
1966	 5.11642596844835E-02 
1967	 5.13038948233868E-02 
1968	 5.14301458613596E-02 
1969	 5.15406005660706E-02 
1970	 0.051676307361475 
1971	 5.18241360465326E-02 
1972	 5.19641900999055E-02 
1973	 5.21163519558239E-02 
1974	 5.22661383132688E-02 
1975	 5.24149732094295E-02 
1976	 5.25532132653789E-02 
1977	 5.26955021020577E-02 
1978	 5.28364485475175E-02 
1979	 5.29757351601716E-02 
1980	 5.31117416658405E-02 
1981	 0.053245692828931 
1982	 5.33839812094608E-02 
1983	 5.35160928467261E-02 
1984	 5.36322641747331E-02 
1985	 5.37662218174014E-02 
1986	 0.053905628327873 
1987	 5.40500563693675E-02 
1988	 5.42136137431398E-02 
1989	 5.43646512797608E-02 
1990	 5.44903349135941E-02 
1991	 5.46246464078668E-02 
1992	 5.47732139783088E-02 
1993	 5.49171733656593E-02 
1994	 5.50712767760068E-02 
1995	 5.52571369809894E-02 
1996	 5.54148369421203E-02 
1997	 5.55709410393729E-02 
1998	 5.57062937887391E-02 
1999	 5.58124182574817E-02 
2000	 5.59368966531601E-02 
2001	 5.60552070125636E-02 
2002	 5.61666978706549E-02 
2003	 5.62982397779394E-02 
2004	 5.64525879651277E-02 
2005	 5.65944057352554E-02 
2006	 5.67367347814384E-02 
2007	 5.68771018658975E-02 
2008	 5.70175555068451E-02 
2009	 5.71553375603178E-02 
2010	 0.057298706357727 
2011	 0.057428883843037 
2012	 5.75413375609369E-02 
2013	 5.76697182059633E-02 
2014	 5.78044434985099E-02 
2015	 5.79270911316936E-02 
2016	 0.058065352167 
2017	 0.058195275127554 
2018	 5.83068169859888E-02 
2019	 5.83846780381639E-02 
2020	 5.84974857365906E-02 
2021	 5.86105861887985E-02 
2022	 5.87345253717701E-02 
2023	 5.88976990032536E-02 
2024	 0.059025202209507 
2025	 5.91205329999031E-02 
2026	 5.92417749831852E-02 
2027	 5.93674011076913E-02 
2028	 5.94857269050468E-02 
2029	 5.96131485367227E-02 
2030	 5.97688696761941E-02 
2031	 5.98924257220431E-02 
2032	 0.059994641813427 
2033	 6.01096312053543E-02 
2034	 0.060222126978873 
2035	 6.03339806103622E-02 
2036	 6.04480117285996E-02 
2037	 6.05623649563274E-02 
2038	 0.060678366471055 
2039	 6.07877373412727E-02 
2040	 6.09092992752857E-02 
2041	 6.10007769820305E-02 
2042	 6.10856969725889E-02 
2043	 6.11818911820605E-02 
2044	 6.12669118922677E-02 
2045	 6.13391457866101E-02 
2046	 6.14286317237188E-02 
2047	 6.15254220479439E-02 
2048	 6.16118872661362E-02 
2049	 6.17048819509821E-02 
2050	 6.17915263049684E-02 
2051	 6.18578197699797E-02 
2052	 6.19413313330674E-02 
2053	 6.20383066579703E-02 
2054	 6.21302083059775E-02 
2055	 6.22276856018811E-02 
2056	 6.23232008992587E-02 
2057	 6.24125731628824E-02 
2058	 6.24939523682667E-02 
2059	 0.062582256241891 
2060	 6.26726659573405E-02 
2061	 6.27568874982909E-02 
2062	 6.28427151883712E-02 
2063	 6.29247413710527E-02 
2064	 6.30050134931136E-02 
2065	 0.063075023975784 
2066	 6.31245960817874E-02 
2067	 6.31966186369963E-02 
2068	 6.32700657870192E-02 
2069	 0.063352439824379 
2070	 6.34282932141149E-02 
2071	 6.35228930490153E-02 
2072	 6.35995075881262E-02 
2073	 6.36517629665356E-02 
2074	 6.37266144791299E-02 
2075	 6.38162296067824E-02 
2076	 6.38963228045183E-02 
2077	 6.39750811901851E-02 
2078	 0.064059708616092 
2079	 6.41450667569539E-02 
2080	 6.42285825938852E-02 
2081	 6.43301518677894E-02 
2082	 6.44081227667214E-02 
2083	 6.44653739763988E-02 
2084	 6.45257121647087E-02 
2085	 6.45920902925642E-02 
2086	 6.46449015734909E-02 
2087	 6.47174899362046E-02 
2088	 6.48115453482512E-02 
2089	 6.48901026820359E-02 
2090	 6.49724133371087E-02 
2091	 6.50439610130884E-02 
2092	 6.51044661985505E-02 
2093	 6.51690519161047E-02 
2094	 6.52297470017491E-02 
2095	 6.52884393900133E-02 
2096	 6.53501987122208E-02 
2097	 0.065408961151449 
2098	 6.54539762896221E-02 
2099	 6.55072495961833E-02 
2100	 6.55794975283733E-02 
2101	 6.56653142929689E-02 
2102	 6.57398138929232E-02 
2103	 6.58292542574946E-02 
2104	 6.59064727166708E-02 
2105	 6.59701184860881E-02 
2106	 6.60362960073204E-02 
2107	 6.61020780984665E-02 
2108	 6.61725057730266E-02 
2109	 6.62337100231694E-02 
2110	 6.63075048227314E-02 
2111	 6.64101258713566E-02 
2112	 6.64865198999646E-02 
2113	 6.65459264408721E-02 
2114	 6.66152850859242E-02 
2115	 6.66801571585139E-02 
2116	 6.67228414575951E-02 
2117	 6.67973987579642E-02 
2118	 6.68941571759341E-02 
2119	 6.69775775125539E-02 
2120	 6.70824018446157E-02 
2121	 6.71499253832255E-02 
2122	 6.71915832330051E-02 
2123	 6.72426677533718E-02 
2124	 6.72776537896735E-02 
2125	 6.73160575465183E-02 
2126	 6.73512402832906E-02 
2127	 6.73999850839669E-02 
2128	 6.74617822774467E-02 
2129	 6.75063805235489E-02 
2130	 6.75646986374877E-02 
2131	 6.76021605918752E-02 
2132	 6.76315715350945E-02 
2133	 6.76355487268102E-02 
2134	 6.76507369027794E-02 
2135	 0.067657839487366 
2136	 6.76828510372818E-02 
2137	 6.77135136929261E-02 
2138	 0.067742123900441 
2139	 6.77951017084911E-02 
2140	 6.78172280420473E-02 
2141	 6.78202858206457E-02 
2142	 6.78253621405246E-02 
2143	 0.067817766281461 
2144	 6.78098605440322E-02 
2145	 6.77984350425453E-02 
2146	 6.77869455550111E-02 
2147	 6.77649182615926E-02 
2148	 6.77522819450889E-02 
2149	 6.77430707382855E-02 
2150	 6.77427289698039E-02 
2151	 6.77318916181625E-02 
2152	 0.067724298342645 
2153	 6.77073380445547E-02 
2154	 0.067686326218904 
2155	 0.067654113577834 
2156	 6.75989424974569E-02 
2157	 6.75698998751542E-02 
2158	 6.75578749355589E-02 
2159	 6.75206780801126E-02 
2160	 6.74952218318896E-02 
2161	 6.74514538984416E-02 
2162	 6.73585492100936E-02 
2163	 6.72952144099547E-02 
2164	 6.72414196959542E-02 
2165	 6.71965145416648E-02 
2166	 6.71508548701695E-02 
2167	 6.71133969417054E-02 
2168	 6.70780217646326E-02 
2169	 6.70507224292692E-02 
2170	 6.70082021814621E-02 
2171	 6.69601646013244E-02 
2172	 6.69246041734739E-02 
2173	 6.68789261204944E-02 
2174	 6.68441255319185E-02 
2175	 6.68394416591772E-02 
2176	 6.68064983097964E-02 
2177	 6.67597571527519E-02 
2178	 6.67136265053387E-02 
2179	 6.66497114983232E-02 
2180	 6.65981869386012E-02 
2181	 6.65496549051921E-02 
2182	 6.65044040307653E-02 
2183	 6.64741639567875E-02 
2184	 6.64361391763847E-02 
2185	 6.63809145786282E-02 
2186	 6.63070713041341E-02 
2187	 6.62616264415257E-02 
2188	 6.62160607422976E-02 
2189	 0.066168286423596 
2190	 6.61366298789561E-02 
2191	 6.61035254374251E-02 
2192	 0.066058448213044 
2193	 6.60191234061534E-02 
2194	 0.065997769140706 
2195	 6.59682038185183E-02 
2196	 6.59227084854681E-02 
2197	 6.58903851972168E-02 
2198	 6.58699960482212E-02 
2199	 6.58464742295366E-02 
2200	 6.58252954747318E-02 
2201	 6.58026219176529E-02 
2202	 0.065779225106958 
2203	 6.57604627538256E-02 
2204	 6.57330456113022E-02 
2205	 0.065693589473308 
2206	 6.56806370967514E-02 
2207	 6.56750131867597E-02 
2208	 6.56682571434371E-02 
2209	 6.56814242648051E-02 
2210	 6.56820018727758E-02 
2211	 0.065666346685221 
2212	 6.56703782271283E-02 
2213	 6.56897256990629E-02 
2214	 6.56972512597251E-02 
2215	 6.57180862255921E-02 
2216	 0.065716808871425 
2217	 6.56805700597862E-02 
2218	 6.56769995751256E-02 
2219	 6.56860349021928E-02 
2220	 6.56857300186565E-02 
2221	 6.56820479281075E-02 
2222	 6.57096123711493E-02 
2223	 0.065746377063047 
2224	 6.57428398137675E-02 
2225	 6.57384955769845E-02 
2226	 6.57334261133999E-02 
2227	 6.57389253914023E-02 
2228	 6.57266903401945E-02 
2229	 6.57269692943337E-02 
2230	 6.57461535413001E-02 
2231	 6.57707662735027E-02 
2232	 0.065795214575698 
2233	 0.065806973811872 
2234	 6.58372872367374E-02 
2235	 6.58540244909186E-02 
2236	 6.58454708529125E-02 
2237	 6.58434373457819E-02 
2238	 6.58394373196319E-02 
2239	 6.58460407391238E-02 
2240	 0.065856937569053 
2241	 0.065858415609285 
2242	 6.58575686987411E-02 
2243	 6.58741502102768E-02 
2244	 6.58997482543935E-02 
2245	 6.59068530699972E-02 
2246	 6.59372910569918E-02 
2247	 6.59580763753736E-02 
2248	 6.59509417277714E-02 
2249	 6.58989522466633E-02 
2250	 6.58970931058074E-02 
2251	 6.59070692592508E-02 
2252	 6.59050549797471E-02 
2253	 0.06591562708981 
2254	 6.59314554243133E-02 
2255	 6.59406534650827E-02 
2256	 6.59451031466386E-02 
2257	 6.59747483010285E-02 
2258	 6.59758310625731E-02 
2259	 6.59268239215961E-02 
2260	 6.59236870974387E-02 
2261	 6.59481796205556E-02 
2262	 6.59501708441792E-02 
2263	 6.59580559895431E-02 
2264	 6.59684718346077E-02 
2265	 6.59611040447616E-02 
2266	 0.065968428626649 
2267	 6.60050158511718E-02 
2268	 6.60177441515487E-02 
2269	 6.60186950135984E-02 
2270	 6.60259597553219E-02 
2271	 6.59896088625466E-02 
2272	 6.59701221252015E-02 
2273	 6.59479043437983E-02 
2274	 6.58795206038193E-02 
2275	 6.58738077832622E-02 
2276	 6.59013840019854E-02 
2277	 6.59008074843466E-02 
2278	 6.59252549708139E-02 
2279	 6.59258595747277E-02 
2280	 6.58917661333726E-02 
2281	 6.58758175780527E-02 
2282	 6.58758760446376E-02 
2283	 6.58565698159126E-02 
2284	 6.58177873835027E-02 
2285	 6.57931429775088E-02 
2286	 6.57639812403974E-02 
2287	 6.57486290429168E-02 
2288	 6.57430436952951E-02 
2289	 6.57423880727548E-02 
2290	 6.57401410671292E-02 
2291	 6.57580793002213E-02 
2292	 0.065802865294283 
2293	 6.58411790668662E-02 
2294	 6.59234174742168E-02 
2295	 6.59481458948806E-02 
2296	 6.59565305696278E-02 
2297	 6.59114592650503E-02 
2298	 6.58436772519884E-02 
2299	 6.57538823218754E-02 
2300	 6.56996268762396E-02 
2301	 6.56728203032803E-02 
2302	 6.56632120118481E-02 
2303	 6.56969301386376E-02 
2304	 6.57352958220318E-02 
2305	 6.57334335964166E-02 
2306	 6.56928138631434E-02 
2307	 6.55997912051433E-02 
2308	 6.55500737246328E-02 
2309	 0.065462958559989 
2310	 6.54239360209764E-02 
2311	 6.54396662471797E-02 
2312	 6.54424322823242E-02 
2313	 6.54507133210314E-02 
2314	 6.54658308853044E-02 
2315	 0.0654979052642 
2316	 6.55069174417451E-02 
2317	 0.065522898791484 
2318	 6.55015784950646E-02 
2319	 6.54492700075143E-02 
2320	 6.54098064955085E-02 
2321	 6.53358921231824E-02 
2322	 6.52908219188927E-02 
2323	 6.52710495144748E-02 
2324	 0.065246354764181 
2325	 6.52240080562806E-02 
2326	 6.52077272118822E-02 
2327	 6.52049860061506E-02 
2328	 6.51863168086615E-02 
2329	 6.51710087507878E-02 
2330	 6.51492038004425E-02 
2331	 6.51309429873312E-02 
2332	 6.51126132257467E-02 
2333	 6.50622489263363E-02 
2334	 6.50278681665717E-02 
2335	 6.49676749348309E-02 
2336	 6.49364298232969E-02 
2337	 6.49773282981082E-02 
2338	 6.49829714201954E-02 
2339	 6.49901173878256E-02 
2340	 6.49597597839206E-02 
2341	 6.48490124587295E-02 
2342	 6.47646345506061E-02 
2343	 6.47152722641958E-02 
2344	 6.46372697292876E-02 
2345	 6.45709746094129E-02 
2346	 6.45093123572595E-02 
2347	 6.44855757820479E-02 
2348	 6.44859419455797E-02 
2349	 6.44705448675955E-02 
2350	 6.44931032227289E-02 
2351	 6.44780669171855E-02 
2352	 6.44071870436472E-02 
2353	 6.43663555528717E-02 
2354	 6.43469675990485E-02 
2355	 6.43179116760384E-02 
2356	 6.43128063918997E-02 
2357	 6.42751216076323E-02 
2358	 6.42073340431917E-02 
2359	 6.41275514141993E-02 
2360	 6.39884976949336E-02 
2361	 6.39003867935289E-02 
2362	 6.38615954456653E-02 
2363	 0.06380360315835 
2364	 6.37633833913848E-02 
2365	 6.37073930574089E-02 
2366	 6.36094900068633E-02 
2367	 6.35336571565658E-02 
2368	 6.34709306005178E-02 
2369	 6.34073555291285E-02 
2370	 6.33337538531978E-02 
2371	 6.33059555630029E-02 
2372	 0.063259778279219 
2373	 6.32588958856007E-02 
2374	 6.32487590586306E-02 
2375	 6.30876905416562E-02 
2376	 6.28684907664845E-02 
2377	 6.27123864947478E-02 
2378	 6.26488694058159E-02 
2379	 6.26480968900086E-02 
2380	 6.27092761030681E-02 
2381	 0.062701205461322 
2382	 6.25697581403436E-02 
2383	 6.24828708567259E-02 
2384	 6.24128113596752E-02 
2385	 6.23106130075409E-02 
2386	 6.22828617979005E-02 
2387	 6.22648405619409E-02 
2388	 6.21897012080589E-02 
2389	 6.21320824731438E-02 
2390	 6.20258236377252E-02 
2391	 6.19053660938878E-02 
2392	 6.18100640598169E-02 
2393	 6.17115800158026E-02 
2394	 6.17302981549238E-02 
2395	 0.061680954526995 
2396	 6.15943852140057E-02 
2397	 6.16344499714205E-02 
2398	 6.15224977274758E-02 
2399	 6.13371597318483E-02 
2400	 6.12725364613888E-02 
2401	 6.11917790581403E-02 
2402	 6.10771166058386E-02 
2403	 6.10234760849818E-02 
2404	 6.09745757913958E-02 
2405	 6.08517756993411E-02 
2406	 6.07533984207427E-02 
2407	 6.07448742510276E-02 
2408	 6.06792446710552E-02 
2409	 6.06083712153232E-02 
2410	 6.05336342733549E-02 
2411	 6.03605259665296E-02 
2412	 6.02546373839315E-02 
2413	 6.01407186130807E-02 
2414	 6.00388126638723E-02 
2415	 6.00005538840844E-02 
2416	 5.99411280639417E-02 
2417	 5.98988167197529E-02 
2418	 5.98110353558757E-02 
2419	 5.96951081957625E-02 
2420	 5.95694118516226E-02 
2421	 0.059379422570152 
2422	 5.92429500753749E-02 
2423	 5.91288868596598E-02 
2424	 5.90545684920461E-02 
2425	 5.90212767068644E-02 
2426	 5.89304141834159E-02 
2427	 5.88538435732641E-02 
2428	 5.87912076174347E-02 
2429	 5.87054980204085E-02 
2430	 5.86258316432997E-02 
2431	 5.85583497334441E-02 
2432	 5.85000499432746E-02 
2433	 5.84424143582801E-02 
2434	 5.83417337640028E-02 
2435	 5.82388789572509E-02 
2436	 5.81409673958611E-02 
2437	 5.80075602724492E-02 
2438	 0.057894813127458 
2439	 5.78102605890685E-02 
2440	 5.77305085029659E-02 
2441	 5.76206198078177E-02 
2442	 5.75536062899993E-02 
2443	 5.75789626658248E-02 
2444	 5.74976863974609E-02 
2445	 0.057348520463055 
2446	 5.72087359099672E-02 
2447	 0.056983341621137 
2448	 5.68953203713096E-02 
2449	 5.69175820599351E-02 
2450	 5.69180966620716E-02 
2451	 5.70032016396819E-02 
2452	 5.69031180375757E-02 
2453	 5.66753866713711E-02 
2454	 5.65237879256189E-02 
2455	 5.63221952946926E-02 
2456	 5.62439413115517E-02 
2457	 5.62722975248862E-02 
2458	 0.05618713690567 
2459	 5.60816037681776E-02 
2460	 5.59173106295588E-02 
2461	 5.56827398249598E-02 
2462	 0.055518660931203 
2463	 5.53570482808312E-02 
2464	 5.52210655928667E-02 
2465	 5.51336219110968E-02 
2466	 5.50248409271919E-02 
2467	 5.48956318913295E-02 
2468	 5.48041225440076E-02 
2469	 5.47082778121818E-02 
2470	 5.47028283298378E-02 
2471	 5.46921891937491E-02 
2472	 5.46119383789636E-02 
2473	 5.45373521938655E-02 
2474	 0.054493954030581 
2475	 0.054425592073979 
2476	 0.05434166919279 
2477	 5.42767281386933E-02 
2478	 0.054124422833772 
2479	 5.39771514793706E-02 
2480	 5.37973772181879E-02 
2481	 5.34309882784294E-02 
2482	 5.31734005068132E-02 
2483	 5.30693674355057E-02 
2484	 5.30879392949946E-02 
2485	 0.053227641028285 
2486	 5.32290725076038E-02 
2487	 5.31217170704602E-02 
2488	 5.30538981114979E-02 
2489	 5.30730139492137E-02 
2490	 5.30624552482446E-02 
2491	 0.052990085049512 
2492	 5.29190718763611E-02 
2493	 5.27484157479044E-02 
2494	 5.26025134196088E-02 
2495	 5.26190217761026E-02 
2496	 5.24080203160066E-02 
2497	 5.23659801492155E-02 
2498	 5.25590065470873E-02 
2499	 5.24198166947177E-02 
2500	 5.24319693622964E-02 
