Wavelength	MM_3200001.asd
350	 2.55876563308825E-02 
351	 2.71382211995768E-02 
352	 0.025616741718117 
353	 2.38633443985966E-02 
354	 2.86048033470998E-02 
355	 2.88621793044335E-02 
356	 0.02619114477439 
357	 2.56168717681575E-02 
358	 3.25917397119793E-02 
359	 3.53385894672982E-02 
360	 3.27455422460854E-02 
361	 0.030789690497736 
362	 0.029623653238271 
363	 2.88672480574377E-02 
364	 2.81808467687889E-02 
365	 2.73957912086163E-02 
366	 2.81299282351073E-02 
367	 2.91357914547528E-02 
368	 2.91521399796659E-02 
369	 3.04503472773349E-02 
370	 2.91130293758389E-02 
371	 2.76697842922938E-02 
372	 3.20500074786238E-02 
373	 3.37067061130814E-02 
374	 0.033588329076094 
375	 3.38689558890783E-02 
376	 3.68271212121673E-02 
377	 3.52546729001355E-02 
378	 3.23514852542442E-02 
379	 3.31631591655222E-02 
380	 3.66433747669764E-02 
381	 3.62389092953549E-02 
382	 3.36207088625852E-02 
383	 3.61118930601802E-02 
384	 3.77918524905036E-02 
385	 3.73024188961935E-02 
386	 0.03599849538064 
387	 3.92354586248827E-02 
388	 4.10786395793532E-02 
389	 4.08711622394549E-02 
390	 3.98353645545182E-02 
391	 3.91161113584313E-02 
392	 3.89037700924539E-02 
393	 3.94476555219914E-02 
394	 0.041025865902871 
395	 4.33039204287824E-02 
396	 4.48833726328258E-02 
397	 4.51010910391622E-02 
398	 4.49987264102737E-02 
399	 4.49260044200568E-02 
400	 4.57873315067903E-02 
401	 4.78366520004538E-02 
402	 4.71299322026783E-02 
403	 4.62473971344753E-02 
404	 4.65482608691522E-02 
405	 4.77010564580043E-02 
406	 4.92818339585137E-02 
407	 4.99523258870006E-02 
408	 4.93080950787762E-02 
409	 4.95840590480504E-02 
410	 4.93892218389608E-02 
411	 0.049305091604836 
412	 5.05206661811447E-02 
413	 5.19548959003592E-02 
414	 5.16702717237488E-02 
415	 0.050350405268763 
416	 5.19859950807216E-02 
417	 5.24391137736227E-02 
418	 5.23854965836629E-02 
419	 0.053004048833553 
420	 5.30395260211725E-02 
421	 5.27222814604469E-02 
422	 5.28168458567056E-02 
423	 5.41747571616394E-02 
424	 5.50822165665532E-02 
425	 5.51717544767042E-02 
426	 5.47106995526785E-02 
427	 5.46573073594732E-02 
428	 5.48918810201275E-02 
429	 5.51601100545927E-02 
430	 5.52643904364963E-02 
431	 5.57362763828998E-02 
432	 5.56410212826725E-02 
433	 5.53934409047976E-02 
434	 5.66223993312418E-02 
435	 5.69096733759759E-02 
436	 5.67434871732367E-02 
437	 5.68471640975636E-02 
438	 0.056980846592542 
439	 5.71379174054507E-02 
440	 5.74058571865132E-02 
441	 5.78622403745396E-02 
442	 5.81202545159589E-02 
443	 5.81911304240882E-02 
444	 5.82097154276062E-02 
445	 0.058421338157004 
446	 5.86577781559884E-02 
447	 5.89054950509857E-02 
448	 5.91678052446886E-02 
449	 5.93281881729778E-02 
450	 5.95822543244831E-02 
451	 5.99052458689771E-02 
452	 6.00724889590651E-02 
453	 5.97845883214862E-02 
454	 0.059583506950162 
455	 5.98538106428251E-02 
456	 6.03098275882905E-02 
457	 0.060419018830205 
458	 6.03079013242301E-02 
459	 6.03870842015354E-02 
460	 6.05394402822264E-02 
461	 6.06109245735718E-02 
462	 6.05746917242378E-02 
463	 6.05798623015308E-02 
464	 6.07502734116651E-02 
465	 6.10192428430634E-02 
466	 6.12663432034366E-02 
467	 6.14278802006116E-02 
468	 6.16258509690323E-02 
469	 6.17683713145373E-02 
470	 6.16306566441006E-02 
471	 6.17844640101592E-02 
472	 6.19380732425318E-02 
473	 6.19158556742553E-02 
474	 6.21855748700229E-02 
475	 6.23811662762659E-02 
476	 6.24393679690419E-02 
477	 6.24685157736897E-02 
478	 0.062796165189412 
479	 6.30182330964638E-02 
480	 0.062930781799542 
481	 6.26749438404404E-02 
482	 0.062846576093857 
483	 0.063254149586484 
484	 6.35100985627637E-02 
485	 6.34790264021112E-02 
486	 6.34250273026644E-02 
487	 6.34450223352451E-02 
488	 6.34873733803711E-02 
489	 0.063630008396206 
490	 6.37562378836698E-02 
491	 6.38296731954026E-02 
492	 6.41264316279062E-02 
493	 0.064163368760793 
494	 0.064120965466982 
495	 6.43899489230065E-02 
496	 6.43482793761893E-02 
497	 6.42322104707782E-02 
498	 6.42596226896648E-02 
499	 6.45039869194173E-02 
500	 6.47379378554021E-02 
501	 6.48096394889724E-02 
502	 6.47263353709009E-02 
503	 6.50763051062203E-02 
504	 6.51190143984147E-02 
505	 6.48786537955567E-02 
506	 6.50716835730732E-02 
507	 6.50858478419611E-02 
508	 6.50592088205722E-02 
509	 6.51652091503658E-02 
510	 6.53080171468875E-02 
511	 6.53103766065677E-02 
512	 6.52567950040047E-02 
513	 6.53490906735431E-02 
514	 6.54343723640914E-02 
515	 0.065459327587692 
516	 6.54726209985373E-02 
517	 6.56892084341188E-02 
518	 6.58035124670657E-02 
519	 6.57748829120858E-02 
520	 6.56969609543887E-02 
521	 6.58478006277618E-02 
522	 6.59388881807627E-02 
523	 0.065882803916524 
524	 6.58348413016611E-02 
525	 6.58646173996219E-02 
526	 6.59575477135953E-02 
527	 0.066048258873293 
528	 6.59789032477034E-02 
529	 6.60124057014753E-02 
530	 6.61197074716337E-02 
531	 0.066093549968127 
532	 6.60516292592566E-02 
533	 6.61481916389137E-02 
534	 6.63851341780042E-02 
535	 6.64569789920094E-02 
536	 6.63869052902364E-02 
537	 6.63580403759689E-02 
538	 6.65471209729638E-02 
539	 6.65645295282575E-02 
540	 0.06653956489097 
541	 0.06655713690933 
542	 6.65859462096098E-02 
543	 6.66426609755971E-02 
544	 6.67101309217546E-02 
545	 6.67656201020097E-02 
546	 6.68069159858906E-02 
547	 6.68129057359953E-02 
548	 6.68119691776224E-02 
549	 6.68687584964677E-02 
550	 6.69128142602748E-02 
551	 6.69304160508228E-02 
552	 6.69456241562384E-02 
553	 6.70669609022092E-02 
554	 6.70823234060956E-02 
555	 6.70616037020586E-02 
556	 0.067198302606249 
557	 6.73427134664502E-02 
558	 6.74038178931486E-02 
559	 6.73990529302279E-02 
560	 6.75260203792988E-02 
561	 6.75864412322981E-02 
562	 6.76087903723391E-02 
563	 6.76831131426138E-02 
564	 6.77955866011593E-02 
565	 6.78047777954772E-02 
566	 6.77241451649504E-02 
567	 6.77436489459784E-02 
568	 6.78232600620271E-02 
569	 6.79558918678678E-02 
570	 6.81116154403878E-02 
571	 6.81726668715863E-02 
572	 6.82551147286217E-02 
573	 6.83712107219559E-02 
574	 6.84602126702183E-02 
575	 6.85478044260904E-02 
576	 6.86648893750919E-02 
577	 6.87934709729817E-02 
578	 6.88001842336598E-02 
579	 6.87999609705347E-02 
580	 6.88004998264109E-02 
581	 6.87780922553103E-02 
582	 6.88196245153936E-02 
583	 6.88535263340953E-02 
584	 6.88674430313692E-02 
585	 6.89524426331973E-02 
586	 6.90546998315437E-02 
587	 6.91324190762265E-02 
588	 6.91734119685529E-02 
589	 6.92785012527025E-02 
590	 6.93888554752918E-02 
591	 6.94863982119945E-02 
592	 6.95938456632898E-02 
593	 6.96633262651048E-02 
594	 6.97572338457439E-02 
595	 6.99070088013905E-02 
596	 0.070016764248611 
597	 7.00320407120797E-02 
598	 7.00006009709613E-02 
599	 0.070023768658582 
600	 7.01048039765619E-02 
601	 0.070172100285048 
602	 7.01926670987853E-02 
603	 7.02200804014776E-02 
604	 7.02058263677032E-02 
605	 7.01924908764018E-02 
606	 7.02412161995588E-02 
607	 7.03322729299326E-02 
608	 0.070395030599859 
609	 7.04248587180564E-02 
610	 7.04937130009532E-02 
611	 7.05215130764777E-02 
612	 7.05082774558142E-02 
613	 7.04902830124845E-02 
614	 7.05626983885933E-02 
615	 7.05738182614001E-02 
616	 7.05473378139956E-02 
617	 7.06163000845854E-02 
618	 7.06356040591857E-02 
619	 0.070620552894651 
620	 0.070607432287124 
621	 0.070620681949324 
622	 7.06921568696096E-02 
623	 7.07457648817202E-02 
624	 7.06992814401164E-02 
625	 7.07596359002208E-02 
626	 0.070813804696442 
627	 7.08037719230134E-02 
628	 7.07768093509603E-02 
629	 7.07817619097211E-02 
630	 7.08219302158284E-02 
631	 7.08723004324246E-02 
632	 7.08638431508926E-02 
633	 7.08585688548846E-02 
634	 7.08848455963885E-02 
635	 7.09360950443476E-02 
636	 7.09495229555704E-02 
637	 7.09510715245004E-02 
638	 7.09700521599321E-02 
639	 7.10071212154263E-02 
640	 7.10136812688511E-02 
641	 7.10138769044745E-02 
642	 7.10567551697896E-02 
643	 7.10930244907603E-02 
644	 7.11060035579361E-02 
645	 7.11065932655038E-02 
646	 7.11403696711638E-02 
647	 7.11843611833865E-02 
648	 7.11955752144395E-02 
649	 7.11601858042851E-02 
650	 7.12119814757326E-02 
651	 7.12440787250964E-02 
652	 0.071241863401464 
653	 7.12742290728742E-02 
654	 7.13198200340135E-02 
655	 7.13406765231857E-02 
656	 7.13302760061421E-02 
657	 7.13667469198135E-02 
658	 0.071427218409693 
659	 7.14692395588173E-02 
660	 7.14541437094486E-02 
661	 7.14600070854666E-02 
662	 7.14939665228206E-02 
663	 7.15320544500011E-02 
664	 7.15153341732925E-02 
665	 7.15407550752374E-02 
666	 7.15746865159008E-02 
667	 7.15723337369928E-02 
668	 7.16105887299078E-02 
669	 7.16365103714992E-02 
670	 0.071647846652397 
671	 7.16837456671396E-02 
672	 7.17015334583521E-02 
673	 0.07170816049076 
674	 7.17250299102952E-02 
675	 7.17932625035838E-02 
676	 7.18335668584119E-02 
677	 0.071843019212905 
678	 7.18512383554885E-02 
679	 7.18509025510065E-02 
680	 7.18384535567911E-02 
681	 0.071835020339534 
682	 7.18929614815589E-02 
683	 0.071949743468891 
684	 7.19767292888828E-02 
685	 7.19719911841376E-02 
686	 7.19878987699249E-02 
687	 0.072014758390303 
688	 7.20517559695753E-02 
689	 7.21009142747239E-02 
690	 7.21248876453723E-02 
691	 7.21109176081073E-02 
692	 7.20811862649128E-02 
693	 7.21201756350431E-02 
694	 7.21575526694639E-02 
695	 7.21676766231821E-02 
696	 0.072154125002588 
697	 7.21871481729916E-02 
698	 7.22097736149177E-02 
699	 7.22074656482797E-02 
700	 7.22184465722711E-02 
701	 7.22773091141603E-02 
702	 7.23086256593949E-02 
703	 7.22719474600552E-02 
704	 7.22929094364499E-02 
705	 7.23034126432977E-02 
706	 7.22972546343259E-02 
707	 7.22991497914625E-02 
708	 7.23059243173133E-02 
709	 7.23307974304371E-02 
710	 7.23663957646984E-02 
711	 0.072374840358844 
712	 7.23669696890119E-02 
713	 7.23515369369618E-02 
714	 7.23466396433441E-02 
715	 7.24127555479589E-02 
716	 7.24184838212717E-02 
717	 7.23788935900988E-02 
718	 7.24078792676003E-02 
719	 7.24036301663151E-02 
720	 0.072386322191919 
721	 7.23820458625256E-02 
722	 0.072396125201309 
723	 7.23978604207143E-02 
724	 7.23966937380491E-02 
725	 7.24057770460959E-02 
726	 7.23766771206249E-02 
727	 7.23740334650929E-02 
728	 7.23925469511928E-02 
729	 7.23631096127138E-02 
730	 7.23699317347481E-02 
731	 0.072380170655452 
732	 7.23603133419326E-02 
733	 7.23198041382645E-02 
734	 7.23279892126453E-02 
735	 7.23387324245055E-02 
736	 7.22822354638518E-02 
737	 7.22705060792901E-02 
738	 7.22818450768355E-02 
739	 7.22879562753865E-02 
740	 7.22660392683958E-02 
741	 7.22467827052724E-02 
742	 7.22336840620545E-02 
743	 7.22241234179215E-02 
744	 7.22178370583639E-02 
745	 7.21976660457506E-02 
746	 0.072177444158736 
747	 7.21773550404502E-02 
748	 7.21483444019928E-02 
749	 7.21078692851501E-02 
750	 7.20852794962157E-02 
751	 7.21141372751403E-02 
752	 7.20544966267165E-02 
753	 7.19908240970147E-02 
754	 7.20029523244319E-02 
755	 0.07199740222703 
756	 0.07198791164887 
757	 0.07197143463979 
758	 7.19434114863609E-02 
759	 7.19455458744881E-02 
760	 0.071909593076677 
761	 7.18410480230982E-02 
762	 7.18467738306864E-02 
763	 7.18493271370312E-02 
764	 7.18389984910721E-02 
765	 7.18184531289269E-02 
766	 7.17752800779246E-02 
767	 7.17535856910887E-02 
768	 7.17501571492778E-02 
769	 7.17341048058052E-02 
770	 7.16714735465477E-02 
771	 7.16375693210695E-02 
772	 7.16396315190325E-02 
773	 7.15952018553434E-02 
774	 7.16161310671324E-02 
775	 7.16183795069152E-02 
776	 7.15409157218452E-02 
777	 7.15014747143106E-02 
778	 7.14882090383587E-02 
779	 7.14870548755526E-02 
780	 7.14776138446572E-02 
781	 7.14292087783349E-02 
782	 7.13987978506972E-02 
783	 7.13912016615382E-02 
784	 7.13519467111202E-02 
785	 7.13328164822063E-02 
786	 7.13074610148628E-02 
787	 7.12592419182081E-02 
788	 7.12270798734564E-02 
789	 7.12248036191019E-02 
790	 7.12256383144111E-02 
791	 7.11971200806647E-02 
792	 7.11773545356204E-02 
793	 7.11311830241186E-02 
794	 7.10715746861225E-02 
795	 7.10512555657053E-02 
796	 0.071037326248289 
797	 7.10223894513857E-02 
798	 7.10026044960342E-02 
799	 7.09738888053855E-02 
800	 0.070937036773447 
801	 7.09016197150472E-02 
802	 7.08764593503138E-02 
803	 7.08584726427241E-02 
804	 7.08292335127837E-02 
805	 7.07971188039788E-02 
806	 7.07822773348111E-02 
807	 7.07461653168142E-02 
808	 7.07127693766931E-02 
809	 7.06973214448204E-02 
810	 7.06939668416021E-02 
811	 0.070683626086822 
812	 7.06478941870508E-02 
813	 7.05952616745276E-02 
814	 7.06046678458335E-02 
815	 7.05952379452437E-02 
816	 7.05632650772179E-02 
817	 7.05371058303766E-02 
818	 7.05277702628859E-02 
819	 7.05108161552786E-02 
820	 0.070479682697104 
821	 0.070445976967758 
822	 7.04161499304498E-02 
823	 7.04048705798633E-02 
824	 7.04106752236611E-02 
825	 7.04067954968975E-02 
826	 7.03454717939197E-02 
827	 7.02843776894688E-02 
828	 0.070278083440683 
829	 7.02738066561255E-02 
830	 7.02481034605857E-02 
831	 7.02243315724501E-02 
832	 7.02367142283559E-02 
833	 7.02263457258136E-02 
834	 7.02142022570024E-02 
835	 7.01971520775972E-02 
836	 7.01516673579411E-02 
837	 7.01638932939723E-02 
838	 7.01929128153406E-02 
839	 7.01871699580881E-02 
840	 7.01145883320672E-02 
841	 7.00833612262545E-02 
842	 7.00741839500106E-02 
843	 7.00493475184069E-02 
844	 7.00344678016796E-02 
845	 7.00555998341443E-02 
846	 7.00658779777446E-02 
847	 7.00122472189485E-02 
848	 7.00170815650657E-02 
849	 6.99959254651276E-02 
850	 6.99470822746242E-02 
851	 0.069941760248701 
852	 6.99200543823909E-02 
853	 6.99239830145392E-02 
854	 6.99585470869227E-02 
855	 6.99577317010667E-02 
856	 6.99300173271736E-02 
857	 6.99120944934693E-02 
858	 6.99260714853316E-02 
859	 6.99415393363322E-02 
860	 6.99265388921611E-02 
861	 6.98931929437723E-02 
862	 6.98727861653927E-02 
863	 6.98952265675959E-02 
864	 6.98903764906215E-02 
865	 6.98506593143716E-02 
866	 0.069816246246226 
867	 6.98421132068531E-02 
868	 6.98574121134905E-02 
869	 6.98333139524573E-02 
870	 6.97991957726088E-02 
871	 6.97849374884747E-02 
872	 6.97934621629836E-02 
873	 6.98072867382895E-02 
874	 6.97879015613631E-02 
875	 6.97836799585383E-02 
876	 6.97576668139391E-02 
877	 6.97009041805603E-02 
878	 6.97328717842147E-02 
879	 6.97756188832256E-02 
880	 6.97855510459286E-02 
881	 0.06975544208994 
882	 6.97703235742916E-02 
883	 6.97811210499544E-02 
884	 6.97711412466246E-02 
885	 0.069746964304303 
886	 6.97194866652784E-02 
887	 6.97109490113448E-02 
888	 6.97265551281581E-02 
889	 6.97520479905306E-02 
890	 6.97456671581801E-02 
891	 6.97459729929161E-02 
892	 0.069751762284478 
893	 6.97051510485089E-02 
894	 6.96919225195582E-02 
895	 0.069694944384481 
896	 6.96925063139897E-02 
897	 6.96928435925242E-02 
898	 6.96961400284236E-02 
899	 0.069703622924414 
900	 6.97114328012082E-02 
901	 6.97014792782503E-02 
902	 6.96989320646835E-02 
903	 6.96953262880699E-02 
904	 0.069683804254403 
905	 6.97099208090659E-02 
906	 6.97211011111182E-02 
907	 6.97479361368655E-02 
908	 6.98226098238708E-02 
909	 6.97742561757294E-02 
910	 6.97164349567084E-02 
911	 6.97212882555249E-02 
912	 6.97936766607911E-02 
913	 6.97826749928706E-02 
914	 6.97534509279737E-02 
915	 6.97391021121081E-02 
916	 6.97248647615473E-02 
917	 6.96987508069167E-02 
918	 6.96968945251106E-02 
919	 6.97313011976487E-02 
920	 6.97751903630979E-02 
921	 6.97623582260513E-02 
922	 6.97297848580456E-02 
923	 0.069720524924449 
924	 6.97529673858886E-02 
925	 6.97714260399221E-02 
926	 6.98292569018783E-02 
927	 6.99011462917215E-02 
928	 0.069783887825817 
929	 6.98149062403416E-02 
930	 6.98788649474243E-02 
931	 6.98543564653433E-02 
932	 6.98864054914585E-02 
933	 6.98963484633126E-02 
934	 6.98981086773348E-02 
935	 6.99038824396612E-02 
936	 6.98343700302043E-02 
937	 6.98700132604711E-02 
938	 0.06993947494072 
939	 6.99297940795628E-02 
940	 6.99032183402826E-02 
941	 6.99072186353613E-02 
942	 6.99532095964424E-02 
943	 7.00104503642244E-02 
944	 6.99698712085207E-02 
945	 6.99200185545742E-02 
946	 6.99097825760247E-02 
947	 6.99371329374783E-02 
948	 0.069883300562443 
949	 6.98898108950991E-02 
950	 6.99132232289105E-02 
951	 6.98657948551156E-02 
952	 6.99713222146433E-02 
953	 6.99976029832821E-02 
954	 0.069920798122083 
955	 0.069866735146288 
956	 0.069974661900556 
957	 7.00730219072913E-02 
958	 7.00497133083996E-02 
959	 6.99129828371831E-02 
960	 6.99815956831729E-02 
961	 7.01053723360963E-02 
962	 7.01694714802893E-02 
963	 7.01338521014834E-02 
964	 7.00871983719484E-02 
965	 0.070090969654512 
966	 7.01248029859062E-02 
967	 7.01216828836969E-02 
968	 7.00846882695407E-02 
969	 7.01362978328794E-02 
970	 7.01978850706048E-02 
971	 0.070101379396368 
972	 7.00228573317104E-02 
973	 7.00763748214967E-02 
974	 0.070152426747357 
975	 7.00720599517324E-02 
976	 7.01640238809226E-02 
977	 7.02366227289856E-02 
978	 7.02093893413886E-02 
979	 7.01380733703178E-02 
980	 7.02375434554858E-02 
981	 7.02392672975689E-02 
982	 7.01707470251351E-02 
983	 7.02175699481426E-02 
984	 0.07023651430984 
985	 7.02777138125595E-02 
986	 0.070256831783893 
987	 7.01014201934626E-02 
988	 7.01848226854707E-02 
989	 7.02072995969407E-02 
990	 7.01890400224887E-02 
991	 7.02753249591368E-02 
992	 7.02948808205657E-02 
993	 7.02698078573707E-02 
994	 7.03193133340487E-02 
995	 7.05163541136634E-02 
996	 7.06228361424942E-02 
997	 7.05209828732137E-02 
998	 7.03473681184509E-02 
999	 0.070293055703196 
1000	 7.03227643165833E-02 
1001	 6.96986171307333E-02 
1002	 6.97662212010872E-02 
1003	 6.98306419168802E-02 
1004	 6.98664475570251E-02 
1005	 6.99119218628273E-02 
1006	 6.98943273613674E-02 
1007	 6.98078218914164E-02 
1008	 6.97573131366838E-02 
1009	 6.97536209574709E-02 
1010	 6.97883207357863E-02 
1011	 6.98811435931164E-02 
1012	 6.99001644093658E-02 
1013	 6.97784475157968E-02 
1014	 6.96880208922413E-02 
1015	 6.96742901887145E-02 
1016	 6.97076517047157E-02 
1017	 6.97558670148291E-02 
1018	 6.99100658329734E-02 
1019	 6.99598703111695E-02 
1020	 0.06992981251097 
1021	 6.99183886266902E-02 
1022	 6.98538823829176E-02 
1023	 0.069876277640552 
1024	 0.069910890854217 
1025	 6.98768144760779E-02 
1026	 6.99286294437758E-02 
1027	 6.99589397786886E-02 
1028	 6.99130070417319E-02 
1029	 6.99412820088408E-02 
1030	 6.99566582422356E-02 
1031	 6.99170386704664E-02 
1032	 6.98102943704078E-02 
1033	 6.98185157378399E-02 
1034	 6.98263264230881E-02 
1035	 6.97344861117924E-02 
1036	 6.97136089772225E-02 
1037	 6.96847863969855E-02 
1038	 6.96409560087657E-02 
1039	 6.96529174934357E-02 
1040	 6.96774384516891E-02 
1041	 6.96977383604782E-02 
1042	 6.96917143676892E-02 
1043	 6.96932400638711E-02 
1044	 0.069679374396624 
1045	 6.96586574302682E-02 
1046	 6.96433663702099E-02 
1047	 6.96346717091427E-02 
1048	 6.96194872027795E-02 
1049	 6.96525782289481E-02 
1050	 0.069683277262358 
1051	 6.96882045060602E-02 
1052	 6.96844723951485E-02 
1053	 6.96556512739268E-02 
1054	 6.96498812296282E-02 
1055	 6.96810254864009E-02 
1056	 6.97058017659248E-02 
1057	 6.97311650805858E-02 
1058	 6.97702692974591E-02 
1059	 0.069798614708147 
1060	 6.98127317359491E-02 
1061	 0.069842767430447 
1062	 0.069889512140597 
1063	 0.069947862563218 
1064	 6.99681761536974E-02 
1065	 6.99608391218637E-02 
1066	 0.06997528545306 
1067	 6.99965625492062E-02 
1068	 7.00224801445721E-02 
1069	 7.00761905248382E-02 
1070	 7.01100013082781E-02 
1071	 7.01120041571737E-02 
1072	 7.01392590632295E-02 
1073	 7.01923466924771E-02 
1074	 7.02177605130084E-02 
1075	 7.02466291328335E-02 
1076	 7.02404904799356E-02 
1077	 7.02464009518873E-02 
1078	 7.02613774180611E-02 
1079	 0.070266706828305 
1080	 7.02962735746999E-02 
1081	 7.03086877784646E-02 
1082	 7.03268048123903E-02 
1083	 7.03318324079644E-02 
1084	 7.03255620336522E-02 
1085	 7.03308384832682E-02 
1086	 7.03338875677533E-02 
1087	 7.03383002309877E-02 
1088	 7.03431852653479E-02 
1089	 7.03632829166415E-02 
1090	 7.04089269099066E-02 
1091	 7.04176833546262E-02 
1092	 7.04442088936909E-02 
1093	 7.04990183357403E-02 
1094	 7.04881806723153E-02 
1095	 0.070460546072946 
1096	 7.04279760096436E-02 
1097	 7.04047669101797E-02 
1098	 7.04052648009292E-02 
1099	 7.04360355655399E-02 
1100	 7.04504394102324E-02 
1101	 7.04812808028338E-02 
1102	 7.04913228559561E-02 
1103	 7.04924741788378E-02 
1104	 7.04828046420436E-02 
1105	 7.04584602510942E-02 
1106	 7.04690401290452E-02 
1107	 7.04555867495399E-02 
1108	 7.04462663760558E-02 
1109	 7.04702637836136E-02 
1110	 7.04482333400897E-02 
1111	 7.04505511618289E-02 
1112	 7.04734803813918E-02 
1113	 7.04788207747494E-02 
1114	 7.04792670482844E-02 
1115	 7.04811133513496E-02 
1116	 7.04594196539915E-02 
1117	 7.04588920283396E-02 
1118	 7.04642719087226E-02 
1119	 7.04861090325774E-02 
1120	 7.05212799595313E-02 
1121	 7.05688211070709E-02 
1122	 7.05960834981562E-02 
1123	 7.06094046896559E-02 
1124	 7.06117213038186E-02 
1125	 0.070583186535224 
1126	 7.05810510197342E-02 
1127	 0.070588983380535 
1128	 7.05865307276871E-02 
1129	 7.05818705644316E-02 
1130	 7.05838665075172E-02 
1131	 7.05880638545115E-02 
1132	 7.05804407778741E-02 
1133	 7.05787104246816E-02 
1134	 7.05697850393632E-02 
1135	 7.05429780649464E-02 
1136	 7.05215803617343E-02 
1137	 7.05001586188785E-02 
1138	 7.04843933836672E-02 
1139	 7.04846232462025E-02 
1140	 7.04896780794344E-02 
1141	 7.05070648043401E-02 
1142	 7.05588213829344E-02 
1143	 7.05689505190189E-02 
1144	 0.070567211173202 
1145	 7.05660238152328E-02 
1146	 0.070539995794016 
1147	 7.05309222683203E-02 
1148	 7.05374769014159E-02 
1149	 7.05337336994843E-02 
1150	 7.05242568289284E-02 
1151	 7.05190360580081E-02 
1152	 7.05024662450387E-02 
1153	 7.04924603836017E-02 
1154	 7.04938786908439E-02 
1155	 7.05083028976051E-02 
1156	 0.070501975174214 
1157	 7.04908821691956E-02 
1158	 7.04901977089569E-02 
1159	 7.04871512478528E-02 
1160	 7.04829879833117E-02 
1161	 7.04933874553427E-02 
1162	 7.04897534447515E-02 
1163	 0.070453276301336 
1164	 7.04468792794784E-02 
1165	 7.04505505106624E-02 
1166	 7.04686792190122E-02 
1167	 7.04991817465167E-02 
1168	 7.05175982295684E-02 
1169	 7.05259009186417E-02 
1170	 7.05149754563251E-02 
1171	 7.05305609604561E-02 
1172	 7.05613382125724E-02 
1173	 7.05670936664328E-02 
1174	 7.05720425514023E-02 
1175	 7.05779075030813E-02 
1176	 7.05532368396712E-02 
1177	 7.05552977918307E-02 
1178	 7.05866422241685E-02 
1179	 7.06045236006187E-02 
1180	 7.06256405926128E-02 
1181	 7.06402798170116E-02 
1182	 7.06424491147841E-02 
1183	 7.06482829366799E-02 
1184	 7.06750574357429E-02 
1185	 7.07156964822145E-02 
1186	 7.07384336134545E-02 
1187	 7.07809218969248E-02 
1188	 0.070790549517724 
1189	 7.07574879495782E-02 
1190	 7.07617903166033E-02 
1191	 0.070771437966044 
1192	 7.07856060897826E-02 
1193	 7.08154999980488E-02 
1194	 7.08434963413389E-02 
1195	 7.08810762885818E-02 
1196	 7.09039627162017E-02 
1197	 0.07091535702897 
1198	 0.070938298872316 
1199	 7.09619184481306E-02 
1200	 7.09802580514975E-02 
1201	 7.09950652164429E-02 
1202	 7.10154133779689E-02 
1203	 0.071037109748493 
1204	 7.10440815994317E-02 
1205	 7.10678558861487E-02 
1206	 7.11161972173598E-02 
1207	 7.11441208152196E-02 
1208	 7.11679965240284E-02 
1209	 7.11857458271034E-02 
1210	 0.071183811339662 
1211	 7.12010022754651E-02 
1212	 7.12352660510598E-02 
1213	 7.12507312409197E-02 
1214	 7.12527933580493E-02 
1215	 7.12740269195269E-02 
1216	 7.12984919461189E-02 
1217	 7.13144203312958E-02 
1218	 7.13370591373554E-02 
1219	 7.13850738307669E-02 
1220	 7.14077627901232E-02 
1221	 0.071404785870361 
1222	 0.071425183173064 
1223	 7.14603196524983E-02 
1224	 7.14791622835918E-02 
1225	 7.14954659950384E-02 
1226	 7.15138331670127E-02 
1227	 7.15201009077977E-02 
1228	 7.15343432896185E-02 
1229	 7.15654385261313E-02 
1230	 7.15824477079008E-02 
1231	 7.15845257872262E-02 
1232	 7.15971438650191E-02 
1233	 7.16114556809776E-02 
1234	 7.16245945561558E-02 
1235	 7.16368469817267E-02 
1236	 7.16554399094759E-02 
1237	 7.16694518967197E-02 
1238	 7.16736100089281E-02 
1239	 7.16888362738166E-02 
1240	 7.17217576872675E-02 
1241	 7.17312584922806E-02 
1242	 7.17241349605527E-02 
1243	 7.17317300616805E-02 
1244	 7.17312443234694E-02 
1245	 7.17386584662433E-02 
1246	 7.17580472290048E-02 
1247	 7.17814423137147E-02 
1248	 7.18227292807115E-02 
1249	 7.18355398126529E-02 
1250	 7.18459188108967E-02 
1251	 7.18699760972431E-02 
1252	 7.18830389732583E-02 
1253	 7.18796930564205E-02 
1254	 7.18859918557948E-02 
1255	 7.18980951437896E-02 
1256	 7.19094339639862E-02 
1257	 7.19154079148844E-02 
1258	 7.19278319755791E-02 
1259	 7.19529072953338E-02 
1260	 7.19659882048597E-02 
1261	 7.19795598662375E-02 
1262	 7.19823352517526E-02 
1263	 7.19772450545775E-02 
1264	 7.19672196448786E-02 
1265	 0.07192987725539 
1266	 7.19191132960156E-02 
1267	 7.19200398107694E-02 
1268	 7.19222679193437E-02 
1269	 7.19288534683845E-02 
1270	 7.19524866283804E-02 
1271	 7.19660233933221E-02 
1272	 7.19712518899933E-02 
1273	 7.19855747706651E-02 
1274	 7.20111256771142E-02 
1275	 7.20305096462101E-02 
1276	 7.20467154287412E-02 
1277	 7.20662572302052E-02 
1278	 7.20826917358603E-02 
1279	 7.21048107333313E-02 
1280	 7.21271275459564E-02 
1281	 7.21592773669996E-02 
1282	 7.22002854120731E-02 
1283	 7.22410850068585E-02 
1284	 7.22848674781277E-02 
1285	 7.23409529141786E-02 
1286	 7.23847226203369E-02 
1287	 7.24295423615421E-02 
1288	 7.24686420114411E-02 
1289	 7.24940256601126E-02 
1290	 7.25434380955434E-02 
1291	 7.26029245178255E-02 
1292	 7.26591440760246E-02 
1293	 7.27323558546768E-02 
1294	 7.27913012161687E-02 
1295	 7.28400052006192E-02 
1296	 7.28866564269379E-02 
1297	 7.29319276282683E-02 
1298	 7.29765718309174E-02 
1299	 0.073014330493265 
1300	 0.073054250502772 
1301	 7.31015998980837E-02 
1302	 7.31370166615435E-02 
1303	 7.31622446708434E-02 
1304	 7.31918595479895E-02 
1305	 7.32146968501853E-02 
1306	 7.32368435746039E-02 
1307	 7.32547216724346E-02 
1308	 7.32668515844852E-02 
1309	 7.32856830555257E-02 
1310	 7.33040025218407E-02 
1311	 7.33161766243028E-02 
1312	 7.33333076755265E-02 
1313	 7.33437026989198E-02 
1314	 0.073344538532803 
1315	 7.33480742943373E-02 
1316	 7.33488729094162E-02 
1317	 7.33526326075269E-02 
1318	 7.33558378530291E-02 
1319	 0.073359700407145 
1320	 7.33757347033354E-02 
1321	 7.33767762959747E-02 
1322	 7.33760550584635E-02 
1323	 7.33543470219741E-02 
1324	 7.33408273852817E-02 
1325	 7.33268154216427E-02 
1326	 7.33176157338356E-02 
1327	 0.073322737664206 
1328	 7.33079093243417E-02 
1329	 7.32979184331958E-02 
1330	 7.32895925473402E-02 
1331	 7.32787925989087E-02 
1332	 7.32667104697016E-02 
1333	 7.32567619133989E-02 
1334	 0.073250945177374 
1335	 7.32400222613354E-02 
1336	 0.073237423888014 
1337	 7.32563649836219E-02 
1338	 0.073248966169822 
1339	 7.32278743740428E-02 
1340	 7.32127861299804E-02 
1341	 7.31804368120445E-02 
1342	 7.31630928657684E-02 
1343	 7.31499975375838E-02 
1344	 0.073155287773629 
1345	 7.31584079458411E-02 
1346	 7.31343902747271E-02 
1347	 7.31266117840951E-02 
1348	 7.31239098953025E-02 
1349	 7.31070216030576E-02 
1350	 7.31123378168676E-02 
1351	 7.31174124410238E-02 
1352	 7.31235193937458E-02 
1353	 7.31218811266767E-02 
1354	 7.31328999405655E-02 
1355	 7.31306065627906E-02 
1356	 7.31033385247739E-02 
1357	 7.31037497234805E-02 
1358	 7.31215551070982E-02 
1359	 7.31218267436674E-02 
1360	 7.31352104953358E-02 
1361	 7.31277716311617E-02 
1362	 7.30949051385678E-02 
1363	 7.30723769824906E-02 
1364	 7.30261309352335E-02 
1365	 7.30121876964337E-02 
1366	 7.30275270178407E-02 
1367	 7.30340868161035E-02 
1368	 7.30262483197582E-02 
1369	 0.07303309266046 
1370	 7.29887059027033E-02 
1371	 7.29291662312503E-02 
1372	 7.28944292884313E-02 
1373	 7.28579134155712E-02 
1374	 7.28154028987621E-02 
1375	 0.07277997433555 
1376	 7.27315108167602E-02 
1377	 7.26681700335513E-02 
1378	 7.26073286242442E-02 
1379	 7.25516493401794E-02 
1380	 0.072478252315975 
1381	 7.23919933835726E-02 
1382	 7.23076408352377E-02 
1383	 7.22119784301138E-02 
1384	 7.21204512828631E-02 
1385	 7.20436653410574E-02 
1386	 7.19408774635623E-02 
1387	 7.18202896745791E-02 
1388	 7.17045555412438E-02 
1389	 7.15782426711222E-02 
1390	 7.14491896131027E-02 
1391	 7.13257990679617E-02 
1392	 7.11921055005949E-02 
1393	 7.10391302508441E-02 
1394	 7.08727442675809E-02 
1395	 7.07008937863971E-02 
1396	 7.05152803727643E-02 
1397	 7.03355712756031E-02 
1398	 7.01583603614546E-02 
1399	 6.99719256407819E-02 
1400	 6.97790076928231E-02 
1401	 6.95871826143167E-02 
1402	 6.93834435488674E-02 
1403	 6.91894560703907E-02 
1404	 6.89911346219816E-02 
1405	 6.88170203854706E-02 
1406	 6.86605152731918E-02 
1407	 6.84979155403588E-02 
1408	 6.83425412496796E-02 
1409	 6.82011618452623E-02 
1410	 6.80577345544651E-02 
1411	 6.79269683905598E-02 
1412	 6.78124942288195E-02 
1413	 6.77084299266807E-02 
1414	 6.76073106615371E-02 
1415	 6.75080151447141E-02 
1416	 6.74208682516677E-02 
1417	 6.73463305167817E-02 
1418	 6.72865232490667E-02 
1419	 6.72303178305331E-02 
1420	 6.71740658315154E-02 
1421	 6.71246367244718E-02 
1422	 6.70656054409123E-02 
1423	 6.70183154269701E-02 
1424	 6.69809243874695E-02 
1425	 6.69584885848779E-02 
1426	 0.066927495622452 
1427	 6.69010648394642E-02 
1428	 0.066874296680584 
1429	 0.066839439970122 
1430	 6.68226808362062E-02 
1431	 6.68150515216917E-02 
1432	 6.68092116316647E-02 
1433	 6.68153628238602E-02 
1434	 6.68196459403682E-02 
1435	 6.68252125407505E-02 
1436	 6.68326194039375E-02 
1437	 6.68387260350431E-02 
1438	 6.68518254314632E-02 
1439	 6.68669880836021E-02 
1440	 6.68932254141381E-02 
1441	 6.69129671692342E-02 
1442	 6.69315084250332E-02 
1443	 6.69459323049972E-02 
1444	 6.69550617573473E-02 
1445	 6.69742838579571E-02 
1446	 6.69990898267804E-02 
1447	 6.70352360723124E-02 
1448	 6.70656226135715E-02 
1449	 6.70903051206692E-02 
1450	 6.71203891810014E-02 
1451	 6.71449989702275E-02 
1452	 6.71594957849066E-02 
1453	 6.71883430051548E-02 
1454	 0.067222787967939 
1455	 6.72571413830274E-02 
1456	 6.73004558472768E-02 
1457	 6.73308034161211E-02 
1458	 6.73546223519019E-02 
1459	 0.067382345970143 
1460	 0.067402461647914 
1461	 6.74320641141159E-02 
1462	 6.74715249769036E-02 
1463	 6.75071534164383E-02 
1464	 6.75440860849309E-02 
1465	 6.75810639005581E-02 
1466	 6.76048599355987E-02 
1467	 6.76491058776485E-02 
1468	 6.77154410482522E-02 
1469	 6.77699379018585E-02 
1470	 6.78318433841392E-02 
1471	 6.78865071591234E-02 
1472	 6.79456658524997E-02 
1473	 0.067989192749594 
1474	 6.80378756981906E-02 
1475	 6.81170682214708E-02 
1476	 6.81917321871926E-02 
1477	 6.82492888073111E-02 
1478	 6.83212141161204E-02 
1479	 0.068392289846915 
1480	 6.84449792992196E-02 
1481	 6.85074145515757E-02 
1482	 6.85797443357705E-02 
1483	 6.86578523101108E-02 
1484	 6.87314071337171E-02 
1485	 6.88204331416396E-02 
1486	 6.88933341127056E-02 
1487	 6.89551997952276E-02 
1488	 6.90142480104376E-02 
1489	 6.90631535946031E-02 
1490	 6.91216686004117E-02 
1491	 6.91686949106134E-02 
1492	 6.92372070645608E-02 
1493	 6.93341200495255E-02 
1494	 6.94115315329671E-02 
1495	 6.94905944678524E-02 
1496	 6.95635135648876E-02 
1497	 6.96271021823783E-02 
1498	 6.96853479081093E-02 
1499	 6.97393108748659E-02 
1500	 6.97977658696384E-02 
1501	 0.069844207256759 
1502	 6.98988600373167E-02 
1503	 6.99612698264122E-02 
1504	 7.00252701427861E-02 
1505	 7.00851541260602E-02 
1506	 7.01520250002004E-02 
1507	 7.02187119548111E-02 
1508	 0.070279272864071 
1509	 7.03405804281776E-02 
1510	 7.04099724923583E-02 
1511	 7.04646190743059E-02 
1512	 7.05119791441191E-02 
1513	 7.05668709916445E-02 
1514	 7.06099529639385E-02 
1515	 7.06623673678422E-02 
1516	 7.07276830874575E-02 
1517	 7.07785259494295E-02 
1518	 7.08240996677073E-02 
1519	 7.08677688836128E-02 
1520	 7.09000115612394E-02 
1521	 7.09470788017243E-02 
1522	 7.09999231477107E-02 
1523	 7.10528459691858E-02 
1524	 7.11190879934724E-02 
1525	 7.11665825206039E-02 
1526	 7.12004393534304E-02 
1527	 7.12439258747651E-02 
1528	 7.12808101110526E-02 
1529	 7.13255625997981E-02 
1530	 7.13854220912544E-02 
1531	 7.14292062719777E-02 
1532	 7.14649241525156E-02 
1533	 7.15067038813426E-02 
1534	 7.15433476845236E-02 
1535	 0.071582277480604 
1536	 7.16270483027967E-02 
1537	 7.16688645179908E-02 
1538	 7.17059019168234E-02 
1539	 0.071745317130039 
1540	 7.17874891873288E-02 
1541	 0.071828963724716 
1542	 7.18710619743924E-02 
1543	 7.19125050762278E-02 
1544	 7.19555582089481E-02 
1545	 7.19933045538905E-02 
1546	 7.20249469670862E-02 
1547	 7.20642251666032E-02 
1548	 7.20843430658845E-02 
1549	 7.21075249115167E-02 
1550	 7.21419682848029E-02 
1551	 7.21645544212574E-02 
1552	 0.0721892800697 
1553	 7.22199631717216E-02 
1554	 7.22532800276274E-02 
1555	 7.22895191372698E-02 
1556	 7.23317280447263E-02 
1557	 7.23739124578141E-02 
1558	 7.24032242464125E-02 
1559	 7.24211484995549E-02 
1560	 7.24433154232891E-02 
1561	 7.24603127280337E-02 
1562	 7.24885318594228E-02 
1563	 7.25234421827736E-02 
1564	 7.25518764654772E-02 
1565	 7.25853811733854E-02 
1566	 7.26125013867105E-02 
1567	 7.26257211700507E-02 
1568	 0.072654734749188 
1569	 7.26962565759086E-02 
1570	 7.27235682597265E-02 
1571	 7.27533428504303E-02 
1572	 7.27752572168363E-02 
1573	 7.27841533391961E-02 
1574	 7.27998585943255E-02 
1575	 7.28102423676046E-02 
1576	 0.072832374473628 
1577	 7.28608649585843E-02 
1578	 0.072887278571353 
1579	 7.29297221826003E-02 
1580	 0.07295536605405 
1581	 7.29688693787451E-02 
1582	 7.29829429191758E-02 
1583	 7.29867257427018E-02 
1584	 7.29982262180048E-02 
1585	 7.30104933742517E-02 
1586	 7.30287322783065E-02 
1587	 0.073056257997377 
1588	 7.30741609407195E-02 
1589	 0.073085165481053 
1590	 7.31076988502255E-02 
1591	 7.31363800414257E-02 
1592	 7.31574510427707E-02 
1593	 7.31909677682165E-02 
1594	 7.32073311394206E-02 
1595	 7.31951800305951E-02 
1596	 7.32036439016506E-02 
1597	 7.32197872715136E-02 
1598	 7.32331699134146E-02 
1599	 7.32604548347361E-02 
1600	 7.32755863514331E-02 
1601	 7.32715608278064E-02 
1602	 7.32811629351428E-02 
1603	 7.33001168291728E-02 
1604	 0.073310994452852 
1605	 7.33277551935041E-02 
1606	 7.33388900530208E-02 
1607	 7.33358848687454E-02 
1608	 7.33356476696795E-02 
1609	 7.33556055820241E-02 
1610	 7.33708145186096E-02 
1611	 7.33911506761097E-02 
1612	 7.34096983286253E-02 
1613	 7.34188675366762E-02 
1614	 0.073421748199702 
1615	 0.073418643770934 
1616	 7.34328941578697E-02 
1617	 7.34491824842651E-02 
1618	 7.34608087441123E-02 
1619	 7.34892575943464E-02 
1620	 7.35123736374608E-02 
1621	 7.35177715050239E-02 
1622	 7.35109399681079E-02 
1623	 7.35155238835374E-02 
1624	 7.35104317500064E-02 
1625	 7.35099515790711E-02 
1626	 7.35205980404678E-02 
1627	 7.35244027926294E-02 
1628	 7.35175981750328E-02 
1629	 7.35212296223257E-02 
1630	 7.35304019398545E-02 
1631	 7.35432613555298E-02 
1632	 7.35623240583576E-02 
1633	 7.35714888282218E-02 
1634	 7.35838183877812E-02 
1635	 7.35909758857513E-02 
1636	 7.35902715515381E-02 
1637	 7.35843752720853E-02 
1638	 7.35723966374366E-02 
1639	 7.35726043904247E-02 
1640	 0.073565136110417 
1641	 7.35743101188902E-02 
1642	 7.36057309294743E-02 
1643	 7.36208095979063E-02 
1644	 0.073636836089204 
1645	 7.36428491633342E-02 
1646	 7.36394746272679E-02 
1647	 7.36417514934088E-02 
1648	 7.36421403462377E-02 
1649	 0.0736383365042 
1650	 7.36332981499739E-02 
1651	 7.36304695957064E-02 
1652	 7.36200753403654E-02 
1653	 7.36197778327855E-02 
1654	 7.36313161629837E-02 
1655	 7.36331942246668E-02 
1656	 7.36264615378347E-02 
1657	 7.36360760873454E-02 
1658	 7.36590127883313E-02 
1659	 7.36622736875689E-02 
1660	 7.36684942993894E-02 
1661	 7.36676540171892E-02 
1662	 0.073638933259885 
1663	 7.36381708818866E-02 
1664	 7.36577002970976E-02 
1665	 7.36638934547849E-02 
1666	 7.36756683750668E-02 
1667	 7.36780595207032E-02 
1668	 7.36671296812114E-02 
1669	 7.36669891445215E-02 
1670	 7.36712415425475E-02 
1671	 7.36706418351193E-02 
1672	 7.36668995020608E-02 
1673	 7.36729223725079E-02 
1674	 7.36867077406067E-02 
1675	 7.36859969088702E-02 
1676	 7.36926167460336E-02 
1677	 7.36822490614296E-02 
1678	 7.36383477674971E-02 
1679	 7.36273264637046E-02 
1680	 7.36299894043207E-02 
1681	 7.36262735854921E-02 
1682	 7.36414294269938E-02 
1683	 7.36349400457645E-02 
1684	 7.36034079212907E-02 
1685	 0.073595981989129 
1686	 7.35943451771509E-02 
1687	 7.35916762731963E-02 
1688	 7.36045787773629E-02 
1689	 0.073603412828402 
1690	 7.35905034624533E-02 
1691	 7.35833341399366E-02 
1692	 7.35767922514307E-02 
1693	 7.35686646435521E-02 
1694	 7.35538719851109E-02 
1695	 7.35539133598659E-02 
1696	 7.35700527773452E-02 
1697	 7.35622274952118E-02 
1698	 7.35523792573764E-02 
1699	 7.35395585668465E-02 
1700	 7.34975402854652E-02 
1701	 7.34882205964595E-02 
1702	 7.35040690792931E-02 
1703	 7.35039975207449E-02 
1704	 7.35133575749665E-02 
1705	 7.35080211961417E-02 
1706	 7.34871011760131E-02 
1707	 0.073472472185104 
1708	 7.34496837554005E-02 
1709	 7.34417633394166E-02 
1710	 7.34422396733851E-02 
1711	 7.34420786551301E-02 
1712	 7.34508979722244E-02 
1713	 7.34540924426166E-02 
1714	 0.073461550350273 
1715	 7.34519893885239E-02 
1716	 7.34374747159138E-02 
1717	 7.34171935451301E-02 
1718	 7.33726094772227E-02 
1719	 7.33482694489122E-02 
1720	 0.073325960718647 
1721	 7.33177590406317E-02 
1722	 7.33330237160009E-02 
1723	 7.33253122762504E-02 
1724	 7.33190048984153E-02 
1725	 7.33040376587806E-02 
1726	 7.32616019871838E-02 
1727	 7.32463064097764E-02 
1728	 7.32454273011385E-02 
1729	 7.32391891621161E-02 
1730	 7.32512483020574E-02 
1731	 7.32362348969373E-02 
1732	 7.32022885535186E-02 
1733	 7.31743691109527E-02 
1734	 7.31345421947147E-02 
1735	 7.31043099925439E-02 
1736	 7.30800961571121E-02 
1737	 7.30634744388878E-02 
1738	 7.30510895080376E-02 
1739	 7.30262768712507E-02 
1740	 0.073006337796754 
1741	 7.29766986759175E-02 
1742	 7.29352435201786E-02 
1743	 0.072902020047739 
1744	 7.28579767463615E-02 
1745	 7.28473971904179E-02 
1746	 7.28658544495016E-02 
1747	 0.072822243027705 
1748	 7.28013526812171E-02 
1749	 7.27795306039291E-02 
1750	 0.072730460097017 
1751	 7.27177773948532E-02 
1752	 7.27278747065074E-02 
1753	 7.27049159245771E-02 
1754	 0.072660133142588 
1755	 7.26260805590341E-02 
1756	 7.25871479585084E-02 
1757	 0.072539154148815 
1758	 7.25102823237256E-02 
1759	 7.24808722717273E-02 
1760	 7.24467577718431E-02 
1761	 7.24059111132028E-02 
1762	 7.23668933847551E-02 
1763	 7.23492884541402E-02 
1764	 7.23168681690968E-02 
1765	 7.22958199699715E-02 
1766	 7.22883704449446E-02 
1767	 7.22650762726552E-02 
1768	 7.22509224771056E-02 
1769	 7.22449952775417E-02 
1770	 7.22397989498632E-02 
1771	 0.072225916486971 
1772	 7.22133082250012E-02 
1773	 7.21930057912422E-02 
1774	 7.21451971898695E-02 
1775	 7.20972749411923E-02 
1776	 7.20600688806906E-02 
1777	 0.072033712232775 
1778	 7.20210826869625E-02 
1779	 7.20036318665642E-02 
1780	 7.19778148975696E-02 
1781	 7.19438453127542E-02 
1782	 7.19123721143932E-02 
1783	 7.19160340455284E-02 
1784	 7.19115825408262E-02 
1785	 7.19290136504427E-02 
1786	 7.19191856596431E-02 
1787	 7.18876480886197E-02 
1788	 7.18603628482662E-02 
1789	 7.18131763029152E-02 
1790	 7.17929543486305E-02 
1791	 7.17789810061795E-02 
1792	 7.17717966811395E-02 
1793	 7.17804771795088E-02 
1794	 7.17859198588767E-02 
1795	 7.18041466839509E-02 
1796	 7.18143645330974E-02 
1797	 7.18362625262989E-02 
1798	 7.18375157780907E-02 
1799	 7.18107220051219E-02 
1800	 7.17936082614542E-02 
1801	 6.88509494298158E-02 
1802	 6.88201114569253E-02 
1803	 6.88019165575745E-02 
1804	 6.87964320469134E-02 
1805	 6.87878034895312E-02 
1806	 6.88192933339948E-02 
1807	 6.88607573314961E-02 
1808	 6.88933637953514E-02 
1809	 0.068924857234975 
1810	 6.89500538918818E-02 
1811	 6.89804598380665E-02 
1812	 6.90031413820932E-02 
1813	 6.89963518104892E-02 
1814	 6.89608740528541E-02 
1815	 6.89577575970725E-02 
1816	 6.89575562112175E-02 
1817	 6.89662924543868E-02 
1818	 6.90057430895133E-02 
1819	 0.06902334327818 
1820	 6.90341287590671E-02 
1821	 6.90479123940444E-02 
1822	 6.90473436573524E-02 
1823	 6.90269717265607E-02 
1824	 6.90230235232959E-02 
1825	 0.069015101773627 
1826	 0.069002791182633 
1827	 6.90220355480637E-02 
1828	 6.90333623769256E-02 
1829	 6.90549449508342E-02 
1830	 6.90517819395648E-02 
1831	 6.90484148581344E-02 
1832	 6.90187376119724E-02 
1833	 6.89709418668363E-02 
1834	 6.89574315310065E-02 
1835	 6.89622394222902E-02 
1836	 6.89609238100374E-02 
1837	 6.89829466397432E-02 
1838	 6.90057881537397E-02 
1839	 6.90076425795023E-02 
1840	 6.89886443493273E-02 
1841	 6.89893742764952E-02 
1842	 6.89855337893761E-02 
1843	 6.89552899492441E-02 
1844	 6.89370226417714E-02 
1845	 6.89304895307905E-02 
1846	 6.89203186006055E-02 
1847	 6.88848094598134E-02 
1848	 0.068846993190852 
1849	 6.88199107137182E-02 
1850	 6.87784865105531E-02 
1851	 6.87210378822544E-02 
1852	 6.86840256873065E-02 
1853	 6.86448753691243E-02 
1854	 0.068580416188936 
1855	 6.85254732441537E-02 
1856	 6.84537166479516E-02 
1857	 6.83596832561825E-02 
1858	 6.82885738662043E-02 
1859	 6.82276425749125E-02 
1860	 6.81376373597048E-02 
1861	 6.80405662639887E-02 
1862	 6.79390967480927E-02 
1863	 0.067808358412913 
1864	 0.067663546105104 
1865	 6.75388569428401E-02 
1866	 6.74120674870363E-02 
1867	 6.72802167198859E-02 
1868	 0.067138317506602 
1869	 6.69678519377793E-02 
1870	 6.67807474613135E-02 
1871	 6.65802980987228E-02 
1872	 6.63655704211963E-02 
1873	 6.61260300054247E-02 
1874	 6.58854383704013E-02 
1875	 6.56330847727055E-02 
1876	 6.53522457297832E-02 
1877	 6.50713672140665E-02 
1878	 6.47587341603535E-02 
1879	 6.44009868319137E-02 
1880	 0.064036210961033 
1881	 6.36523750527269E-02 
1882	 6.32413067237376E-02 
1883	 6.28023641377743E-02 
1884	 6.23614722382466E-02 
1885	 0.061885369932564 
1886	 6.14011561683997E-02 
1887	 6.09207304929645E-02 
1888	 6.04225438749356E-02 
1889	 5.99184780137691E-02 
1890	 5.94042763133687E-02 
1891	 5.88799002010726E-02 
1892	 5.83289552043598E-02 
1893	 5.77894649974496E-02 
1894	 5.72464883457314E-02 
1895	 5.67012161363344E-02 
1896	 5.61581753342423E-02 
1897	 5.56393438173459E-02 
1898	 5.51307183257045E-02 
1899	 5.46425338308676E-02 
1900	 5.41834132212064E-02 
1901	 5.37407849088654E-02 
1902	 0.053323960550618 
1903	 5.29406974457179E-02 
1904	 5.25655432896526E-02 
1905	 5.22046268744504E-02 
1906	 5.18720473742779E-02 
1907	 5.15598573912257E-02 
1908	 5.12869751076845E-02 
1909	 5.10292610379604E-02 
1910	 5.07844373899246E-02 
1911	 0.050538602964069 
1912	 5.02986267403141E-02 
1913	 5.00923473987077E-02 
1914	 4.99083270352901E-02 
1915	 4.97400037729433E-02 
1916	 0.049599757113477 
1917	 4.94751518327324E-02 
1918	 4.93509963746341E-02 
1919	 4.92309674700946E-02 
1920	 4.91263419703833E-02 
1921	 0.049031758996883 
1922	 4.89712453224495E-02 
1923	 4.89317801246085E-02 
1924	 4.88831172214981E-02 
1925	 4.88478959184127E-02 
1926	 4.88139439206218E-02 
1927	 4.87749569372621E-02 
1928	 4.87389293018456E-02 
1929	 4.87135084269623E-02 
1930	 4.87049406972099E-02 
1931	 4.87127531071861E-02 
1932	 4.87189926843426E-02 
1933	 4.87414563394546E-02 
1934	 4.87741958511948E-02 
1935	 4.88047903457885E-02 
1936	 4.88302217701388E-02 
1937	 4.88686581039486E-02 
1938	 4.89199777991288E-02 
1939	 4.89654099432778E-02 
1940	 4.90063177631255E-02 
1941	 4.90646001985563E-02 
1942	 4.91197288660132E-02 
1943	 4.91827595370381E-02 
1944	 4.92745458754248E-02 
1945	 4.93570130111202E-02 
1946	 4.94411010563748E-02 
1947	 4.95388084282248E-02 
1948	 4.96237855301636E-02 
1949	 4.96885918932585E-02 
1950	 0.04977205963632 
1951	 4.98587769718319E-02 
1952	 4.99499677561984E-02 
1953	 5.00495031344643E-02 
1954	 0.050171367942974 
1955	 5.02899546074837E-02 
1956	 5.03712525895589E-02 
1957	 5.04778759803776E-02 
1958	 5.05907258567725E-02 
1959	 0.050702273733654 
1960	 5.08268564884502E-02 
1961	 5.09450626000626E-02 
1962	 5.10451567403286E-02 
1963	 5.11589093388973E-02 
1964	 5.12750825899314E-02 
1965	 5.14041338208064E-02 
1966	 0.051539957503278 
1967	 5.16876167302963E-02 
1968	 5.18181040329321E-02 
1969	 5.19391863448743E-02 
1970	 5.20675780831692E-02 
1971	 5.21908758043236E-02 
1972	 5.23171064052724E-02 
1973	 5.24478651228718E-02 
1974	 5.25879623553889E-02 
1975	 5.27395916024169E-02 
1976	 5.28709577007454E-02 
1977	 5.30117385128418E-02 
1978	 5.31485013622058E-02 
1979	 5.32798844680703E-02 
1980	 5.34181198503241E-02 
1981	 5.35519491039742E-02 
1982	 5.36961738757834E-02 
1983	 5.38306198531011E-02 
1984	 5.39494138378098E-02 
1985	 0.05407676358065 
1986	 5.42052738567415E-02 
1987	 5.43358920752857E-02 
1988	 5.44564097106296E-02 
1989	 5.46088414109109E-02 
1990	 5.47520611587903E-02 
1991	 5.48907108882941E-02 
1992	 5.50283104781744E-02 
1993	 5.51605453971331E-02 
1994	 5.53008341015993E-02 
1995	 5.54414608657019E-02 
1996	 5.55853408700289E-02 
1997	 5.57544079909714E-02 
1998	 5.58842979164594E-02 
1999	 5.59807527397376E-02 
2000	 5.61041108884838E-02 
2001	 5.62158276645018E-02 
2002	 5.63271872261177E-02 
2003	 0.056489651874663 
2004	 5.66690263360729E-02 
2005	 5.68163837214517E-02 
2006	 5.69699862652032E-02 
2007	 0.057094741960713 
2008	 5.71826178796094E-02 
2009	 5.72866212294284E-02 
2010	 5.73721588144912E-02 
2011	 5.74780121400521E-02 
2012	 5.75987838897569E-02 
2013	 5.77156069991762E-02 
2014	 5.78300191909254E-02 
2015	 5.79666300488838E-02 
2016	 5.80896993623443E-02 
2017	 5.82117759227491E-02 
2018	 5.83422852697712E-02 
2019	 5.84880676663401E-02 
2020	 5.86090192697178E-02 
2021	 5.87181284040809E-02 
2022	 5.88346540393195E-02 
2023	 5.89412900875281E-02 
2024	 5.90531165973421E-02 
2025	 5.91766269450204E-02 
2026	 5.92957015666919E-02 
2027	 5.94107259727663E-02 
2028	 5.95145225715533E-02 
2029	 5.96354980524129E-02 
2030	 5.97736297292715E-02 
2031	 5.98841392669467E-02 
2032	 5.99899235026386E-02 
2033	 0.060088975465357 
2034	 6.01608309033787E-02 
2035	 6.02559982730586E-02 
2036	 6.03594376975494E-02 
2037	 6.04649878207352E-02 
2038	 6.05804662562733E-02 
2039	 6.06911334943501E-02 
2040	 0.060799759347572 
2041	 0.060919746844599 
2042	 6.10243737010978E-02 
2043	 6.11144823350363E-02 
2044	 6.12041330100748E-02 
2045	 6.12796697285434E-02 
2046	 6.13626691983107E-02 
2047	 6.14427403660493E-02 
2048	 6.15290854801057E-02 
2049	 6.16223357969231E-02 
2050	 0.061709727427932 
2051	 6.17991729087644E-02 
2052	 6.18852386232341E-02 
2053	 6.19646594779504E-02 
2054	 6.20433920567985E-02 
2055	 0.062115895807225 
2056	 6.21961360784145E-02 
2057	 6.22838751351273E-02 
2058	 6.23875094700257E-02 
2059	 6.24598095728758E-02 
2060	 6.25178108720213E-02 
2061	 6.25956138889249E-02 
2062	 0.062653965836916 
2063	 6.27334702695114E-02 
2064	 6.28559608699872E-02 
2065	 6.29471801027049E-02 
2066	 6.30155968507574E-02 
2067	 6.30968701571586E-02 
2068	 6.31779729819088E-02 
2069	 6.32626003341788E-02 
2070	 0.063334712053369 
2071	 6.34071153609167E-02 
2072	 6.34794222454639E-02 
2073	 6.35339495073613E-02 
2074	 6.36079040229659E-02 
2075	 6.37062910197033E-02 
2076	 6.37795177142566E-02 
2077	 6.38403581227834E-02 
2078	 6.39108104170865E-02 
2079	 6.39608158928783E-02 
2080	 6.40367511503756E-02 
2081	 6.41456911645289E-02 
2082	 6.42357427707686E-02 
2083	 6.43287751836319E-02 
2084	 6.44242806679343E-02 
2085	 6.44971676883284E-02 
2086	 6.45547824065975E-02 
2087	 6.46029073960079E-02 
2088	 6.46309814732146E-02 
2089	 6.46711495465544E-02 
2090	 6.46913320071944E-02 
2091	 0.064742767467647 
2092	 6.48132511150789E-02 
2093	 6.48839164542832E-02 
2094	 6.49823583060756E-02 
2095	 6.50575228348633E-02 
2096	 6.51254545899671E-02 
2097	 6.51885774696936E-02 
2098	 0.065223246967158 
2099	 6.52809550690825E-02 
2100	 6.53527845121015E-02 
2101	 6.54363627418533E-02 
2102	 6.55166758477313E-02 
2103	 6.56222569396421E-02 
2104	 6.56988218112049E-02 
2105	 6.57573169151442E-02 
2106	 6.58226280048735E-02 
2107	 6.58770597874959E-02 
2108	 6.59425594617442E-02 
2109	 6.60103646470955E-02 
2110	 6.60830849403298E-02 
2111	 6.61788910894955E-02 
2112	 6.62487115130545E-02 
2113	 6.63046476203621E-02 
2114	 6.63668823277725E-02 
2115	 6.64108313534853E-02 
2116	 6.64223009840372E-02 
2117	 6.64759006668833E-02 
2118	 6.65364869066103E-02 
2119	 6.66065156327526E-02 
2120	 6.67130825567087E-02 
2121	 6.67818897888055E-02 
2122	 6.68354107695086E-02 
2123	 6.68962284903698E-02 
2124	 6.69412796780781E-02 
2125	 6.69955161801621E-02 
2126	 6.70641231752243E-02 
2127	 6.71221496526646E-02 
2128	 6.71788679549253E-02 
2129	 6.72282743355221E-02 
2130	 6.72802035452917E-02 
2131	 6.73126947006575E-02 
2132	 6.73401019118218E-02 
2133	 6.73564808475655E-02 
2134	 6.73709105000157E-02 
2135	 6.73708696333174E-02 
2136	 6.73815577147358E-02 
2137	 6.73911911226208E-02 
2138	 6.74046869645292E-02 
2139	 6.74358748969161E-02 
2140	 6.74410947295246E-02 
2141	 6.74282987430818E-02 
2142	 6.74261331524074E-02 
2143	 6.74085087166603E-02 
2144	 6.74015798697177E-02 
2145	 6.74108096272861E-02 
2146	 6.74150845490253E-02 
2147	 0.067426716397685 
2148	 6.74231304531755E-02 
2149	 6.74175978278617E-02 
2150	 6.74093459759312E-02 
2151	 6.74018887721529E-02 
2152	 0.067391411575965 
2153	 6.73715130212829E-02 
2154	 6.73550705224089E-02 
2155	 6.73220128364928E-02 
2156	 6.72638892910613E-02 
2157	 6.72203632721662E-02 
2158	 0.067170500164298 
2159	 6.71313684939208E-02 
2160	 6.71121913325422E-02 
2161	 6.70743136491279E-02 
2162	 6.70256578705847E-02 
2163	 6.69859056258331E-02 
2164	 6.69396042468321E-02 
2165	 0.066895567961333 
2166	 6.68541380258255E-02 
2167	 0.06683364101076 
2168	 6.67776413948883E-02 
2169	 6.66973432969666E-02 
2170	 0.066635574302488 
2171	 6.65562693608767E-02 
2172	 6.65018003266577E-02 
2173	 6.64710304150616E-02 
2174	 0.06643089175715 
2175	 0.066390795348341 
2176	 6.63613329068353E-02 
2177	 6.63498141191728E-02 
2178	 6.63171557552387E-02 
2179	 6.62782201711206E-02 
2180	 6.62414322692116E-02 
2181	 6.61969995108899E-02 
2182	 6.61442455247003E-02 
2183	 0.06608088184594 
2184	 6.60349954143113E-02 
2185	 6.59888756747425E-02 
2186	 6.59358562616095E-02 
2187	 6.58843537058331E-02 
2188	 6.58475160142861E-02 
2189	 6.58006456657347E-02 
2190	 6.57357992139802E-02 
2191	 6.56861570954423E-02 
2192	 6.56349935716577E-02 
2193	 6.56068614798332E-02 
2194	 6.55989322211618E-02 
2195	 6.55815292465498E-02 
2196	 6.55914022363241E-02 
2197	 6.55761884374938E-02 
2198	 6.55363854175448E-02 
2199	 6.55020975156582E-02 
2200	 6.54539678854297E-02 
2201	 6.54192756216668E-02 
2202	 0.065376612044929 
2203	 6.53639366748221E-02 
2204	 6.53516260776667E-02 
2205	 6.53532868101604E-02 
2206	 6.53529103836033E-02 
2207	 6.53673751303064E-02 
2208	 6.53578410630638E-02 
2209	 0.065330873872479 
2210	 6.53309189725119E-02 
2211	 6.53304330748103E-02 
2212	 6.53357377111129E-02 
2213	 0.065366475040411 
2214	 6.53824716048401E-02 
2215	 6.53882258943513E-02 
2216	 6.53947113470262E-02 
2217	 6.54056090669702E-02 
2218	 6.54123906658252E-02 
2219	 6.54175501134399E-02 
2220	 6.54147215483975E-02 
2221	 6.54072929830262E-02 
2222	 6.53979008773782E-02 
2223	 6.53782636162519E-02 
2224	 6.53500361433912E-02 
2225	 0.065335700513572 
2226	 6.53145935735272E-02 
2227	 6.53260445595678E-02 
2228	 6.53603122295794E-02 
2229	 6.53897996491731E-02 
2230	 6.54472226741788E-02 
2231	 6.54764213722603E-02 
2232	 6.54922707925582E-02 
2233	 6.55061533204948E-02 
2234	 6.55069538223879E-02 
2235	 6.55205339339071E-02 
2236	 0.065541572689647 
2237	 6.55491012094293E-02 
2238	 6.55523464129698E-02 
2239	 6.55608259437935E-02 
2240	 6.55600235068623E-02 
2241	 6.55623816823866E-02 
2242	 6.55761700607183E-02 
2243	 6.55833541048443E-02 
2244	 6.55652986713719E-02 
2245	 6.55844445971698E-02 
2246	 6.56124874332259E-02 
2247	 6.56194185115959E-02 
2248	 6.56318031493999E-02 
2249	 6.56520072314576E-02 
2250	 6.56576365532723E-02 
2251	 6.56573563690988E-02 
2252	 6.56480770203119E-02 
2253	 0.065622021945004 
2254	 6.56060999253365E-02 
2255	 6.55810088218232E-02 
2256	 6.55716581035933E-02 
2257	 6.55837530392559E-02 
2258	 6.55779976545985E-02 
2259	 6.55538971617764E-02 
2260	 6.55593463539602E-02 
2261	 6.55829860108121E-02 
2262	 0.065590406847289 
2263	 6.56153920608062E-02 
2264	 0.065625360621966 
2265	 6.55943256882034E-02 
2266	 6.55954423961434E-02 
2267	 6.56282718573332E-02 
2268	 6.56393101052744E-02 
2269	 6.56548278808632E-02 
2270	 6.56649823858337E-02 
2271	 0.065629700563445 
2272	 6.56321851239875E-02 
2273	 0.065617642063648 
2274	 6.55721843754941E-02 
2275	 6.55714398481959E-02 
2276	 6.55830728673921E-02 
2277	 0.065593452920628 
2278	 6.56437902203136E-02 
2279	 6.56474389370549E-02 
2280	 6.56195475676645E-02 
2281	 6.56141790399599E-02 
2282	 6.55983884311143E-02 
2283	 6.55983318967236E-02 
2284	 0.065617886104932 
2285	 6.56212298673923E-02 
2286	 6.56120773539334E-02 
2287	 6.56175962582724E-02 
2288	 6.56401963168449E-02 
2289	 6.56406087819747E-02 
2290	 6.56406601943719E-02 
2291	 6.56359391614097E-02 
2292	 6.55958625944283E-02 
2293	 6.55890739456599E-02 
2294	 6.56218567868061E-02 
2295	 6.56147929410198E-02 
2296	 6.55978458090732E-02 
2297	 6.55826007903074E-02 
2298	 6.55132104289245E-02 
2299	 6.54838786993246E-02 
2300	 6.55036950723631E-02 
2301	 6.54759269269858E-02 
2302	 0.065462357631311 
2303	 6.54442562709519E-02 
2304	 6.54068694697387E-02 
2305	 0.065386779341998 
2306	 6.53814603924485E-02 
2307	 0.065420338662814 
2308	 6.53967174334884E-02 
2309	 6.53544705706063E-02 
2310	 6.53051356616297E-02 
2311	 0.065186433035186 
2312	 6.51521101930288E-02 
2313	 6.51591430056079E-02 
2314	 6.51676084645263E-02 
2315	 6.52437562659825E-02 
2316	 6.52616815020273E-02 
2317	 6.52619897053622E-02 
2318	 6.52361067340972E-02 
2319	 6.51550176096007E-02 
2320	 6.51031886085964E-02 
2321	 6.50292997953464E-02 
2322	 6.50027651103077E-02 
2323	 6.50248662819299E-02 
2324	 6.50328875819582E-02 
2325	 6.50602462285615E-02 
2326	 6.50795872826045E-02 
2327	 6.51137046332069E-02 
2328	 6.51046038072422E-02 
2329	 6.50815765853542E-02 
2330	 6.50437717349173E-02 
2331	 6.49825833376823E-02 
2332	 0.064919583145378 
2333	 6.48319409190752E-02 
2334	 0.064781572628571 
2335	 6.47543343846093E-02 
2336	 6.47254684897949E-02 
2337	 6.47583284846734E-02 
2338	 0.064777168894947 
2339	 6.47316035849626E-02 
2340	 6.47030429086311E-02 
2341	 6.47052433331021E-02 
2342	 6.46848210730213E-02 
2343	 0.064695614957496 
2344	 6.47205772524072E-02 
2345	 6.47071999333106E-02 
2346	 6.46637945543908E-02 
2347	 6.46128375156346E-02 
2348	 6.45437793313614E-02 
2349	 6.44892490269722E-02 
2350	 6.44044986880602E-02 
2351	 6.43476119064101E-02 
2352	 6.43187005476345E-02 
2353	 6.42826905075127E-02 
2354	 6.42555821603096E-02 
2355	 6.42255539724847E-02 
2356	 6.42017335659953E-02 
2357	 6.41533108297809E-02 
2358	 6.41080350866778E-02 
2359	 6.40386844615042E-02 
2360	 6.39326396344072E-02 
2361	 6.38522984219951E-02 
2362	 6.37401605084762E-02 
2363	 6.36548148653901E-02 
2364	 6.36125786632546E-02 
2365	 0.063558791587461 
2366	 6.35192670966937E-02 
2367	 6.34772168009143E-02 
2368	 6.34239259648803E-02 
2369	 6.33661507344758E-02 
2370	 6.33170074559175E-02 
2371	 6.32298030047567E-02 
2372	 6.31579569794307E-02 
2373	 6.31499073617415E-02 
2374	 6.30781831158397E-02 
2375	 6.30326279085562E-02 
2376	 6.29908616774999E-02 
2377	 6.29020161888651E-02 
2378	 6.28343127879017E-02 
2379	 6.27428893017171E-02 
2380	 6.26739290880988E-02 
2381	 6.25789026301836E-02 
2382	 6.24514821724077E-02 
2383	 6.24389060689071E-02 
2384	 0.062398538723766 
2385	 6.23186714330147E-02 
2386	 6.23679699366697E-02 
2387	 6.23463684996208E-02 
2388	 6.22358310914591E-02 
2389	 6.22096139853219E-02 
2390	 6.20971559261554E-02 
2391	 0.061935256919507 
2392	 0.061857140170743 
2393	 6.17725391892147E-02 
2394	 6.16852213731713E-02 
2395	 6.15780913561407E-02 
2396	 6.14331258203274E-02 
2397	 6.12813931126515E-02 
2398	 6.11639259876695E-02 
2399	 6.11294730518915E-02 
2400	 6.11315327539178E-02 
2401	 6.11326559407277E-02 
2402	 6.10596148075221E-02 
2403	 6.09318142364582E-02 
2404	 6.08244756532531E-02 
2405	 6.07063454806058E-02 
2406	 6.06353538953997E-02 
2407	 6.05570322885128E-02 
2408	 6.04984055946137E-02 
2409	 6.04677784648943E-02 
2410	 6.03604457417729E-02 
2411	 6.03325675384896E-02 
2412	 6.03193666179146E-02 
2413	 6.02015010449646E-02 
2414	 6.00999122665627E-02 
2415	 6.00171863071164E-02 
2416	 5.99382555784095E-02 
2417	 5.98366822023379E-02 
2418	 5.97377403331883E-02 
2419	 5.96774899663575E-02 
2420	 5.95965521747846E-02 
2421	 5.94769497606927E-02 
2422	 5.93663783836674E-02 
2423	 0.059245440287453 
2424	 5.91344713103732E-02 
2425	 5.90007240964125E-02 
2426	 5.89886577155819E-02 
2427	 5.90735540888352E-02 
2428	 5.90888448838392E-02 
2429	 5.91960638450695E-02 
2430	 5.91232013539387E-02 
2431	 5.88693600664603E-02 
2432	 5.87802709694242E-02 
2433	 5.87010504480468E-02 
2434	 0.058576693968809 
2435	 5.85353582294022E-02 
2436	 5.84704709517556E-02 
2437	 5.82975321010174E-02 
2438	 5.81434775071892E-02 
2439	 5.80294281061297E-02 
2440	 5.79215480813642E-02 
2441	 5.78127414799408E-02 
2442	 5.77327671375955E-02 
2443	 5.77103882890358E-02 
2444	 5.76096397543748E-02 
2445	 5.74046809489009E-02 
2446	 5.72883783049797E-02 
2447	 5.71966389343653E-02 
2448	 5.71279043834313E-02 
2449	 0.057150607739111 
2450	 5.71302011180894E-02 
2451	 5.70833043824652E-02 
2452	 5.70273593857705E-02 
2453	 5.69872968113912E-02 
2454	 5.69117365534985E-02 
2455	 5.68144677789855E-02 
2456	 5.66790220898316E-02 
2457	 5.63967302741366E-02 
2458	 5.62829866465158E-02 
2459	 5.63471674971127E-02 
2460	 5.63170530789378E-02 
2461	 5.63540097466766E-02 
2462	 5.63304711914826E-02 
2463	 5.60756444317228E-02 
2464	 5.59669753879048E-02 
2465	 5.60402626288771E-02 
2466	 5.58839821631838E-02 
2467	 0.055602942486179 
2468	 0.055501278695298 
2469	 5.54029197523135E-02 
2470	 5.53561677399316E-02 
2471	 5.53523438379095E-02 
2472	 5.52457118834293E-02 
2473	 5.51277397297519E-02 
2474	 5.51687040083464E-02 
2475	 5.50987858178889E-02 
2476	 5.50323758342189E-02 
2477	 0.054776970807848 
2478	 5.44111656159887E-02 
2479	 5.44051260288762E-02 
2480	 5.43067345055139E-02 
2481	 0.054320373187511 
2482	 5.44693831902615E-02 
2483	 5.41890465703576E-02 
2484	 5.40466943686892E-02 
2485	 5.40924426073563E-02 
2486	 5.39492450050403E-02 
2487	 5.40004210929719E-02 
2488	 5.40613824645774E-02 
2489	 0.053852330489246 
2490	 5.37555840210184E-02 
2491	 5.37635905751474E-02 
2492	 5.37090480280417E-02 
2493	 5.35161885919558E-02 
2494	 5.33805393975026E-02 
2495	 5.33792840092353E-02 
2496	 0.053218473126925 
2497	 5.31953570360131E-02 
2498	 5.33715258921309E-02 
2499	 5.33143043127457E-02 
2500	 0.053249730908135 
